Data from N2 R4 sample 10_Subt2__3__19-30-19-459.txt Node

Date: Wed Aug 27 19:30:19 PDT 2025
User: uwsun
Spectrometer: HDX01956
Trigger mode: 0
Integration Time (sec): 5.000000E-1
Scans to average: 1
Nonlinearity correction enabled: true
Boxcar width: 0
Storing dark spectrum: false
XAxis mode: Wavelengths
Number of Pixels in Spectrum: 2068
>>>>>Begin Spectral Data<<<<<
194.03	366.96684
194.578	359.07727
195.127	354.04291
195.676	357.0581
196.225	351.86027
196.773	401.01877
197.321	595.42165
197.87	777.60591
198.418	833.70487
198.966	821.70526
199.513	807.6047
200.061	840.68086
200.609	804.70956
201.156	786.35557
201.704	754.51205
202.251	753.60832
202.798	797.65905
203.345	824.6032
203.892	835.65583
204.438	857.57159
204.985	833.54436
205.532	819.71696
206.078	860.6155
206.624	903.70931
207.17	768.3618
207.716	829.57664
208.262	871.27366
208.808	899.74064
209.354	847.60079
209.899	823.61302
210.445	857.64815
210.99	854.56883
211.535	808.43957
212.08	846.49423
212.625	859.65913
213.17	809.5848
213.715	823.43124
214.259	859.54762
214.804	907.73025
215.348	834.45233
215.892	836.53339
216.436	827.46553
216.98	849.42374
217.524	841.54915
218.068	849.65231
218.612	792.55839
219.155	802.48198
219.698	749.38903
220.242	696.3596
220.785	761.3875
221.328	712.41917
221.871	723.45414
222.414	694.37363
222.956	764.48207
223.499	806.45601
224.041	743.37378
224.583	774.29019
225.126	800.38931
225.668	778.52435
226.21	759.54976
226.751	785.35995
227.293	800.44147
227.835	668.31222
228.376	723.31475
228.918	783.56125
229.459	765.54508
230	742.42152
230.541	745.35073
231.082	763.46288
231.622	779.41107
232.163	833.60039
232.704	733.45737
233.244	763.54386
233.784	776.4925
234.324	795.39993
234.864	719.30548
235.404	721.36626
235.944	765.43286
236.484	735.46067
237.023	814.51619
237.563	760.38463
238.102	778.42966
238.641	767.55267
239.18	788.45823
239.719	726.45449
240.258	763.32735
240.797	785.45954
241.335	732.42733
241.874	831.19031
242.412	769.46164
242.95	818.55983
243.488	823.46523
244.026	811.44307
244.564	808.26759
245.102	791.37255
245.64	761.4443
246.177	813.41828
246.715	857.59209
247.252	787.39738
247.789	792.10199
248.326	793.51026
248.863	756.2532
249.4	730.27885
249.936	838.27917
250.473	784.40969
251.009	858.547
251.546	778.30826
252.082	789.2933
252.618	773.34691
253.154	847.59532
253.69	762.32665
254.226	775.43449
254.761	819.38451
255.297	783.32922
255.832	777.41959
256.367	757.37462
256.903	879.46216
257.438	811.46245
257.972	795.34238
258.507	867.52386
259.042	814.33775
259.576	882.44585
260.111	795.41015
260.645	864.40759
261.179	926.62231
261.713	838.42094
262.247	899.56459
262.781	875.37032
263.315	817.54851
263.849	835.61732
264.382	854.48177
264.915	844.50541
265.449	911.70686
265.982	842.41773
266.515	819.4995
267.048	879.41971
267.58	807.30966
268.113	920.49162
268.646	882.65771
269.178	868.45688
269.71	829.33643
270.243	876.47756
270.775	863.68596
271.307	865.56799
271.838	873.53843
272.37	888.65184
272.902	936.5825
273.433	857.36847
273.965	826.51121
274.496	917.69788
275.027	897.65747
275.558	864.57372
276.089	918.70184
276.62	873.66851
277.15	892.62976
277.681	871.3664
278.211	906.66788
278.741	928.5097
279.272	886.50662
279.802	936.72581
280.332	946.66092
280.861	954.6584
281.391	910.53342
281.921	885.57344
282.45	907.68767
282.98	925.79447
283.509	920.4774
284.038	990.61996
284.567	959.60794
285.096	927.66106
285.625	945.55768
286.153	966.65015
286.682	979.60412
287.21	915.61432
287.739	958.61369
288.267	969.71695
288.795	1047.00117
289.323	991.67173
289.851	1000.6637
290.378	994.57687
290.906	988.75569
291.433	978.7594
291.961	998.59773
292.488	1019.82353
293.015	993.67239
293.542	961.75743
294.069	998.76527
294.596	1017.74267
295.122	1025.74051
295.649	1028.56785
296.175	991.67353
296.702	1050.75868
297.228	1048.72669
297.754	1016.54488
298.28	1046.6181
298.806	1048.75437
299.332	1057.56525
299.857	1046.59828
300.383	1139.97847
300.908	1063.81593
301.433	1103.83826
301.958	1108.71453
302.483	1052.80909
303.008	1105.81648
303.533	1099.97413
304.058	1059.64166
304.582	1161.81955
305.107	1043.90007
305.631	1096.62385
306.155	1127.71616
306.679	1179.80539
307.203	1187.7793
307.727	1162.81011
308.251	1125.85972
308.775	1099.75968
309.298	1218.87043
309.822	1200.98264
310.345	1288.87365
310.868	1247.90797
311.391	1146.80989
311.914	1279.04157
312.437	1211.65682
312.96	1220.77176
313.482	1256.82784
314.005	1299.05496
314.527	1263.10278
315.049	1282.02036
315.571	1354.74921
316.093	1320.96071
316.615	1311.88227
317.137	1395.69073
317.659	1410.99893
318.18	1479.0572
318.702	1366.82002
319.223	1395.54369
319.744	1449.75103
320.265	1373.9088
320.786	1399.9987
321.307	1524.11191
321.828	1478.76569
322.348	1459.85819
322.869	1462.90482
323.389	1525.12135
323.909	1479.73958
324.43	1552.97797
324.95	1515.74127
325.47	1510.98945
325.989	1580.82102
326.509	1694.80255
327.029	1662.8164
327.548	1610.75262
328.067	1681.95393
328.587	1709.01017
329.106	1640.69403
329.625	1683.15564
330.144	1805.86968
330.662	1782.80285
331.181	1756.76687
331.7	1853.86755
332.218	1784.55323
332.736	1792.74978
333.255	1893.79619
333.773	1935.87113
334.291	1971.04195
334.808	1966.67663
335.326	2017.5618
335.844	2015.68509
336.361	2022.92903
336.879	2032.68019
337.396	2078.75208
337.913	2091.53955
338.43	2225.55093
338.947	2150.56628
339.464	2258.38191
339.981	2222.6664
340.497	2189.74359
341.014	2308.76216
341.53	2253.4593
342.046	2399.69919
342.562	2374.72345
343.078	2316.46487
343.594	2390.557
344.11	2453.52513
344.626	2407.71099
345.141	2523.2773
345.657	2480.21901
346.172	2540.39442
346.687	2587.28244
347.202	2524.09417
347.717	2576.26949
348.232	2635.41138
348.747	2665.14061
349.261	2602.87118
349.776	2704.12502
350.29	2834.34598
350.805	2702.23704
351.319	2686.93096
351.833	2847.88885
352.347	2813.96462
352.861	2840.90268
353.374	2889.7967
353.888	2904.98627
354.401	2816.78389
354.915	2944.62436
355.428	3022.9445
355.941	3122.63427
356.454	2942.48156
356.967	3032.76688
357.48	3090.5153
357.993	3051.84447
358.505	3153.71563
359.018	3269.60665
359.53	3281.54481
360.042	3184.27213
360.554	3226.47488
361.066	3257.55774
361.578	3269.09709
362.09	3228.44352
362.602	3299.10475
363.113	3306.22301
363.625	3472.10037
364.136	3483.96383
364.647	3433.12419
365.158	3508.9824
365.669	3625.06134
366.18	3573.00926
366.691	3479.8044
367.201	3515.06072
367.712	3634.83487
368.222	3713.76382
368.733	3787.50717
369.243	3810.4654
369.753	3887.46253
370.263	4059.58468
370.773	3961.70241
371.282	3935.40344
371.792	4203.27806
372.301	4374.23745
372.811	4412.37028
373.32	4380.88334
373.829	4425.04475
374.338	4604.78631
374.847	4806.78022
375.356	4858.79343
375.865	5071.71881
376.373	5324.82216
376.882	5378.8573
377.39	5401.85947
377.898	5736.08409
378.407	5994.66529
378.915	6168.20548
379.423	6503.55586
379.93	6634.29906
380.438	7140.665
380.946	7404.06448
381.453	7584.11192
381.96	7876.16217
382.468	8409.15327
382.975	9075.78393
383.482	9165.89611
383.989	9282.50879
384.495	9640.33618
385.002	10273.14215
385.509	10843.64524
386.015	11547.42438
386.521	12109.61642
387.028	12532.19304
387.534	13042.2538
388.04	13728.11188
388.546	13656.2699
389.051	14363.36559
389.557	15583.8733
390.063	16781.43014
390.568	17445.54938
391.073	18091.81724
391.578	18753.6657
392.084	19228.00293
392.589	19749.54456
393.093	21481.97833
393.598	23263.19359
394.103	25399.59881
394.607	27667.06291
395.112	29826.53712
395.616	31237.58395
396.12	33831.86457
396.624	37532.0984
397.128	40400.23713
397.632	41694.62106
398.136	40841.6415
398.639	39575.50194
399.143	37072.18751
399.646	33425.07685
400.15	30257.92651
400.653	26744.30161
401.156	22069.35973
401.659	15501.4617
402.162	4304.81735
402.664	865.43837
403.167	0
403.67	0
404.172	0
404.674	0
405.176	0
405.678	0
406.18	0
406.682	0
407.184	0
407.686	0
408.187	0
408.688	0
409.19	0
409.691	0
410.192	0
410.693	0
411.194	0
411.694	11.28237
412.195	3122.18734
412.696	8274.79556
413.196	11824.3934
413.696	13768.63585
414.196	13509.3687
414.696	14514.78924
415.196	16680.3865
415.696	20882.81744
416.196	28662.6172
416.695	36400.56296
417.195	40282.64143
417.694	41360.26869
418.194	42711.87066
418.693	44201.96737
419.192	43983.34693
419.691	43308.23727
420.19	41957.46381
420.688	40753.79687
421.187	39009.29088
421.685	36548.27115
422.184	33147.32838
422.682	28945.1251
423.18	24725.31685
423.678	22225.96151
424.176	20463.59786
424.674	19289.99748
425.172	18427.31146
425.669	17324.4784
426.167	16115.34735
426.664	14520.87306
427.161	13460.16049
427.659	12303.63796
428.156	11732.19826
428.652	11002.43279
429.149	10582.56942
429.646	10122.30234
430.143	9559.1445
430.639	8878.50236
431.135	8445.89009
431.632	8038.78029
432.128	7318.61301
432.624	7098.74842
433.12	6981.63828
433.616	6453.62231
434.111	6451.65316
434.607	6180.07507
435.103	6052.05611
435.598	5741.66293
436.093	5467.99386
436.588	5223.79451
437.083	5005.69773
437.578	4812.68436
438.073	4486.91508
438.568	4510.97617
439.062	4279.77658
439.557	4086.07132
440.051	4036.09394
440.546	3973.19421
441.04	3759.40362
441.534	3677.69979
442.028	3666.54453
442.522	3487.67362
443.015	3516.54879
443.509	3354.86142
444.002	3320.94284
444.496	3285.72518
444.989	3244.09165
445.482	3194.24143
445.975	3142.90297
446.468	3026.82508
446.961	3078.99608
447.454	3061.06886
447.947	2918.32118
448.439	2849.37598
448.931	2932.18425
449.424	2861.61301
449.916	2876.47475
450.408	2815.29544
450.9	2685.67043
451.392	2564.81095
451.884	2615.49828
452.375	2637.99307
452.867	2491.53426
453.358	2509.64049
453.849	2550.41361
454.341	2365.67148
454.832	2364.5752
455.323	2356.96909
455.814	2302.78202
456.304	2243.83009
456.795	2236.76531
457.285	2227.72851
457.776	2278.85158
458.266	2234.04041
458.756	2162.1
459.247	2149.13455
459.737	1968.17966
460.226	1924.97558
460.716	2051.25375
461.206	1878.21587
461.695	1887.48091
462.185	1908.21976
462.674	1934.1687
463.163	1851.12564
463.653	1819.92489
464.142	1850.47405
464.63	1825.44363
465.119	1811.39216
465.608	1757.32219
466.096	1661.19697
466.585	1675.34259
467.073	1593.39358
467.561	1575.43725
468.05	1673.40072
468.538	1629.55358
469.026	1545.43921
469.513	1542.193
470.001	1529.38764
470.489	1516.46303
470.976	1385.3442
471.463	1428.63507
471.951	1415.60842
472.438	1360.49441
472.925	1375.51879
473.412	1254.44882
473.899	1266.37324
474.385	1208.48995
474.872	1262.47121
475.359	1255.59183
475.845	1188.19821
476.331	1041.13444
476.817	1112.50303
477.303	1077.32251
477.789	1058.41544
478.275	1140.61507
478.761	982.32434
479.247	1018.22242
479.732	972.4374
480.218	1001.59665
480.703	974.46929
481.188	990.21949
481.673	909.2273
482.158	881.13791
482.643	857.34902
483.128	878.24265
483.612	806.19451
484.097	787.22704
484.581	830.24593
485.066	746.18762
485.55	701.99758
486.034	766.07522
486.518	771.2139
487.002	741.2374
487.486	762.27153
487.969	687.15202
488.453	637.12172
488.936	634.99167
489.42	695.02285
489.903	701.24371
490.386	631.67329
490.869	616.92548
491.352	639.11879
491.835	582.83445
492.318	644.02889
492.8	517.75951
493.283	594.09533
493.765	565.03211
494.247	500.86838
494.73	545.88037
495.212	530.95519
495.694	452.78748
496.175	529.93899
496.657	497.87346
497.139	421.51016
497.62	487.88778
498.102	460.88173
498.583	412.80193
499.064	349.59369
499.545	432.7562
500.026	394.68313
500.507	420.75572
500.988	388.74838
501.469	376.74963
501.949	391.75834
502.43	376.71061
502.91	310.49791
503.39	351.69246
503.87	345.64547
504.35	322.60318
504.83	333.57841
505.31	321.62554
505.79	309.60359
506.269	305.57062
506.749	346.63565
507.228	295.55519
507.707	347.61297
508.187	293.5517
508.666	306.61887
509.145	279.54007
509.623	278.53517
510.102	287.56913
510.581	330.64476
511.059	295.60715
511.538	313.66102
512.016	261.51007
512.494	312.62261
512.972	320.61899
513.45	308.58522
513.928	256.51086
514.406	331.66252
514.884	283.60055
515.361	298.58003
515.839	302.55285
516.316	259.50928
516.793	253.53595
517.27	295.58527
517.747	319.6858
518.224	271.5178
518.701	230.4187
519.178	286.59353
519.654	306.5956
520.131	276.57304
520.607	218.44999
521.083	225.42886
521.56	300.59282
522.036	262.47163
522.512	251.51101
522.987	292.5716
523.463	309.61619
523.939	263.52373
524.414	332.62222
524.89	320.62433
525.365	270.51176
525.84	305.60426
526.315	242.48247
526.79	307.5647
527.265	267.50125
527.74	268.54848
528.215	327.6339
528.689	316.57732
529.164	314.56148
529.638	261.5616
530.112	338.65851
530.587	224.39474
531.061	297.59144
531.534	255.52033
532.008	300.602
532.482	282.53242
532.956	314.67171
533.429	296.59864
533.903	180.32701
534.376	297.55235
534.849	240.46491
535.322	296.59205
535.795	287.58696
536.268	314.62951
536.741	269.54241
537.213	274.5295
537.686	300.62064
538.158	193.36876
538.631	265.53853
539.103	281.53587
539.575	217.3747
540.047	324.59253
540.519	275.54916
540.991	275.56114
541.463	271.55499
541.934	264.51042
542.406	313.63491
542.877	344.65427
543.348	318.63547
543.82	274.55948
544.291	263.51617
544.762	304.61144
545.233	277.5814
545.703	369.68423
546.174	323.61208
546.645	392.79134
547.115	352.69884
547.585	335.63079
548.056	344.68487
548.526	382.72584
548.996	371.71336
549.466	426.83431
549.935	424.80448
550.405	407.70961
550.875	478.90562
551.344	380.7326
551.814	414.74721
552.283	455.77115
552.752	440.8157
553.221	508.8664
553.69	495.854
554.159	487.93011
554.628	457.78378
555.096	490.96965
555.565	527.9233
556.033	423.78125
556.502	388.75629
556.97	284.50153
557.438	416.80509
557.906	330.64354
558.374	348.67316
558.842	340.68353
559.31	270.50551
559.777	291.60458
560.245	311.6248
560.712	222.43642
561.18	241.45869
561.647	285.54825
562.114	286.56118
562.581	278.58183
563.048	272.53573
563.514	245.51265
563.981	264.52168
564.448	229.45029
564.914	220.43943
565.381	299.58516
565.847	179.3616
566.313	238.47759
566.779	253.49326
567.245	279.5706
567.711	168.34819
568.176	240.46313
568.642	269.5992
569.108	208.44631
569.573	232.46985
570.038	242.43741
570.504	222.42983
570.969	275.59706
571.434	226.4315
571.899	304.6199
572.363	243.4688
572.828	259.49487
573.293	250.49147
573.757	312.60641
574.222	183.35067
574.686	210.40835
575.15	324.65106
575.614	262.51287
576.078	282.56065
576.542	281.53977
577.006	309.58583
577.469	211.43779
577.933	312.59484
578.396	294.60087
578.86	251.49983
579.323	307.62985
579.786	303.54698
580.249	313.61808
580.712	305.63225
581.175	286.60731
581.637	243.47354
582.1	245.45813
582.563	259.46515
583.025	286.60016
583.487	282.48345
583.95	276.50551
584.412	334.58369
584.874	196.40694
585.336	282.57216
585.797	268.48689
586.259	206.41949
586.721	371.74843
587.182	272.53724
587.643	258.49786
588.105	265.5373
588.566	277.49339
589.027	197.40582
589.488	249.485
589.949	283.58455
590.41	281.47024
590.87	264.5114
591.331	279.51036
591.791	275.54355
592.252	258.51485
592.712	278.57667
593.172	324.62643
593.632	268.50226
594.092	260.49642
594.552	202.37183
595.011	293.58211
595.471	277.52798
595.931	325.61436
596.39	269.55214
596.849	318.63252
597.308	278.51226
597.768	301.66157
598.227	277.56343
598.685	244.47582
599.144	255.51182
599.603	240.4865
600.062	292.53698
600.52	245.46948
600.978	282.58392
601.437	246.48155
601.895	236.43158
602.353	311.59481
602.811	261.49966
603.269	289.59695
603.727	259.5357
604.184	244.47786
604.642	305.64017
605.099	313.61779
605.557	362.75359
606.014	321.59551
606.471	313.67782
606.928	338.62877
607.385	352.72691
607.842	493.92287
608.299	426.79684
608.755	404.80283
609.212	323.59533
609.668	420.79416
610.125	369.73345
610.581	355.68785
611.037	329.62924
611.493	235.47778
611.949	293.61363
612.405	338.58975
612.861	303.60957
613.316	252.53115
613.772	231.45765
614.227	305.6249
614.683	340.6218
615.138	250.51882
615.593	317.6439
616.048	284.56884
616.503	273.58767
616.958	295.64812
617.412	291.60809
617.867	247.48683
618.321	288.52695
618.776	266.51873
619.23	243.51004
619.684	208.41025
620.138	227.45036
620.592	238.5164
621.046	179.37372
621.5	239.51979
621.954	252.50264
622.407	265.53361
622.861	209.45783
623.314	243.49359
623.768	188.39452
624.221	218.39383
624.674	189.3946
625.127	234.49798
625.58	216.44346
626.033	229.45411
626.485	158.34882
626.938	229.49614
627.39	201.42654
627.843	169.35848
628.295	222.46915
628.747	179.38665
629.199	219.46332
629.651	208.44381
630.103	150.3195
630.555	194.39019
631.006	143.31286
631.458	169.37037
631.909	154.32517
632.361	177.38692
632.812	90.1972
633.263	115.23573
633.714	111.22588
634.165	108.24561
634.616	101.22936
635.067	82.17337
635.518	115.26137
635.968	185.34919
636.419	137.28692
636.869	100.22797
637.319	80.1761
637.769	136.29434
638.219	122.27835
638.669	107.24752
639.119	84.19644
639.569	113.26337
640.019	98.21853
640.468	100.21615
640.918	101.2328
641.367	118.26324
641.816	37.08044
642.265	81.18096
642.714	111.25074
643.163	119.26827
643.612	100.23925
644.061	123.26057
644.51	77.17302
644.958	105.2338
645.406	25.05921
645.855	37.08969
646.303	58.13185
646.751	103.23343
647.199	96.21336
647.647	78.17782
648.095	78.17825
648.543	88.17814
648.99	80.18833
649.438	42.09633
649.885	54.13161
650.333	83.16259
650.78	124.29508
651.227	80.19104
651.674	97.2201
652.121	92.22053
652.568	58.14004
653.015	86.2149
653.461	79.18673
653.908	41.09409
654.354	27.06367
654.801	86.20229
655.247	85.18235
655.693	20.05128
656.139	76.18107
656.585	74.17529
657.031	83.1936
657.477	39.08392
657.922	57.13055
658.368	71.17385
658.813	131.29834
659.259	87.20914
659.704	102.23769
660.149	87.20493
660.594	42.09926
661.039	23.0528
661.484	82.19364
661.929	89.20613
662.373	-5.01257
662.818	76.18751
663.262	41.09935
663.707	62.15588
664.151	92.22246
664.595	75.18057
665.039	71.17675
665.483	82.20639
665.927	97.22661
666.371	32.07545
666.814	50.1199
667.258	20.04783
667.701	59.12799
668.145	60.14863
668.588	49.12123
669.031	37.088
669.474	103.24873
669.917	54.11992
670.36	73.18133
670.803	80.19082
671.245	63.13428
671.688	10.02429
672.13	46.10482
672.573	97.24559
673.015	32.07735
673.457	92.20141
673.899	90.21779
674.341	83.20021
674.783	111.27139
675.225	31.07613
675.666	71.17398
676.108	126.27503
676.549	85.2013
676.991	143.32052
677.432	84.17183
677.873	112.26355
678.314	64.15493
678.755	90.22
679.196	81.18856
679.637	49.12016
680.078	46.10804
680.518	36.08402
680.959	145.35174
681.399	43.10802
681.839	128.31359
682.28	57.14303
682.72	105.24241
683.16	103.25752
683.6	87.19869
684.039	44.0927
684.479	80.19883
684.919	154.36097
685.358	74.18939
685.798	103.27092
686.237	95.23088
686.676	110.25299
687.115	110.25945
687.554	87.2093
687.993	108.24222
688.432	139.32677
688.871	68.15827
689.309	62.14794
689.748	123.26159
690.186	61.14764
690.625	98.23617
691.063	84.20396
691.501	87.21547
691.939	82.20706
692.377	88.21719
692.815	148.35976
693.253	50.12163
693.69	127.28607
694.128	97.24138
694.565	108.26164
695.003	92.23471
695.44	36.08518
695.877	54.12786
696.314	84.18553
696.751	65.14899
697.188	88.20482
697.625	102.23778
698.061	56.13633
698.498	63.15311
698.934	65.15987
699.371	69.16719
699.807	116.27795
700.243	125.30675
700.679	70.15984
701.115	58.13755
701.551	70.1678
701.987	69.156
702.422	91.21959
702.858	120.28874
703.294	28.06481
703.729	73.18166
704.164	102.24924
704.599	79.17962
705.035	136.31516
705.47	46.11332
705.904	119.28596
706.339	121.2819
706.774	82.19694
707.209	80.18943
707.643	68.16604
708.078	55.13652
708.512	31.07969
708.946	112.26949
709.38	38.09109
709.814	73.17014
710.248	42.10336
710.682	94.22807
711.116	130.31825
711.549	108.28113
711.983	93.21897
712.416	15.03616
712.85	37.09311
713.283	71.17081
713.716	80.20027
714.149	107.25712
714.582	57.12944
715.015	77.19398
715.448	44.11194
715.881	13.0288
716.313	72.17213
716.746	76.18301
717.178	40.09793
717.61	32.08175
718.043	93.2342
718.475	45.11104
718.907	52.13107
719.339	49.11492
719.77	51.1239
720.202	47.11942
720.634	41.10244
721.065	43.10357
721.497	35.08722
721.928	71.1772
722.359	88.21783
722.79	87.21105
723.221	35.08871
723.652	7.01809
724.083	57.13238
724.514	80.18752
724.945	6.0143
725.375	122.29177
725.806	118.29753
726.236	79.20293
726.666	62.14941
727.096	83.20624
727.526	94.24326
727.956	93.21812
728.386	48.11838
728.816	67.17204
729.246	102.25193
729.675	88.22133
730.105	66.16283
730.534	36.08557
730.964	88.22229
731.393	64.15842
731.822	60.15512
732.251	63.16126
732.68	133.31729
733.109	66.16487
733.537	48.11838
733.966	28.0707
734.395	32.07536
734.823	48.1104
735.251	47.11401
735.68	87.21956
736.108	39.10039
736.536	76.18086
736.964	21.05008
737.392	36.09055
737.82	64.15482
738.247	64.15464
738.675	51.12172
739.102	23.05867
739.53	97.25003
739.957	56.14588
740.384	83.20308
740.811	39.1
741.238	51.1252
741.665	25.05971
742.092	109.26103
742.519	66.16671
742.945	69.16801
743.372	34.08518
743.798	59.15182
744.225	62.15009
744.651	80.20345
745.077	48.12086
745.503	51.12451
745.929	79.19049
746.355	82.20194
746.781	74.18672
747.207	80.19374
747.632	66.1654
748.058	88.22165
748.483	46.10795
748.908	38.09616
749.334	82.20402
749.759	41.09871
750.184	29.07104
750.609	30.07456
751.033	72.17095
751.458	68.15483
751.883	50.1249
752.307	40.09607
752.732	60.15269
753.156	63.157
753.58	54.12865
754.005	103.26189
754.429	25.05971
754.853	51.12853
755.277	60.14448
755.7	83.20894
756.124	69.17364
756.548	77.1863
756.971	48.11738
757.394	31.07974
757.818	38.09895
758.241	64.16397
758.664	48.12276
759.087	65.14965
759.51	61.15224
759.933	41.10114
760.356	18.04615
760.778	24.05943
761.201	45.11031
761.623	66.1617
762.046	81.19346
762.468	63.15099
762.89	66.162
763.312	40.09803
763.734	4.00979
764.156	36.08999
764.578	27.06241
765	49.11967
765.421	30.07799
765.843	0
766.264	90.21935
766.686	72.18368
767.107	38.09344
767.528	21.05426
767.949	64.16287
768.37	61.15152
768.791	66.16104
769.212	64.16374
769.632	80.19148
770.053	66.17597
770.473	90.22303
770.894	31.07793
771.314	31.07435
771.734	30.07098
772.154	64.16425
772.575	66.15374
772.994	26.06044
773.414	79.19164
773.834	40.10226
774.254	74.18425
774.673	42.10358
775.093	69.17376
775.512	68.16943
775.931	55.14064
776.351	20.05018
776.77	71.1763
777.189	64.15347
777.607	80.20567
778.026	58.14645
778.445	80.20567
778.864	73.18712
779.282	66.1608
779.701	14.03549
780.119	69.17612
780.537	-2.00508
780.955	72.18453
781.373	25.06233
781.791	-2.0046
782.209	14.03248
782.627	46.12204
783.045	-5.01172
783.462	92.23809
783.88	20.05249
784.297	88.22213
784.715	91.23903
785.132	42.10328
785.549	-19.04799
785.966	10.02549
786.383	53.1328
786.8	25.05889
787.217	47.11311
787.633	21.05358
788.05	69.16385
788.466	40.09391
788.883	71.18454
789.299	53.12905
789.715	58.14252
790.131	43.10778
790.547	-1.00252
790.963	28.06987
791.379	60.15248
791.795	29.06738
792.21	28.06548
792.626	26.0627
793.041	73.18192
793.457	59.14634
793.872	4.00958
794.287	55.13482
794.702	80.19629
795.117	-9.02279
795.532	29.07405
795.947	26.06251
796.362	64.15201
796.776	62.14379
797.191	65.16069
797.605	61.14736
798.02	32.07872
798.434	37.08304
798.848	66.16409
799.262	11.02773
799.676	48.11699
800.09	61.1518
800.504	37.09103
800.918	17.04006
801.331	22.05727
801.745	67.15714
802.158	-19.04788
802.572	62.1497
802.985	34.08218
803.398	67.16119
803.811	25.06379
804.224	16.03994
804.637	14.0339
805.05	-14.03296
805.462	38.09334
805.875	39.10272
806.288	36.08885
806.7	9.02279
807.112	-21.04893
807.525	24.05937
807.937	38.09609
808.349	51.12853
808.761	56.13979
809.173	71.17436
809.584	65.16016
809.996	16.03969
810.408	70.18297
810.819	60.14295
811.231	140.36655
811.642	175.41652
812.053	203.47014
812.464	244.54655
812.875	211.51528
813.286	94.23617
813.697	54.12221
814.108	66.16007
814.519	55.12399
814.929	79.20108
815.34	66.16092
815.75	78.1992
816.16	33.08212
816.571	24.06241
816.981	46.10997
817.391	134.32402
817.801	47.11828
818.211	-26.0619
818.62	44.10636
819.03	11.02713
819.44	70.18103
819.849	55.13876
820.259	53.136
820.668	36.09016
821.077	34.08576
821.486	35.08484
821.895	57.13962
822.304	1.00266
822.713	51.12251
823.122	55.13826
823.531	25.06033
823.939	57.14035
824.348	66.16182
824.756	65.16304
825.164	64.16103
825.573	61.1529
825.981	39.09755
826.389	18.04514
826.797	41.10344
827.205	66.15422
827.612	52.12811
828.02	76.18197
828.428	41.10484
828.835	99.26233
829.243	34.08088
829.65	55.13717
830.057	35.08519
830.464	72.17509
830.871	68.16294
831.278	111.27048
831.685	51.11413
832.092	33.0811
832.499	55.12323
832.905	5.01269
833.312	31.07086
833.718	61.1518
834.124	-13.02998
834.531	32.08086
834.937	67.17282
835.343	42.10141
835.749	89.20694
836.155	56.14792
836.561	40.09963
836.966	1.00244
837.372	44.11285
837.777	-3.00751
838.183	50.11196
838.588	50.12598
838.993	73.17782
839.399	13.0324
839.804	12.02999
840.209	61.15707
840.613	48.10792
841.018	-22.05626
841.423	57.14723
841.828	38.09735
842.232	-16.03965
842.637	4.00954
843.041	52.13434
843.445	62.15689
843.849	37.09228
844.253	65.15453
844.657	20.05086
845.061	2.00459
845.465	49.12034
845.869	22.05094
846.272	61.15213
846.676	22.05338
847.079	24.0617
847.483	120.29769
847.886	-13.03139
848.289	53.14311
848.692	28.07106
849.095	55.13297
849.498	13.03254
849.901	25.05825
850.304	-8.01929
850.707	55.14019
851.109	-4.01003
851.512	37.09161
851.914	16.04108
852.316	-18.04595
852.718	-22.05733
853.121	14.03471
853.523	16.03765
853.925	16.04232
854.326	25.06366
854.728	24.06213
855.13	48.12559
855.531	26.06301
855.933	31.07424
856.334	21.05319
856.736	48.10943
857.137	57.13447
857.538	41.10403
857.939	2.00501
858.34	-1.00244
858.741	19.04962
859.142	11.02654
859.542	17.04535
859.943	31.07728
860.343	28.0704
860.744	27.06584
861.144	44.10804
861.544	65.1588
861.945	54.13674
862.345	73.17855
862.745	25.06294
863.145	36.08577
863.544	8.02037
863.944	-12.02843
864.344	51.1265
864.743	59.14538
865.143	23.05951
865.542	7.01641
865.941	3.00751
866.34	29.06937
866.74	26.07006
867.139	25.06142
867.537	15.038
867.936	-3.00729
868.335	-6.01531
868.734	0
869.132	-21.04923
869.531	44.10567
869.929	61.14245
870.327	52.12569
870.726	-23.05701
871.124	41.09582
871.522	10.02563
871.92	-35.08637
872.318	22.0542
872.715	28.06893
873.113	4.0099
873.511	24.06026
873.908	45.11571
874.306	36.09032
874.703	33.08248
875.1	-25.06415
875.497	80.19264
875.894	50.1254
876.291	32.07875
876.688	-7.01818
877.085	44.10531
877.482	44.11067
877.878	11.02669
878.275	42.10813
878.671	-27.06069
879.068	-1.00239
879.464	-34.08287
879.86	17.04071
880.256	67.16436
880.652	58.14839
881.048	1.00246
881.444	46.11031
881.84	54.13825
882.236	39.09758
882.631	27.06594
883.027	26.06268
883.422	22.05656
883.817	-1.00256
884.213	4.01037
884.608	11.02753
885.003	38.09237
885.398	10.02536
885.793	52.13079
886.188	17.04319
886.582	15.03821
886.977	28.06622
887.371	65.16457
887.766	70.17789
888.16	10.02477
888.554	-16.03943
888.949	15.03749
889.343	-36.08787
889.737	6.01616
890.131	45.1141
890.525	5.01284
890.918	27.06836
891.312	-4.00957
891.706	53.13931
892.099	80.20424
892.492	-7.01524
892.886	33.08098
893.279	20.05171
893.672	14.03603
894.065	27.06797
894.458	43.10825
894.851	28.06868
895.244	-12.03094
895.637	42.10125
896.029	17.04173
896.422	38.0931
896.814	13.03253
897.206	56.13603
897.599	90.21927
897.991	10.0246
898.383	-37.08868
898.775	-6.01369
899.167	-6.01425
899.559	34.08573
899.951	29.06852
900.342	7.01783
900.734	28.07123
901.125	35.09156
901.517	18.04461
901.908	70.16754
902.299	17.04206
902.69	17.04031
903.082	44.10616
903.473	-8.01942
903.863	7.01799
904.254	24.05685
904.645	-1.00247
905.036	39.09649
905.426	17.03842
905.817	0
906.207	27.06513
906.597	18.04279
906.987	87.22449
907.378	41.10362
907.768	-2.00529
908.158	31.0756
908.547	21.05486
908.937	39.10018
909.327	30.07328
909.717	52.13191
910.106	40.09694
910.495	16.03971
910.885	37.09355
911.274	35.08738
911.663	-1.00253
912.052	-23.0569
912.441	73.18587
912.83	15.03471
913.219	33.08539
913.608	30.0732
913.997	59.14964
914.385	75.17797
914.774	30.07323
915.162	2.00486
915.55	27.06505
915.939	10.0256
916.327	84.2096
916.715	3.00778
917.103	13.0316
917.491	43.10615
917.878	24.05906
918.266	43.11188
918.654	58.14896
919.041	60.15843
919.429	47.11238
919.816	-4.01017
920.203	50.12227
920.591	49.12096
920.978	31.0761
921.365	13.03429
921.752	38.09158
922.139	34.07362
922.525	40.09683
922.912	45.10933
923.299	0
923.685	62.16305
924.072	-36.0829
924.458	-1.00251
924.844	47.11751
925.231	10.02342
925.617	44.11371
926.003	32.08121
926.389	-25.06372
926.774	62.15817
927.16	28.06908
927.546	31.07971
927.931	28.06989
928.317	11.0255
928.702	-9.02113
929.088	26.06209
929.473	9.02275
929.858	33.08107
930.243	37.08996
930.628	-21.05142
931.013	-9.02235
931.398	61.13965
931.783	-42.11101
932.167	15.03704
932.552	-23.05724
932.937	1.00247
933.321	46.11653
933.705	-28.0708
934.09	5.01259
934.474	13.0312
934.858	7.01822
935.242	1.00237
935.626	21.05385
936.009	0
936.393	25.06381
936.777	72.1844
937.16	15.03932
937.544	9.02113
937.927	-13.03337
938.311	-10.02445
938.694	35.09162
939.077	68.16418
939.46	52.12617
939.843	43.09034
940.226	1.00257
940.609	22.05129
940.991	29.07452
941.374	-17.04192
941.757	16.03966
942.139	22.05046
942.522	22.05151
942.904	37.08986
943.286	20.05081
943.668	6.01561
944.05	67.16752
944.432	27.0677
944.814	27.06596
945.196	17.04214
945.578	21.05121
945.959	27.06325
946.341	-22.0535
946.722	39.09161
947.104	-4.0096
947.485	-8.01869
947.866	37.09444
948.247	56.14201
948.628	55.13357
949.009	27.07003
949.39	9.02254
949.771	26.06009
950.152	-5.01239
950.532	6.01511
950.913	-6.01442
951.293	19.0521
951.674	10.02418
952.054	-47.11726
952.434	-16.03969
952.814	8.01908
953.194	64.16603
953.574	39.09652
953.954	26.06287
954.334	30.07529
954.714	36.08833
955.093	71.17346
955.473	15.03786
955.853	63.16211
956.232	-32.08743
956.611	-2.00475
956.99	50.12643
957.37	-5.01283
957.749	39.09418
958.128	22.05599
958.506	27.07035
958.885	23.0584
959.264	24.05928
959.643	3.00684
960.021	3.00749
960.4	-45.10211
960.778	40.09851
961.156	-7.01772
961.535	38.08897
961.913	41.09612
962.291	42.10918
962.669	13.03317
963.047	-1.00256
963.424	-25.06428
963.802	2.00499
964.18	-13.03277
964.557	11.025
964.935	7.01664
965.312	7.01843
965.69	57.14205
966.067	42.10316
966.444	41.10177
966.821	2.00518
967.198	21.05058
967.575	-11.02712
967.952	28.06584
968.329	-24.05854
968.705	7.01508
969.082	19.04911
969.458	-3.00734
969.835	31.07585
970.211	61.15696
970.587	-5.01256
970.963	49.12503
971.339	7.01842
971.715	19.04709
972.091	-8.01975
972.467	49.12256
972.843	-4.00996
973.219	36.08531
973.594	53.13955
973.97	-40.09508
974.345	-36.08705
974.721	35.085
975.096	9.02178
975.471	71.16847
975.846	-16.03856
976.221	11.0282
976.596	2.00482
976.971	25.06135
977.346	22.05125
977.72	30.07718
978.095	-24.0623
978.469	74.17684
978.844	16.04
979.218	13.03186
979.593	58.13893
979.967	3.00731
980.341	-29.06775
980.715	-6.0152
981.089	31.07765
981.463	37.08573
981.837	-1.00248
982.21	36.08296
982.584	15.03669
982.957	37.09341
983.331	28.06676
983.704	16.03946
984.078	28.06883
984.451	38.09375
984.824	26.06436
985.197	82.2003
985.57	41.10266
985.943	24.05921
986.316	19.04613
986.688	21.05127
987.061	21.04947
987.434	18.047
987.806	26.06372
988.179	-31.07362
988.551	-14.03528
988.923	9.02226
989.295	38.09575
989.667	-2.00491
990.039	45.11231
990.411	-55.12804
990.783	21.04825
991.155	-26.06349
991.527	28.06817
991.898	32.0808
992.27	46.11615
992.641	5.01244
993.012	-27.06278
993.384	-20.04862
993.755	-8.02037
994.126	3.0073
994.497	29.07222
994.868	22.05098
995.239	34.08252
995.61	22.05597
995.98	-23.05667
996.351	37.09314
996.722	57.13431
997.092	36.08649
997.462	-27.06518
997.833	63.15145
998.203	31.07509
998.573	10.02507
998.943	-13.03084
999.313	-4.00969
999.683	53.12886
1000.053	34.07917
1000.423	3.00729
1000.792	22.05729
1001.162	93.23118
1001.531	-2.00492
1001.901	25.06246
1002.27	7.01575
1002.639	-6.01545
1003.009	40.09504
1003.378	36.09255
1003.747	11.02603
1004.116	42.1019
1004.485	46.11048
1004.853	23.05827
1005.222	4.01013
1005.591	-10.02385
1005.959	45.10339
1006.328	44.1029
1006.696	11.02652
1007.064	-17.04309
1007.433	-8.01984
1007.801	30.07372
1008.169	92.23231
1008.537	-8.01789
1008.905	36.08534
1009.273	-44.10916
1009.64	71.17256
1010.008	-31.07376
1010.375	20.048
1010.743	-21.04748
1011.11	9.02145
1011.478	12.02989
1011.845	20.04765
1012.212	40.09211
1012.579	28.06944
1012.946	18.04267
1013.313	5.01187
1013.68	25.05659
1014.047	30.07241
1014.414	43.10239
1014.78	61.15323
1015.147	6.0145
1015.513	24.05799
1015.88	50.12774
1016.246	-8.01967
1016.612	25.05774
1016.978	-18.04407
1017.344	-33.08176
1017.71	38.0921
1018.076	-9.02136
1018.442	-12.03059
1018.808	72.18174
1019.174	14.03535
1019.539	-28.06314
1019.905	-1.00241
1020.27	13.03232
1020.636	17.04071
1021.001	5.01194
1021.366	11.02662
1021.731	36.09284
1022.096	7.018
1022.461	15.03591
1022.826	36.08534
1023.191	-5.01321
1023.556	22.05209
1023.92	26.06398
1024.285	-25.06096
1024.649	32.07895
1025.014	28.06941
1025.378	16.04057
1025.742	49.12282
1026.107	-13.0298
1026.471	13.03012
1026.835	78.19442
1027.199	72.17522
1027.562	43.10129
1027.926	-23.05642
1028.29	-45.11458
1028.654	36.08333
1029.017	15.03714
1029.381	23.05554
1029.744	18.04597
1030.107	29.0686
1030.471	18.04348
1030.834	69.15917
1031.197	26.06216
1031.56	13.03074
1031.923	-2.00525
1032.286	58.13553
1032.648	3.00708
1033.011	-13.03019
1033.374	-45.10521
1033.736	33.08747
1034.099	-15.03688
1034.461	18.04613
1034.823	13.03261
1035.185	24.06047
1035.548	-21.05184
1035.91	-32.07624
1036.272	19.04362
1036.634	3.0073
1036.995	18.04256
1037.357	48.11864
1037.719	-16.03921
1038.08	-17.04039
1038.442	9.02146
1038.803	8.01932
1039.165	44.11241
1039.526	26.0633
1039.887	22.05294
1040.248	2.005
1040.609	-10.02469
1040.97	8.01956
1041.331	33.08406
1041.692	78.18647
1042.053	58.13115
1042.413	-3.00699
1042.774	21.05113
1043.134	0
1043.495	-13.0331
1043.855	-31.07514
1044.215	11.02739
1044.576	6.01467
1044.936	30.06938
1045.296	44.10983
1045.656	23.05711
1046.016	29.0708
1046.375	-13.03191
1046.735	31.07146
1047.095	41.09808
1047.454	6.01279
1047.814	28.06776
1048.173	-16.0379
1048.533	9.02079
1048.892	-9.02197
1049.251	12.02989
1049.61	47.11704
1049.969	-8.01896
1050.328	10.02164
1050.687	27.06619
1051.046	40.09771
1051.405	10.02504
1051.763	16.0374
1052.122	30.07578
1052.48	-12.02965
1052.839	25.05971
1053.197	35.08241
1053.555	6.01361
1053.914	31.07616
1054.272	37.08945
1054.63	-5.01242
1054.988	40.09596
1055.345	67.1451
1055.703	36.08659
1056.061	-3.00777
1056.419	24.06303
1056.776	5.01215
1057.134	8.01873
1057.491	21.05277
1057.848	-18.04513
1058.206	38.09019
1058.563	29.06498
1058.92	45.10414
1059.277	8.01976
1059.634	55.13036
1059.991	14.03343
1060.348	-30.06908
1060.704	21.05096
1061.061	31.07148
1061.418	39.09585
1061.774	-24.05971
1062.131	19.05147
1062.487	-34.08119
1062.843	-7.01747
1063.199	38.09479
1063.555	17.04017
1063.911	-13.03284
1064.267	45.09341
1064.623	8.01976
1064.979	-14.03334
1065.335	15.03562
1065.691	4.00966
1066.046	71.15796
1066.402	3.00695
1066.757	-4.01015
1067.112	2.00493
1067.468	14.0338
1067.823	21.05111
1068.178	69.16801
1068.533	-38.09244
1068.888	32.07562
1069.243	8.01985
1069.598	9.02198
1069.952	23.0535
1070.307	6.01499
1070.662	60.14443
1071.016	57.12918
1071.371	8.01838
1071.725	-24.05753
1072.079	29.06892
1072.434	-25.06203
1072.788	-2.0048
1073.142	26.06382
1073.496	23.0559
1073.85	26.06078
1074.203	33.08011
1074.557	-4.01066
1074.911	-25.05967
1075.265	41.09612
1075.618	35.08497
1075.971	40.09585
1076.325	-10.02571
1076.678	79.18384
1077.031	47.10872
1077.385	6.0132
1077.738	-19.0435
1078.091	25.05847
1078.444	-12.02797
1078.796	36.08967
1079.149	2.00496
1079.502	50.12045
1079.855	38.0881
1080.207	-13.03195
1080.56	31.08126
1080.912	-29.0708
1081.264	9.02192
1081.617	48.11847
1081.969	5.01274
1082.321	36.0881
1082.673	-9.02086
1083.025	2.00475
1083.377	70.16536
1083.728	27.06352
1084.08	4.01008
1084.432	6.01472
1084.783	69.16126
1085.135	42.10643
1085.486	25.05831
1085.838	13.03224
1086.189	-12.02944
1086.54	10.02376
1086.891	37.09511
1087.242	-15.03687
1087.593	18.04371
1087.944	-4.00913
1088.295	23.05217
1088.646	21.05148
1088.996	-6.01472
1089.347	14.03449
1089.698	31.07393
1090.048	6.01568
1090.398	22.05169
1090.749	-12.02889
1091.099	-15.03813
1091.449	50.1254
1091.799	-20.05065
1092.149	35.08688
1092.499	6.01468
1092.849	-12.03091
1093.199	39.09695
1093.548	60.14612
1093.898	35.08846
1094.248	30.07729
1094.597	42.10911
1094.947	8.02124
1095.296	17.04226
1095.645	9.02326
1095.994	7.01693
1096.343	7.0177
1096.692	21.05574
1097.041	11.0301
1097.39	-12.03042
1097.739	-17.04447
1098.088	-14.03709
1098.437	15.04012
1098.785	43.11524
1099.134	-23.06064
1099.482	-6.01651
1099.83	5.01308
1100.179	25.06556
1100.527	39.10448
1100.875	22.05879
1101.223	16.0425
1101.571	-13.03591
1101.919	-21.0558
1102.267	20.05686
1102.615	-2.00643
1102.962	11.03538
1103.31	17.05465
1103.658	9.02893
