Data from N2 R4 sample 8_Subt2__0__19-26-21-464.txt Node

Date: Wed Aug 27 19:26:21 PDT 2025
User: uwsun
Spectrometer: HDX01956
Trigger mode: 0
Integration Time (sec): 5.000000E-1
Scans to average: 1
Nonlinearity correction enabled: true
Boxcar width: 0
Storing dark spectrum: false
XAxis mode: Wavelengths
Number of Pixels in Spectrum: 2068
>>>>>Begin Spectral Data<<<<<
194.03	422.10176
194.578	412.22769
195.127	440.28102
195.676	444.30045
196.225	427.02948
196.773	516.2848
197.321	724.68751
197.87	948.885
198.418	1021.00015
198.966	986.97335
199.513	944.8179
200.061	973.88772
200.609	944.94659
201.156	969.5912
201.704	934.79604
202.251	914.88469
202.798	1010.00224
203.345	999.86379
203.892	1037.96056
204.438	971.7303
204.985	982.754
205.532	962.95362
206.078	1034.8604
206.624	1015.86945
207.17	1008.67798
207.716	996.81837
208.262	1009.41433
208.808	1072.99091
209.354	1067.90966
209.899	1079.98858
210.445	1004.86345
210.99	996.76537
211.535	992.68474
212.08	1013.71266
212.625	1022.89786
213.17	988.85459
213.715	940.58499
214.259	1069.82427
214.804	1077.97105
215.348	1031.70373
215.892	985.73996
216.436	1020.71849
216.98	1078.69709
217.524	1019.79458
218.068	979.84712
218.612	1004.87821
219.155	1014.776
219.698	985.72101
220.242	862.61847
220.785	890.57051
221.328	842.62818
221.871	879.70511
222.414	908.70834
222.956	914.71039
223.499	1003.72227
224.041	914.61884
224.583	885.43105
225.126	918.54526
225.668	944.77793
226.21	946.85051
226.751	915.53143
227.293	931.62214
227.835	872.63165
228.376	909.57621
228.918	895.73866
229.459	890.74657
230	945.7229
230.541	873.53203
231.082	862.6137
231.622	891.5686
232.163	943.76433
232.704	923.75488
233.244	916.78922
233.784	904.68582
234.324	912.55764
234.864	890.54685
235.404	892.62074
235.944	923.66235
236.484	919.74895
237.023	956.71885
237.563	947.64489
238.102	853.53835
238.641	968.87043
239.18	927.6568
239.719	936.78524
240.258	937.5564
240.797	970.72184
241.335	953.76204
241.874	894.25584
242.412	975.7616
242.95	921.71292
243.488	972.66488
244.026	923.59548
244.564	943.42273
245.102	998.63855
245.64	924.68495
246.177	916.55528
246.715	998.78998
247.252	929.58973
247.789	937.24461
248.326	954.74679
248.863	901.4349
249.4	899.5062
249.936	935.38703
250.473	923.6014
251.009	1040.78934
251.546	983.56247
252.082	963.5035
252.618	1028.67304
253.154	995.80695
253.69	938.55849
254.226	961.69745
254.761	983.58924
255.297	974.56977
255.832	972.68978
256.367	939.62752
256.903	996.60446
257.438	1007.7264
257.972	972.56388
258.507	1051.75989
259.042	989.54785
259.576	1043.63465
260.111	955.62476
260.645	1007.57615
261.179	1019.74238
261.713	1023.64953
262.247	993.68599
262.781	990.49979
263.315	1016.83352
263.849	1020.88946
264.382	1090.77537
264.915	1105.8406
265.449	1110.97921
265.982	1004.6174
266.515	1010.76158
267.048	1053.619
267.58	1043.58286
268.113	1129.72532
268.646	1038.87713
269.178	1030.65385
269.71	1099.63967
270.243	1016.64974
270.775	1094.02046
271.307	1042.80517
271.838	1097.82223
272.37	1071.9031
272.902	1159.84364
273.433	1072.60926
273.965	1032.79157
274.496	1106.95282
275.027	1050.86712
275.558	1038.80866
276.089	1099.94696
276.62	1101.98984
277.15	1035.82379
277.681	1074.58816
278.211	1119.9518
278.741	1084.68796
279.272	1082.7446
279.802	1064.89989
280.332	1159.92355
280.861	1137.88275
281.391	1141.80454
281.921	1116.86763
282.45	1111.96421
282.98	1114.06364
283.509	1095.67307
284.038	1145.79433
284.567	1121.79812
285.096	1176.97489
285.625	1106.7434
286.153	1190.91315
286.682	1193.84093
287.21	1121.87348
287.739	1167.85644
288.267	1151.94479
288.795	1191.19855
289.323	1208.92038
289.851	1185.87344
290.378	1229.82176
290.906	1280.10513
291.433	1161.99245
291.961	1191.80459
292.488	1210.05972
293.015	1201.91082
293.542	1222.08915
294.069	1235.05142
294.596	1190.9466
295.122	1228.97346
295.649	1248.78271
296.175	1199.91304
296.702	1299.03037
297.228	1217.91332
297.754	1264.78439
298.28	1279.84732
298.806	1238.96723
299.332	1308.79377
299.857	1322.86002
300.383	1280.14112
300.908	1286.06734
301.433	1310.06127
301.958	1329.9273
302.483	1340.13057
303.008	1351.07221
303.533	1347.26791
304.058	1287.86587
304.582	1345.99876
305.107	1258.16818
305.631	1319.82594
306.155	1385.95266
306.679	1402.00905
307.203	1440.99985
307.727	1379.01563
308.251	1384.12762
308.775	1396.05131
309.298	1395.03304
309.822	1438.22299
310.345	1425.98823
310.868	1555.16989
311.391	1465.10754
311.914	1444.19999
312.437	1365.77735
312.96	1479.98238
313.482	1525.04156
314.005	1509.24813
314.527	1513.35158
315.049	1545.257
315.571	1532.86444
316.093	1623.19771
316.615	1575.082
317.137	1594.80088
317.659	1631.15734
318.18	1710.21098
318.702	1712.03208
319.223	1686.6689
319.744	1654.85917
320.265	1661.10528
320.786	1750.238
321.307	1760.26328
321.828	1781.90786
322.348	1777.02886
322.869	1856.11482
323.389	2000.13769
323.909	1799.88271
324.43	1939.16278
324.95	1863.88112
325.47	1935.20872
325.989	1896.94483
326.509	1986.88645
327.029	2050.9289
327.548	2058.88033
328.067	2025.07534
328.587	1975.11189
329.106	2005.78803
329.625	2060.32128
330.144	2118.93853
330.662	2048.86241
331.181	2184.84291
331.7	2203.92732
332.218	2294.5758
332.736	2255.81129
333.255	2291.83566
333.773	2335.91057
334.291	2394.09774
334.808	2389.67684
335.326	2404.53888
335.844	2456.67175
336.361	2397.9549
336.879	2426.66864
337.396	2538.72968
337.913	2513.49142
338.43	2602.48901
338.947	2654.4886
339.464	2687.28074
339.981	2662.60277
340.497	2683.68487
341.014	2740.69442
341.53	2710.35909
342.046	2785.62062
342.562	2844.6271
343.078	2880.3156
343.594	2924.41547
344.11	3043.34484
344.626	2996.56583
345.141	3086.06723
345.657	3007.02585
346.172	3039.22215
346.687	3178.04967
347.202	3121.84796
347.717	3191.02555
348.232	3218.18805
348.747	3122.94879
349.261	3137.62652
349.776	3336.83916
350.29	3375.10943
350.805	3331.96331
351.319	3360.60821
351.833	3361.6342
352.347	3382.68794
352.861	3513.56216
353.374	3524.46661
353.888	3451.71478
354.401	3441.46438
354.915	3598.27123
355.428	3553.67058
355.941	3735.29656
356.454	3679.07573
356.967	3747.38036
357.48	3724.16353
357.993	3736.47731
358.505	3784.3689
359.018	3919.24303
359.53	3980.15274
360.042	3963.83522
360.554	3811.14679
361.066	3977.15441
361.578	3981.69984
362.09	3994.01411
362.602	4044.6909
363.113	4050.80714
363.625	4139.7327
364.136	4234.56194
364.647	4172.71759
365.158	4242.58906
365.669	4396.65314
366.18	4486.53778
366.691	4387.34563
367.201	4292.64248
367.712	4455.424
368.222	4513.37687
368.733	4571.16799
369.243	4527.15641
369.753	4660.14793
370.263	4949.24937
370.773	4867.32425
371.282	4741.09865
371.792	5134.04441
372.301	5265.06382
372.811	5215.17108
373.32	5224.84715
373.829	5404.97295
374.338	5522.92547
374.847	5808.08713
375.356	5838.10606
375.865	6062.45131
376.373	6246.60338
376.882	6538.85685
377.39	6589.07749
377.898	6901.65719
378.407	7136.94733
378.915	7403.23556
379.423	7911.45361
379.93	8083.97849
380.438	8434.55576
380.946	8881.66801
381.453	9146.7768
381.96	9432.81429
382.468	10297.10336
382.975	10929.36525
383.482	11383.13483
383.989	11258.22934
384.495	11761.18767
385.002	12377.60318
385.509	13168.38191
386.015	13987.40176
386.521	14451.35443
387.028	15251.35279
387.534	15742.14321
388.04	16235.77704
388.546	16535.55573
389.051	17473.38057
389.557	18916.17914
390.063	20380.87843
390.568	21208.18303
391.073	21481.78634
391.578	22359.99979
392.084	23010.69851
392.589	23528.79249
393.093	25614.24913
393.598	27983.5031
394.103	30493.09441
394.607	33295.53029
395.112	35827.94278
395.616	37561.8382
396.12	40911.79228
396.624	44627.90876
397.128	44398.54919
397.632	42541.04755
398.136	41053.8128
398.639	39575.50194
399.143	37072.18751
399.646	33425.07685
400.15	30257.92651
400.653	26744.30161
401.156	22069.35973
401.659	15501.4617
402.162	4304.81735
402.664	865.43837
403.167	0
403.67	0
404.172	0
404.674	0
405.176	0
405.678	0
406.18	0
406.682	0
407.184	0
407.686	0
408.187	0
408.688	0
409.19	0
409.691	0
410.192	0
410.693	0
411.194	0
411.694	11.28237
412.195	3122.18734
412.696	8274.79556
413.196	11824.3934
413.696	13768.63585
414.196	13509.3687
414.696	14514.78924
415.196	16680.3865
415.696	20882.81744
416.196	28662.6172
416.695	36400.56296
417.195	40282.64143
417.694	41360.26869
418.194	42711.87066
418.693	44201.96737
419.192	45008.95072
419.691	45305.8869
420.19	45830.68337
420.688	46191.2227
421.187	46477.38778
421.685	44111.42646
422.184	40294.78546
422.682	34908.61584
423.18	29545.17324
423.678	26791.91575
424.176	24724.28746
424.674	22997.74813
425.172	21898.40438
425.669	20934.94597
426.167	19421.65879
426.664	17820.58619
427.161	16122.06304
427.659	14760.63813
428.156	14133.24823
428.652	13267.60724
429.149	12673.2423
429.646	12350.46761
430.143	11558.33169
430.639	10696.9869
431.135	10258.1193
431.632	9788.54014
432.128	8959.44462
432.624	8494.16665
433.12	8385.02557
433.616	8013.01186
434.111	7708.0993
434.607	7349.79098
435.103	7368.21784
435.598	6949.14217
436.093	6642.58795
436.588	6450.09873
437.083	6200.61824
437.578	5869.18329
438.073	5507.95055
438.568	5505.97716
439.062	5209.79018
439.557	5066.87715
440.051	4919.87778
440.546	4683.95813
441.04	4567.07037
441.534	4561.28556
442.028	4433.19048
442.522	4381.23608
443.015	4285.17728
443.509	4174.42544
444.002	4080.52885
444.496	3984.3509
444.989	3945.69975
445.482	3931.8275
445.975	3855.50757
446.468	3901.34687
446.961	3911.534
447.454	3706.70532
447.947	3607.93783
448.439	3502.01782
448.931	3490.87155
449.424	3505.26985
449.916	3470.15278
450.408	3435.95383
450.9	3370.32091
451.392	3263.47817
451.884	3156.2225
452.375	3182.74938
452.867	3061.25475
453.358	3111.35074
453.849	3014.17909
454.341	2985.39081
454.832	2926.31539
455.323	2851.78216
455.814	2935.5155
456.304	2887.57322
456.795	2824.52848
457.285	2763.51357
457.776	2652.71601
458.266	2737.87553
458.756	2612.97458
459.247	2589.01931
459.737	2493.07822
460.226	2437.85396
460.716	2498.16907
461.206	2451.12954
461.695	2390.45839
462.185	2279.17663
462.674	2318.11129
463.163	2355.04844
463.653	2196.85656
464.142	2332.46428
464.63	2200.44809
465.119	2184.39241
465.608	2126.32448
466.096	2108.19282
466.585	2190.3561
467.073	2025.44966
467.561	2023.50877
468.05	1970.43509
468.538	1978.62481
469.026	1880.51273
469.513	1923.22516
470.001	1869.45712
470.489	1833.54604
470.976	1880.46992
471.463	1819.79742
471.951	1669.72562
472.438	1657.62349
472.925	1658.64299
473.412	1579.61538
473.899	1570.5116
474.385	1466.65069
474.872	1583.63808
475.359	1479.73704
475.845	1518.33359
476.331	1305.28213
476.817	1384.71014
477.303	1376.51817
477.789	1311.61242
478.275	1292.74536
478.761	1195.50235
479.247	1207.35396
479.732	1181.63844
480.218	1207.8149
480.703	1190.68223
481.188	1163.34779
481.673	1079.37777
482.158	1136.34403
482.643	1065.57812
483.128	1116.46417
483.612	1050.44372
484.097	1001.46569
484.581	1035.46024
485.066	950.42607
485.55	928.22725
486.034	947.25463
486.518	939.40821
487.002	902.44101
487.486	878.41929
487.969	889.41007
488.453	860.42771
488.936	835.22978
489.42	825.16691
489.903	812.39978
490.386	835.82049
490.869	749.07975
491.352	825.37508
491.835	724.99254
492.318	755.16876
492.8	712.9843
493.283	642.16983
493.765	709.24881
494.247	676.11838
494.73	746.13622
495.212	699.20421
495.694	649.07093
496.175	617.06885
496.657	588.00743
497.139	528.61548
497.62	607.07156
498.102	599.10816
498.583	543.02239
499.064	486.79632
499.545	524.89515
500.026	521.87304
500.507	535.93437
500.988	511.95657
501.469	512.98853
501.949	536.00201
502.43	463.85642
502.91	392.61501
503.39	463.88941
503.87	454.82656
504.35	474.85466
504.83	433.73226
505.31	467.87851
505.79	481.90129
506.269	433.78451
506.749	432.77652
507.228	417.7613
507.707	434.74931
508.187	386.71022
508.666	453.88531
509.145	456.84537
509.623	399.74577
510.102	371.72126
510.581	406.77897
511.059	390.78549
511.538	393.81539
512.016	389.73716
512.494	406.79251
512.972	437.82166
513.45	412.76302
513.928	362.7046
514.406	419.82157
514.884	424.87205
515.361	351.67457
515.839	344.62307
516.316	355.68226
516.793	395.81076
517.27	343.67287
517.747	384.81397
518.224	382.71028
518.701	341.60331
519.178	362.7385
519.654	394.75083
520.131	366.74462
520.607	318.64166
521.083	367.67543
521.56	358.69781
522.036	353.62064
522.512	313.62823
522.987	301.58796
523.463	389.76131
523.939	314.61787
524.414	370.68694
524.89	331.64411
525.365	351.65214
525.84	369.72011
526.315	338.65883
526.79	345.62855
527.265	339.62514
527.74	353.70852
528.215	384.73426
528.689	286.52647
529.164	317.5664
529.638	326.69164
530.112	328.64055
530.587	285.49424
531.061	275.55043
531.534	308.62091
532.008	317.63362
532.482	336.62598
532.956	342.72716
533.429	319.64176
533.903	236.42264
534.376	348.639
534.849	232.45027
535.322	387.75775
535.795	311.63258
536.268	320.64065
536.741	298.59688
537.213	347.65885
537.686	309.63797
538.158	258.48519
538.631	338.67544
539.103	305.57825
539.575	290.49103
540.047	339.61762
540.519	305.60482
540.991	314.63505
541.463	341.68728
541.934	316.60335
542.406	355.71319
542.877	379.7147
543.348	288.57952
543.82	294.5976
544.291	346.66576
544.762	371.73467
545.233	290.60694
545.703	392.72271
546.174	354.66575
546.645	390.78766
547.115	382.75309
547.585	364.68051
548.056	422.82491
548.526	431.80918
548.996	408.77751
549.466	474.91779
549.935	463.87013
550.405	478.81784
550.875	541.00763
551.344	475.89488
551.814	500.88265
552.283	474.79924
552.752	574.02717
553.221	549.92604
553.69	560.94949
554.159	584.08762
554.628	549.91848
555.096	543.05951
555.565	638.08396
556.033	450.82551
556.502	399.7757
556.97	334.58215
557.438	471.89955
557.906	372.71821
558.374	400.76412
558.842	382.76053
559.31	335.61714
559.777	317.65478
560.245	315.63225
560.712	251.49006
561.18	321.59907
561.647	263.50861
562.114	269.52994
562.581	257.54038
563.048	264.52095
563.514	204.43074
563.981	256.50682
564.448	301.58182
564.914	266.52563
565.381	307.59968
565.847	250.4968
566.313	286.56754
566.779	254.49509
567.245	315.63897
567.711	262.53158
568.176	272.52085
568.642	322.70936
569.108	245.5215
569.573	285.57018
570.038	272.48787
570.504	320.60506
570.969	333.71404
571.434	300.56252
571.899	303.618
572.363	262.50315
572.828	305.57627
573.293	349.67008
573.757	333.64399
574.222	231.43752
574.686	254.48873
575.15	318.63989
575.614	342.6568
576.078	284.56436
576.542	260.50196
577.006	291.55413
577.469	315.63838
577.933	366.68866
578.396	347.70066
578.86	300.5906
579.323	348.70736
579.786	310.55862
580.249	351.68693
580.712	312.64575
581.175	294.62321
581.637	300.57669
582.1	310.57037
582.563	302.53639
583.025	315.65678
583.487	290.4961
583.95	258.47468
584.412	271.48145
584.874	259.53018
585.336	321.64548
585.797	267.48519
586.259	316.62737
586.721	333.67764
587.182	291.5722
587.643	307.58545
588.105	292.58839
588.566	310.54746
589.027	229.46834
589.488	335.63916
589.949	324.66308
590.41	306.50858
590.87	261.50595
591.331	295.53745
591.791	234.46696
592.252	329.64571
592.712	314.64611
593.172	360.69004
593.632	395.71711
594.092	314.59168
594.552	265.48009
595.011	308.60977
595.471	292.55455
595.931	334.62999
596.39	322.65302
596.849	297.59364
597.308	284.52252
597.768	357.7754
598.227	277.56343
598.685	336.64092
599.144	293.58293
599.603	309.61648
600.062	342.62103
600.52	258.49284
600.978	366.7436
601.437	333.63843
601.895	303.54474
602.353	341.64745
602.811	292.55482
603.269	308.63348
603.727	319.65092
604.184	268.52188
604.642	295.62055
605.099	303.59945
605.557	323.67825
606.014	350.64462
606.471	314.67984
606.928	444.80424
607.385	435.88157
607.842	490.91793
608.299	473.87449
608.755	428.84577
609.212	386.70023
609.668	467.87289
610.125	419.82313
610.581	397.76151
611.037	397.74681
611.493	281.56531
611.949	292.61167
612.405	288.50913
612.861	292.58893
613.316	299.6237
613.772	239.47261
614.227	293.60195
614.683	283.52501
615.138	299.61372
615.593	329.66645
616.048	288.57632
616.503	296.63403
616.958	340.7399
617.412	297.6198
617.867	243.4794
618.321	281.51506
618.776	241.47277
619.23	287.59654
619.684	263.51202
620.138	223.44283
620.592	257.55537
621.046	229.4728
621.5	251.54449
621.954	252.50264
622.407	299.59736
622.861	228.49745
623.314	221.45116
623.768	188.39452
624.221	235.4227
624.674	229.47386
625.127	244.51813
625.58	207.42585
626.033	227.45036
626.485	160.35309
626.938	180.39406
627.39	199.42248
627.843	201.42338
628.295	190.40435
628.747	153.33233
629.199	167.35733
629.651	213.45398
630.103	141.30092
630.555	209.41891
631.006	184.39907
631.458	136.30012
631.909	133.28212
632.361	100.22216
632.812	105.22934
633.263	142.2893
633.714	121.24567
634.165	112.2545
634.616	94.21377
635.067	93.19615
635.518	142.32097
635.968	133.25424
636.419	114.23997
636.869	106.24135
637.319	67.14789
637.769	133.28803
638.219	104.23814
638.669	90.2089
639.119	103.23997
639.569	93.21761
640.019	62.13928
640.468	71.15442
640.918	114.26209
641.367	119.26541
641.816	74.15961
642.265	34.0767
642.714	101.22862
643.163	134.30115
643.612	97.23221
644.061	71.15212
644.51	59.13306
644.958	137.30303
645.406	50.11784
645.855	91.21834
646.303	54.12286
646.751	83.18887
647.199	55.12328
647.647	28.06448
648.095	97.22082
648.543	65.13227
648.99	46.10901
649.438	41.09405
649.885	43.10502
650.333	131.2537
650.78	90.21557
651.227	14.03385
651.674	92.20897
652.121	32.07758
652.568	78.18761
653.015	116.28829
653.461	61.14469
653.908	68.15521
654.354	15.03546
654.801	91.21385
655.247	19.04134
655.693	19.04872
656.139	43.1031
656.585	91.21485
657.031	47.11041
657.477	18.03891
657.922	-8.01856
658.368	55.13507
658.813	46.10656
659.259	75.18071
659.704	73.17108
660.149	61.14441
660.594	53.12499
661.039	24.05509
661.484	88.20756
661.929	81.1879
662.373	-2.00503
662.818	15.03742
663.262	45.10896
663.707	62.15588
664.151	41.10009
664.595	31.07526
665.039	56.13979
665.483	65.1641
665.927	41.09684
666.371	38.08949
666.814	54.12939
667.258	23.05498
667.701	83.17914
668.145	49.12163
668.588	32.07941
669.031	42.0998
669.474	104.2511
669.917	16.03581
670.36	66.16415
670.803	62.14839
671.245	76.16153
671.688	43.1038
672.13	36.0822
672.573	80.20316
673.015	48.11567
673.457	53.11699
673.899	79.19157
674.341	41.09968
674.783	84.2064
675.225	41.1005
675.666	71.17398
676.108	29.0646
676.549	58.13808
676.991	79.1794
677.432	92.18786
677.873	86.2034
678.314	60.14536
678.755	49.12069
679.196	24.0565
679.637	65.15892
680.078	51.11966
680.518	38.08865
680.959	97.23742
681.399	80.19962
681.839	73.18067
682.28	21.05304
682.72	49.11439
683.16	35.08858
683.6	41.09451
684.039	24.05079
684.479	43.10759
684.919	81.19257
685.358	61.15647
685.798	73.19298
686.237	68.1661
686.676	54.12559
687.115	31.07424
687.554	81.19509
687.993	37.0842
688.432	136.3199
688.871	86.19945
689.309	0
689.748	108.23044
690.186	80.19294
690.625	80.19345
691.063	50.12218
691.501	44.10983
691.939	74.18712
692.377	78.19287
692.815	84.20663
693.253	27.06596
693.69	68.15502
694.128	93.2316
694.565	72.17561
695.003	80.20453
695.44	-6.01431
695.877	5.01195
696.314	59.13099
696.751	35.08071
697.188	71.16581
697.625	93.21718
698.061	21.05146
698.498	63.15311
698.934	77.18896
699.371	65.15762
699.807	88.21199
700.243	109.26828
700.679	14.03233
701.115	56.13286
701.551	93.22195
701.987	32.07289
702.422	81.19583
702.858	75.18201
703.294	47.10838
703.729	91.22571
704.164	73.17934
704.599	57.13018
705.035	136.31516
705.47	32.07904
705.904	70.16978
706.339	66.15543
706.774	97.2323
707.209	54.12851
707.643	56.13704
708.078	45.1119
708.512	47.12048
708.946	56.13618
709.38	11.0265
709.814	32.07519
710.248	20.04942
710.682	85.20658
711.116	111.2727
711.549	78.20409
711.983	34.08097
712.416	49.11735
712.85	53.13299
713.283	46.11119
713.716	53.13333
714.149	82.19798
714.582	9.02064
715.015	62.15661
715.448	31.07905
715.881	47.10339
716.313	104.24711
716.746	96.2303
717.178	34.08333
717.61	45.1147
718.043	76.19197
718.475	61.15008
718.907	57.14354
719.339	59.13811
719.77	73.17662
720.202	35.08912
720.634	67.16661
721.065	62.14879
721.497	52.12919
721.928	60.15004
722.359	56.13943
722.79	45.11002
723.221	78.19618
723.652	46.1181
724.083	40.09321
724.514	61.14352
724.945	16.03806
725.375	62.14998
725.806	89.22557
726.236	70.18009
726.666	42.1016
727.096	77.19154
727.526	72.18704
727.956	90.21121
728.386	23.05699
728.816	45.11599
729.246	74.18371
729.675	59.14917
730.105	43.10654
730.534	57.13494
730.964	54.13723
731.393	59.14618
731.822	66.17045
732.251	64.16379
732.68	106.25419
733.109	14.0353
733.537	46.11349
733.966	36.09077
734.395	43.10105
734.823	40.09215
735.251	18.0439
735.68	61.15466
736.108	68.17415
736.536	38.09109
736.964	59.13968
737.392	37.09304
737.82	20.04878
738.247	56.13552
738.675	71.1688
739.102	64.16207
739.53	103.26522
739.957	60.15619
740.384	40.09865
740.811	86.2187
741.238	53.13006
741.665	80.18906
742.092	67.16174
742.519	18.04586
742.945	58.14152
743.372	38.09513
743.798	33.0853
744.225	29.07064
744.651	84.21347
745.077	47.11836
745.503	15.03687
745.929	79.19049
746.355	42.10419
746.781	81.20413
747.207	60.14585
747.632	76.19012
748.058	69.17439
748.483	48.1126
748.908	56.14125
749.334	52.13008
749.759	65.15578
750.184	40.09778
750.609	72.17757
751.033	93.21991
751.458	59.13458
751.883	69.17177
752.307	38.0913
752.732	35.08946
753.156	41.10258
753.58	56.13337
754.005	70.17902
754.429	35.08344
754.853	48.12103
755.277	46.11106
755.7	113.28293
756.124	54.13626
756.548	59.14323
756.971	40.09796
757.394	24.06181
757.818	67.1736
758.241	81.2069
758.664	33.08462
759.087	59.136
759.51	53.13247
759.933	39.09624
760.356	5.01285
760.778	42.10366
761.201	27.06641
761.623	106.25776
762.046	79.18876
762.468	34.08194
762.89	40.09865
763.312	62.15133
763.734	60.1453
764.156	55.13702
764.578	35.08077
765	41.10028
765.421	63.16284
765.843	33.08595
766.264	94.22893
766.686	103.26133
767.107	42.1032
767.528	51.13109
767.949	48.1225
768.37	62.15398
768.791	45.11023
769.212	79.20158
769.632	39.09407
770.053	65.17333
770.473	96.23763
770.894	37.09291
771.314	34.0815
771.734	16.03796
772.154	61.15664
772.575	56.1307
772.994	35.08122
773.414	83.20119
773.834	54.13772
774.254	79.19652
774.673	93.22721
775.093	53.13385
775.512	51.12747
775.931	63.16087
776.351	23.05767
776.77	74.18365
777.189	15.03631
777.607	78.2006
778.026	78.19625
778.445	100.25619
778.864	34.08775
779.282	42.10278
779.701	5.0127
780.119	60.15339
780.537	11.02786
780.955	83.21231
781.373	33.08215
781.791	41.09345
782.209	58.1334
782.627	48.1273
783.045	12.02803
783.462	83.21513
783.88	46.1202
784.297	58.14719
784.715	76.20014
785.132	79.19293
785.549	22.05515
785.966	45.11401
786.383	40.10046
786.8	63.1473
787.217	28.06763
787.633	9.02301
788.05	50.11917
788.466	33.07758
788.883	91.2357
789.299	75.18187
789.715	103.25098
790.131	61.15241
790.547	67.16685
790.963	48.11934
791.379	27.06902
791.795	21.04887
792.21	32.07477
792.626	34.08187
793.041	50.12513
793.457	0
793.872	62.14692
794.287	69.1687
794.702	50.12336
795.117	44.11035
795.532	86.21739
795.947	49.1173
796.362	50.11908
796.776	37.08624
797.191	45.11166
797.605	8.01952
798.02	12.02963
798.434	-3.00679
798.848	42.10488
799.262	33.08287
799.676	36.08794
800.09	3.00754
800.504	73.17841
800.918	45.10546
801.331	-17.04455
801.745	68.15946
802.158	-16.0403
802.572	32.0777
802.985	11.0267
803.398	36.08712
803.811	49.1245
804.224	48.11912
804.637	33.07963
805.05	51.11854
805.462	23.05665
805.875	59.15487
806.288	40.09865
806.7	17.043
807.112	11.02547
807.525	26.06429
807.937	60.15113
808.349	40.101
808.761	89.22083
809.173	77.18889
809.584	54.13333
809.996	40.0988
810.408	27.07109
810.819	83.19687
811.231	154.40224
811.642	200.47373
812.053	243.5583
812.464	268.59734
812.875	179.43974
813.286	124.30986
813.697	64.14454
814.108	42.10232
814.519	50.11283
814.929	68.17342
815.34	66.16092
815.75	41.10539
816.16	35.08707
816.571	32.0831
816.981	48.11471
817.391	101.24574
817.801	48.12077
818.211	-11.02611
818.62	0
819.03	30.07374
819.44	68.17592
819.849	55.13876
820.259	70.17909
820.668	-3.00757
821.077	31.07824
821.486	39.09447
821.895	33.08119
822.304	38.10037
822.713	77.18405
823.122	42.10583
823.531	37.08908
823.939	97.23707
824.348	71.17391
824.756	58.14567
825.164	68.17097
825.573	39.09814
825.981	94.23277
826.389	26.06511
826.797	55.13841
827.205	42.0986
827.612	5.01242
828.02	84.20082
828.428	55.14029
828.835	106.28055
829.243	60.14202
829.65	54.1347
830.057	47.11414
830.464	44.10756
830.871	55.13212
831.278	103.25136
831.685	19.0428
832.092	69.16845
832.499	58.12987
832.905	16.04053
833.312	-7.01612
833.718	51.12714
834.124	17.03897
834.531	44.11095
834.937	61.15751
835.343	22.05332
835.749	43.10089
836.155	83.21824
836.561	4.01003
836.966	34.08237
837.372	65.16609
837.777	-30.07551
838.183	37.08307
838.588	45.11349
838.993	35.08586
839.399	43.10658
839.804	23.05736
840.209	102.26077
840.613	2.00454
841.018	33.08358
841.423	41.1062
841.828	69.17581
842.232	34.08348
842.637	20.04754
843.041	31.08038
843.445	53.13433
843.849	37.09228
844.253	34.08132
844.657	35.08877
845.061	6.01375
845.465	48.1179
845.869	-7.0163
846.272	67.16691
846.676	37.08952
847.079	42.10764
847.483	83.20729
847.886	1.00241
848.289	47.12703
848.692	25.06348
849.095	63.15208
849.498	14.03504
849.901	52.12051
850.304	20.04798
850.707	70.17795
851.109	-18.04526
851.512	17.04224
851.914	27.06919
852.316	53.13361
852.718	-31.0809
853.121	72.17659
853.523	22.05171
853.925	35.09228
854.326	46.11669
854.728	24.06213
855.13	49.12819
855.531	67.16113
855.933	7.01684
856.334	56.14095
856.736	56.12746
857.137	25.05935
857.538	29.07374
857.939	31.07731
858.34	37.08959
858.741	12.03138
859.142	6.01449
859.542	30.07985
859.943	41.10203
860.343	18.04534
860.744	41.09972
861.144	67.16381
861.544	27.06643
861.945	-14.03588
862.345	56.1374
862.745	63.15752
863.145	26.06206
863.544	46.11632
863.944	2.00472
864.344	29.07222
864.743	38.09399
865.143	39.10063
865.542	-6.0141
865.941	14.035
866.34	18.04315
866.74	38.10219
867.139	63.15369
867.537	-17.04332
867.936	7.01697
868.335	-5.01276
868.734	-11.0282
869.132	18.04188
869.531	10.02417
869.929	34.07982
870.327	24.05832
870.726	7.01725
871.124	22.05161
871.522	19.04862
871.92	-63.15626
872.318	7.01729
872.715	-15.03722
873.113	27.06653
873.511	19.04775
873.908	3.00777
874.306	42.10526
874.703	17.04261
875.1	-10.02559
875.497	83.19975
875.894	45.11296
876.291	23.05669
876.688	20.05169
877.085	-9.02176
877.482	17.04296
877.878	6.01457
878.275	70.17934
878.671	22.04896
879.068	18.04293
879.464	8.01934
879.86	-6.01443
880.256	49.1206
880.652	43.1103
881.048	-38.09434
881.444	26.06259
881.84	57.14585
882.236	22.05521
882.631	-8.01967
883.027	7.01694
883.422	2.00516
883.817	22.05601
884.213	39.10053
884.608	35.08722
885.003	29.07061
885.398	4.01015
885.793	43.10833
886.188	57.1438
886.582	38.0964
886.977	13.03084
887.371	42.10677
887.766	43.1098
888.16	19.04699
888.554	3.00737
888.949	16.03998
889.343	-17.04135
889.737	2.00539
890.131	58.14672
890.525	-23.05935
890.918	22.05575
891.312	35.08308
891.706	54.14192
892.099	44.11304
892.492	12.02603
892.886	6.0148
893.279	35.09025
893.672	30.07699
894.065	16.04036
894.458	20.05056
894.851	13.03197
895.244	6.01542
895.637	6.01456
896.029	-13.03209
896.422	21.05161
896.814	-3.00753
897.206	39.09503
897.599	21.05182
897.991	16.03932
898.383	0
898.775	25.05668
899.167	-19.04524
899.559	6.0152
899.951	16.0379
900.342	0
900.734	35.08893
901.125	19.04984
901.517	26.06434
901.908	71.1699
902.299	0
902.69	-18.04297
903.082	31.07498
903.473	24.0579
903.863	27.06916
904.254	44.10382
904.645	-23.05709
905.036	8.0199
905.426	-7.0159
905.817	20.04976
906.207	-10.02429
906.597	4.00953
906.987	28.07299
907.378	23.05832
907.768	4.01057
908.158	1.00245
908.547	50.12998
908.937	43.11038
909.327	23.05625
909.717	52.13191
910.106	14.0341
910.495	2.00498
910.885	20.05072
911.274	-24.06056
911.663	18.04532
912.052	-28.06934
912.441	13.03345
912.83	13.0301
913.219	-21.05484
913.608	-13.03197
913.997	13.03324
914.385	54.12865
914.774	22.05378
915.162	40.09647
915.55	1.00242
915.939	24.06129
916.327	44.11059
916.715	35.09031
917.103	-8.01952
917.491	4.00994
917.878	18.04434
918.266	51.13251
918.654	32.08256
919.041	27.07169
919.429	54.12895
919.816	7.01776
920.203	11.02709
920.591	-5.01247
920.978	23.05655
921.365	19.05006
921.752	59.14162
922.139	4.00872
922.525	33.07999
922.912	-10.02454
923.299	-7.01763
923.685	43.11345
924.072	-30.069
924.458	4.01002
924.844	27.06775
925.231	12.0281
925.617	28.07256
926.003	13.0331
926.389	22.05561
926.774	42.10753
927.16	44.10824
927.546	13.03353
927.931	25.06244
928.317	6.01392
928.702	2.00469
929.088	9.02156
929.473	-9.02283
929.858	0
930.243	51.12367
930.628	-15.03669
931.013	-25.06226
931.398	45.10335
931.783	-13.03419
932.167	9.02225
932.552	-15.03727
932.937	12.02954
933.321	43.10899
933.705	-8.02016
934.09	10.02515
934.474	30.07178
934.858	-5.01304
935.242	38.08942
935.626	18.04618
936.009	-32.08586
936.393	14.0358
936.777	20.05169
937.16	26.06803
937.544	1.00235
937.927	20.05104
938.311	27.06555
938.694	-5.01318
939.077	19.0463
939.46	17.04152
939.843	36.07575
940.226	24.06144
940.609	39.09061
940.991	-5.01292
941.374	14.03432
941.757	24.05941
942.139	-17.03929
942.522	31.07245
942.904	39.09468
943.286	36.0912
943.668	30.07772
944.05	70.17492
944.432	75.18643
944.814	29.07082
945.196	51.12562
945.578	42.10202
945.959	27.06325
946.341	-6.01455
946.722	51.11952
947.104	31.0739
947.485	32.07419
947.866	54.13742
948.247	47.11938
948.628	14.03426
949.009	28.07261
949.39	11.02754
949.771	-15.03495
950.152	18.04441
950.532	19.04773
950.913	-34.08215
951.293	43.11746
951.674	-12.02914
952.054	-37.09214
952.434	-11.02726
952.814	15.03573
953.194	15.03924
953.574	65.1601
953.954	55.13227
954.334	29.0728
954.714	-1.00247
955.093	40.09829
955.473	-3.0076
955.853	-41.1074
956.232	-9.0245
956.611	-8.01904
956.99	30.07613
957.37	22.05621
957.749	13.03155
958.128	25.06359
958.506	44.1143
958.885	37.09371
959.264	5.01239
959.643	-19.04353
960.021	9.02245
960.4	-29.06559
960.778	43.10584
961.156	2.00505
961.535	10.02354
961.913	-2.00473
962.291	32.08333
962.669	-34.08747
963.047	34.08662
963.424	17.04339
963.802	-11.02752
964.18	9.0226
964.557	-60.13833
964.935	4.00951
965.312	18.04731
965.69	52.12971
966.067	55.13477
966.444	45.11162
966.821	38.09787
967.198	11.02654
967.575	-22.05436
967.952	-19.04508
968.329	-2.00486
968.705	-36.07825
969.082	55.14128
969.458	-9.02205
969.835	26.06368
970.211	23.05957
970.587	10.02504
970.963	38.09715
971.339	-12.03168
971.715	17.04215
972.091	5.01232
972.467	40.10021
972.843	-30.07508
973.219	-19.0455
973.594	12.03181
973.97	12.02824
974.345	0
974.721	23.05598
975.096	-11.02672
975.471	17.04076
975.846	8.01919
976.221	-39.10084
976.596	29.06948
976.971	-5.01234
977.346	6.01402
977.72	25.06437
978.095	-2.00517
978.469	47.1129
978.844	26.06488
979.218	48.11686
979.593	18.04344
979.967	-19.04647
980.341	-15.03495
980.715	12.03031
981.089	10.02514
981.463	2.00467
981.837	-26.06481
982.21	42.09668
982.584	30.07317
982.957	28.0708
983.331	30.0715
983.704	11.02715
984.078	1.00247
984.451	32.07904
984.824	-4.00996
985.197	99.24106
985.57	-10.02527
985.943	60.14705
986.316	-27.06611
986.688	18.04397
987.061	-6.01421
987.434	27.07039
987.806	43.10505
988.179	10.02356
988.551	-27.06819
988.923	10.02473
989.295	39.09825
989.667	25.0611
990.039	10.02512
990.411	-15.03464
990.783	-13.03007
991.155	-34.08314
991.527	32.07785
991.898	41.10336
992.27	39.0986
992.641	5.01244
993.012	-45.10501
993.384	-9.02183
993.755	-20.05102
994.126	26.06304
994.497	33.08212
994.868	5.01163
995.239	28.06804
995.61	8.0204
995.98	-10.02458
996.351	26.06558
996.722	26.06164
997.092	52.12455
997.462	30.07164
997.833	74.17752
998.203	7.01703
998.573	8.02006
998.943	-15.03559
999.313	5.01209
999.683	63.15288
1000.053	79.18231
1000.423	7.01701
1000.792	14.03651
1001.162	70.17473
1001.531	-21.0518
1001.901	11.02755
1002.27	28.06272
1002.639	36.09204
1003.009	9.02151
1003.378	42.10787
1003.747	-10.02376
1004.116	25.06085
1004.485	9.02177
1004.853	16.04059
1005.222	15.03792
1005.591	2.00476
1005.959	31.07143
1006.328	64.14908
1006.696	-45.10965
1007.064	15.0378
1007.433	23.05671
1007.801	45.11027
1008.169	35.08928
1008.537	37.08198
1008.905	56.13224
1009.273	-13.03207
1009.64	44.10748
1010.008	-26.0618
1010.375	36.08613
1010.743	-23.05202
1011.11	-17.04073
1011.478	23.05717
1011.845	27.06424
1012.212	6.01391
1012.579	47.11615
1012.946	-2.00476
1013.313	-2.00475
1013.68	44.09921
1014.047	4.0097
1014.414	19.04545
1014.78	58.14577
1015.147	29.06979
1015.513	68.16294
1015.88	62.15806
1016.246	5.01227
1016.612	37.08525
1016.978	-63.15552
1017.344	-37.09174
1017.71	49.11851
1018.076	16.03778
1018.442	-21.05362
1018.808	25.06363
1019.174	27.06802
1019.539	14.0313
1019.905	24.05757
1020.27	15.03727
1020.636	-10.02407
1021.001	1.00239
1021.366	38.09151
1021.731	67.17186
1022.096	31.07938
1022.461	19.04545
1022.826	-5.01195
1023.191	18.04737
1023.556	33.07797
1023.92	10.02468
1024.285	0
1024.649	28.06913
1025.014	28.06941
1025.378	51.12853
1025.742	-1.00253
1026.107	0
1026.471	9.02087
1026.835	80.19933
1027.199	23.05648
1027.562	54.12692
1027.926	42.10179
1028.29	-32.08129
1028.654	51.1177
1029.017	43.10591
1029.381	15.03628
1029.744	-22.05658
1030.107	-8.01906
1030.471	32.07709
1030.834	34.07898
1031.197	-6.01443
1031.56	21.04958
1031.923	26.06798
1032.286	43.10077
1032.648	-29.06884
1033.011	-9.02089
1033.374	-25.05822
1033.736	21.05578
1034.099	-7.01718
1034.461	39.09958
1034.823	33.08248
1035.185	49.12291
1035.548	6.01474
1035.91	-10.02372
1036.272	13.02988
1036.634	3.0073
1036.995	-10.02377
1037.357	35.08672
1037.719	-15.03676
1038.08	-40.09545
1038.442	15.03573
1038.803	44.10555
1039.165	50.1276
1039.526	14.03416
1039.887	20.04814
1040.248	-11.02758
1040.609	22.054
1040.97	-20.04914
1041.331	54.13704
1041.692	66.15815
1042.053	16.03649
1042.413	-22.05143
1042.774	19.04628
1043.134	-24.05696
1043.495	11.02789
1043.855	-16.03867
1044.215	24.05963
1044.576	31.07543
1044.936	47.10834
1045.296	11.02762
1045.656	21.05216
1046.016	83.20059
1046.375	15.03663
1046.735	17.03929
1047.095	89.21094
1047.454	53.11179
1047.814	46.11094
1048.173	-19.04503
1048.533	5.01156
1048.892	21.05098
1049.251	-6.01499
1049.61	60.14907
1049.969	0
1050.328	-15.03264
1050.687	0
1051.046	-12.0296
1051.405	36.08973
1051.763	-8.01879
1052.122	23.05817
1052.48	-11.02717
1052.839	13.03112
1053.197	-8.01899
1053.555	39.08785
1053.914	48.11755
1054.272	20.04851
1054.63	12.02972
1054.988	1.00242
1055.345	8.01754
1055.703	39.09375
1056.061	13.03357
1056.419	73.19013
1056.776	20.04847
1057.134	44.10229
1057.491	11.02769
1057.848	47.11645
1058.206	32.07603
1058.563	37.08276
1058.92	36.08346
1059.277	40.09822
1059.634	50.11862
1059.991	-17.04084
1060.348	-12.02753
1060.704	-31.07596
1061.061	45.10348
1061.418	38.09341
1061.774	-10.02482
1062.131	40.10799
1062.487	14.03312
1062.843	-1.00249
1063.199	25.06251
1063.555	28.06602
1063.911	1.00252
1064.267	-13.02733
1064.623	24.0591
1064.979	29.0685
1065.335	11.02614
1065.691	11.02652
1066.046	35.07845
1066.402	60.13739
1066.757	6.0152
1067.112	30.07353
1067.468	-13.03155
1067.823	39.09461
1068.178	32.07846
1068.533	2.00483
1068.888	-3.00714
1069.243	-6.01492
1069.598	11.02685
1069.952	28.06507
1070.307	5.01249
1070.662	23.05575
1071.016	-37.08546
1071.371	-18.04156
1071.725	27.06409
1072.079	-25.06003
1072.434	1.00247
1072.788	-18.04331
1073.142	14.03444
1073.496	34.08246
1073.85	58.13473
1074.203	30.07287
1074.557	-14.03736
1074.911	14.03316
1075.265	50.11702
1075.618	10.02439
1075.971	58.1385
1076.325	-12.03086
1076.678	24.05645
1077.031	19.0442
1077.385	-6.01324
1077.738	0
1078.091	-2.0047
1078.444	-6.01397
1078.796	59.14634
1079.149	6.01486
1079.502	-6.01461
1079.855	-10.0234
1080.207	-15.03688
1080.56	15.03943
1080.912	14.0339
1081.264	20.04862
1081.617	46.11357
1081.969	-20.05119
1082.321	-18.04449
1082.673	-26.06047
1083.025	-2.00475
1083.377	248.56556
1083.728	22.05181
1084.08	16.04024
1084.432	58.14094
1084.783	47.11032
1085.135	56.14156
1085.486	-6.01408
1085.838	23.05694
1086.189	8.01956
1086.54	-5.01191
1086.891	41.10532
1087.242	5.01224
1087.593	-7.01708
1087.944	11.02504
1088.295	17.03861
1088.646	21.05148
1088.996	27.06582
1089.347	21.05167
1089.698	-13.03126
1090.048	26.06773
1090.398	20.04701
1090.749	7.01679
1091.099	-7.01777
1091.449	55.13781
1091.799	48.12008
1092.149	42.10412
1092.499	-23.05657
1092.849	27.06906
1093.199	1.0025
1093.548	49.11958
1093.898	48.12103
1094.248	22.05676
1094.597	-5.01309
1094.947	-10.02664
1095.296	36.08918
1095.645	8.02068
1095.994	2.00484
1096.343	59.14778
1096.692	20.05309
1097.041	9.02463
1097.39	18.04539
1097.739	25.06493
1098.088	-16.0424
1098.437	36.09595
1098.785	-1.0027
1099.134	-13.03422
1099.482	8.02196
1099.83	16.04176
1100.179	8.02104
1100.527	33.0885
1100.875	11.02945
1101.223	-36.09646
1101.571	-28.07753
1101.919	-24.0638
1102.267	43.12182
1102.615	9.02892
1102.962	12.03859
1103.31	9.02896
1103.658	5.01608
