Data from N2 R4 sample 5_Subt2__4__19-23-34-471.txt Node

Date: Wed Aug 27 19:23:34 PDT 2025
User: uwsun
Spectrometer: HDX01956
Trigger mode: 0
Integration Time (sec): 5.000000E-1
Scans to average: 1
Nonlinearity correction enabled: true
Boxcar width: 0
Storing dark spectrum: false
XAxis mode: Wavelengths
Number of Pixels in Spectrum: 2068
>>>>>Begin Spectral Data<<<<<
194.03	540.38192
194.578	493.45291
195.127	480.38957
195.676	517.49872
196.225	509.20855
196.773	630.53648
197.321	852.93605
197.87	1057.04752
198.418	1192.24244
198.966	1213.3004
199.513	1113.05617
200.061	1083.0453
200.609	1092.17617
201.156	1134.77854
201.704	1064.98286
202.251	1069.12681
202.798	1061.07869
203.345	1213.14392
203.892	1129.08582
204.438	1147.95264
204.985	1101.90722
205.532	1164.25475
206.078	1207.07602
206.624	1216.1276
207.17	1181.87455
207.716	1145.01175
208.262	1175.56249
208.808	1183.1361
209.354	1217.09441
209.899	1128.05245
210.445	1176.08954
210.99	1124.92718
211.535	1190.91531
212.08	1196.92393
212.625	1187.11404
213.17	1134.05198
213.715	1124.80245
214.259	1193.9694
214.804	1275.21794
215.348	1167.85749
215.892	1192.99429
216.436	1251.9784
216.98	1210.83412
217.524	1169.97959
218.068	1129.05169
218.612	1136.05561
219.155	1128.9176
219.698	1096.86001
220.242	1052.88419
220.785	1067.79748
221.328	1006.86994
221.871	1042.9437
222.414	990.82559
222.956	1069.925
223.499	1115.85834
224.041	959.67897
224.583	1001.56672
225.126	1045.69939
225.668	1064.94574
226.21	1064.02251
226.751	1058.70285
227.293	1113.8479
227.835	996.8074
228.376	1012.70773
228.918	1040.95143
229.459	1080.02425
230	1090.91551
230.541	1020.72221
231.082	1063.89274
231.622	1043.76451
232.163	1060.92674
232.704	1029.90664
233.244	1073.01749
233.784	1061.90278
234.324	1102.788
234.864	1002.6908
235.404	1023.7979
235.944	1071.85704
236.484	1064.95453
237.023	1098.90351
237.563	1064.79192
238.102	957.68072
238.641	1098.05506
239.18	1058.82814
239.719	1086.99703
240.258	1128.77724
240.797	1046.82073
241.335	1114.9782
241.874	1069.42036
242.412	1139.97327
242.95	1113.97285
243.488	1102.82305
244.026	1091.80329
244.564	1128.61001
245.102	1134.7929
245.64	1096.91305
246.177	1066.73805
246.715	1158.99309
247.252	1087.78281
247.789	1085.3722
248.326	1140.99115
248.863	1054.60677
249.4	1099.74275
249.936	1121.57148
250.473	1100.82073
251.009	1203.98162
251.546	1172.76456
252.082	1085.63524
252.618	1160.81954
253.154	1173.03439
253.69	1064.70773
254.226	1070.83721
254.761	1082.70146
255.297	1121.73324
255.832	1128.88164
256.367	1123.85334
256.903	1171.79517
257.438	1142.88847
257.972	1142.75096
258.507	1179.90659
259.042	1164.73153
259.576	1177.77478
260.111	1194.9034
260.645	1177.75364
261.179	1228.98458
261.713	1150.78923
262.247	1154.87591
262.781	1166.6761
263.315	1199.06329
263.849	1178.09634
264.382	1234.93075
264.915	1237.98745
265.449	1192.07999
265.982	1172.80041
266.515	1157.94127
267.048	1149.71784
267.58	1189.728
268.113	1226.82113
268.646	1239.12681
269.178	1197.83313
269.71	1170.70907
270.243	1298.9452
270.775	1218.18116
271.307	1209.00251
271.838	1211.94983
272.37	1249.11792
272.902	1303.98959
273.433	1196.73023
273.965	1203.99582
274.496	1163.02228
275.027	1265.12565
275.558	1227.03249
276.089	1257.13613
276.62	1181.09037
277.15	1208.03322
277.681	1221.72697
278.211	1276.13439
278.741	1207.81382
279.272	1212.88409
279.802	1227.09941
280.332	1272.04584
280.861	1313.07016
281.391	1288.95321
281.921	1317.08483
282.45	1249.12928
282.98	1264.25578
283.509	1267.84002
284.038	1288.93703
284.567	1299.9811
285.096	1320.13072
285.625	1337.97123
286.153	1335.05946
286.682	1303.9475
287.21	1309.0768
287.739	1325.01417
288.267	1390.19941
288.795	1368.41601
289.323	1318.03006
289.851	1364.0477
290.378	1355.934
290.906	1453.27836
291.433	1361.21274
291.961	1363.96251
292.488	1434.29801
293.015	1369.0755
293.542	1380.26194
294.069	1369.19246
294.596	1373.13338
295.122	1395.13779
295.649	1414.91839
296.175	1364.0758
296.702	1454.17377
297.228	1459.13773
297.754	1368.86972
298.28	1493.01775
298.806	1523.22854
299.332	1468.91275
299.857	1488.98743
300.383	1523.38366
300.908	1467.24129
301.433	1480.21833
301.958	1492.05775
302.483	1496.27599
303.008	1440.15262
303.533	1574.4918
304.058	1443.99451
304.582	1487.11715
305.107	1496.41974
305.631	1505.96367
306.155	1576.09231
306.679	1561.13026
307.203	1619.12422
307.727	1658.22486
308.251	1582.29558
308.775	1641.23833
309.298	1648.22275
309.822	1701.43538
310.345	1728.18831
310.868	1719.27897
311.391	1677.26035
311.914	1761.44206
312.437	1702.97678
312.96	1738.13977
313.482	1610.09746
314.005	1795.45391
314.527	1764.54961
315.049	1854.46424
315.571	1768.98053
316.093	1885.34584
316.615	1805.21271
317.137	1845.89888
317.659	1936.31586
318.18	1932.32082
318.702	1886.10556
319.223	1886.72109
319.744	1969.96693
320.265	1975.24934
320.786	1954.33475
321.307	2037.38801
321.828	2025.97579
322.348	2025.11217
322.869	2103.19047
323.389	2023.13532
323.909	2011.93846
324.43	2110.2112
324.95	2133.93342
325.47	2178.2771
325.989	2113.99078
326.509	2326.91617
327.029	2324.95078
327.548	2315.89635
328.067	2316.11776
328.587	2340.17507
329.106	2303.80328
329.625	2331.3803
330.144	2432.94757
330.662	2422.87334
331.181	2441.83633
331.7	2537.9172
332.218	2578.52835
332.736	2562.7847
333.255	2694.7867
333.773	2611.8854
334.291	2735.06864
334.808	2693.62009
335.326	2608.49684
335.844	2750.60879
336.361	2687.92196
336.879	2818.58097
337.396	2836.65979
337.913	3029.32636
338.43	3000.35822
338.947	2963.38677
339.464	3139.09988
339.981	3060.47316
340.497	3064.56543
341.014	3167.54991
341.53	3251.13961
342.046	3184.4767
342.562	3154.51478
343.078	3379.09285
343.594	3358.22701
344.11	3394.18381
344.626	3426.38114
345.141	3401.91087
345.657	3508.77301
346.172	3374.06431
346.687	3552.85654
347.202	3542.62553
347.717	3599.81235
348.232	3669.95558
348.747	3669.65972
349.261	3640.3505
349.776	3642.67284
350.29	3809.8757
350.805	3900.65163
351.319	3874.31975
351.833	3869.34945
352.347	3856.42285
352.861	3968.30504
353.374	4001.19703
353.888	4051.37755
354.401	4017.13958
354.915	4002.04374
355.428	4082.37205
355.941	4225.02479
356.454	4273.75468
356.967	4310.06867
357.48	4169.91758
357.993	4335.14425
358.505	4336.06444
359.018	4478.94457
359.53	4567.849
360.042	4597.53212
360.554	4457.80466
361.066	4487.88648
361.578	4436.48178
362.09	4532.7412
362.602	4538.46229
363.113	4720.50228
363.625	4787.45407
364.136	4835.33031
364.647	4784.45651
365.158	4841.35566
365.669	4876.46668
366.18	4900.39139
366.691	4980.17079
367.201	4879.41272
367.712	5051.247
368.222	5188.20907
368.733	5171.06275
369.243	5162.04369
369.753	5369.07326
370.263	5464.20713
370.773	5432.24924
371.282	5460.06523
371.792	5826.16866
372.301	6001.26037
372.811	6012.31632
373.32	5900.14711
373.829	6114.30054
374.338	6463.72272
374.847	6556.83597
375.356	6773.12987
375.865	7103.2146
376.373	7425.8086
376.882	7623.98168
377.39	7544.0864
377.898	7881.1039
378.407	8124.15105
378.915	8683.36926
379.423	8928.82696
379.93	9222.57255
380.438	9675.34643
380.946	10131.576
381.453	10370.11335
381.96	10941.37195
382.468	11648.3109
382.975	12586.13635
383.482	12792.50451
383.989	13030.33525
384.495	13482.12144
385.002	14142.87211
385.509	14967.30229
386.015	16005.83117
386.521	16818.20858
387.028	17322.35139
387.534	18110.47383
388.04	18810.96159
388.546	19050.57137
389.051	20015.58193
389.557	21564.01184
390.063	23354.69077
390.568	24124.29248
391.073	24620.5769
391.578	25701.45852
392.084	26289.68736
392.589	27171.41479
393.093	29154.69092
393.598	31578.19313
394.103	34698.53381
394.607	37946.22438
395.112	40867.61511
395.616	43068.70409
396.12	46282.92674
396.624	45706.06532
397.128	45041.38363
397.632	42674.3298
398.136	41053.8128
398.639	39575.50194
399.143	37072.18751
399.646	33425.07685
400.15	30257.92651
400.653	26744.30161
401.156	22069.35973
401.659	15501.4617
402.162	4304.81735
402.664	865.43837
403.167	0
403.67	0
404.172	0
404.674	0
405.176	0
405.678	0
406.18	0
406.682	0
407.184	0
407.686	0
408.187	0
408.688	0
409.19	0
409.691	0
410.192	0
410.693	0
411.194	0
411.694	11.28237
412.195	3122.18734
412.696	8274.79556
413.196	11824.3934
413.696	13768.63585
414.196	13509.3687
414.696	14514.78924
415.196	16680.3865
415.696	20882.81744
416.196	28662.6172
416.695	36400.56296
417.195	40282.64143
417.694	41360.26869
418.194	42711.87066
418.693	44201.96737
419.192	45008.95072
419.691	45305.8869
420.19	45830.68337
420.688	46191.2227
421.187	46668.04785
421.685	48102.17801
422.184	46295.68892
422.682	39909.60688
423.18	34228.43515
423.678	30723.62864
424.176	28241.84681
424.674	26457.19403
425.172	25293.61174
425.669	24094.37389
426.167	22177.77526
426.664	20392.75137
427.161	18665.74412
427.659	17187.6415
428.156	16140.73009
428.652	15087.84957
429.149	14565.4311
429.646	14046.56026
430.143	13447.84903
430.639	12410.50273
431.135	11843.43411
431.632	11235.59206
432.128	10325.77814
432.624	9798.59466
433.12	9543.45777
433.616	9176.11886
434.111	8819.80806
434.607	8525.20052
435.103	8426.29928
435.598	8011.75101
436.093	7789.58429
436.588	7400.15812
437.083	7081.1578
437.578	6609.09571
438.073	6271.44678
438.568	6316.47372
439.062	6170.43447
439.557	5830.10609
440.051	5600.9949
440.546	5388.95769
441.04	5238.99183
441.534	5206.14964
442.028	5104.04754
442.522	5029.07374
443.015	4940.00866
443.509	4889.17746
444.002	4618.30204
444.496	4563.12163
444.989	4587.40429
445.482	4552.52726
445.975	4546.2068
446.468	4436.12295
446.961	4515.26609
447.454	4267.42196
447.947	4206.61736
448.439	4097.69087
448.931	4131.52786
449.424	3982.00116
449.916	4038.83535
450.408	3853.72043
450.9	3890.02729
451.392	3750.20496
451.884	3625.9575
452.375	3689.47287
452.867	3708.89088
453.358	3596.07951
453.849	3385.97098
454.341	3509.10149
454.832	3335.09101
455.323	3309.55177
455.814	3459.23206
456.304	3343.33244
456.795	3156.35705
457.285	3083.35061
457.776	3138.48123
458.266	3064.72553
458.756	3047.7871
459.247	2966.8643
459.737	2986.88453
460.226	2917.65318
460.716	2862.03975
461.206	2788.01327
461.695	2777.35805
462.185	2710.04908
462.674	2658.0066
463.163	2645.9537
463.653	2651.69666
464.142	2655.39264
464.63	2594.37481
465.119	2623.30257
465.608	2446.26927
466.096	2540.09426
466.585	2459.30776
467.073	2407.41158
467.561	2400.47945
468.05	2415.39429
468.538	2259.6286
469.026	2272.51293
469.513	2177.20157
470.001	2227.45541
470.489	2137.56659
470.976	2082.47735
471.463	2085.84878
471.951	2033.81612
472.438	1986.69632
472.925	1954.71413
473.412	1808.68767
473.899	1796.57284
474.385	1791.78343
474.872	1857.72269
475.359	1807.88235
475.845	1677.37218
476.331	1668.40367
476.817	1605.83614
477.303	1573.61037
477.789	1568.76149
478.275	1533.91407
478.761	1413.64721
479.247	1441.47906
479.732	1456.84861
480.218	1496.06071
480.703	1466.89858
481.188	1383.47746
481.673	1380.58738
482.158	1402.50469
482.643	1357.83835
483.128	1265.57929
483.612	1266.6231
484.097	1273.71324
484.581	1199.60634
485.066	1143.61884
485.55	1120.38902
486.034	1175.44214
486.518	1157.6244
487.002	1181.74059
487.486	1077.64542
487.969	1034.57332
488.453	1002.59961
488.936	999.39934
489.42	984.32357
489.903	1073.7237
490.386	947.88757
490.869	954.28972
491.352	948.5277
491.835	879.1446
492.318	971.41021
492.8	813.08691
493.283	863.48596
493.765	820.40309
494.247	837.32426
494.73	868.2751
495.212	842.3962
495.694	802.26833
496.175	751.25552
496.657	762.24579
497.139	679.74795
497.62	671.16509
498.102	713.28209
498.583	702.27099
499.064	603.95601
499.545	694.13051
500.026	717.13643
500.507	694.1603
500.988	647.16913
501.469	602.13566
501.949	677.22221
502.43	605.07804
502.91	532.80105
503.39	569.06357
503.87	593.04025
504.35	631.09084
504.83	565.92148
505.31	588.07177
505.79	608.10215
506.269	582.01315
506.749	564.9796
507.228	520.92469
507.707	575.9557
508.187	531.94156
508.666	601.13183
509.145	527.95975
509.623	512.93029
510.102	588.08261
510.581	533.99136
511.059	527.02628
511.538	513.03405
512.016	565.02325
512.494	549.03371
512.972	506.93528
513.45	483.8787
513.928	526.98393
514.406	543.03192
514.884	510.02682
515.361	472.88071
515.839	470.82404
516.316	537.98689
516.793	534.05993
517.27	526.98734
517.747	572.16087
518.224	534.9555
518.701	467.79923
519.178	510.00371
519.654	475.88741
520.131	535.04486
520.607	502.97015
521.083	472.84583
521.56	516.96808
522.036	473.80559
522.512	457.88677
522.987	429.81257
523.463	465.89369
523.939	404.77812
524.414	502.90146
524.89	452.85426
525.365	536.95019
525.84	465.8868
526.315	400.76819
526.79	448.79495
527.265	472.84147
527.74	521.0035
528.215	464.87008
528.689	441.78029
529.164	442.76435
529.638	438.90652
530.112	448.85002
530.587	398.66957
531.061	393.76513
531.534	457.88974
532.008	473.91125
532.482	493.88279
532.956	483.99539
533.429	456.88842
533.903	398.68311
534.376	452.80831
534.849	428.79187
535.322	473.90731
535.795	467.91613
536.268	461.89283
536.741	387.75918
537.213	471.86731
537.686	470.9353
538.158	412.7455
538.631	412.80918
539.103	505.91081
539.575	382.63073
540.047	457.80777
540.519	399.77385
540.991	416.82167
541.463	462.90525
541.934	493.901
542.406	438.86309
542.877	498.91175
543.348	425.82822
543.82	440.86459
544.291	445.83588
544.762	536.01883
545.233	422.85737
545.703	534.94959
546.174	514.92871
546.645	535.04288
547.115	516.98527
547.585	505.91128
548.056	548.03764
548.526	584.05371
548.996	553.01524
549.466	637.18389
549.935	667.18939
550.405	649.05849
550.875	678.22058
551.344	686.22429
551.814	641.08878
552.283	698.10463
552.752	718.23801
553.221	748.19286
553.69	824.29727
554.159	741.3271
554.628	773.21355
555.096	707.32664
555.565	763.25334
556.033	627.09773
556.502	660.20209
556.97	511.84924
557.438	582.08013
557.906	508.94884
558.374	519.96292
558.842	490.95104
559.31	403.72977
559.777	418.84382
560.245	426.83313
560.712	407.76525
561.18	359.66369
561.647	409.76333
562.114	427.80997
562.581	412.83668
563.048	426.80866
563.514	334.68509
563.981	450.85048
564.448	397.74975
564.914	368.7098
565.381	406.77445
565.847	361.69881
566.313	375.72869
566.779	418.78303
567.245	431.8511
567.711	312.62579
568.176	360.6747
568.642	434.93359
569.108	393.80957
569.573	400.77894
570.038	373.65169
570.504	374.69783
570.969	441.92355
571.434	377.69348
571.899	434.85883
572.363	383.71409
572.828	433.79251
573.293	425.80106
573.757	420.79533
574.222	372.68033
574.686	410.75932
575.15	426.83589
575.614	420.79144
576.078	389.7541
576.542	443.81778
577.006	416.76812
577.469	390.77682
577.933	498.90669
578.396	451.88892
578.86	443.84279
579.323	464.9182
579.786	437.76194
580.249	495.93577
580.712	409.82812
581.175	376.78274
581.637	453.83876
582.1	398.71612
582.563	383.66599
583.025	417.84973
583.487	395.65673
583.95	434.7633
584.412	458.77435
584.874	377.7511
585.336	418.82174
585.797	451.78137
586.259	387.7556
586.721	455.90018
587.182	404.77326
587.643	380.71184
588.105	386.76098
588.566	387.66974
589.027	318.63724
589.488	381.71882
589.949	420.84086
590.41	396.64189
590.87	386.72593
591.331	396.70302
591.791	384.7396
592.252	395.76317
592.712	466.92604
593.172	432.81366
593.632	411.74313
594.092	423.77577
594.552	387.67937
595.011	452.86472
595.471	393.72801
595.931	452.82792
596.39	415.82373
596.849	439.84859
597.308	481.84134
597.768	466.98862
598.227	398.78722
598.685	374.70683
599.144	367.71757
599.603	416.80933
600.062	459.80877
600.52	359.669
600.978	447.89139
601.437	415.77991
601.895	372.65697
602.353	439.81364
602.811	419.77153
603.269	463.91901
603.727	433.86066
604.184	411.77315
604.642	384.79192
605.099	410.79082
605.557	431.88345
606.014	426.76966
606.471	419.88679
606.928	513.91294
607.385	509.01233
607.842	658.18026
608.299	623.10732
608.755	594.12657
609.212	519.90976
609.668	564.02742
610.125	557.05703
610.581	543.00335
611.037	497.91198
611.493	431.83712
611.949	397.81229
612.405	426.72609
612.861	448.87118
613.316	389.7952
613.772	348.67058
614.227	378.76168
614.683	398.71723
615.138	409.81864
615.593	405.80613
616.048	445.85813
616.503	403.84323
616.958	425.90814
617.412	397.81008
617.867	381.72729
618.321	424.74922
618.776	326.62667
619.23	408.82515
619.684	341.65156
620.138	302.58865
620.592	315.67224
621.046	301.61141
621.5	344.73142
621.954	319.62637
622.407	357.70364
622.861	320.68454
623.314	331.65884
623.768	294.6025
624.221	330.57913
624.674	301.6128
625.127	308.64489
625.58	348.69316
626.033	290.56688
626.485	290.62252
626.938	286.61208
627.39	266.55647
627.843	287.59308
628.295	268.56065
628.747	286.6036
629.199	247.51935
629.651	319.66423
630.103	284.58728
630.555	253.50194
631.006	246.52648
631.458	232.50167
631.909	188.39399
632.361	212.45999
632.812	184.39516
633.263	180.36354
633.714	175.35092
634.165	156.35131
634.616	199.44291
635.067	184.38032
635.518	150.33849
635.968	185.34919
636.419	220.45228
636.869	146.32974
637.319	110.24061
637.769	181.38796
638.219	206.46201
638.669	137.31502
639.119	126.29222
639.569	156.3605
640.019	121.26853
640.468	149.31868
640.918	126.28898
641.367	207.45326
641.816	123.2625
642.265	86.19193
642.714	116.26177
643.163	150.336
643.612	139.33008
644.061	114.24198
644.51	109.24331
644.958	190.4156
645.406	92.21506
645.855	144.34202
646.303	122.27374
646.751	121.27322
647.199	112.24809
647.647	103.23362
648.095	106.24087
648.543	85.17218
648.99	99.23219
649.438	61.13937
649.885	100.24162
650.333	114.22168
650.78	109.26014
651.227	90.2145
651.674	101.22899
652.121	97.2323
652.568	92.2207
653.015	119.29559
653.461	70.16575
653.908	75.17094
654.354	81.18901
654.801	113.26441
655.247	79.1697
655.693	62.15778
656.139	80.19045
656.585	67.15892
657.031	87.20277
657.477	24.05181
657.922	77.17564
658.368	91.22199
658.813	47.10885
659.259	59.14259
659.704	68.15952
660.149	114.26711
660.594	85.1992
661.039	80.18156
661.484	101.23762
661.929	57.13285
662.373	50.12449
662.818	71.17533
663.262	104.24901
663.707	49.12349
664.151	96.23196
664.595	25.06076
665.039	82.20372
665.483	75.18901
665.927	45.1062
666.371	74.17305
666.814	61.14597
667.258	92.217
667.701	70.1515
668.145	101.24831
668.588	89.21857
669.031	88.20724
669.474	75.18207
669.917	79.17452
670.36	67.16661
670.803	74.17671
671.245	76.16153
671.688	63.15151
672.13	72.16321
672.573	115.29022
673.015	52.12522
673.457	34.07535
673.899	77.18679
674.341	72.17404
674.783	120.2929
675.225	46.11266
675.666	66.16188
676.108	37.08228
676.549	58.13808
676.991	103.23277
677.432	81.16581
677.873	65.15436
678.314	74.1788
678.755	69.16933
679.196	69.16101
679.637	73.17821
680.078	96.22326
680.518	47.10946
680.959	103.25183
681.399	61.15274
681.839	88.21719
682.28	111.27582
682.72	70.16273
683.16	84.21074
683.6	54.12415
684.039	-6.01278
684.479	40.10014
684.919	66.15736
685.358	95.24223
685.798	78.20603
686.237	78.19017
686.676	59.13708
687.115	107.25252
687.554	74.17847
687.993	57.12918
688.432	115.27161
688.871	78.18119
689.309	40.09585
689.748	75.16118
690.186	67.16198
690.625	139.33237
691.063	70.17041
691.501	72.17881
691.939	81.20457
692.377	73.18067
692.815	132.32183
693.253	70.16965
693.69	105.23758
694.128	100.24871
694.565	101.24501
695.003	76.19444
695.44	16.038
695.877	39.09261
696.314	77.17032
696.751	65.14899
697.188	54.12653
697.625	109.25375
698.061	73.17715
698.498	42.10248
698.934	83.20346
699.371	105.2527
699.807	93.22382
700.243	96.23685
700.679	64.14631
701.115	99.23292
701.551	103.24535
701.987	44.09998
702.422	106.25506
702.858	75.18201
703.294	70.16067
703.729	120.29606
704.164	126.30651
704.599	84.1908
705.035	126.29257
705.47	58.14257
705.904	155.36991
706.339	109.25455
706.774	103.24638
707.209	103.2428
707.643	98.23795
708.078	113.27751
708.512	77.19634
708.946	114.2742
709.38	47.11247
709.814	105.24318
710.248	42.10336
710.682	105.25423
711.116	63.15615
711.549	70.1834
711.983	138.32208
712.416	99.23482
712.85	58.14541
713.283	102.24394
713.716	85.2126
714.149	133.31802
714.582	57.12944
715.015	89.22373
715.448	115.28888
715.881	85.1855
716.313	124.2935
716.746	127.30286
717.178	65.15839
717.61	90.22758
718.043	121.30318
718.475	109.2658
718.907	83.20805
719.339	89.20711
719.77	107.25722
720.202	73.18463
720.634	116.28588
721.065	122.28943
721.497	118.28963
721.928	107.2653
722.359	153.37421
722.79	109.26332
723.221	105.26281
723.652	91.23179
724.083	135.30869
724.514	132.30626
724.945	59.13919
725.375	187.44166
725.806	179.44639
726.236	159.40269
726.666	127.30228
727.096	145.35622
727.526	124.31923
727.956	175.40385
728.386	119.28965
728.816	152.38449
729.246	156.38147
729.675	184.45478
730.105	150.36434
730.534	141.32837
730.964	143.35766
731.393	175.42435
731.822	170.43108
732.251	176.44154
732.68	217.50933
733.109	135.333
733.537	171.41215
733.966	212.51762
734.395	180.41166
734.823	178.39872
735.251	146.34757
735.68	238.58434
736.108	215.53635
736.536	223.51563
736.964	214.49138
737.392	171.41962
737.82	251.58567
738.247	231.54049
738.675	202.4681
739.102	209.51552
739.53	271.67725
739.957	233.5884
740.384	242.57453
740.811	273.67112
741.238	225.53449
741.665	246.56259
742.092	266.61785
742.519	267.65007
742.945	291.67898
743.372	291.69496
743.798	290.71593
744.225	304.7022
744.651	316.76977
745.077	270.65258
745.503	267.62544
745.929	315.72543
746.355	296.7
746.781	333.80102
747.207	385.87846
747.632	345.82074
748.058	335.80613
748.483	349.77028
748.908	396.9375
749.334	380.89373
749.759	354.80139
750.184	362.83148
750.609	390.90509
751.033	406.90149
751.458	392.83383
751.883	399.9331
752.307	421.93731
752.732	398.95169
753.156	451.0418
753.58	445.98006
754.005	458.08832
754.429	486.05559
754.853	466.08397
755.277	493.08694
755.7	555.27533
756.124	541.24262
756.548	563.23427
756.971	545.20629
757.394	503.18373
757.818	540.28102
758.241	610.40883
758.664	579.33849
759.087	599.22932
759.51	537.22112
759.933	625.3721
760.356	601.37895
760.778	564.25489
761.201	668.44416
761.623	680.472
762.046	701.47196
762.468	730.52315
762.89	696.50475
763.312	685.47369
763.734	715.51391
764.156	747.62164
764.578	665.33918
765	734.55925
765.421	741.68413
765.843	754.71403
766.264	813.70887
766.686	845.85469
767.107	785.65865
767.528	841.85594
767.949	819.79911
768.37	826.75941
768.791	832.73465
769.212	858.88126
769.632	845.72244
770.053	850.9618
770.473	875.85055
770.894	861.8344
771.314	841.70109
771.734	840.67157
772.154	840.85566
772.575	886.72646
772.994	827.61477
773.414	910.85715
773.834	948.02554
774.254	941.96596
774.673	945.93604
775.093	925.96401
775.512	910.91331
775.931	935.01017
776.351	922.92921
776.77	913.91163
777.189	898.80616
777.607	924.0149
778.026	877.88303
778.445	946.05338
778.864	888.94297
779.282	861.78048
779.701	824.78093
780.119	906.96322
780.537	810.7529
780.955	899.96168
781.373	825.75159
781.791	843.6072
782.209	835.61886
782.627	789.82499
783.045	800.57563
783.462	855.91273
783.88	841.89065
784.297	806.76721
784.715	845.92749
785.132	747.59275
785.549	763.65148
785.966	787.72445
786.383	842.80281
786.8	759.52875
787.217	684.44348
787.633	671.5108
788.05	719.48989
788.466	669.37443
788.883	721.65845
789.299	690.47587
789.715	682.47822
790.131	674.49249
790.547	651.44481
790.963	636.40768
791.379	612.39889
791.795	607.24632
792.21	556.16276
792.626	616.31628
793.041	598.34437
793.457	523.18396
793.872	570.21523
794.287	513.14763
794.702	572.27219
795.117	478.10188
795.532	526.22184
795.947	512.11452
796.362	497.0793
796.776	491.03953
797.191	499.1323
797.605	479.06308
798.02	426.971
798.434	433.89236
798.848	464.067
799.262	447.03582
799.676	406.92281
800.09	391.91404
800.504	366.84537
800.918	387.84592
801.331	377.92089
801.745	401.87873
802.158	329.77697
802.572	324.74332
802.985	325.74218
803.398	337.76896
803.811	336.80991
804.224	285.67647
804.637	277.63742
805.05	316.69585
805.462	266.62566
805.875	279.70479
806.288	302.70866
806.7	260.62889
807.112	208.46266
807.525	284.66877
807.937	281.67954
808.349	305.7334
808.761	299.71325
809.173	215.51388
809.584	252.59942
809.996	194.46555
810.408	223.56757
810.819	259.59339
811.231	343.86672
811.642	356.8177
812.053	409.90834
812.464	438.94179
812.875	381.90078
813.286	325.78237
813.697	186.4096
814.108	188.44548
814.519	191.41858
814.929	183.45719
815.34	182.4341
815.75	208.51899
816.16	171.4148
816.571	146.37167
816.981	181.42152
817.391	231.54831
817.801	161.39684
818.211	114.26408
818.62	158.37368
819.03	115.27823
819.44	144.36762
819.849	135.33569
820.259	139.35129
820.668	142.34879
821.077	117.29073
821.486	114.27223
821.895	135.32588
822.304	143.37102
822.713	149.35123
823.122	98.24445
823.531	122.28899
823.939	125.30391
824.348	144.34793
824.756	75.18779
825.164	113.28181
825.573	122.30243
825.981	110.27159
826.389	74.18371
826.797	84.21029
827.205	74.17264
827.612	97.23698
828.02	129.30574
828.428	107.27042
828.835	140.36842
829.243	74.17468
829.65	102.25221
830.057	88.21207
830.464	131.31503
830.871	134.31704
831.278	144.34872
831.685	75.167
832.092	87.21168
832.499	125.27602
832.905	64.16074
833.312	76.17214
833.718	53.13208
834.124	90.20326
834.531	65.16328
834.937	99.25394
835.343	72.17285
835.749	98.22746
836.155	98.25703
836.561	87.21484
836.966	43.104
837.372	87.22144
837.777	34.08459
838.183	59.13186
838.588	97.24235
838.993	113.27319
839.399	51.12622
839.804	61.15108
840.209	82.21037
840.613	28.06321
841.018	34.0861
841.423	64.16511
841.828	80.20345
842.232	41.10054
842.637	42.09941
843.041	51.13178
843.445	69.17439
843.849	62.15392
844.253	101.23846
844.657	33.08373
845.061	2.00459
845.465	86.20976
845.869	21.04864
846.272	95.23546
846.676	19.04613
847.079	51.1305
847.483	68.17029
847.886	2.00482
848.289	69.18582
848.692	34.08619
849.095	49.1186
849.498	46.11445
849.901	80.18436
850.304	71.16867
850.707	16.04106
851.109	0
851.512	41.10143
851.914	0
852.316	25.06334
852.718	-20.0521
853.121	54.13289
853.523	23.05405
853.925	54.14192
854.326	32.08138
854.728	55.14162
855.13	50.13078
855.531	33.07987
855.933	25.05994
856.334	56.14095
856.736	86.19455
857.137	47.1111
857.538	54.1367
857.939	6.01503
858.34	2.00487
858.741	50.12989
859.142	46.11027
859.542	47.12475
859.943	19.04747
860.343	21.05287
860.744	66.15977
861.144	25.0616
861.544	46.11278
861.945	33.08388
862.345	25.06169
862.745	43.1079
863.145	8.01916
863.544	-5.01276
863.944	7.01652
864.344	42.10435
864.743	42.10381
865.143	66.1695
865.542	15.0351
865.941	31.07726
866.34	27.06461
866.74	42.11287
867.139	52.12711
867.537	7.01776
867.936	35.08443
868.335	3.00764
868.734	34.08647
869.132	17.03956
869.531	40.09614
869.929	85.19756
870.327	41.09931
870.726	-31.07695
871.124	15.03524
871.522	30.07662
871.92	35.08525
872.318	39.09578
872.715	42.10313
873.113	37.091
873.511	14.03521
873.908	26.06708
874.306	15.03777
874.703	45.11223
875.1	28.07118
875.497	52.12588
875.894	56.14029
876.291	16.03949
876.688	16.04138
877.085	39.09343
877.482	48.12064
877.878	23.05569
878.275	14.03622
878.671	16.03565
879.068	-5.01198
879.464	20.04825
879.86	-3.00721
880.256	40.09862
880.652	45.11539
881.048	-8.01975
881.444	29.06977
881.84	68.17366
882.236	5.01259
882.631	18.04403
883.027	32.07706
883.422	46.11777
883.817	-7.01791
884.213	25.0646
884.608	49.1218
885.003	53.12847
885.398	24.06071
885.793	36.09081
886.188	25.06343
886.582	60.15161
886.977	9.02136
887.371	43.1093
887.766	47.11993
888.16	10.02477
888.554	-10.02462
888.949	25.06237
889.343	21.05071
889.737	-13.03513
890.131	53.13419
890.525	15.03845
890.918	18.04565
891.312	-8.01915
891.706	41.10799
892.099	96.24439
892.492	3.00652
892.886	36.0883
893.279	75.19205
893.672	-21.05438
894.065	22.05543
894.458	21.05307
894.851	47.11487
895.244	30.07678
895.637	36.08689
896.029	23.0564
896.422	-7.01729
896.814	21.05247
897.206	41.09987
897.599	42.10324
897.991	36.08813
898.383	-8.01907
898.775	22.04991
899.167	23.05432
899.559	34.08573
899.951	-32.0765
900.342	22.05589
900.734	45.11414
901.125	36.09416
901.517	5.01242
901.908	57.13676
902.299	13.03219
902.69	31.0733
903.082	37.08939
903.473	-4.0097
903.863	32.0819
904.254	34.08038
904.645	25.06151
905.036	39.09649
905.426	25.05641
905.817	60.1482
906.207	43.10341
906.597	6.01429
906.987	42.10922
907.378	1.00255
907.768	5.01321
908.158	3.00735
908.547	3.00786
908.937	30.07718
909.327	10.02452
909.717	41.10421
910.106	28.06801
910.495	39.09638
910.885	27.06838
911.274	4.01004
911.663	-29.07363
912.052	18.0442
912.441	58.14807
912.83	1.00232
913.219	3.0078
913.608	16.03914
913.997	15.03834
914.385	52.12394
914.774	55.13362
915.162	11.02667
915.55	14.03382
915.939	17.04347
916.327	51.12802
916.715	32.08261
917.103	5.01217
917.491	11.02731
917.878	-3.00742
918.266	-9.02362
918.654	51.13114
919.041	50.13225
919.429	37.08864
919.816	10.02536
920.203	6.01479
920.591	23.05705
920.978	18.0443
921.365	4.01057
921.752	25.0604
922.139	9.01959
922.525	-6.01465
922.912	25.06096
923.299	0
923.685	15.03976
924.072	-10.02291
924.458	-11.02762
924.844	30.07524
925.231	-22.05185
925.617	72.18517
926.003	-1.00255
926.389	14.03544
926.774	26.06675
927.16	4.00991
927.546	-6.01553
927.931	2.00502
928.317	5.0116
928.702	-59.13989
929.088	-15.0361
929.473	15.03788
929.858	24.05906
930.243	66.15959
930.628	-30.07358
931.013	-8.01986
931.398	38.0874
931.783	4.01049
932.167	47.11538
932.552	-48.11999
932.937	-23.05699
933.321	33.08379
933.705	-34.08607
934.09	45.11247
934.474	22.05272
934.858	-7.01826
935.242	-20.04759
935.626	-32.08281
936.009	27.07174
936.393	17.04345
936.777	-8.02078
937.16	-6.01578
937.544	-3.00706
937.927	-31.07982
938.311	32.07761
938.694	7.01841
939.077	38.09227
939.46	-17.04178
939.843	27.05692
940.226	-5.01287
940.609	-3.00703
940.991	-3.00775
941.374	-12.02956
941.757	9.02234
942.139	-9.02077
942.522	-54.12831
942.904	28.06811
943.286	16.04068
943.668	-1.0026
944.05	35.08802
944.432	54.13475
944.814	6.01472
945.196	-10.02491
945.578	27.06577
945.959	44.10273
946.341	39.09375
946.722	14.03305
947.104	-2.0048
947.485	8.01863
947.866	29.07413
948.247	30.07643
948.628	-4.00982
949.009	48.12405
949.39	29.07238
949.771	-17.03962
950.152	-16.03972
950.532	0
950.913	-2.0048
951.293	32.08757
951.674	-11.0267
952.054	-36.08963
952.434	-47.11726
952.814	-6.01435
953.194	26.06789
953.574	41.10143
953.954	34.08209
954.334	23.0578
954.714	-14.03467
955.093	28.06895
955.473	-15.03806
955.853	15.03892
956.232	-5.0136
956.611	10.02372
956.99	4.0102
957.37	-1.00257
957.749	55.13242
958.128	20.05092
958.506	23.05996
958.885	-11.0281
959.264	11.02723
959.643	-6.01371
960.021	-13.03255
960.4	-38.0861
960.778	44.10828
961.156	-14.03548
961.535	2.00472
961.913	48.11238
962.291	33.08592
962.669	8.02043
963.047	11.02814
963.424	23.05865
963.802	30.07451
964.18	-4.01007
964.557	-22.05034
964.935	-5.01191
965.312	12.03157
965.69	28.07015
966.067	43.1056
966.444	43.10669
966.821	20.05167
967.198	-12.02908
967.575	-59.14677
967.952	36.08452
968.329	-29.0708
968.705	19.04081
969.082	1.00259
969.458	7.0171
969.835	39.09528
970.211	35.09047
970.587	61.15136
970.963	2.00515
971.339	12.03155
971.715	15.03721
972.091	-2.00493
972.467	22.05529
972.843	-16.03994
973.219	25.05937
973.594	-16.04262
973.97	-12.02837
974.345	-42.10167
974.721	38.09223
975.096	2.00485
975.471	57.13562
975.846	-2.00481
976.221	36.09188
976.596	-17.04108
976.971	-34.08435
977.346	-24.05641
977.72	35.08997
978.095	-1.00259
978.469	65.1556
978.844	14.03501
979.218	69.16732
979.593	28.06745
979.967	-9.02197
980.341	-2.00465
980.715	14.03535
981.089	14.03517
981.463	13.03026
981.837	9.02229
982.21	44.10124
982.584	0
982.957	14.03549
983.331	66.15622
983.704	-39.09716
984.078	19.04678
984.451	7.01737
984.824	6.01491
985.197	57.13988
985.57	37.09271
985.943	23.05676
986.316	36.08712
986.688	70.16933
987.061	57.13332
987.434	17.0444
987.806	75.18214
988.179	-4.00945
988.551	-11.0277
988.923	-14.03477
989.295	86.21483
989.667	-3.00737
990.039	38.09496
990.411	-49.11394
990.783	6.01383
991.155	-28.0684
991.527	-1.00245
991.898	53.13333
992.27	29.07345
992.641	-19.04747
993.012	-1.00231
993.384	17.04104
993.755	-17.04335
994.126	38.09192
994.497	37.09201
994.868	43.09923
995.239	3.00732
995.61	0
995.98	-5.01228
996.351	42.10564
996.722	27.06399
997.092	-1.00242
997.462	34.08113
997.833	96.22933
998.203	24.05821
998.573	-7.0176
998.943	-13.03084
999.313	-10.02425
999.683	23.05623
1000.053	77.17777
1000.423	28.06776
1000.792	20.0521
1001.162	90.22384
1001.531	-40.09901
1001.901	27.06743
1002.27	-16.03617
1002.639	19.04872
1003.009	20.0477
1003.378	44.11296
1003.747	0
1004.116	8.01953
1004.485	50.11999
1004.853	22.05575
1005.222	12.03036
1005.591	11.02613
1005.959	21.04848
1006.328	51.1191
1006.696	-23.05582
1007.064	26.06539
1007.433	-35.08722
1007.801	43.10541
1008.169	47.11963
1008.537	-1.00223
1008.905	40.09475
1009.273	-8.01972
1009.64	50.122
1010.008	-50.1194
1010.375	-6.01447
1010.743	-46.10453
1011.11	-9.02153
1011.478	19.04726
1011.845	59.13951
1012.212	19.04393
1012.579	54.13328
1012.946	3.00713
1013.313	-1.00238
1013.68	21.04757
1014.047	-36.08797
1014.414	-16.03853
1014.78	53.13333
1015.147	11.02656
1015.513	25.0604
1015.88	-3.00774
1016.246	-21.05176
1016.612	33.0761
1016.978	-3.00732
1017.344	-3.00739
1017.71	-8.01956
1018.076	-20.04756
1018.442	16.04059
1018.808	33.08388
1019.174	9.02275
1019.539	10.02237
1019.905	21.05041
1020.27	-10.02496
1020.636	13.03116
1021.001	9.02148
1021.366	-59.14468
1021.731	8.02073
1022.096	21.05387
1022.461	37.0882
1022.826	-22.05274
1023.191	8.02109
1023.556	19.04502
1023.92	22.05418
1024.285	10.02423
1024.649	39.0961
1025.014	44.10876
1025.378	5.0127
1025.742	57.14267
1026.107	38.08621
1026.471	-23.05367
1026.835	41.10288
1027.199	2.00493
1027.562	17.04025
1027.926	-12.02938
1028.29	-7.0177
1028.654	23.05337
1029.017	37.09124
1029.381	23.05554
1029.744	-22.05658
1030.107	-2.00476
1030.471	7.01694
1030.834	94.21576
1031.197	-16.03856
1031.56	-27.06434
1031.923	14.03668
1032.286	25.0588
1032.648	-35.08318
1033.011	-11.02554
1033.374	-7.01624
1033.736	29.07692
1034.099	6.01469
1034.461	28.07163
1034.823	-8.02014
1035.185	1.00253
1035.548	15.03678
1035.91	-68.16313
1036.272	-15.03467
1036.634	13.03157
1036.995	0
1037.357	27.06699
1037.719	22.05354
1038.08	-36.08584
1038.442	-40.09629
1038.803	-7.01696
1039.165	35.08956
1039.526	5.01222
1039.887	21.05054
1040.248	20.04987
1040.609	-11.02716
1040.97	-43.10611
1041.331	40.10176
1041.692	72.17233
1042.053	-7.01604
1042.413	49.11295
1042.774	12.02927
1043.134	-15.03554
1043.495	16.04053
1043.855	-47.11427
1044.215	-14.03502
1044.576	30.07301
1044.936	73.16739
1045.296	40.09992
1045.656	51.12599
1046.016	47.11436
1046.375	26.06337
1046.735	7.01621
1047.095	33.07906
1047.454	37.07831
1047.814	3.00729
1048.173	22.05173
1048.533	4.00925
1048.892	0
1049.251	-27.06773
1049.61	11.02757
1049.969	8.0189
1050.328	-25.05451
1050.687	21.05153
1051.046	47.11466
1051.405	0
1051.763	-3.00704
1052.122	0
1052.48	-46.11437
1052.839	56.13296
1053.197	-20.04759
1053.555	24.05423
1053.914	37.0908
1054.272	13.03157
1054.63	29.07159
1054.988	-7.01694
1055.345	4.00878
1055.703	-13.03156
1056.061	16.04129
1056.419	53.13851
1056.776	19.04606
1057.134	-2.00469
1057.491	2.00504
1057.848	10.02494
1058.206	4.00956
1058.563	30.0672
1058.92	20.04651
1059.277	7.01729
1059.634	35.08328
1059.991	-4.00958
1060.348	-12.02753
1060.704	17.04129
1061.061	43.09892
1061.418	28.06895
1061.774	-22.05472
1062.131	47.12674
1062.487	36.08481
1062.843	-30.07518
1063.199	19.04756
1063.555	34.08007
1063.911	-29.07348
1064.267	-15.03155
1064.623	21.05174
1064.979	29.0685
1065.335	37.08749
1065.691	33.07924
1066.046	47.10509
1066.402	19.04387
1066.757	28.07068
1067.112	12.02951
1067.468	22.05304
1067.823	54.13063
1068.178	32.07846
1068.533	-3.00725
1068.888	-21.05014
1069.243	8.01985
1069.598	-4.00979
1069.952	22.05119
1070.307	5.01249
1070.662	24.05817
1071.016	-2.00459
1071.371	-29.06711
1071.725	12.02857
1072.079	-10.02394
1072.434	14.03449
1072.788	5.01198
1073.142	16.03934
1073.496	35.08487
1073.85	1.00235
1074.203	26.0632
1074.557	13.03454
1074.911	1.00237
1075.265	37.08681
1075.618	18.04384
1075.971	6.01447
1076.325	-1.00257
1076.678	34.07982
1077.031	53.12246
1077.385	23.05043
1077.738	-2.00456
1078.091	26.0608
1078.444	20.04633
1078.796	44.10943
1079.149	-25.06228
1079.502	31.07495
1079.855	9.02098
1080.207	-7.01718
1080.56	51.13324
1080.912	19.04597
1081.264	14.03407
1081.617	57.14045
1081.969	-4.01021
1082.321	4.00985
1082.673	-31.07217
1083.025	-8.01902
1083.377	15.03581
1083.728	24.0565
1084.08	13.03271
1084.432	-13.03201
1084.783	6.0142
1085.135	4.0102
1085.486	24.05599
1085.838	15.03719
1086.189	-22.05408
1086.54	-2.00476
1086.891	67.17132
1087.242	-18.04426
1087.593	-4.00975
1087.944	-23.05272
1088.295	16.03634
1088.646	40.09771
1088.996	32.07793
1089.347	-18.04461
1089.698	25.05969
1090.048	25.06513
1090.398	-1.00236
1090.749	-16.03854
1091.099	-13.03303
1091.449	17.04289
1091.799	-1.00252
1092.149	-12.03004
1092.499	-9.02208
1092.849	49.12485
1093.199	53.13141
1093.548	28.0686
1093.898	27.06834
1094.248	-1.00259
1094.597	-12.03146
1094.947	-14.03731
1095.296	45.11129
1095.645	-20.05196
1095.994	-10.02426
1096.343	8.02022
1096.692	-3.00799
1097.041	-23.06327
1097.39	60.15015
1097.739	-9.02351
1098.088	-10.02648
1098.437	7.01875
1098.785	12.03232
1099.134	-11.02894
1099.482	-15.04133
1099.83	14.03656
1100.179	14.03678
1100.527	56.1496
1100.875	32.08538
1101.223	45.11896
1101.571	-35.09701
1101.919	-4.0106
1102.267	36.1021
1102.615	8.02571
1102.962	18.05785
1103.31	15.04823
1103.658	9.02893
