Data from N2 R4 sample 4_Subt2__1__19-20-30-972.txt Node

Date: Wed Aug 27 19:20:30 PDT 2025
User: uwsun
Spectrometer: HDX01956
Trigger mode: 0
Integration Time (sec): 5.000000E-1
Scans to average: 1
Nonlinearity correction enabled: true
Boxcar width: 0
Storing dark spectrum: false
XAxis mode: Wavelengths
Number of Pixels in Spectrum: 2068
>>>>>Begin Spectral Data<<<<<
194.03	443.20557
194.578	458.41001
195.127	430.30931
195.676	424.29577
196.225	444.13041
196.773	455.20517
197.321	692.75932
197.87	928.09499
198.418	980.21692
198.966	1007.29225
199.513	960.12074
200.061	958.154
200.609	941.17798
201.156	904.74826
201.704	981.18467
202.251	977.26132
202.798	1040.3669
203.345	994.13488
203.892	961.11195
204.438	983.04217
204.985	1028.1032
205.532	1022.33152
206.078	1081.27482
206.624	1030.20566
207.17	1025.04476
207.716	985.11508
208.262	982.64529
208.808	1024.19844
209.354	1029.17944
209.899	1034.23888
210.445	987.13748
210.99	1015.11714
211.535	1022.06648
212.08	1018.05276
212.625	1040.23091
213.17	1015.19259
213.715	971.89635
214.259	1010.00967
214.804	1033.1974
215.348	994.961
215.892	998.06008
216.436	1002.98142
216.98	1012.91554
217.524	1005.03898
218.068	952.06642
218.612	1015.21306
219.155	925.90356
219.698	913.89314
220.242	902.95704
220.785	926.88386
221.328	901.98093
221.871	872.91836
222.414	887.95584
222.956	869.85785
223.499	907.78708
224.041	980.9902
224.583	873.62991
225.126	922.78312
225.668	906.95073
226.21	880.95454
226.751	937.79534
227.293	869.74417
227.835	852.83834
228.376	939.8926
228.918	855.91116
229.459	858.91432
230	814.71059
230.541	926.87363
231.082	891.91474
231.622	958.94196
232.163	854.84737
232.704	941.04812
233.244	831.80944
233.784	890.89745
234.324	899.73402
234.864	902.78761
235.404	890.83681
235.944	877.81763
236.484	872.89834
237.023	911.89402
237.563	875.78526
238.102	889.80566
238.641	890.97022
239.18	865.79753
239.719	955.09001
240.258	908.77274
240.797	960.00888
241.335	927.97081
241.874	943.56296
242.412	914.91331
242.95	922.94873
243.488	982.94815
244.026	987.94491
244.564	912.60859
245.102	1029.99084
245.64	944.97875
246.177	907.76117
246.715	937.93517
247.252	870.74337
247.789	906.41948
248.326	922.9623
248.863	955.80967
249.4	922.78991
249.936	979.74279
250.473	971.95537
251.009	946.89757
251.546	1006.92082
252.082	965.78959
252.618	1025.95952
253.154	920.93011
253.69	942.84875
254.226	870.7955
254.761	978.89158
255.297	993.88271
255.832	967.95532
256.367	966.98398
256.903	978.84838
257.438	967.9295
257.972	1012.94626
258.507	1044.06018
259.042	953.7489
259.576	960.78957
260.111	992.95523
260.645	928.71786
261.179	949.90403
261.713	997.89856
262.247	981.9421
262.781	978.73159
263.315	964.027
263.849	1029.20399
264.382	1022.97681
264.915	1016.0618
265.449	1047.19647
265.982	1052.00833
266.515	1045.16444
267.048	928.6701
267.58	997.82707
268.113	1068.9423
268.646	1037.18974
269.178	1105.09203
269.71	952.75012
270.243	993.93115
270.775	1064.3068
271.307	1047.11375
271.838	1015.02757
272.37	1013.12227
272.902	1019.97146
273.433	1074.96506
273.965	1061.17716
274.496	1030.15934
275.027	1051.22705
275.558	1068.19105
276.089	1121.33748
276.62	1113.36262
277.15	1094.26556
277.681	1052.91699
278.211	1065.20787
278.741	1088.01633
279.272	1134.14864
279.802	1105.32638
280.332	1094.18217
280.861	1158.30474
281.391	1085.06402
281.921	1036.08532
282.45	1081.29068
282.98	1123.45583
283.509	1145.13226
284.038	1127.12138
284.567	1071.0688
285.096	1079.18243
285.625	1030.95535
286.153	1105.1671
286.682	1138.1813
287.21	1125.24979
287.739	1151.24905
288.267	1153.31858
288.795	1125.48488
289.323	1144.21382
289.851	1162.21143
290.378	1218.24465
290.906	1234.4721
291.433	1177.41442
291.961	1239.29085
292.488	1166.3667
293.015	1193.29409
293.542	1246.58864
294.069	1203.44907
294.596	1199.41892
295.122	1239.39411
295.649	1151.05811
296.175	1215.41894
296.702	1239.42477
297.228	1232.41613
297.754	1211.19681
298.28	1247.29086
298.806	1203.32991
299.332	1337.35432
299.857	1270.28045
300.383	1251.54117
300.908	1297.57058
301.433	1264.46511
301.958	1327.45652
302.483	1312.6514
303.008	1249.44553
303.533	1303.74943
304.058	1306.40857
304.582	1367.57578
305.107	1313.76693
305.631	1318.35255
306.155	1374.52312
306.679	1361.51346
307.203	1402.52359
307.727	1432.65614
308.251	1358.60285
308.775	1375.55824
309.298	1422.67258
309.822	1393.74968
310.345	1463.63053
310.868	1429.62384
311.391	1416.66773
311.914	1536.95749
312.437	1420.44246
312.96	1508.67548
313.482	1516.70765
314.005	1593.02933
314.527	1547.08388
315.049	1528.91558
315.571	1508.51417
316.093	1605.93518
316.615	1595.82413
317.137	1591.49399
317.659	1626.83733
318.18	1653.87202
318.702	1684.85398
319.223	1607.34873
319.744	1706.72282
320.265	1667.93421
320.786	1791.15936
321.307	1727.1082
321.828	1766.74228
322.348	1783.88777
322.869	1814.00678
323.389	1807.93061
323.909	1872.9224
324.43	1891.04358
324.95	1945.95767
325.47	1912.22236
325.989	1924.0245
326.509	1937.84768
327.029	1997.94103
327.548	1995.90115
328.067	2098.29114
328.587	2017.24728
329.106	2089.07494
329.625	2058.55207
330.144	2021.96993
330.662	2140.11876
331.181	2122.07893
331.7	2176.10964
332.218	2220.83679
332.736	2285.12971
333.255	2290.19327
333.773	2276.18898
334.291	2269.39166
334.808	2260.93229
335.326	2381.04089
335.844	2419.2278
336.361	2430.62022
336.879	2526.30172
337.396	2539.38546
337.913	2590.28139
338.43	2594.04932
338.947	2667.3759
339.464	2682.9178
339.981	2623.32411
340.497	2735.52867
341.014	2787.51251
341.53	2768.08403
342.046	2720.47279
342.562	2775.53152
343.078	2870.29106
343.594	2852.38186
344.11	2953.29094
344.626	2898.62546
345.141	3029.03712
345.657	2967.93772
346.172	3026.41739
346.687	3042.14246
347.202	3072.06424
347.717	3184.2798
348.232	3226.61967
348.747	3182.1216
349.261	3212.83527
349.776	3196.25048
350.29	3321.53643
350.805	3480.50897
351.319	3395.10523
351.833	3403.03306
352.347	3398.16717
352.861	3449.15207
353.374	3464.95357
353.888	3345.1841
354.401	3559.02518
354.915	3591.98251
355.428	3685.39533
355.941	3577.01412
356.454	3648.68628
356.967	3648.03081
357.48	3646.84324
357.993	3714.2635
358.505	3743.27602
359.018	3843.24301
359.53	3894.96924
360.042	3968.5363
360.554	3867.00318
361.066	3900.18125
361.578	3920.44058
362.09	3946.95823
362.602	4041.38126
363.113	4039.72267
363.625	4008.51156
364.136	4233.30332
364.647	4169.65051
365.158	4246.64796
365.669	4217.86294
366.18	4355.60215
366.691	4357.20583
367.201	4314.68395
367.712	4371.46848
368.222	4368.35212
368.733	4459.02064
369.243	4531.11426
369.753	4728.15046
370.263	4840.46051
370.773	4850.69241
371.282	4861.29437
371.792	4906.08615
372.301	5049.34202
372.811	5273.65337
373.32	5193.51324
373.829	5304.85888
374.338	5592.41353
374.847	5782.48246
375.356	5842.56876
375.865	6082.9404
376.373	6378.11755
376.882	6430.68042
377.39	6487.39437
377.898	6838.51915
378.407	7310.26061
378.915	7317.01715
379.423	7653.48522
379.93	8065.78263
380.438	8323.23055
380.946	8746.85491
381.453	9023.41559
381.96	9326.15323
382.468	10149.7529
382.975	10846.49636
383.482	11180.49382
383.989	11377.73873
384.495	11520.34767
385.002	12239.01008
385.509	12796.08716
386.015	13782.80815
386.521	14417.60956
387.028	15172.5969
387.534	15449.08072
388.04	16109.88438
388.546	16490.01267
389.051	17251.9175
389.557	18596.97256
390.063	19969.35703
390.568	21082.05319
391.073	21441.45314
391.578	22077.80499
392.084	23020.57738
392.589	23482.77145
393.093	25352.78627
393.598	27587.79403
394.103	30487.52671
394.607	33571.9273
395.112	35952.90336
395.616	37991.46357
396.12	41026.57914
396.624	45551.14945
397.128	49448.40248
397.632	54941.66509
398.136	58837.77321
398.639	59457.19035
399.143	59401.00301
399.646	59162.71799
400.15	58613.02828
400.653	57879.39077
401.156	57173.58385
401.659	56177.40201
402.162	53821.55638
402.664	47275.14456
403.167	32260.27245
403.67	3851.94142
404.172	0
404.674	0
405.176	0
405.678	0
406.18	0
406.682	0
407.184	0
407.686	12367.42319
408.187	34596.90747
408.688	44563.94194
409.19	48906.19284
409.691	51236.67962
410.192	52883.26968
410.693	53713.23343
411.194	54189.54801
411.694	54767.79104
412.195	55625.98899
412.696	55971.27715
413.196	55815.15953
413.696	55802.1488
414.196	55740.09561
414.696	56340.4775
415.196	57067.59327
415.696	58258.21704
416.196	59666.45207
416.695	60284.20726
417.195	60412.17347
417.694	60088.49251
418.194	57754.27165
418.693	54013.43133
419.192	51928.96316
419.691	51204.33107
420.19	49781.19253
420.688	48893.91603
421.187	46850.80057
421.685	43602.47565
422.184	40091.4785
422.682	34990.80825
423.18	29761.09095
423.678	26612.83041
424.176	24529.17969
424.674	23096.51336
425.172	21930.34138
425.669	20930.56551
426.167	19229.91069
426.664	17644.06196
427.161	16209.91245
427.659	14914.76131
428.156	13992.09927
428.652	13120.2599
429.149	12510.37249
429.646	12025.87072
430.143	11548.22513
430.639	10870.79282
431.135	10130.49146
431.632	9757.43074
432.128	8989.35135
432.624	8557.61396
433.12	8172.88435
433.616	7995.61504
434.111	7743.56919
434.607	7385.33151
435.103	7214.87544
435.598	7057.69797
436.093	6797.06756
436.588	6426.86274
437.083	6064.06516
437.578	5782.04254
438.073	5561.86275
438.568	5414.76104
439.062	5254.11589
439.557	5088.6997
440.051	4920.70017
440.546	4770.83841
441.04	4600.21738
441.534	4444.5858
442.028	4514.1959
442.522	4239.41592
443.015	4303.92776
443.509	4167.65997
444.002	4148.63019
444.496	3977.02828
444.989	3974.68949
445.482	3970.81885
445.975	3923.34592
446.468	3884.15291
446.961	3700.03387
447.454	3843.44476
447.947	3583.68472
448.439	3629.83881
448.931	3518.39751
449.424	3509.09077
449.916	3480.87846
450.408	3443.4705
450.9	3369.84667
451.392	3224.17809
451.884	3283.65021
452.375	3203.08575
452.867	3111.52547
453.358	3135.64335
453.849	3081.36963
454.341	3101.53953
454.832	3019.4277
455.323	2945.09047
455.814	2991.71689
456.304	2864.76744
456.795	2883.79571
457.285	2906.57492
457.776	2810.64765
458.266	2786.98956
458.756	2725.06295
459.247	2678.00324
459.737	2672.07772
460.226	2572.72891
460.716	2579.99111
461.206	2512.02552
461.695	2529.25311
462.185	2477.9638
462.674	2420.80605
463.163	2444.69508
463.653	2386.46835
464.142	2371.02964
464.63	2216.99551
465.119	2222.80522
465.608	2237.84108
466.096	2230.62825
466.585	2165.80599
467.073	2119.9095
467.561	2104.93141
468.05	2103.80488
468.538	2097.02258
469.026	1983.82762
469.513	1894.35165
470.001	2013.82018
470.489	2038.9694
470.976	1947.6696
471.463	1861.95395
471.951	1847.91827
472.438	1763.68651
472.925	1807.76733
473.412	1681.74515
473.899	1689.54677
474.385	1641.75169
474.872	1667.58755
475.359	1614.74471
475.845	1586.21587
476.331	1524.28228
476.817	1528.59474
477.303	1440.38701
477.789	1436.491
478.275	1406.5526
478.761	1493.58568
479.247	1361.18569
479.732	1360.53086
480.218	1334.58604
480.703	1308.4314
481.188	1237.95054
481.673	1263.16936
482.158	1299.09484
482.643	1238.42225
483.128	1240.1777
483.612	1207.15973
484.097	1197.26888
484.581	1088.9628
485.066	1127.16999
485.55	1076.86131
486.034	1116.89407
486.518	1002.87539
487.002	1129.23189
487.486	1061.09136
487.969	967.93662
488.453	1000.03939
488.936	945.74982
489.42	994.78734
489.903	948.95048
490.386	953.2433
490.869	922.63812
491.352	935.85524
491.835	911.53969
492.318	897.70371
492.8	885.55395
493.283	830.7878
493.765	855.78461
494.247	863.68675
494.73	778.45403
495.212	790.6011
495.694	752.52261
496.175	784.60123
496.657	783.58076
497.139	792.15658
497.62	760.57039
498.102	725.58985
498.583	741.61951
499.064	693.33166
499.545	703.39958
500.026	701.37747
500.507	660.35561
500.988	684.49263
501.469	683.51024
501.949	635.3742
502.43	637.35387
502.91	671.2268
503.39	645.42258
503.87	609.28136
504.35	660.35927
504.83	610.19585
505.31	576.25088
505.79	631.35041
506.269	551.15559
506.749	636.28686
507.228	572.20895
507.707	620.2109
508.187	552.17986
508.666	547.20066
509.145	518.10133
509.623	611.29234
510.102	564.22842
510.581	568.21149
511.059	604.36453
511.538	572.31784
512.016	607.31074
512.494	615.34729
512.972	525.12085
513.45	522.10889
513.928	571.25447
514.406	600.31798
514.884	586.35442
515.361	508.09222
515.839	580.19
516.316	561.22265
516.793	566.29208
517.27	524.146
517.747	545.27823
518.224	490.02813
518.701	531.07335
519.178	499.12772
519.654	543.15934
520.131	523.17244
520.607	525.1721
521.083	486.01927
521.56	481.03296
522.036	560.10387
522.512	500.10908
522.987	490.06746
523.463	510.10687
523.939	489.08171
524.414	530.11026
524.89	519.12955
525.365	427.88791
525.84	491.07032
526.315	527.15524
526.79	484.99006
527.265	512.07154
527.74	471.04529
528.215	537.17324
528.689	504.01378
529.164	518.02811
529.638	520.21549
530.112	477.03403
530.587	479.9552
531.061	502.11306
531.534	506.1252
532.008	510.1266
532.482	443.92856
532.956	440.03183
533.429	492.07862
533.903	446.90117
534.376	483.99137
534.849	453.95664
535.322	491.06036
535.795	468.04056
536.268	455.01139
536.741	449.98472
537.213	452.9585
537.686	425.95797
538.158	427.897
538.631	397.88426
539.103	444.93168
539.575	431.82474
540.047	496.00178
540.519	399.87877
540.991	413.92598
541.463	452.00201
541.934	434.90909
542.406	444.96658
542.877	430.88478
543.348	387.84341
543.82	451.00746
544.291	409.87131
544.762	487.05575
545.233	503.13908
545.703	464.94227
546.174	522.09781
546.645	492.07771
547.115	580.2569
547.585	472.97819
548.056	511.11023
548.526	533.13107
548.996	524.12861
549.466	598.28384
549.935	583.23734
550.405	597.16011
550.875	595.24857
551.344	580.23123
551.814	624.26543
552.283	598.13583
552.752	558.14685
553.221	642.22312
553.69	659.25769
554.159	667.43738
554.628	684.33928
555.096	658.45642
555.565	701.37682
556.033	622.28435
556.502	597.28912
556.97	516.0165
557.438	552.16152
557.906	499.06939
558.374	494.02924
558.842	476.03822
559.31	467.95983
559.777	425.95092
560.245	387.83053
560.712	411.87366
561.18	363.75483
561.647	353.73404
562.114	469.99737
562.581	331.75405
563.048	417.88912
563.514	383.87601
563.981	381.81378
564.448	341.71446
564.914	293.63749
565.381	395.82539
565.847	350.76004
566.313	351.77178
566.779	368.78346
567.245	305.66473
567.711	370.82874
568.176	316.66369
568.642	339.79065
569.108	333.76412
569.573	334.72808
570.038	346.68019
570.504	331.69872
570.969	327.75005
571.434	319.65092
571.899	367.80932
572.363	356.74638
572.828	339.70807
573.293	389.82799
573.757	364.76854
574.222	395.81661
574.686	354.73989
575.15	354.78311
575.614	347.74053
576.078	362.77705
576.542	376.78099
577.006	387.79505
577.469	359.79301
577.933	348.72542
578.396	323.70813
578.86	346.75039
579.323	404.88587
579.786	365.72042
580.249	344.72441
580.712	334.74596
581.175	341.77683
581.637	317.66917
582.1	304.60721
582.563	310.61632
583.025	385.85292
583.487	312.59629
583.95	363.72523
584.412	379.72066
584.874	319.71938
585.336	312.68791
585.797	340.67754
586.259	366.78835
586.721	323.70574
587.182	357.75691
587.643	307.63782
588.105	271.58763
588.566	254.49321
589.027	304.67617
589.488	277.58191
589.949	356.78556
590.41	292.53671
590.87	262.54251
591.331	324.64175
591.791	309.65829
592.252	278.58569
592.712	233.51406
593.172	319.65891
593.632	264.52389
594.092	334.67549
594.552	270.52903
595.011	302.63989
595.471	307.62985
595.931	329.66523
596.39	369.80862
596.849	334.70861
597.308	269.5252
597.768	326.76616
598.227	332.72188
598.685	277.58037
599.144	335.71988
599.603	328.70833
600.062	342.66599
600.52	269.55763
600.978	296.64771
601.437	307.64152
601.895	257.49867
602.353	247.50241
602.811	329.67285
603.269	287.6255
603.727	327.71478
604.184	289.60445
604.642	257.57626
605.099	334.71572
605.557	316.70139
606.014	299.59265
606.471	379.85814
606.928	274.54475
607.385	372.82464
607.842	493.00278
608.299	528.07386
608.755	471.99552
609.212	406.81922
609.668	417.82925
610.125	454.96106
610.581	391.81414
611.037	410.82654
611.493	367.77777
611.949	282.62151
612.405	329.62132
612.861	288.61476
613.316	336.73989
613.772	292.60842
614.227	272.58287
614.683	315.61618
615.138	298.64465
615.593	328.7059
616.048	287.60877
616.503	275.60977
616.958	271.62113
617.412	307.66767
617.867	273.56972
618.321	321.62137
618.776	338.68076
619.23	306.65799
619.684	332.69361
620.138	251.52986
620.592	192.43486
621.046	225.48726
621.5	285.64245
621.954	292.60463
622.407	285.58631
622.861	236.53929
623.314	239.50696
623.768	253.55024
624.221	241.44731
624.674	204.44188
625.127	216.47167
625.58	175.37121
626.033	210.42997
626.485	222.50485
626.938	200.44523
627.39	221.48657
627.843	162.35436
628.295	208.45035
628.747	180.40752
629.199	186.40152
629.651	153.33757
630.103	138.30543
630.555	193.39758
631.006	143.32158
631.458	195.4421
631.909	181.39282
632.361	142.3211
632.812	181.40269
633.263	140.29119
633.714	173.36216
634.165	98.22809
634.616	153.34844
635.067	79.16911
635.518	153.34998
635.968	114.22368
636.419	88.18703
636.869	68.15577
637.319	176.40251
637.769	65.14293
638.219	145.33449
638.669	82.19086
639.119	93.21752
639.569	81.19168
640.019	51.11516
640.468	75.16534
640.918	47.10989
641.367	130.2864
641.816	53.11547
642.265	62.13986
642.714	50.11375
643.163	70.15771
643.612	39.0934
644.061	19.04022
644.51	72.16241
644.958	85.18636
645.406	62.1463
645.855	105.25433
646.303	86.19787
646.751	59.13366
647.199	34.07635
647.647	39.08896
648.095	25.05726
648.543	91.1878
648.99	102.24058
649.438	48.10987
649.885	21.051
650.333	66.12956
650.78	44.10591
651.227	90.21656
651.674	61.13954
652.121	69.16675
652.568	93.22399
653.015	88.21919
653.461	40.0946
653.908	69.15847
654.354	109.25655
654.801	101.23883
655.247	58.12574
655.693	10.02579
656.139	93.22391
656.585	71.17036
657.031	77.18201
657.477	56.12327
657.922	78.1809
658.368	66.16331
658.813	83.192
659.259	92.21952
659.704	55.12895
660.149	62.14561
660.594	85.20154
661.039	43.0984
661.484	95.22455
661.929	63.14678
662.373	93.23462
662.818	41.10195
663.262	82.19738
663.707	60.15123
664.151	25.06092
664.595	81.19782
665.039	60.14863
665.483	93.23788
665.927	17.04007
666.371	55.13091
666.814	66.15851
667.258	36.08666
667.701	90.19512
668.145	100.24735
668.588	98.24009
669.031	89.21192
669.474	79.1907
669.917	49.10938
670.36	42.10495
670.803	80.19381
671.245	139.29845
671.688	57.13858
672.13	59.13675
672.573	90.22677
673.015	37.08982
673.457	111.24583
673.899	85.20596
674.341	-3.00736
674.783	71.17236
675.225	96.23789
675.666	96.23397
676.108	32.07023
676.549	26.06221
676.991	90.20227
677.432	156.32476
677.873	110.25592
678.314	32.07761
678.755	128.31324
679.196	71.16769
679.637	82.20171
680.078	72.17088
680.518	65.15269
680.959	64.15295
681.399	63.15729
681.839	77.1891
682.28	77.19273
682.72	92.21573
683.16	56.14151
683.6	80.18363
684.039	64.13597
684.479	72.17849
684.919	101.23966
685.358	75.18995
685.798	131.34549
686.237	69.16826
686.676	53.1228
687.115	113.26699
687.554	118.28285
687.993	74.16686
688.432	70.16286
688.871	99.22874
689.309	73.17762
689.748	98.20974
690.186	38.09255
690.625	84.2009
691.063	89.21744
691.501	82.20543
691.939	134.33739
692.377	105.25996
692.815	80.19469
693.253	87.20986
693.69	83.1865
694.128	105.25891
694.565	83.20028
695.003	44.11285
695.44	129.30775
695.877	43.10345
696.314	71.15632
696.751	57.13133
697.188	56.13039
697.625	99.22665
698.061	72.17679
698.498	91.22216
698.934	92.22355
699.371	53.12765
699.807	103.24648
700.243	96.23178
700.679	70.16132
701.115	50.11789
701.551	62.14754
701.987	126.28619
702.422	96.23152
702.858	111.26775
703.294	53.12075
703.729	71.17507
704.164	82.19836
704.599	128.28649
705.035	55.12627
705.47	72.17607
705.904	90.21459
706.339	79.18543
706.774	127.301
707.209	91.21501
707.643	134.32194
708.078	47.11572
708.512	54.13728
708.946	103.24676
709.38	67.16174
709.814	139.32307
710.248	108.26606
710.682	125.30049
711.116	139.33883
711.549	115.2993
711.983	88.20724
712.416	107.25478
712.85	111.27863
713.283	116.27467
713.716	105.26129
714.149	114.27087
714.582	103.23599
715.015	97.24226
715.448	100.25323
715.881	104.22518
716.313	58.13611
716.746	121.28745
717.178	70.17124
717.61	127.31971
718.043	143.3539
718.475	111.26876
718.907	114.28446
719.339	152.34945
719.77	80.19257
720.202	99.25181
720.634	150.36666
721.065	145.34658
721.497	139.34199
721.928	88.21934
722.359	140.34286
722.79	114.27701
723.221	103.25836
723.652	129.32846
724.083	153.34956
724.514	92.21252
724.945	116.27477
725.375	204.47685
725.806	71.17578
726.236	135.3407
726.666	163.38751
727.096	150.37034
727.526	126.3211
727.956	181.41536
728.386	195.47727
728.816	205.52231
729.246	140.34095
729.675	109.26887
730.105	173.4239
730.534	218.50457
730.964	149.37293
731.393	196.47446
731.822	141.35406
732.251	187.47124
732.68	164.3802
733.109	203.50054
733.537	211.5049
733.966	197.48253
734.395	189.43407
734.823	162.36468
735.251	207.49268
735.68	218.53386
736.108	244.60659
736.536	243.56923
736.964	238.54408
737.392	223.54823
737.82	178.41624
738.247	252.59458
738.675	217.50196
739.102	278.6853
739.53	259.64188
739.957	218.54807
740.384	267.63473
740.811	257.63296
741.238	247.58674
741.665	254.57714
742.092	320.73533
742.519	331.79832
742.945	289.67326
743.372	330.78883
743.798	316.78497
744.225	344.79299
744.651	290.7054
745.077	324.77804
745.503	395.92339
745.929	364.83808
746.355	281.65643
746.781	358.8492
747.207	324.73557
747.632	357.84112
748.058	331.78654
748.483	413.90998
748.908	404.95274
749.334	368.87056
749.759	450.00791
750.184	430.96745
750.609	403.92951
751.033	405.886
751.458	418.87829
751.883	399.92285
752.307	489.08486
752.732	516.21743
753.156	497.14961
753.58	505.10508
754.005	554.28443
754.429	547.18706
754.853	535.23617
755.277	503.09282
755.7	516.18063
756.124	539.23555
756.548	566.24216
756.971	607.34985
757.394	609.42516
757.818	642.49747
758.241	609.40847
758.664	642.48632
759.087	654.32213
759.51	623.39634
759.933	609.32011
760.356	677.5417
760.778	747.65872
761.201	736.58588
761.623	736.57707
762.046	684.42454
762.468	746.5662
762.89	715.53895
763.312	766.62447
763.734	759.60856
764.156	752.6446
764.578	796.57582
765	863.82755
765.421	829.88341
765.843	818.87226
766.264	810.67007
766.686	794.72702
767.107	839.77283
767.528	896.96377
767.949	848.84764
768.37	877.86205
768.791	884.82686
769.212	899.96828
769.632	809.64749
770.053	860.96838
770.473	884.83907
770.894	875.84975
771.314	881.76422
771.734	891.78016
772.154	913.00469
772.575	905.75978
772.994	948.80642
773.414	924.86532
773.834	867.83283
774.254	970.01557
774.673	873.81014
775.093	885.86031
775.512	931.97161
775.931	959.06447
776.351	930.95966
776.77	889.88754
777.189	910.83955
777.607	804.77538
778.026	837.79095
778.445	805.7454
778.864	838.8397
779.282	901.85994
779.701	841.83432
780.119	837.84097
780.537	821.7937
780.955	805.77943
781.373	820.74814
781.791	784.52237
782.209	813.5814
782.627	810.85469
783.045	823.63048
783.462	771.71841
783.88	771.76785
784.297	798.76798
784.715	779.76624
785.132	724.54266
785.549	763.69146
785.966	675.51114
786.383	664.46178
786.8	716.44038
787.217	639.35636
787.633	705.58611
788.05	674.38938
788.466	673.40751
788.883	647.48281
789.299	657.40976
789.715	660.44993
790.131	640.43889
790.547	535.21068
790.963	656.46285
791.379	590.35017
791.795	532.09578
792.21	564.2071
792.626	555.19165
793.041	543.23129
793.457	515.16724
793.872	483.0435
794.287	523.1758
794.702	465.0546
795.117	507.17927
795.532	474.10651
795.947	473.04974
796.362	458.99959
796.776	478.01305
797.191	473.08665
797.605	424.94849
798.02	437.0026
798.434	407.84708
798.848	378.88799
799.262	394.93277
799.676	381.87073
800.09	334.77424
800.504	398.91415
800.918	346.76893
801.331	321.79666
801.745	238.52586
802.158	323.77608
802.572	315.71964
802.985	356.81705
803.398	319.73024
803.811	294.71646
804.224	262.62679
804.637	262.60568
805.05	295.66091
805.462	311.74016
805.875	258.65489
806.288	208.48868
806.7	236.57729
807.112	244.5506
807.525	215.51525
807.937	201.48885
808.349	230.55466
808.761	183.4369
809.173	234.55297
809.584	189.44984
809.996	201.48702
810.408	203.51649
810.819	210.49068
811.231	262.67022
811.642	301.71306
812.053	404.92235
812.464	380.86233
812.875	365.89192
813.286	240.59643
813.697	170.37955
814.108	141.33766
814.519	172.37384
814.929	152.37666
815.34	150.35805
815.75	105.26565
816.16	134.32914
816.571	124.32057
816.981	129.29734
817.391	152.3638
817.801	103.2551
818.211	94.22197
818.62	155.3719
819.03	146.35436
819.44	137.35104
819.849	132.33056
820.259	81.20464
820.668	112.2749
821.077	138.34284
821.486	127.30518
821.895	102.24804
822.304	93.2442
822.713	161.37494
823.122	76.18854
823.531	41.09721
823.939	90.21927
824.348	130.31257
824.756	93.23168
825.164	79.19659
825.573	64.16149
825.981	35.08608
826.389	124.30907
826.797	87.21996
827.205	83.19337
827.612	92.22481
828.02	95.22525
828.428	100.25214
828.835	61.16007
829.243	74.17569
829.65	42.10507
830.057	32.07758
830.464	52.12678
830.871	60.14246
831.278	61.1477
831.685	71.15967
832.092	104.25404
832.499	70.15448
832.905	38.09633
833.312	58.13286
833.718	95.23382
834.124	31.071
834.531	72.18096
834.937	52.13322
835.343	47.11414
835.749	37.08664
836.155	80.20953
836.561	7.01729
836.966	33.0808
837.372	61.15603
837.777	66.16445
838.183	91.20313
838.588	44.11023
838.993	19.04609
839.399	74.18371
839.804	21.05211
840.209	60.15366
840.613	52.11696
841.018	74.18712
841.423	38.09773
841.828	28.07108
842.232	84.20534
842.637	69.1631
843.041	56.14422
843.445	66.166
843.849	60.14917
844.253	8.01916
844.657	58.14729
845.061	54.12271
845.465	41.10091
845.869	76.1771
846.272	28.06941
846.676	-76.18454
847.079	-2.00519
847.483	31.07706
847.886	28.06827
848.289	40.10732
848.692	8.02032
849.095	55.13262
849.498	61.15224
849.901	79.18115
850.304	15.03591
850.707	23.05873
851.109	32.08028
851.512	41.10236
851.914	43.11138
852.316	0
852.718	40.10637
853.121	60.14874
853.523	103.24601
853.925	26.0687
854.326	29.07358
854.728	18.04674
855.13	12.03124
855.531	40.09767
855.933	6.0146
856.334	-15.03795
856.736	87.19965
857.137	27.06394
857.538	32.0819
857.939	49.12327
858.34	81.19686
858.741	25.06571
859.142	18.04346
859.542	-18.0481
859.943	86.21553
860.343	41.10355
860.744	20.04905
861.144	49.11989
861.544	43.10603
861.945	21.05415
862.345	37.09077
862.745	12.02995
863.145	37.08793
863.544	25.06368
863.944	40.09625
864.344	11.02733
864.743	27.06682
865.143	40.10388
865.542	19.04498
865.941	-10.02498
866.34	-28.06766
866.74	15.0404
867.139	13.03151
867.537	54.13772
867.936	-21.05144
868.335	9.02302
868.734	27.0696
869.132	40.09361
869.531	-6.01441
869.929	50.1167
870.327	70.16984
870.726	-20.05009
871.124	28.06532
871.522	-26.06684
871.92	32.07965
872.318	16.03917
872.715	-7.01727
873.113	-1.00247
873.511	-24.05958
873.908	-3.00767
874.306	3.00761
874.703	24.06023
875.1	-8.02046
875.497	14.03394
875.894	70.17378
876.291	-38.09368
876.688	49.12666
877.085	-19.04614
877.482	15.03792
877.878	41.10009
878.275	-3.00769
878.671	-34.07569
879.068	28.06794
879.464	48.11725
879.86	20.04825
880.256	28.06916
880.652	6.01555
881.048	-6.015
881.444	10.02384
881.84	6.01546
882.236	19.04795
882.631	24.0591
883.027	-8.01939
883.422	25.0648
883.817	64.16339
884.213	53.13662
884.608	32.08034
885.003	23.05674
885.398	10.0254
885.793	11.02796
886.188	44.11114
886.582	58.14828
886.977	50.11963
887.371	-3.00754
887.766	1.00253
888.16	58.14515
888.554	-36.08895
888.949	23.05769
889.343	13.03201
889.737	-5.01355
890.131	46.11603
890.525	47.12136
890.918	41.10395
891.312	53.12625
891.706	3.0079
892.099	17.04335
892.492	-33.07241
892.886	46.11458
893.279	52.13406
893.672	15.03865
894.065	31.07782
894.458	-11.0278
894.851	-1.00244
895.244	15.03885
895.637	8.01944
896.029	61.15064
896.422	28.06883
896.814	18.04561
897.206	-23.05607
897.599	37.09093
897.991	16.03929
898.383	11.02613
898.775	51.11587
899.167	15.03587
899.559	28.07053
899.951	20.04785
900.342	31.07932
900.734	-13.03315
901.125	71.18719
901.517	21.05167
901.908	36.08597
902.299	33.08257
902.69	27.06441
903.082	15.03607
903.473	16.03916
903.863	-6.01536
904.254	-3.00704
904.645	3.00742
905.036	26.06393
905.426	53.12173
905.817	9.02242
906.207	35.08497
906.597	-4.00953
906.987	9.02313
907.378	12.03047
907.768	56.14817
908.158	30.07361
908.547	29.07633
908.937	-12.03077
909.327	-6.0147
909.717	34.0857
910.106	62.15099
910.495	37.09204
910.885	37.09428
911.274	32.0806
911.663	-5.01273
912.052	37.09083
912.441	42.1079
912.83	53.12348
913.219	55.14261
913.608	-14.03424
913.997	11.02809
914.385	52.12522
914.774	-16.03952
915.162	26.06313
915.55	-5.01213
915.939	9.02297
916.327	-12.02982
916.715	56.14503
917.103	29.07146
917.491	10.02493
917.878	43.10677
918.266	17.04405
918.654	15.03852
919.041	-13.03429
919.429	-15.03573
919.816	22.05609
920.203	25.0611
920.591	-12.02993
920.978	25.06144
921.365	34.08948
921.752	38.09078
922.139	14.03068
922.525	26.06441
922.912	13.03184
923.299	56.14135
923.685	20.05219
924.072	-32.07504
924.458	25.06246
924.844	15.0379
925.231	21.04964
925.617	30.07793
926.003	19.04872
926.389	-34.08677
926.774	29.07387
927.16	42.10469
927.546	18.04639
927.931	27.06817
928.317	66.15222
928.702	15.03552
929.088	48.11611
929.473	20.05131
929.858	-6.01499
930.243	14.03402
930.628	21.05213
931.013	-4.01005
931.398	0
931.783	-33.08683
932.167	-17.04184
932.552	-7.0175
932.937	37.09174
933.321	26.06619
933.705	-29.0741
934.09	-35.08783
934.474	50.11931
934.858	-12.03115
935.242	20.04673
935.626	13.03364
936.009	3.00807
936.393	-14.03578
936.777	5.01279
937.16	24.06297
937.544	-2.00471
937.927	13.03318
938.311	10.02452
938.694	-10.0264
939.077	14.03412
939.46	-10.02456
939.843	27.0567
940.226	33.08539
940.609	66.15398
940.991	3.00775
941.374	6.0148
941.757	24.05989
942.139	-5.01138
942.522	0
942.904	-14.03393
943.286	19.04833
943.668	50.13025
944.05	40.09963
944.432	31.07782
944.814	65.16163
945.196	37.09234
945.578	25.0611
945.959	15.03558
946.341	10.02436
946.722	-25.05918
947.104	-6.01444
947.485	79.18601
947.866	42.10696
948.247	14.03572
948.628	11.02705
949.009	0
949.39	3.00748
949.771	49.11443
950.152	15.03727
950.532	-11.02775
950.913	58.14178
951.293	8.02191
951.674	28.06809
952.054	-3.00752
952.434	25.06214
952.814	-73.17462
953.194	3.00779
953.574	-16.03952
953.954	25.0601
954.334	0
954.714	20.0494
955.093	-29.07125
955.473	-12.03041
955.853	-14.03633
956.232	14.03814
956.611	24.05731
956.99	-52.1314
957.37	18.04599
957.749	-2.00482
958.128	0
958.506	13.03406
958.885	-2.0051
959.264	-19.04783
959.643	36.08329
960.021	6.01494
960.4	-3.00689
960.778	24.05865
961.156	8.02034
961.535	16.03759
961.913	38.08953
962.291	4.01045
962.669	-34.08607
963.047	9.02318
963.424	15.03849
963.802	1.00248
964.18	54.13557
964.557	19.04439
964.935	9.02136
965.312	62.16239
965.69	-8.02024
966.067	-3.00738
966.444	-15.03729
966.821	-10.02577
967.198	-6.01452
967.575	22.05388
967.952	-8.01879
968.329	21.0514
968.705	73.1587
969.082	28.07291
969.458	1.00244
969.835	11.02666
970.211	1.0026
970.587	10.02502
970.963	21.054
971.339	-5.01318
971.715	17.04273
972.091	17.04226
972.467	23.05744
972.843	49.12313
973.219	30.07161
973.594	6.01587
973.97	56.13316
974.345	14.03401
974.721	-13.03181
975.096	13.0319
975.471	-52.12322
975.846	61.14725
976.221	51.13128
976.596	22.05352
976.971	-18.04452
977.346	7.01641
977.72	-28.07143
978.095	-28.07269
978.469	30.07164
978.844	13.03254
979.218	31.07582
979.593	-29.06966
979.967	19.04689
980.341	14.0328
980.715	4.0101
981.089	59.14826
981.463	10.02334
981.837	20.04953
982.21	-45.10397
982.584	21.0514
982.957	29.07298
983.331	31.0735
983.704	53.13127
984.078	20.04947
984.451	-23.05684
984.824	24.05976
985.197	-10.02458
985.57	24.06036
985.943	-7.01724
986.316	40.09803
986.688	9.02184
987.061	57.13447
987.434	8.02086
987.806	-1.00243
988.179	42.10102
988.551	16.04086
988.923	0
989.295	49.12265
989.667	34.08348
990.039	27.06741
990.411	3.007
990.783	6.01374
991.155	32.07872
991.527	-13.0317
991.898	-9.02265
992.27	20.05025
992.641	52.12994
993.012	14.03325
993.384	5.0121
993.755	20.05133
994.126	-22.05362
994.497	-21.05287
994.868	5.01158
995.239	17.04155
995.61	7.01791
995.98	29.07146
996.351	22.05541
996.722	29.06842
997.092	8.01915
997.462	30.07197
997.833	-10.02375
998.203	14.03404
998.573	20.05005
998.943	28.06663
999.313	-52.12602
999.683	-12.02916
1000.053	13.03011
1000.423	-17.04158
1000.792	32.08393
1001.162	-22.055
1001.531	55.13572
1001.901	36.0897
1002.27	-14.03206
1002.639	-5.0129
1003.009	10.02409
1003.378	-20.05149
1003.747	8.01914
1004.116	-11.02681
1004.485	-13.03119
1004.853	14.03554
1005.222	36.09126
1005.591	3.0072
1005.959	62.14408
1006.328	14.03216
1006.696	-47.11517
1007.064	37.09388
1007.433	-22.05514
1007.801	12.02922
1008.169	43.10949
1008.537	-6.01335
1008.905	28.06615
1009.273	18.04475
1009.64	-4.00976
1010.008	36.08643
1010.375	-2.00476
1010.743	49.11322
1011.11	-3.00723
1011.478	20.0494
1011.845	29.06836
1012.212	19.04393
1012.579	6.01484
1012.946	74.17583
1013.313	21.04964
1013.68	-33.07522
1014.047	2.00491
1014.414	14.03353
1014.78	-34.08555
1015.147	19.04585
1015.513	24.0583
1015.88	13.03324
1016.246	38.09368
1016.612	39.08982
1016.978	31.07667
1017.344	3.00747
1017.71	-2.00482
1018.076	-10.02374
1018.442	-4.01033
1018.808	38.09551
1019.174	-2.0051
1019.539	29.0661
1019.905	-9.02146
1020.27	-1.0025
1020.636	14.0336
1021.001	35.08481
1021.366	-44.10704
1021.731	0
1022.096	-45.11486
1022.461	-36.08557
1022.826	12.02897
1023.191	5.01317
1023.556	13.03079
1023.92	-15.037
1024.285	10.02445
1024.649	16.03921
1025.014	-2.00496
1025.378	26.06605
1025.742	31.07737
1026.107	-3.00686
1026.471	12.02796
1026.835	-12.02982
1027.199	-25.0616
1027.562	24.05665
1027.926	-6.01471
1028.29	39.10018
1028.654	-3.00703
1029.017	11.02703
1029.381	38.09299
1029.744	38.0977
1030.107	16.03762
1030.471	10.0241
1030.834	-11.02532
1031.197	-16.03853
1031.56	-7.01663
1031.923	9.02338
1032.286	17.03956
1032.648	41.09867
1033.011	47.1101
1033.374	-24.05663
1033.736	15.04
1034.099	41.1011
1034.461	29.07473
1034.823	-18.04552
1035.185	24.06086
1035.548	14.03443
1035.91	12.02922
1036.272	14.03233
1036.634	7.01707
1036.995	-48.11414
1037.357	-5.0123
1037.719	-15.03666
1038.08	23.05418
1038.442	-21.05058
1038.803	61.14731
1039.165	-19.04829
1039.526	-3.00729
1039.887	9.02179
1040.248	16.04036
1040.609	-27.06712
1040.97	46.11416
1041.331	-15.03814
1041.692	-2.00477
1042.053	16.03661
1042.413	1.00234
1042.774	19.04632
1043.134	-3.00713
1043.495	23.05786
1043.855	-26.06377
1044.215	-26.06478
1044.576	21.05115
1044.936	-19.04348
1045.296	7.01751
1045.656	5.01237
1046.016	-7.01708
1046.375	50.12286
1046.735	16.0372
1047.095	44.10378
1047.454	1.00212
1047.814	-17.04087
1048.173	-8.01905
1048.533	-20.04673
1048.892	30.07347
1049.251	-24.06065
1049.61	8.01993
1049.969	-37.08803
1050.328	27.05905
1050.687	12.02953
1051.046	39.09486
1051.405	50.12436
1051.763	64.14778
1052.122	26.066
1052.48	-45.11153
1052.839	1.00238
1053.197	-31.0735
1053.555	-4.00899
1053.914	11.02713
1054.272	-21.05098
1054.63	54.13352
1054.988	5.01198
1055.345	8.01759
1055.703	-29.07003
1056.061	-9.02337
1056.419	0
1056.776	25.0603
1057.134	-3.00707
1057.491	-3.00756
1057.848	9.02255
1058.206	13.03093
1058.563	26.05829
1058.92	4.00928
1059.277	-4.00986
1059.634	18.0429
1059.991	-18.04295
1060.348	41.09496
1060.704	-24.05834
1061.061	-34.07792
1061.418	54.13205
1061.774	24.05971
1062.131	-31.08294
1062.487	-23.05447
1062.843	8.02011
1063.199	7.01744
1063.555	-23.05413
1063.911	38.0966
1064.267	15.03147
1064.623	-7.01731
1064.979	-15.03522
1065.335	-10.02367
1065.691	-48.11559
1066.046	-16.03546
1066.402	32.07389
1066.757	-11.02775
1067.112	-23.05617
1067.468	-47.11406
1067.823	38.09175
1068.178	3.00728
1068.533	2.00486
1068.888	52.1247
1069.243	-17.04249
1069.598	4.00986
1069.952	11.02549
1070.307	17.04275
1070.662	53.12722
1071.016	39.08914
1071.371	18.04135
1071.725	47.11191
1072.079	-25.06035
1072.434	23.0564
1072.788	114.27254
1073.142	21.05169
1073.496	64.15557
1073.85	13.03026
1074.203	-38.09237
1074.557	5.0134
1074.911	23.0547
1075.265	-6.01408
1075.618	5.0123
1075.971	42.10045
1076.325	36.0922
1076.678	81.18909
1077.031	-18.04186
1077.385	6.0135
1077.738	22.05106
1078.091	17.03989
1078.444	28.06563
1078.796	17.04197
1079.149	-11.02749
1079.502	3.00724
1079.855	44.10386
1080.207	6.01478
1080.56	25.06536
1080.912	55.13407
1081.264	11.02674
1081.617	61.15058
1081.969	19.04872
1082.321	10.02484
1082.673	22.05173
1083.025	-23.055
1083.377	-248.56511
1083.728	23.05401
1084.08	56.1407
1084.432	20.049
1084.783	-37.08715
1085.135	17.043
1085.486	16.03752
1085.838	26.06441
1086.189	-50.12413
1086.54	-15.03595
1086.891	13.03343
1087.242	-20.04924
1087.593	-40.09738
1087.944	16.03711
1088.295	10.0227
1088.646	38.09237
1088.996	20.04905
1089.347	-24.05967
1089.698	31.07506
1090.048	3.0078
1090.398	10.02338
1090.749	-38.09196
1091.099	-11.02813
1091.449	-4.01
1091.799	38.09616
1092.149	50.12495
1092.499	-24.05871
1092.849	-48.12405
1093.199	-21.05262
1093.548	-8.0194
1093.898	31.07854
1094.248	13.03329
1094.597	-7.01827
1094.947	25.06676
1095.296	1.0025
1095.645	11.0286
1095.994	39.09482
1096.343	1.00253
1096.692	8.02139
1097.041	-20.05503
1097.39	-17.04301
1097.739	0
1098.088	46.12273
1098.437	-13.03463
1098.785	64.17256
1099.134	-7.01867
1099.482	10.02748
1099.83	0
1100.179	17.04465
1100.527	62.16503
1100.875	-1.00267
1101.223	-3.00797
1101.571	34.09446
1101.919	-4.01064
1102.267	-9.02547
1102.615	3.00966
1102.962	0
1103.31	-3.00967
1103.658	5.01609
