Data from N2 R4 sample 9_Subt2__3__19-29-19-959.txt Node

Date: Wed Aug 27 19:29:19 PDT 2025
User: uwsun
Spectrometer: HDX01956
Trigger mode: 0
Integration Time (sec): 5.000000E-1
Scans to average: 1
Nonlinearity correction enabled: true
Boxcar width: 0
Storing dark spectrum: false
XAxis mode: Wavelengths
Number of Pixels in Spectrum: 2068
>>>>>Begin Spectral Data<<<<<
194.03	202.54831
194.578	229.70121
195.127	213.64171
195.676	212.64275
196.225	193.48688
196.773	248.6486
197.321	358.89541
197.87	495.0868
198.418	508.11516
198.966	499.10984
199.513	494.05296
200.061	512.10131
200.609	498.12843
201.156	458.85967
201.704	447.96093
202.251	434.99202
202.798	494.09665
203.345	501.04871
203.892	487.04318
204.438	509.01421
204.985	556.10111
205.532	476.07238
206.078	518.05397
206.624	515.06617
207.17	494.93914
207.716	557.12858
208.262	539.86919
208.808	546.14534
209.354	515.05142
209.899	507.06691
210.445	557.14762
210.99	408.83422
211.535	538.02463
212.08	507.97536
212.625	504.05523
213.17	460.97632
213.715	566.05038
214.259	551.07006
214.804	609.24481
215.348	504.95489
215.892	556.09083
216.436	531.0125
216.98	577.03866
217.524	545.07752
218.068	545.13645
218.612	453.96335
219.155	568.11022
219.698	437.87428
220.242	393.82376
220.785	451.88767
221.328	465.98112
221.871	426.91638
222.414	427.89898
222.956	474.98409
223.499	509.99004
224.041	455.90271
224.583	491.88283
225.126	458.86815
225.668	510.06169
226.21	461.00396
226.751	488.91283
227.293	464.90874
227.835	436.9044
228.376	441.86022
228.918	444.95592
229.459	477.02612
230	493.0005
230.541	428.83942
231.082	452.93256
231.622	474.92613
232.163	472.98649
232.704	468.98896
233.244	501.07368
233.784	458.94918
234.324	498.94582
234.864	436.84946
235.404	477.95873
235.944	461.92913
236.484	503.0529
237.023	512.02422
237.563	462.90611
238.102	494.97345
238.641	519.10945
239.18	538.05694
239.719	453.96586
240.258	399.76165
240.797	458.9216
241.335	436.91086
241.874	488.77464
242.412	466.95195
242.95	522.06598
243.488	508.97893
244.026	508.97563
244.564	538.91068
245.102	476.89566
245.64	509.02456
246.177	494.93503
246.715	496.00316
247.252	465.89541
247.789	503.76531
248.326	480.98454
248.863	431.7793
249.4	424.8033
249.936	468.79341
250.473	460.89664
251.009	566.09584
251.546	461.84292
252.082	452.81123
252.618	534.99001
253.154	496.0137
253.69	506.94136
254.226	469.93526
254.761	514.94152
255.297	513.93519
255.832	439.87137
256.367	486.94418
256.903	573.0325
257.438	495.96556
257.972	521.94593
258.507	525.00443
259.042	506.90351
259.576	556.99488
260.111	513.9774
260.645	613.06809
261.179	529.02236
261.713	554.01069
262.247	563.06584
262.781	531.91517
263.315	523.0615
263.849	548.13335
264.382	588.09129
264.915	498.96842
265.449	565.14795
265.982	551.00038
266.515	540.05739
267.048	562.98957
267.58	537.93836
268.113	574.0203
268.646	548.1136
269.178	532.97549
269.71	495.87405
270.243	511.94807
270.775	540.13473
271.307	547.07087
271.838	579.0978
272.37	520.05468
272.902	589.08853
273.433	526.91985
273.965	541.0601
274.496	566.13874
275.027	546.09641
275.558	524.03568
276.089	555.12093
276.62	536.107
277.15	552.09419
277.681	492.85719
278.211	591.17301
278.741	572.02253
279.272	562.03827
279.802	530.07549
280.332	585.12324
280.861	591.12496
281.391	568.04519
281.921	537.03984
282.45	605.20923
282.98	527.11831
283.509	526.93972
284.038	589.07062
284.567	592.09109
285.096	620.19773
285.625	609.09639
286.153	611.14224
286.682	603.09056
287.21	581.1134
287.739	548.02499
288.267	611.18229
288.795	620.30711
289.323	612.13762
289.851	636.16297
290.378	625.09537
290.906	611.19076
291.433	661.28471
291.961	598.06526
292.488	604.19523
293.015	636.17411
293.542	571.14591
294.069	598.16676
294.596	617.16942
295.122	659.22851
295.649	644.093
296.175	625.15924
296.702	637.18624
297.228	626.151
297.754	587.00544
298.28	680.1636
298.806	668.23331
299.332	673.11187
299.857	620.06581
300.383	683.32817
300.908	671.26578
301.433	662.23564
301.958	696.20573
302.483	623.19289
303.008	696.27292
303.533	664.32459
304.058	722.22838
304.582	692.23057
305.107	669.33303
305.631	615.04338
306.155	672.16036
306.679	718.24789
307.203	758.28147
307.727	716.25887
308.251	672.24876
308.775	726.28449
309.298	751.31055
309.822	717.34147
310.345	759.28282
310.868	772.34552
311.391	734.29531
311.914	758.38865
312.437	754.18328
312.96	671.13863
313.482	791.31464
314.005	788.42849
314.527	780.46999
315.049	769.39009
315.571	775.19703
316.093	777.3425
316.615	815.34944
317.137	815.19141
317.659	841.40413
318.18	885.46329
318.702	773.2311
319.223	865.1507
319.744	812.20417
320.265	849.3765
320.786	893.47575
321.307	938.54225
321.828	911.30957
322.348	892.3555
322.869	995.49799
323.389	976.92438
323.909	871.251
324.43	1095.61106
324.95	932.30204
325.47	982.51952
325.989	882.27913
326.509	1030.38134
327.029	1104.46385
327.548	1061.39842
328.067	1013.46521
328.587	1054.53384
329.106	963.26578
329.625	1023.60316
330.144	1098.45873
330.662	1047.37705
331.181	1182.46677
331.7	1112.45985
332.218	1165.30022
332.736	1102.38667
333.255	1146.4346
333.773	1215.5299
334.291	1265.67785
334.808	1218.39828
335.326	1188.30145
335.844	1167.36655
336.361	1214.55569
336.879	1220.39747
337.396	1278.47916
337.913	1257.32558
338.43	1324.37141
338.947	1312.37306
339.464	1351.27361
339.981	1481.52486
340.497	1349.5125
341.014	1377.54213
341.53	1369.33283
342.046	1500.56564
342.562	1422.54343
343.078	1470.38229
343.594	1496.46418
344.11	1522.45896
344.626	1481.56583
345.141	1518.29687
345.657	1598.26605
346.172	1530.38422
346.687	1575.32785
347.202	1557.17762
347.717	1576.31675
348.232	1659.44967
348.747	1610.25314
349.261	1570.04054
349.776	1675.26231
350.29	1659.44834
350.805	1700.34685
351.319	1628.11236
351.833	1762.13903
352.347	1690.17936
352.861	1789.14769
353.374	1765.08481
353.888	1730.22633
354.401	1757.05071
354.915	1744.97727
355.428	1790.23871
355.941	1769.04929
356.454	1834.86211
356.967	1868.11128
357.48	1851.94429
357.993	1878.17643
358.505	1867.11823
359.018	1903.08019
359.53	1998.02805
360.042	1927.78469
360.554	1937.95878
361.066	1991.02898
361.578	1952.67822
362.09	1987.92776
362.602	1978.69172
363.113	2034.77692
363.625	2162.71937
364.136	2175.60562
364.647	2134.72884
365.158	2159.63861
365.669	2273.7256
366.18	2228.67028
366.691	2243.44071
367.201	2161.70688
367.712	2359.50006
368.222	2228.52613
368.733	2302.30038
369.243	2260.2906
369.753	2262.32406
370.263	2539.40227
370.773	2492.4872
371.282	2460.20136
371.792	2524.16894
372.301	2639.14199
372.811	2690.27634
373.32	2774.64529
373.829	2726.89336
374.338	2878.50667
374.847	2900.50821
375.356	2903.53251
375.865	3044.1044
376.373	3394.00721
376.882	3401.1665
377.39	3404.01449
377.898	3422.9849
378.407	3604.64504
378.915	3782.54112
379.423	3846.57395
379.93	4041.52012
380.438	4156.52913
380.946	4525.6903
381.453	4603.79977
381.96	4818.15322
382.468	5174.97544
382.975	5560.85964
383.482	5906.67512
383.989	5716.68005
384.495	6076.54882
385.002	6141.65492
385.509	6585.93187
386.015	6970.95941
386.521	7359.59475
387.028	7605.08708
387.534	7903.2955
388.04	8254.239
388.546	8358.34587
389.051	8848.03397
389.557	9356.36218
390.063	10263.12423
390.568	10696.06923
391.073	10913.11046
391.578	11323.85545
392.084	11585.41914
392.589	11814.8403
393.093	12820.21076
393.598	14066.86434
394.103	15249.4183
394.607	16745.10923
395.112	18023.82008
395.616	18890.59012
396.12	20628.28067
396.624	22542.44884
397.128	24598.52032
397.632	27075.34941
398.136	29541.59637
398.639	31113.90938
399.143	34267.43164
399.646	32658.65592
400.15	30257.92651
400.653	26744.30161
401.156	22069.35973
401.659	15501.4617
402.162	4304.81735
402.664	865.43837
403.167	0
403.67	0
404.172	0
404.674	0
405.176	0
405.678	0
406.18	0
406.682	0
407.184	0
407.686	0
408.187	0
408.688	0
409.19	0
409.691	0
410.192	0
410.693	0
411.194	0
411.694	11.28237
412.195	3122.18734
412.696	8274.79556
413.196	11824.3934
413.696	13768.63585
414.196	13509.3687
414.696	14514.78924
415.196	16680.3865
415.696	20882.81744
416.196	28662.6172
416.695	36400.56296
417.195	33224.41759
417.694	31235.74385
418.194	29709.89856
418.693	27639.32583
419.192	26908.4102
419.691	26479.72764
420.19	25960.52764
420.688	24686.68898
421.187	24087.62876
421.685	22627.11303
422.184	20610.18209
422.682	17878.33738
423.18	15170.65789
423.678	13414.48052
424.176	12623.33558
424.674	11847.39758
425.172	11133.08707
425.669	10679.68547
426.167	9988.18606
426.664	9054.28759
427.161	8118.40539
427.659	7454.66992
428.156	7075.42812
428.652	6648.81983
429.149	6444.17186
429.646	6123.9532
430.143	5900.78456
430.639	5356.14855
431.135	5236.92363
431.632	4792.34603
432.128	4497.83345
432.624	4301.56788
433.12	4151.55476
433.616	3795.54088
434.111	3812.54765
434.607	3669.58909
435.103	3640.55818
435.598	3491.57639
436.093	3317.8162
436.588	3183.9488
437.083	3063.09793
437.578	2848.32332
438.073	2791.71354
438.568	2810.79149
439.062	2621.54961
439.557	2541.8835
440.051	2444.93694
440.546	2304.08402
441.04	2187.23936
441.534	2288.42844
442.028	2100.35738
442.522	1956.43337
443.015	2092.29176
443.509	1927.53438
444.002	1888.59419
444.496	1901.39896
444.989	1932.66734
445.482	1904.76928
445.975	1844.4935
446.468	1782.39603
446.961	1833.54157
447.454	1776.60299
447.947	1742.74183
448.439	1653.76525
448.931	1645.6576
449.424	1613.94043
449.916	1637.84745
450.408	1597.69853
450.9	1630.92394
451.392	1480.9779
451.884	1448.77589
452.375	1528.12902
452.867	1425.76228
453.358	1440.84155
453.849	1365.69544
454.341	1345.81494
454.832	1409.75423
455.323	1390.02186
455.814	1302.86736
456.304	1291.88509
456.795	1173.81436
457.285	1249.8064
457.776	1292.90629
458.266	1235.00438
458.756	1228.03056
459.247	1207.04323
459.737	1169.04295
460.226	1145.89691
460.716	1156.08853
461.206	1029.99534
461.695	1098.19968
462.185	996.9792
462.674	1039.97326
463.163	1062.95624
463.653	983.79514
464.142	1024.14849
464.63	1036.13997
465.119	995.08206
465.608	1002.04769
466.096	987.96737
466.585	990.06015
467.073	955.07976
467.561	891.0606
468.05	940.06143
468.538	875.10551
469.026	873.05266
469.513	868.90175
470.001	859.01329
470.489	864.06544
470.976	793.96404
471.463	787.11644
471.951	801.11993
472.438	737.00445
472.925	766.04382
473.412	618.88394
473.899	666.89267
474.385	645.95427
474.872	685.96923
475.359	691.04624
475.845	653.8052
476.331	543.70748
476.817	596.94246
477.303	536.78528
477.789	568.88366
478.275	564.94489
478.761	474.74678
479.247	502.71598
479.732	490.83163
480.218	513.93282
480.703	480.83186
481.188	509.73444
481.673	415.65206
482.158	486.71282
482.643	419.74367
483.128	462.7405
483.612	416.69033
484.097	369.64606
484.581	437.73421
485.066	401.7021
485.55	348.55039
486.034	395.62062
486.518	413.71817
487.002	420.76386
487.486	364.67445
487.969	316.58433
488.453	305.58447
488.936	312.53374
489.42	317.5212
489.903	347.67299
490.386	345.41014
490.869	283.46788
491.352	284.54435
491.835	266.41921
492.318	339.58946
492.8	280.44128
493.283	265.52968
493.765	307.59826
494.247	271.49923
494.73	291.50384
495.212	271.52082
495.694	214.3963
496.175	201.38722
496.657	206.38969
497.139	158.20967
497.62	189.37058
498.102	127.26304
498.583	142.29417
499.064	113.2045
499.545	138.26028
500.026	141.26091
500.507	229.43224
500.988	153.31178
501.469	157.32895
501.949	168.3432
502.43	141.28183
502.91	85.14528
503.39	95.1987
503.87	99.1965
504.35	146.28539
504.83	88.1628
505.31	131.26682
505.79	108.22103
506.269	99.19467
506.749	107.20841
507.228	96.18952
507.707	132.24628
508.187	36.07207
508.666	107.22628
509.145	145.28969
509.623	75.15144
510.102	102.21102
510.581	144.29377
511.059	132.28165
511.538	116.25556
512.016	82.16706
512.494	92.19298
512.972	80.16365
513.45	77.15455
513.928	118.24303
514.406	148.30879
514.884	94.2077
515.361	84.17183
515.839	119.22792
516.316	59.12149
516.793	93.2039
517.27	58.12144
517.747	152.33852
518.224	101.20094
518.701	65.12329
519.178	109.23515
519.654	148.29891
520.131	130.27871
520.607	98.20774
521.083	151.29299
521.56	155.31671
522.036	143.26528
522.512	99.20853
522.987	71.14626
523.463	157.32415
523.939	56.11689
524.414	154.30131
524.89	106.21733
525.365	120.23579
525.84	87.18116
526.315	84.17363
526.79	130.24977
527.265	107.20881
527.74	103.21868
528.215	121.24612
528.689	103.19833
529.164	111.2089
529.638	117.25955
530.112	102.20989
530.587	57.10484
531.061	104.21641
531.534	104.2195
532.008	146.3034
532.482	118.23175
532.956	123.27399
533.429	136.28514
533.903	55.1031
534.376	89.17409
534.849	71.1431
535.322	183.37562
535.795	98.20901
536.268	132.27578
536.741	84.17659
537.213	146.29081
537.686	133.28545
538.158	77.15126
538.631	62.13183
539.103	124.24549
539.575	66.11856
540.047	145.27718
540.519	125.25831
540.991	111.23494
541.463	120.25416
541.934	128.25555
542.406	161.33793
542.877	192.37869
543.348	91.19143
543.82	101.21434
544.291	133.26905
544.762	180.37239
545.233	88.19241
545.703	150.29335
546.174	141.27908
546.645	202.42558
547.115	149.30984
547.585	113.2244
548.056	175.36213
548.526	135.27197
548.996	162.32719
549.466	217.44602
549.935	190.38109
550.405	223.40771
550.875	268.53381
551.344	268.53058
551.814	196.3735
552.283	224.40343
552.752	224.43765
553.221	284.5136
553.69	280.51076
554.159	211.42997
554.628	270.48628
555.096	193.4085
555.565	273.51024
556.033	201.39188
556.502	198.40338
556.97	121.22278
557.438	223.45152
557.906	149.30307
558.374	213.42535
558.842	161.33704
559.31	117.22735
559.777	156.33387
560.245	192.39632
560.712	75.15255
561.18	69.13683
561.647	114.22834
562.114	149.30183
562.581	110.23878
563.048	97.19892
563.514	70.15215
563.981	120.24514
564.448	132.26549
564.914	106.21733
565.381	98.20093
565.847	139.28338
566.313	121.24937
566.779	100.20206
567.245	168.35224
567.711	67.142
568.176	106.21113
568.642	169.38425
569.108	88.19371
569.573	79.1656
570.038	153.28284
570.504	75.15033
570.969	135.30184
571.434	124.24262
571.899	183.38343
572.363	87.17414
572.828	107.21198
573.293	171.34243
573.757	204.40671
574.222	84.16482
574.686	115.22869
575.15	64.13632
575.614	157.31498
576.078	139.28557
576.542	115.22975
577.006	131.25917
577.469	99.21055
577.933	158.31251
578.396	205.42743
578.86	92.18999
579.323	206.43229
579.786	102.19361
580.249	197.39961
580.712	147.31549
581.175	135.29611
581.637	137.27371
582.1	87.16905
582.563	108.2015
583.025	149.32213
583.487	163.28836
583.95	115.21919
584.412	150.27486
584.874	91.19337
585.336	142.29733
585.797	112.21156
586.259	144.29738
586.721	167.35269
587.182	123.25144
587.643	132.26243
588.105	101.21246
588.566	130.24038
589.027	67.14206
589.488	142.28363
589.949	105.22555
590.41	141.24502
590.87	138.27538
591.331	128.24308
591.791	137.27955
592.252	136.27909
592.712	143.30558
593.172	166.33311
593.632	152.29303
594.092	138.27129
594.552	119.22362
595.011	140.28808
595.471	159.31176
595.931	105.20919
596.39	173.3628
596.849	153.31603
597.308	140.26691
597.768	109.24924
598.227	95.20125
598.685	92.18589
599.144	132.27247
599.603	131.27217
600.062	151.28753
600.52	114.22538
600.978	166.35266
601.437	120.24191
601.895	81.15394
602.353	184.36274
602.811	127.25102
603.269	141.30092
603.727	117.2497
604.184	166.33111
604.642	180.38823
605.099	110.22747
605.557	135.29524
606.014	134.26019
606.471	162.36214
606.928	219.41946
607.385	190.40663
607.842	227.45288
608.299	193.38183
608.755	242.49908
609.212	150.28848
609.668	227.44951
610.125	186.38549
610.581	157.31862
611.037	202.39823
611.493	130.27064
611.949	87.19051
612.405	159.29054
612.861	153.31845
613.316	158.3399
613.772	26.05398
614.227	126.26861
614.683	136.26155
615.138	134.2853
615.593	159.33462
616.048	171.35147
616.503	129.28629
616.958	107.24437
617.412	145.31281
617.867	164.32955
618.321	130.24736
618.776	145.2909
619.23	154.32959
619.684	97.19631
620.138	53.10943
620.592	130.28857
621.046	114.24145
621.5	110.2458
621.954	86.17816
622.407	156.32201
622.861	142.31546
623.314	103.21591
623.768	67.14436
624.221	122.22581
624.674	73.15634
625.127	119.25958
625.58	85.17967
626.033	80.16417
626.485	66.14851
626.938	138.30479
627.39	97.21052
627.843	80.17299
628.295	79.17218
628.747	81.17864
629.199	102.22132
629.651	83.1819
630.103	82.17724
630.555	114.23352
631.006	68.15113
631.458	72.16102
631.909	82.17588
632.361	27.06089
632.812	51.11267
633.263	65.13475
633.714	45.09295
634.165	38.08764
634.616	67.1532
635.067	18.03859
635.518	55.12652
635.968	90.17384
636.419	51.10884
636.869	32.07395
637.319	-5.0112
637.769	92.20099
638.219	72.16593
638.669	50.11697
639.119	58.13633
639.569	44.10394
640.019	55.12374
640.468	23.05053
640.918	20.04684
641.367	82.18429
641.816	16.03494
642.265	21.0475
642.714	34.07801
643.163	90.20409
643.612	53.12794
644.061	51.10974
644.51	36.08157
644.958	125.27718
645.406	14.03323
645.855	35.08487
646.303	18.04125
646.751	72.1642
647.199	29.06535
647.647	54.1237
648.095	39.08982
648.543	31.06357
648.99	31.07367
649.438	23.05295
649.885	42.10259
650.333	103.20081
650.78	37.08952
651.227	33.07951
651.674	70.15971
652.121	40.09683
652.568	48.11611
653.015	23.05813
653.461	28.06684
653.908	10.02309
654.354	8.01894
654.801	62.14652
655.247	-9.0197
655.693	-1.00257
656.139	42.10072
656.585	21.05025
657.031	-10.02375
657.477	9.01949
657.922	38.08736
658.368	18.04451
658.813	49.11344
659.259	72.17358
659.704	45.10604
660.149	62.14675
660.594	-6.01431
661.039	23.0528
661.484	48.1141
661.929	37.08658
662.373	6.01506
662.818	64.15825
663.262	15.03652
663.707	27.06831
664.151	41.10009
664.595	39.09454
665.039	68.16937
665.483	31.07874
665.927	12.0285
666.371	19.04491
666.814	55.13177
667.258	7.01678
667.701	96.20662
668.145	83.20474
668.588	66.16277
669.031	47.11157
669.474	76.18447
669.917	41.09129
670.36	32.08008
670.803	46.11043
671.245	42.08993
671.688	84.2012
672.13	30.06858
672.573	79.20065
673.015	28.06773
673.457	60.13224
673.899	100.24153
674.341	61.14775
674.783	100.24499
675.225	15.03695
675.666	82.20052
676.108	28.06239
676.549	55.13101
676.991	68.15477
677.432	54.11122
677.873	61.14497
678.314	60.14536
678.755	28.06923
679.196	97.2251
679.637	66.16134
680.078	46.10804
680.518	2.0047
680.959	130.31624
681.399	83.20699
681.839	98.24143
682.28	73.18265
682.72	28.06563
683.16	56.1412
683.6	30.0693
684.039	36.07598
684.479	47.11751
684.919	78.18555
685.358	73.18686
685.798	60.15896
686.237	56.1371
686.676	45.10484
687.115	25.05994
687.554	81.19509
687.993	106.23784
688.432	137.32219
688.871	62.14448
689.309	19.04571
689.748	79.16962
690.186	89.21428
690.625	112.26919
691.063	95.23019
691.501	53.13208
691.939	106.26651
692.377	78.19287
692.815	56.13847
693.253	87.21017
693.69	90.20426
694.128	112.27795
694.565	108.26164
695.003	69.17674
695.44	16.038
695.877	-8.01917
696.314	83.18336
696.751	67.15351
697.188	74.17271
697.625	114.26512
698.061	35.08554
698.498	49.1194
698.934	71.17443
699.371	85.20534
699.807	83.20013
700.243	71.17598
700.679	44.101
701.115	15.03587
701.551	70.1678
701.987	50.11348
702.422	58.14083
702.858	63.15323
703.294	67.15388
703.729	83.20617
704.164	79.19387
704.599	62.14146
705.035	117.27215
705.47	41.1011
705.904	96.2317
706.339	97.22706
706.774	81.19457
707.209	50.11908
707.643	49.12007
708.078	59.14634
708.512	100.25395
708.946	89.21509
709.38	44.10535
709.814	64.14943
710.248	52.12773
710.682	82.1994
711.116	88.21711
711.549	76.19892
711.983	56.1328
712.416	77.18342
712.85	14.03538
713.283	65.15655
713.716	71.17803
714.149	71.17178
714.582	42.09567
715.015	58.14661
715.448	122.30607
715.881	37.08157
716.313	79.18861
716.746	47.1138
717.178	32.07846
717.61	67.17012
718.043	90.22677
718.475	43.10615
718.907	59.14853
719.339	60.14042
719.77	53.12871
720.202	33.08406
720.634	50.12472
721.065	70.16773
721.497	69.17089
721.928	53.13271
722.359	58.14436
722.79	67.16314
723.221	52.1314
723.652	54.13844
724.083	56.13008
724.514	94.21973
724.945	-14.0335
725.375	92.22129
725.806	95.24052
726.236	70.18009
726.666	96.22986
727.096	50.12499
727.526	85.22032
727.956	93.21812
728.386	18.04464
728.816	42.10832
729.246	58.14441
729.675	69.17414
730.105	50.12372
730.534	-10.02398
730.964	55.13975
731.393	35.0871
731.822	71.1832
732.251	41.10535
732.68	128.30566
733.109	55.13766
733.537	59.14522
733.966	68.17048
734.395	49.11501
734.823	78.17832
735.251	-7.01715
735.68	84.21211
736.108	71.18174
736.536	31.07441
736.964	49.11623
737.392	70.17499
737.82	21.05121
738.247	37.08986
738.675	53.12644
739.102	75.18955
739.53	72.1864
739.957	86.22287
740.384	66.162
740.811	81.20617
741.238	12.02967
741.665	44.10471
742.092	50.12109
742.519	56.14171
742.945	42.10278
743.372	47.11747
743.798	11.02854
744.225	37.08999
744.651	48.12276
745.077	26.06572
745.503	3.00739
745.929	40.09716
746.355	42.10419
746.781	76.1917
747.207	28.06847
747.632	74.18519
748.058	73.18436
748.483	56.13116
748.908	47.11874
749.334	109.26986
749.759	23.05556
750.184	94.22747
750.609	59.14586
751.033	52.12394
751.458	75.17053
751.883	63.157
752.307	36.08653
752.732	19.0487
753.156	62.15454
753.58	73.17329
754.005	55.14103
754.429	39.0929
754.853	74.18572
755.277	24.05819
755.7	89.22381
756.124	24.06088
756.548	77.1863
756.971	58.14157
757.394	0
757.818	63.16335
758.241	38.0978
758.664	46.11769
759.087	68.15646
759.51	31.07779
759.933	0
760.356	40.10216
760.778	-15.03741
761.201	54.13215
761.623	62.15201
762.046	61.14625
762.468	74.17698
762.89	31.07658
763.312	42.1029
763.734	28.06822
764.156	28.0701
764.578	14.03244
765	22.054
765.421	33.08574
765.843	-19.04993
766.264	74.18089
766.686	83.21134
767.107	65.15904
767.528	29.07483
767.949	-6.01546
768.37	45.1121
768.791	60.14656
769.212	11.0284
769.632	42.10125
770.053	92.24423
770.473	83.20594
770.894	33.08293
771.314	28.0672
771.734	2.00476
772.154	41.10565
772.575	44.10294
772.994	-10.02341
773.414	79.19164
773.834	68.17299
774.254	76.18916
774.673	62.15235
775.093	51.12885
775.512	16.04024
775.931	43.11018
776.351	8.02011
776.77	16.04013
777.189	5.01212
777.607	27.07006
778.026	29.07361
778.445	62.1599
778.864	42.10824
779.282	53.12944
779.701	12.03043
780.119	30.0771
780.537	14.03544
780.955	92.23496
781.373	37.09204
781.791	4.00919
782.209	40.09233
782.627	51.13519
783.045	29.06751
783.462	66.17157
783.88	47.12279
784.297	13.03325
784.715	106.27772
785.132	33.08128
785.549	-16.04039
785.966	10.02549
786.383	57.14272
786.8	50.1172
787.217	40.0964
787.633	46.11686
788.05	27.06464
788.466	42.09856
788.883	74.19223
789.299	67.16271
789.715	42.10351
790.131	57.14251
790.547	20.05023
790.963	8.02003
791.379	40.10201
791.795	50.11569
792.21	-15.03537
792.626	65.1556
793.041	39.09779
793.457	78.19279
793.872	10.02393
794.287	46.11295
794.702	12.02981
795.117	4.0101
795.532	16.04095
795.947	13.03133
796.362	28.06697
796.776	54.12544
797.191	39.09687
797.605	50.12104
798.02	41.10069
798.434	40.08971
798.848	58.14441
799.262	49.12269
799.676	3.00737
800.09	23.05763
800.504	2.00495
800.918	41.09616
801.331	-2.00523
801.745	44.10366
802.158	6.01505
802.572	6.01464
802.985	3.00729
803.398	80.19199
803.811	48.12198
804.224	43.10681
804.637	36.08682
805.05	-3.00705
805.462	20.04929
805.875	16.04231
806.288	64.15715
806.7	18.04552
807.112	-16.03724
807.525	38.09375
807.937	53.13366
808.349	27.06834
808.761	59.14719
809.173	85.20821
809.584	33.08179
809.996	48.11838
810.408	37.09726
810.819	36.08616
811.231	101.2662
811.642	85.20581
812.053	132.31001
812.464	114.26219
812.875	98.24436
813.286	93.2337
813.697	43.09753
814.108	37.09023
814.519	100.22336
814.929	49.12538
815.34	-24.0595
815.75	75.19164
816.16	2.00501
816.571	16.04166
816.981	37.08861
817.391	86.20983
817.801	-4.01016
818.211	-22.05233
818.62	6.01461
819.03	12.0296
819.44	44.1143
819.849	16.04065
820.259	68.17403
820.668	49.12242
821.077	30.07573
821.486	63.15191
821.895	11.02717
822.304	16.04242
822.713	50.12013
823.122	54.13577
823.531	47.11294
823.939	29.07177
824.348	48.11808
824.756	31.07824
825.164	75.18833
825.573	21.05302
825.981	47.11738
826.389	13.03263
826.797	13.03296
827.205	62.14499
827.612	46.11345
828.02	56.1346
828.428	17.04365
828.835	56.14946
829.243	26.06194
829.65	13.03267
830.057	20.04882
830.464	-1.00246
830.871	42.10114
831.278	46.11345
831.685	55.12298
832.092	47.11521
832.499	73.16295
832.905	28.07078
833.312	-4.00921
833.718	8.0201
834.124	28.06404
834.531	30.07583
834.937	44.11395
835.343	38.09182
835.749	30.07057
836.155	43.11383
836.561	40.09963
836.966	-54.13298
837.372	42.10775
837.777	-14.03514
838.183	39.08752
838.588	53.13347
838.993	47.11504
839.399	36.08934
839.804	16.03995
840.209	68.17488
840.613	-10.02275
841.018	0
841.423	35.09075
841.828	41.10499
842.232	25.06149
842.637	31.07353
843.041	0
843.445	97.24392
843.849	16.04005
844.253	51.12158
844.657	24.06099
845.061	-19.04376
845.465	36.08862
845.869	-30.07018
846.272	57.14226
846.676	6.0146
847.079	36.09236
847.483	57.14303
847.886	-16.03866
848.289	66.17783
848.692	-4.01021
849.095	28.06804
849.498	19.04751
849.901	27.06288
850.304	5.01203
850.707	18.04618
851.109	-33.08319
851.512	-13.03248
851.914	22.05642
852.316	10.0254
852.718	-25.06518
853.121	57.14019
853.523	28.06574
853.925	15.03968
854.326	41.1041
854.728	36.09301
855.13	12.03159
855.531	16.03885
855.933	9.02164
856.334	-3.00763
856.736	26.05954
857.137	20.04752
857.538	0
857.939	19.04749
858.34	12.02919
858.741	6.0157
859.142	-2.00484
859.542	10.02671
859.943	-2.00502
860.343	35.08789
860.744	21.05127
861.144	50.12263
861.544	41.10062
861.945	14.0357
862.345	27.0666
862.745	14.03531
863.145	44.10467
863.544	40.10126
863.944	-16.03793
864.344	-12.03011
864.743	25.06199
865.143	27.06981
865.542	-1.00235
865.941	36.08963
866.34	29.06937
866.74	42.11287
867.139	58.14162
867.537	37.09338
867.936	0
868.335	-3.00765
868.734	-30.07716
869.132	0
869.531	8.01934
869.929	29.06815
870.327	54.13048
870.726	-16.03961
871.124	-2.00471
871.522	25.0639
871.92	-21.05169
872.318	61.1492
872.715	16.03948
873.113	27.06653
873.511	-10.02526
873.908	49.12591
874.306	31.07784
874.703	24.06008
875.1	0
875.497	65.15697
875.894	46.11545
876.291	22.05424
876.688	17.04396
877.085	53.12664
877.482	60.15048
877.878	12.02912
878.275	22.05684
878.671	2.00447
879.068	-31.07464
879.464	16.03863
879.86	-12.0289
880.256	48.11816
880.652	42.10775
881.048	-12.02965
881.444	72.1718
881.84	24.06177
882.236	17.0427
882.631	-14.03445
883.027	41.09856
883.422	2.00516
883.817	5.01277
884.213	34.08772
884.608	28.06987
885.003	29.07061
885.398	38.09588
885.793	28.07073
886.188	40.10122
886.582	40.10144
886.977	37.08736
887.371	47.11938
887.766	50.12751
888.16	9.0223
888.554	8.01963
888.949	27.06734
889.343	4.00969
889.737	1.0027
890.131	42.10655
890.525	24.06142
890.918	36.091
891.312	30.07128
891.706	37.09752
892.099	71.18155
892.492	-23.05026
892.886	-4.00988
893.279	13.03365
893.672	-14.03621
894.065	10.02525
894.458	32.08072
894.851	51.12455
895.244	1.00257
895.637	-4.00973
896.029	-5.01232
896.422	60.1464
896.814	2.00501
897.206	18.04403
897.599	18.04444
897.991	60.14623
898.383	13.03086
898.775	14.03181
899.167	-42.10045
899.559	16.04047
899.951	14.03318
900.342	47.11887
900.734	38.0965
901.125	40.10455
901.517	8.01986
901.908	37.08912
902.299	-1.00248
902.69	-5.01191
903.082	35.08459
903.473	6.01452
903.863	41.10476
904.254	43.10148
904.645	22.05416
905.036	23.05707
905.426	2.00453
905.817	49.12127
906.207	6.01453
906.597	42.09937
906.987	28.07299
907.378	3.00763
907.768	-5.01324
908.158	-3.00736
908.547	57.148
908.937	18.04641
909.327	27.06599
909.717	96.24163
910.106	42.10175
910.495	32.07918
910.885	54.13611
911.274	9.02258
911.663	-17.04307
912.052	15.03685
912.441	13.03345
912.83	6.01391
913.219	-26.06796
913.608	1.00245
913.997	45.11442
914.385	25.05989
914.774	35.08535
915.162	34.08209
915.55	23.05546
915.939	40.10187
916.327	73.18252
916.715	18.04658
917.103	-1.00244
917.491	43.10615
917.878	24.05906
918.266	20.05224
918.654	44.11328
919.041	46.12175
919.429	39.0934
919.816	0
920.203	24.05897
920.591	11.02734
920.978	14.03448
921.365	21.05531
921.752	-3.00729
922.139	-10.02186
922.525	-18.04405
922.912	5.01224
923.299	20.05014
923.685	60.15784
924.072	-9.02061
924.458	22.05492
924.844	73.18166
925.231	-14.03294
925.617	28.07256
926.003	-7.01789
926.389	10.02533
926.774	72.18336
927.16	-1.00248
927.546	4.01033
927.931	16.04003
928.317	-32.0748
928.702	-53.12552
929.088	-6.01442
929.473	-23.05848
929.858	-2.00495
930.243	-14.03436
930.628	-25.06126
931.013	-36.08983
931.398	15.03466
931.783	4.01049
932.167	-15.03725
932.552	-9.02234
932.937	6.01479
933.321	6.01531
933.705	3.00754
934.09	44.10999
934.474	68.16151
934.858	-22.05754
935.242	34.08007
935.626	27.06916
936.009	-27.07238
936.393	26.06635
936.777	7.01813
937.16	24.06282
937.544	9.02113
937.927	-19.04882
938.311	34.08243
938.694	37.09683
939.077	55.13312
939.46	-11.027
939.843	65.13589
940.226	22.05634
940.609	6.01403
940.991	44.11277
941.374	-4.00984
941.757	41.10117
942.139	62.14106
942.522	5.01175
942.904	65.15703
943.286	5.01274
943.668	45.11628
944.05	62.15516
944.432	57.14215
944.814	37.09023
945.196	-7.01743
945.578	13.03175
945.959	11.02585
946.341	-7.01697
946.722	45.10558
947.104	-31.07478
947.485	23.05342
947.866	1.00257
948.247	29.07389
948.628	-21.05173
949.009	15.03899
949.39	37.09221
949.771	13.03012
950.152	-5.01239
950.532	33.08269
950.913	-2.0048
951.293	48.13102
951.674	0
952.054	-20.04965
952.434	-16.03969
952.814	1.00239
953.194	17.04446
953.574	20.04967
953.954	46.11081
954.334	24.0603
954.714	3.00741
955.093	41.10073
955.473	15.03786
955.853	-7.01823
956.232	-10.02723
956.611	-10.02381
956.99	29.07361
957.37	28.07146
957.749	37.08939
958.128	-9.02303
958.506	13.03395
958.885	2.0051
959.264	22.05436
959.643	-20.04583
960.021	3.00749
960.4	-41.09296
960.778	45.11072
961.156	22.05539
961.535	26.06102
961.913	21.04943
962.291	23.05999
962.669	49.12424
963.047	20.05108
963.424	4.01023
963.802	35.08684
964.18	14.03512
964.557	-5.0114
964.935	8.01901
965.312	39.10213
965.69	37.09254
966.067	42.10316
966.444	109.26719
966.821	27.06967
967.198	8.01932
967.575	48.11707
967.952	8.01888
968.329	-39.09539
968.705	4.00862
969.082	29.07483
969.458	-1.00245
969.835	60.14601
970.211	-3.00781
970.587	16.04003
970.963	33.08444
971.339	-6.01582
971.715	3.00746
972.091	25.06135
972.467	33.08278
972.843	-4.00996
973.219	50.11816
973.594	21.05559
973.97	-27.06402
974.345	27.06451
974.721	16.039
975.096	10.0242
975.471	49.11676
975.846	19.04548
976.221	35.08934
976.596	-1.00241
976.971	11.02706
977.346	-22.05169
977.72	37.09508
978.095	-12.03109
978.469	37.08905
978.844	-6.01506
979.218	20.04894
979.593	11.02658
979.967	3.00731
980.341	-5.01163
980.715	4.01012
981.089	33.08263
981.463	-19.04451
981.837	1.00248
982.21	-4.00929
982.584	20.04887
982.957	5.0127
983.331	36.0857
983.704	7.01729
984.078	19.04678
984.451	25.06183
984.824	41.10121
985.197	72.1762
985.57	-1.00252
985.943	4.00991
986.316	13.0316
986.688	38.09248
987.061	51.11943
987.434	12.03137
987.806	14.03439
988.179	-12.02839
988.551	16.0401
988.923	-9.02233
989.295	77.19266
989.667	-2.00491
990.039	-1.00252
990.411	-26.06018
990.783	15.03451
991.155	-31.07577
991.527	79.19049
991.898	5.01269
992.27	63.1586
992.641	20.04962
993.012	-13.03014
993.384	19.04585
993.755	-41.10499
994.126	25.06062
994.497	45.11174
994.868	-18.04204
995.239	10.02438
995.61	11.02804
995.98	13.03182
996.351	58.14546
996.722	12.02852
997.092	22.053
997.462	34.08113
997.833	72.17279
998.203	-26.06365
998.573	-6.01509
998.943	42.09856
999.313	11.02657
999.683	16.03917
1000.053	51.11835
1000.423	-14.03415
1000.792	5.01306
1001.162	84.20915
1001.531	-43.1065
1001.901	4.01003
1002.27	21.04711
1002.639	11.02825
1003.009	-20.04807
1003.378	23.05927
1003.747	-2.00474
1004.116	27.06569
1004.485	10.02418
1004.853	3.00763
1005.222	42.10567
1005.591	-18.043
1005.959	33.076
1006.328	58.13526
1006.696	-31.07534
1007.064	27.0679
1007.433	-5.01239
1007.801	26.06393
1008.169	27.06897
1008.537	31.06877
1008.905	3.00716
1009.273	-28.06926
1009.64	39.09535
1010.008	-37.08814
1010.375	22.05278
1010.743	-10.02256
1011.11	-6.01434
1011.478	17.0423
1011.845	17.04053
1012.212	46.1058
1012.579	-3.00748
1012.946	7.01663
1013.313	12.02845
1013.68	18.0408
1014.047	6.01455
1014.414	1.0024
1014.78	29.07327
1015.147	41.09845
1015.513	2.00485
1015.88	41.10491
1016.246	5.01227
1016.612	22.05084
1016.978	-6.01466
1017.344	-10.02467
1017.71	11.02679
1018.076	1.00237
1018.442	-52.1335
1018.808	55.13925
1019.174	37.09304
1019.539	-12.02697
1019.905	22.0528
1020.27	-1.00249
1020.636	20.04787
1021.001	-8.01915
1021.366	-5.01214
1021.731	29.07488
1022.096	28.07174
1022.461	10.02396
1022.826	3.00716
1023.191	31.0814
1023.556	60.14103
1023.92	30.07377
1024.285	-18.04384
1024.649	6.01487
1025.014	38.09403
1025.378	22.05573
1025.742	39.09793
1026.107	36.0817
1026.471	4.00928
1026.835	56.14014
1027.199	41.10035
1027.562	29.0685
1027.926	-22.05396
1028.29	-6.01517
1028.654	11.02559
1029.017	51.12543
1029.381	9.02179
1029.744	8.02047
1030.107	46.10846
1030.471	31.07469
1030.834	67.15462
1031.197	-20.04823
1031.56	24.05663
1031.923	46.11987
1032.286	66.15398
1032.648	-32.07601
1033.011	-22.05119
1033.374	-13.0302
1033.736	20.05313
1034.099	31.07557
1034.461	54.13752
1034.823	-45.11405
1035.185	35.08802
1035.548	27.06606
1035.91	-22.05231
1036.272	-1.00231
1036.634	16.03884
1036.995	18.04256
1037.357	56.13821
1037.719	1.00244
1038.08	11.02599
1038.442	14.03335
1038.803	47.11269
1039.165	63.16041
1039.526	20.04874
1039.887	-4.00967
1040.248	-11.02758
1040.609	0
1040.97	-1.00245
1041.331	32.08152
1041.692	52.12493
1042.053	-4.00916
1042.413	-17.0397
1042.774	28.06809
1043.134	-21.04981
1043.495	54.13587
1043.855	-27.0654
1044.215	34.08432
1044.576	14.03417
1044.936	73.16739
1045.296	69.17146
1045.656	21.05216
1046.016	45.10953
1046.375	15.03663
1046.735	39.08975
1047.095	56.13357
1047.454	44.09299
1047.814	33.07978
1048.173	-27.06409
1048.533	14.0323
1048.892	-9.02197
1049.251	-3.00749
1049.61	36.08983
1049.969	28.06589
1050.328	-43.09412
1050.687	27.06619
1051.046	13.03191
1051.405	45.11198
1051.763	26.06066
1052.122	40.10086
1052.48	-21.05197
1052.839	28.06684
1053.197	7.01657
1053.555	-1.00227
1053.914	32.0786
1054.272	10.0243
1054.63	24.0593
1054.988	-12.02907
1055.345	-6.0132
1055.703	29.06985
1056.061	-6.01554
1056.419	37.09696
1056.776	-8.01949
1057.134	13.03041
1057.491	39.09769
1057.848	10.02494
1058.206	58.13712
1058.563	14.03146
1058.92	24.05577
1059.277	14.03454
1059.634	51.12097
1059.991	-18.04325
1060.348	3.00686
1060.704	25.06062
1061.061	-6.01394
1061.418	8.01977
1061.774	14.03459
1062.131	44.11871
1062.487	22.05197
1062.843	-23.05757
1063.199	18.04506
1063.555	26.06133
1063.911	-19.04805
1064.267	19.03967
1064.623	31.07624
1064.979	29.0685
1065.335	-5.01192
1065.691	35.08401
1066.046	41.09179
1066.402	19.04387
1066.757	30.0757
1067.112	21.05155
1067.468	-24.05836
1067.823	56.13541
1068.178	59.14393
1068.533	-1.00242
1068.888	-22.05254
1069.243	-2.00497
1069.598	7.0171
1069.952	33.07661
1070.307	0
1070.662	30.07262
1071.016	-4.00918
1071.371	24.05496
1071.725	-20.04791
1072.079	-22.0528
1072.434	19.04676
1072.788	21.05016
1073.142	-9.02223
1073.496	66.15911
1073.85	53.12324
1074.203	-4.00978
1074.557	-9.024
1074.911	1.00237
1075.265	73.17008
1075.618	27.06565
1075.971	48.11484
1076.325	24.06134
1076.678	51.11933
1077.031	68.15665
1077.385	-43.09559
1077.738	20.04543
1078.091	48.11176
1078.444	-49.11506
1078.796	39.09709
1079.149	-20.04978
1079.502	57.13713
1079.855	-36.08468
1080.207	1.00245
1080.56	30.07866
1080.912	-25.06099
1081.264	2.00488
1081.617	3.00747
1081.969	-10.02555
1082.321	30.0735
1082.673	-4.00926
1083.025	-8.01902
1083.377	263.59795
1083.728	58.13563
1084.08	35.08773
1084.432	52.1265
1084.783	15.03543
1085.135	27.0686
1085.486	-3.00704
1085.838	4.00994
1086.189	11.02687
1086.54	-2.00476
1086.891	47.1206
1087.242	-38.09379
1087.593	2.00487
1087.944	24.05449
1088.295	-2.00456
1088.646	27.06611
1088.996	-13.03193
1089.347	14.03449
1089.698	-5.01201
1090.048	-19.04987
1090.398	56.1307
1090.749	13.03114
1091.099	2.00507
1091.449	18.0454
1091.799	58.14483
1092.149	-6.015
1092.499	19.04637
1092.849	26.06652
1093.199	-4.01002
1093.548	37.0905
1093.898	46.11603
1094.248	14.03617
1094.597	9.02351
1094.947	-31.08286
1095.296	-24.0601
1095.645	-6.01555
1095.994	-6.01455
1096.343	-4.01013
1096.692	23.06103
1097.041	-24.06603
1097.39	21.05292
1097.739	20.05199
1098.088	-54.14402
1098.437	4.01072
1098.785	19.05112
1099.134	-11.02894
1099.482	-10.02753
1099.83	6.01569
1100.179	-26.06877
1100.527	28.07515
1100.875	10.02678
1101.223	12.0319
1101.571	-29.08031
1101.919	1.00265
1102.267	0
1102.615	-1.00322
1102.962	12.03859
1103.31	11.03539
1103.658	9.02893
