Data from N2 R4 sample 6_Subt2__0__19-24-56-466.txt Node

Date: Wed Aug 27 19:24:56 PDT 2025
User: uwsun
Spectrometer: HDX01956
Trigger mode: 0
Integration Time (sec): 5.000000E-1
Scans to average: 1
Nonlinearity correction enabled: true
Boxcar width: 0
Storing dark spectrum: false
XAxis mode: Wavelengths
Number of Pixels in Spectrum: 2068
>>>>>Begin Spectral Data<<<<<
194.03	606.53305
194.578	574.6724
195.127	563.61031
195.676	609.74189
196.225	569.33562
196.773	656.5922
197.321	985.17646
197.87	1320.39951
198.418	1381.47997
198.966	1362.49106
199.513	1363.36434
200.061	1332.3655
200.609	1352.53446
201.156	1342.98167
201.704	1301.28353
202.251	1311.46397
202.798	1336.45066
203.345	1348.30081
203.892	1335.34227
204.438	1368.1927
204.985	1398.23484
205.532	1405.56808
206.078	1351.23672
206.624	1457.39234
207.17	1373.06195
207.716	1414.31422
208.262	1430.74683
208.808	1448.44231
209.354	1410.30508
209.899	1397.37288
210.445	1382.32782
210.99	1380.20709
211.535	1416.13665
212.08	1440.16034
212.625	1395.35427
213.17	1388.35309
213.715	1328.00864
214.259	1503.27398
214.804	1396.35281
215.348	1405.08787
215.892	1459.26688
216.436	1477.18809
216.98	1422.02289
217.524	1343.16871
218.068	1388.36065
218.612	1310.26779
219.155	1365.17492
219.698	1321.10789
220.242	1237.11098
220.785	1245.99812
221.328	1207.13217
221.871	1233.1918
222.414	1185.07908
222.956	1219.1112
223.499	1285.04309
224.041	1260.03439
224.583	1249.81812
225.126	1294.96122
225.668	1277.21097
226.21	1256.27816
226.751	1186.84129
227.293	1236.98415
227.835	1213.08087
228.376	1225.95033
228.918	1219.18685
229.459	1254.25161
230	1240.09413
230.541	1239.97051
231.082	1230.09617
231.622	1264.01233
232.163	1318.24095
232.704	1239.1765
233.244	1276.28194
233.784	1211.08845
234.324	1302.99682
234.864	1212.93116
235.404	1222.03692
235.944	1213.02459
236.484	1276.22027
237.023	1252.08266
237.563	1252.00215
238.102	1235.01334
238.641	1337.35797
239.18	1210.00692
239.719	1247.20085
240.258	1320.9678
240.797	1291.10404
241.335	1309.20833
241.874	1297.59721
242.412	1339.19854
242.95	1314.20905
243.488	1298.03289
244.026	1288.01479
244.564	1281.74335
245.102	1301.96082
245.64	1326.17646
246.177	1300.98439
246.715	1295.14814
247.252	1290.99918
247.789	1277.51149
248.326	1350.22955
248.863	1261.80761
249.4	1321.96516
249.936	1307.72729
250.473	1362.09473
251.009	1404.18637
251.546	1338.91724
252.082	1366.8911
252.618	1403.04982
253.154	1388.27388
253.69	1332.97988
254.226	1287.08351
254.761	1355.96778
255.297	1352.95314
255.832	1309.0768
256.367	1351.09163
256.903	1406.00985
257.438	1380.13504
257.972	1305.90733
258.507	1418.14224
259.042	1391.93164
259.576	1386.96331
260.111	1361.06815
260.645	1310.87558
261.179	1352.1096
261.713	1410.03192
262.247	1402.12411
262.781	1388.86191
263.315	1325.20542
263.849	1406.35829
264.382	1456.13523
264.915	1498.23357
265.449	1449.3621
265.982	1395.00573
266.515	1361.15869
267.048	1454.98104
267.58	1359.8747
268.113	1471.02775
268.646	1532.43021
269.178	1439.05055
269.71	1412.9144
270.243	1408.04153
270.775	1449.44466
271.307	1480.27393
271.838	1401.13702
272.37	1443.3223
272.902	1479.14369
273.433	1423.91885
273.965	1374.17389
274.496	1450.33561
275.027	1465.33159
275.558	1469.27597
276.089	1503.38989
276.62	1497.43825
277.15	1412.24848
277.681	1436.89813
278.211	1449.31245
278.741	1446.02158
279.272	1470.11808
279.802	1506.38996
280.332	1523.28145
280.861	1469.21546
281.391	1506.13987
281.921	1540.28729
282.45	1528.41557
282.98	1524.54241
283.509	1587.08566
284.038	1591.18303
284.567	1543.18836
285.096	1529.3274
285.625	1567.15373
286.153	1571.262
286.682	1633.20718
287.21	1588.32555
287.739	1582.22836
288.267	1530.32689
288.795	1620.67895
289.323	1600.26821
289.851	1708.31112
290.378	1617.12578
290.906	1619.4212
291.433	1621.45022
291.961	1597.13813
292.488	1668.50208
293.015	1670.3145
293.542	1667.52209
294.069	1680.46212
294.596	1611.33608
295.122	1714.39008
295.649	1717.10961
296.175	1657.3115
296.702	1676.34507
297.228	1658.28739
297.754	1712.0908
298.28	1794.19811
298.806	1734.38038
299.332	1764.08036
299.857	1863.19657
300.383	1786.59139
300.908	1812.49902
301.433	1758.42472
301.958	1791.24443
302.483	1761.47766
303.008	1848.44002
303.533	1909.74524
304.058	1812.22229
304.582	1881.36501
305.107	1793.66756
305.631	1801.12752
306.155	1898.26579
306.679	1931.33689
307.203	1979.30257
307.727	1944.37719
308.251	1898.49934
308.775	1955.4103
309.298	1917.37032
309.822	1978.60048
310.345	1951.29206
310.868	2120.46127
311.391	1987.42206
311.914	1977.56237
312.437	2039.09373
312.96	2043.2628
313.482	2067.30607
314.005	2133.61712
314.527	2124.74848
315.049	2152.59643
315.571	2102.07796
316.093	2207.46012
316.615	2252.35869
317.137	2200.96569
317.659	2291.41788
318.18	2257.41918
318.702	2340.20136
319.223	2301.75009
319.744	2249.00809
320.265	2386.33631
320.786	2417.44825
321.307	2405.47255
321.828	2407.00705
322.348	2422.16274
322.869	2464.23086
323.389	2667.9714
323.909	2463.9645
324.43	2547.25141
324.95	2528.93176
325.47	2666.30368
325.989	2574.99479
326.509	2743.86617
327.029	2764.90022
327.548	2783.83454
328.067	2868.06736
328.587	2754.15296
329.106	2771.73232
329.625	2743.38521
330.144	2899.86639
330.662	2854.79556
331.181	2924.73553
331.7	3023.80511
332.218	3068.36707
332.736	3102.63344
333.255	3142.648
333.773	3143.7387
334.291	3240.9271
334.808	3209.4383
335.326	3200.28289
335.844	3336.385
336.361	3356.70749
336.879	3433.32967
337.396	3471.40321
337.913	3521.09318
338.43	3651.04516
338.947	3537.12109
339.464	3713.80075
339.981	3622.20889
340.497	3723.25534
341.014	3787.2479
341.53	3780.85998
342.046	3886.12322
342.562	3878.15479
343.078	4056.72091
343.594	4032.86234
344.11	4055.82303
344.626	4138.99641
345.141	4082.53186
345.657	4172.3998
346.172	4181.61818
346.687	4217.48288
347.202	4224.24235
347.717	4277.43111
348.232	4425.53158
348.747	4316.29671
349.261	4450.90967
349.776	4472.21226
350.29	4580.44673
350.805	4593.27163
351.319	4600.93539
351.833	4592.96461
352.347	4703.97588
352.861	4663.94275
353.374	4741.82505
353.888	4713.03311
354.401	4851.73691
354.915	4941.6129
355.428	4923.95385
355.941	5046.66889
356.454	5066.4524
356.967	5110.72744
357.48	4981.56944
357.993	5134.7984
358.505	5162.72063
359.018	5316.64283
359.53	5303.60023
360.042	5469.3392
360.554	5509.49711
361.066	5419.58125
361.578	5374.25471
362.09	5469.47755
362.602	5483.27145
363.113	5619.35593
363.625	5783.35966
364.136	5778.28946
364.647	5706.34834
365.158	5844.32229
365.669	6067.46093
366.18	6007.40232
366.691	5994.29486
367.201	5932.38701
367.712	6109.38934
368.222	6118.38478
368.733	6167.35874
369.243	6431.56231
369.753	6429.56071
370.263	6698.81666
370.773	6563.69936
371.282	6651.78229
371.792	6919.11028
372.301	7035.26188
372.811	7220.47801
373.32	7203.84595
373.829	7494.20573
374.338	7661.9878
374.847	7884.55917
375.356	8149.28923
375.865	8508.56543
376.373	8844.6252
376.882	8984.61171
377.39	9204.20328
377.898	9526.91819
378.407	9879.0056
378.915	10277.85819
379.423	10873.1051
379.93	11106.73605
380.438	11465.87077
380.946	12117.49625
381.453	12605.50233
381.96	13014.04283
382.468	14074.62327
382.975	15073.72567
383.482	15615.87822
383.989	15639.91634
384.495	16131.60565
385.002	17104.48936
385.509	18135.77824
386.015	19106.67264
386.521	20193.47125
387.028	20934.02172
387.534	21741.7961
388.04	22532.24304
388.546	22965.80355
389.051	24062.65057
389.557	26057.47811
390.063	27918.81934
390.568	28984.85009
391.073	29752.0073
391.578	30771.62867
392.084	31765.83234
392.589	32802.0716
393.093	35251.45151
393.598	38561.89324
394.103	41853.08551
394.607	45924.06767
395.112	49165.59056
395.616	48906.05279
396.12	47971.84454
396.624	46379.54848
397.128	45041.38363
397.632	42674.3298
398.136	41053.8128
398.639	39575.50194
399.143	37072.18751
399.646	33425.07685
400.15	30257.92651
400.653	26744.30161
401.156	22069.35973
401.659	15501.4617
402.162	4304.81735
402.664	865.43837
403.167	0
403.67	0
404.172	0
404.674	0
405.176	0
405.678	0
406.18	0
406.682	0
407.184	0
407.686	0
408.187	0
408.688	0
409.19	0
409.691	0
410.192	0
410.693	0
411.194	0
411.694	11.28237
412.195	3122.18734
412.696	8274.79556
413.196	11824.3934
413.696	13768.63585
414.196	13509.3687
414.696	14514.78924
415.196	16680.3865
415.696	20882.81744
416.196	28662.6172
416.695	36400.56296
417.195	40282.64143
417.694	41360.26869
418.194	42711.87066
418.693	44201.96737
419.192	45008.95072
419.691	45305.8869
420.19	45830.68337
420.688	46191.2227
421.187	46668.04785
421.685	48102.17801
422.184	49619.62381
422.682	48749.59175
423.18	41603.64574
423.678	36709.30921
424.176	34132.14847
424.674	31655.99495
425.172	30221.82324
425.669	28756.72143
426.167	26577.50129
426.664	24240.67982
427.161	22585.14794
427.659	20297.78417
428.156	19546.78934
428.652	18296.94315
429.149	17367.02696
429.646	16823.19468
430.143	15900.39057
430.639	14893.27609
431.135	14214.34625
431.632	13459.17976
432.128	12511.88406
432.624	11800.5213
433.12	11613.52935
433.616	11117.44826
434.111	10657.27411
434.607	10223.84534
435.103	10057.53957
435.598	9569.73533
436.093	9298.04792
436.588	8986.0365
437.083	8385.07014
437.578	8067.60317
438.073	7686.8094
438.568	7701.72941
439.062	7323.33969
439.557	7146.63158
440.051	6671.89128
440.546	6494.6497
441.04	6340.4832
441.534	6263.44743
442.028	6121.32416
442.522	5928.22425
443.015	5865.16401
443.509	5743.19648
444.002	5610.19674
444.496	5604.08223
444.989	5550.24839
445.482	5521.32291
445.975	5403.09288
446.468	5303.0053
446.961	5388.12434
447.454	5190.16532
447.947	5043.31582
448.439	4904.36419
448.931	4825.26107
449.424	4780.62124
449.916	4833.48311
450.408	4692.34248
450.9	4733.6166
451.392	4523.79627
451.884	4489.51667
452.375	4430.06478
452.867	4400.53658
453.358	4336.68284
453.849	4234.51635
454.341	4134.75668
454.832	4114.66145
455.323	4018.15389
455.814	4056.89743
456.304	4037.94244
456.795	3865.95857
457.285	3854.91845
457.776	3769.12907
458.266	3854.29299
458.756	3806.37559
459.247	3668.49444
459.737	3532.60183
460.226	3451.37062
460.716	3505.72279
461.206	3391.72378
461.695	3355.11117
462.185	3267.79513
462.674	3229.74785
463.163	3262.66827
463.653	3162.44736
464.142	3172.19516
464.63	3068.20362
465.119	3157.09345
465.608	3135.01301
466.096	2946.93619
466.585	2874.1737
467.073	2857.28163
467.561	2745.39339
468.05	2829.27475
468.538	2734.54295
469.026	2697.42533
469.513	2655.07637
470.001	2622.37802
470.489	2531.51859
470.976	2621.39307
471.463	2487.84655
471.951	2375.82682
472.438	2327.70241
472.925	2321.72768
473.412	2203.73341
473.899	2208.60247
474.385	2155.84815
474.872	2227.76087
475.359	2184.95913
475.845	2063.40077
476.331	1948.43886
476.817	1953.96307
477.303	1935.70971
477.789	1876.87698
478.275	1895.08489
478.761	1826.82494
479.247	1760.58667
479.732	1766.01518
480.218	1759.2277
480.703	1753.06031
481.188	1711.6053
481.673	1574.68591
482.158	1623.59845
482.643	1535.96328
483.128	1648.79651
483.612	1507.77962
484.097	1485.86472
484.581	1496.81596
485.066	1366.80322
485.55	1315.52322
486.034	1376.57328
486.518	1375.80138
487.002	1300.8484
487.486	1347.89854
487.969	1255.78776
488.453	1217.82676
488.936	1215.58841
489.42	1184.49096
489.903	1210.87005
490.386	1214.00974
490.869	1176.47769
491.352	1169.76894
491.835	1127.34836
492.318	1064.50191
492.8	1098.33376
493.283	1056.72648
493.765	1041.67773
494.247	1041.55264
494.73	952.36329
495.212	1014.60323
495.694	984.47648
496.175	954.50797
496.657	942.46418
497.139	796.83787
497.62	908.47953
498.102	897.5381
498.583	806.4212
499.064	785.17918
499.545	845.31934
500.026	840.28527
500.507	777.27003
500.988	800.39004
501.469	797.43275
501.949	765.35049
502.43	760.30086
502.91	694.99476
503.39	680.23671
503.87	741.25028
504.35	714.20754
504.83	751.16051
505.31	726.27782
505.79	728.28001
506.269	711.19628
506.749	637.08372
507.228	624.07843
507.707	734.16579
508.187	625.07987
508.666	694.27757
509.145	631.11751
509.623	563.00822
510.102	598.09831
510.581	681.21879
511.059	703.31264
511.538	672.30581
512.016	647.14769
512.494	657.20478
512.972	624.118
513.45	596.05182
513.928	578.06576
514.406	628.16916
514.884	594.17321
515.361	696.22554
515.839	597.01058
516.316	545.99959
516.793	560.1049
517.27	626.14465
517.747	621.24643
518.224	593.04352
518.701	590.9766
519.178	597.15129
519.654	605.09252
520.131	620.18685
520.607	492.9531
521.083	590.02386
521.56	626.14119
522.036	564.93714
522.512	519.9922
522.987	549.00788
523.463	597.10941
523.939	492.9276
524.414	559.98918
524.89	557.02414
525.365	585.02242
525.84	504.95209
526.315	559.03091
526.79	592.00996
527.265	508.89725
527.74	508.98316
528.215	576.04879
528.689	580.98928
529.164	545.91679
529.638	501.02047
530.112	500.93667
530.587	501.81931
531.061	472.90168
531.534	499.96181
532.008	493.94523
532.482	539.95377
532.956	450.93427
533.429	571.08049
533.903	439.74523
534.376	520.91366
534.849	497.90372
535.322	568.06301
535.795	490.95603
536.268	476.91858
536.741	519.98644
537.213	494.90442
537.686	550.07243
538.158	488.86596
538.631	487.93958
539.103	531.95135
539.575	459.74177
540.047	509.88753
540.519	482.91632
540.991	495.9596
541.463	494.96064
541.934	529.95802
542.406	534.02686
542.877	519.94517
543.348	498.95366
543.82	431.8487
544.291	525.96677
544.762	587.10216
545.233	522.03462
545.703	580.01766
546.174	539.96768
546.645	587.13034
547.115	586.09838
547.585	627.09485
548.056	554.04749
548.526	648.15037
548.996	641.15118
549.466	724.31691
549.935	721.26801
550.405	753.19299
550.875	810.40969
551.344	732.2911
551.814	728.20798
552.283	751.17072
552.752	866.43533
553.221	836.30031
553.69	879.36228
554.159	860.49378
554.628	830.28192
555.096	818.49353
555.565	889.41007
556.033	711.21776
556.502	679.23083
556.97	630.01162
557.438	662.20452
557.906	580.06251
558.374	640.15026
558.842	588.113
559.31	527.92427
559.777	461.92144
560.245	489.94208
560.712	414.77707
561.18	454.81943
561.647	505.92014
562.114	482.90205
562.581	442.89145
563.048	472.88595
563.514	435.87189
563.981	440.83362
564.448	419.78704
564.914	469.88271
565.381	463.87098
565.847	398.76362
566.313	464.88253
566.779	437.81479
567.245	466.91266
567.711	381.752
568.176	369.69003
568.642	484.02803
569.108	435.88761
569.573	452.86933
570.038	520.87351
570.504	409.75652
570.969	502.03527
571.434	421.76588
571.899	460.90474
572.363	438.80551
572.828	447.81525
573.293	517.95251
573.757	488.90877
574.222	402.72963
574.686	488.88622
575.15	432.84647
575.614	493.91239
576.078	450.85965
576.542	517.93676
577.006	475.86414
577.469	471.92049
577.933	453.83415
578.396	515.99981
578.86	477.89997
579.323	525.02238
579.786	488.83945
580.249	546.01772
580.712	498.98779
581.175	450.92135
581.637	408.76392
582.1	452.80205
582.563	433.743
583.025	506.00846
583.487	440.72251
583.95	465.8112
584.412	529.87724
584.874	430.84613
585.336	426.83589
585.797	462.7981
586.259	486.92663
586.721	525.01995
587.182	449.85005
587.643	475.86897
588.105	426.83194
588.566	479.80877
589.027	409.80234
589.488	415.77645
589.949	493.97033
590.41	450.71838
590.87	517.94105
591.331	444.77844
591.791	462.87316
592.252	466.88504
592.712	519.01691
593.172	463.86542
593.632	481.8542
594.092	495.8914
594.552	421.73248
595.011	525.98667
595.471	444.81204
595.931	464.84734
596.39	453.89118
596.849	458.88129
597.308	483.8444
597.768	401.8628
598.227	404.79796
598.685	421.78651
599.144	468.89317
599.603	477.91454
600.062	538.92847
600.52	419.76921
600.978	451.89853
601.437	465.86313
601.895	449.77708
602.353	570.02052
602.811	473.85919
603.269	513.00465
603.727	439.87137
604.184	429.80344
604.642	499.0007
605.099	469.89182
605.557	539.0761
606.014	479.85374
606.471	549.12705
606.928	554.97548
607.385	610.18514
607.842	801.38481
608.299	753.29403
608.755	682.26612
609.212	592.01647
609.668	678.20001
610.125	623.16357
610.581	620.12395
611.037	585.04824
611.493	499.9535
611.949	396.81042
612.405	496.82953
612.861	444.86422
613.316	431.87266
613.772	415.78682
614.227	430.85609
614.683	454.80644
615.138	462.91338
615.593	461.90564
616.048	458.88044
616.503	444.92058
616.958	449.95443
617.412	417.84702
617.867	378.72209
618.321	422.74608
618.776	453.84421
619.23	444.89055
619.684	334.63927
620.138	349.67267
620.592	421.87777
621.046	335.67519
621.5	419.87632
621.954	349.68043
622.407	437.84513
622.861	400.84084
623.314	377.74236
623.768	361.72859
624.221	382.66126
624.674	342.68977
625.127	387.79613
625.58	308.6192
626.033	352.67796
626.485	272.58615
626.938	357.75228
627.39	275.57415
627.843	250.52091
628.295	288.59982
628.747	270.57184
629.199	266.55696
629.651	258.54451
630.103	242.50514
630.555	295.57952
631.006	246.52648
631.458	251.54055
631.909	231.4795
632.361	242.52173
632.812	197.42189
633.263	209.4193
633.714	196.39113
634.165	155.34913
634.616	203.45144
635.067	172.35648
635.518	185.41449
635.968	183.34558
636.419	193.39919
636.869	152.34287
637.319	110.24061
637.769	176.37765
638.219	165.37318
638.669	157.35957
639.119	126.29222
639.569	183.42063
640.019	145.32019
640.468	120.25827
640.918	153.349
641.367	153.33884
641.816	91.19556
642.265	58.13019
642.714	67.15271
643.163	119.26827
643.612	124.29531
644.061	147.30977
644.51	92.20609
644.958	159.35007
645.406	71.16665
645.855	118.28167
646.303	99.22318
646.751	125.28202
647.199	96.21336
647.647	112.25357
648.095	128.28956
648.543	112.22548
648.99	92.21607
649.438	80.18208
649.885	68.1653
650.333	109.21221
650.78	108.2578
651.227	69.16512
651.674	76.17319
652.121	69.16612
652.568	81.19472
653.015	119.29559
653.461	109.25615
653.908	71.16196
654.354	74.17291
654.801	93.21846
655.247	49.10594
655.693	24.06149
656.139	70.16697
656.585	79.18695
657.031	85.19819
657.477	-27.05892
657.922	64.14637
658.368	85.20759
658.813	65.15
659.259	99.23745
659.704	103.23997
660.149	143.33316
660.594	54.12732
661.039	76.17263
661.484	119.27899
661.929	68.15815
662.373	34.0849
662.818	85.20936
663.262	74.1782
663.707	64.16085
664.151	92.22246
664.595	64.15441
665.039	91.22571
665.483	91.22867
665.927	51.12022
666.371	99.23038
666.814	114.27004
667.258	38.09057
667.701	81.17489
668.145	97.23866
668.588	85.2089
669.031	58.13739
669.474	100.24162
669.917	15.03358
670.36	82.20335
670.803	49.11757
671.245	51.10899
671.688	47.11337
672.13	60.13634
672.573	110.27785
673.015	90.21516
673.457	51.11262
673.899	93.22492
674.341	70.16927
674.783	103.2522
675.225	27.06636
675.666	99.24133
676.108	56.12405
676.549	76.1803
676.991	85.1928
677.432	73.1497
677.873	98.23124
678.314	111.26633
678.755	111.27027
679.196	69.16101
679.637	34.08361
680.078	51.11966
680.518	5.01174
680.959	118.28769
681.399	81.20208
681.839	127.3112
682.28	94.2343
682.72	34.0796
683.16	80.20085
683.6	53.12187
684.039	34.07179
684.479	99.24519
684.919	81.19257
685.358	109.27724
685.798	75.1982
686.237	82.19978
686.676	47.10946
687.115	72.17108
687.554	76.18322
687.993	80.18046
688.432	97.2299
688.871	61.14217
689.309	42.1006
689.748	92.19698
690.186	67.16198
690.625	76.18391
691.063	55.13427
691.501	88.21791
691.939	70.17713
692.377	72.17823
692.815	106.25969
693.253	69.16726
693.69	124.27948
694.128	114.28281
694.565	108.26164
695.003	110.27974
695.44	-13.03105
695.877	4.00956
696.314	73.1616
696.751	59.1354
697.188	92.21396
697.625	103.24006
698.061	57.13874
698.498	39.09521
698.934	118.28737
699.371	93.22433
699.807	86.20725
700.243	100.24654
700.679	51.1169
701.115	57.1352
701.551	89.21257
701.987	64.14484
702.422	80.19345
702.858	63.15323
703.294	53.12207
703.729	87.21595
704.164	42.10377
704.599	62.14146
705.035	115.26761
705.47	41.1011
705.904	119.28596
706.339	90.21096
706.774	129.30704
707.209	67.15904
707.643	52.12735
708.078	75.18548
708.512	54.13825
708.946	38.09272
709.38	69.16442
709.814	55.12864
710.248	43.1058
710.682	90.21853
711.116	100.24617
711.549	61.16007
711.983	46.1093
712.416	93.22085
712.85	33.0831
713.283	78.1874
713.716	88.21998
714.149	124.29701
714.582	37.08437
715.015	93.23361
715.448	84.21218
715.881	69.15109
716.313	114.27035
716.746	125.29821
717.178	29.07114
717.61	71.18014
718.043	103.25892
718.475	69.16952
718.907	75.18826
719.339	76.17731
719.77	46.11186
720.202	57.14457
720.634	51.12719
721.065	75.17954
721.497	91.22447
721.928	54.13518
722.359	75.18609
722.79	43.10517
723.221	58.1464
723.652	43.11045
724.083	71.16444
724.514	112.26088
724.945	17.04043
725.375	125.29878
725.806	96.24301
726.236	98.25089
726.666	55.13272
727.096	115.28409
727.526	134.34438
727.956	119.27768
728.386	18.04464
728.816	110.28033
729.246	54.13455
729.675	41.10399
730.105	62.15308
730.534	75.17694
730.964	75.18989
731.393	40.09945
731.822	108.27688
732.251	91.23179
732.68	120.28699
733.109	76.1895
733.537	69.16952
733.966	62.1556
734.395	72.16824
734.823	83.18956
735.251	3.00734
735.68	113.28385
736.108	68.17415
736.536	67.15972
736.964	66.15604
737.392	31.07804
737.82	42.10202
738.247	67.1618
738.675	54.1288
739.102	76.19204
739.53	119.30556
739.957	77.19986
740.384	74.18136
740.811	78.19864
741.238	34.08373
741.665	45.10707
742.092	77.18553
742.519	64.16172
742.945	79.192
743.372	59.14714
743.798	36.09301
744.225	50.12131
744.651	109.27577
745.077	75.18793
745.503	19.04666
745.929	54.13082
746.355	88.21647
746.781	114.28559
747.207	72.17463
747.632	65.16293
748.058	72.18187
748.483	40.09398
748.908	66.16618
749.334	89.22115
749.759	50.12017
750.184	53.12924
750.609	66.16295
751.033	61.14514
751.458	114.25715
751.883	71.17668
752.307	37.08891
752.732	44.11229
753.156	46.11499
753.58	33.07894
754.005	57.14611
754.429	45.10707
754.853	60.15096
755.277	58.13972
755.7	100.25097
756.124	35.08861
756.548	38.09261
756.971	34.08336
757.394	-2.00517
757.818	32.08341
758.241	83.21193
758.664	47.12022
759.087	76.17459
759.51	64.15964
759.933	57.14019
760.356	25.06402
760.778	47.11589
761.201	74.18042
761.623	65.15928
762.046	84.20051
762.468	64.15336
762.89	17.0421
763.312	33.08098
763.734	36.08758
764.156	72.17881
764.578	-18.04198
765	51.12451
765.421	54.1398
765.843	-10.02624
766.264	70.17124
766.686	132.33318
767.107	4.0099
767.528	19.04911
767.949	29.07426
768.37	87.21508
768.791	62.15139
769.212	66.16879
769.632	31.07489
770.053	70.18651
770.473	98.24249
770.894	12.03027
771.314	35.08388
771.734	54.12717
772.154	27.06974
772.575	42.0983
772.994	42.09733
773.414	88.21311
773.834	78.19808
774.254	89.22099
774.673	58.14262
775.093	61.15384
775.512	51.12747
775.931	27.06938
776.351	-8.02017
776.77	32.08002
777.189	32.0772
777.607	45.1164
778.026	73.18384
778.445	60.15479
778.864	28.07234
779.282	33.08089
779.701	-4.01017
780.119	29.07454
780.537	33.08325
780.955	84.21483
781.373	41.10192
781.791	16.03665
782.209	43.09919
782.627	58.15356
783.045	22.05129
783.462	82.21258
783.88	35.09162
784.297	64.16224
784.715	91.23903
785.132	67.16399
785.549	15.03765
785.966	40.10144
786.383	86.2142
786.8	54.12648
787.217	38.09161
787.633	50.12693
788.05	56.13332
788.466	22.05183
788.883	74.19223
789.299	42.10248
789.715	36.08882
790.131	28.07037
790.547	29.07272
790.963	70.17334
791.379	53.13486
791.795	51.11798
792.21	23.05384
792.626	26.0627
793.041	66.16469
793.457	21.05245
793.872	69.16329
794.287	38.09344
794.702	41.10132
795.117	22.05539
795.532	34.08674
795.947	46.11018
796.362	68.16139
796.776	57.13233
797.191	47.11658
797.605	80.19257
798.02	71.1734
798.434	53.11855
798.848	68.169
799.262	44.11027
799.676	18.04412
800.09	80.19839
800.504	44.10812
800.918	43.10081
801.331	25.06505
801.745	73.17101
802.158	10.02507
802.572	24.05836
802.985	35.08459
803.398	64.15406
803.811	26.06633
804.224	13.03247
804.637	58.1393
805.05	19.04444
805.462	24.0591
805.875	30.07914
806.288	23.0569
806.7	32.08072
807.112	-11.02558
807.525	4.00993
807.937	73.18344
808.349	41.10351
808.761	84.20861
809.173	109.2658
809.584	54.13333
809.996	23.05699
810.408	98.25493
810.819	74.17583
811.231	164.42763
811.642	227.53487
812.053	351.78894
812.464	352.77089
812.875	290.69774
813.286	172.42606
813.697	80.18009
814.108	55.13367
814.519	98.21898
814.929	99.2511
815.34	60.14645
815.75	73.1866
816.16	44.10927
816.571	19.04945
816.981	58.13834
817.391	111.26957
817.801	52.13074
818.211	-26.0619
818.62	34.08234
819.03	56.13699
819.44	73.18869
819.849	50.12625
820.259	61.15631
820.668	79.1963
821.077	59.14815
821.486	79.18991
821.895	28.06895
822.304	16.04242
822.713	89.21224
823.122	24.06067
823.531	33.07951
823.939	73.17921
824.348	69.16908
824.756	38.09578
825.164	75.18833
825.573	38.09564
825.981	50.12481
826.389	27.0676
826.797	18.0456
827.205	78.18183
827.612	30.07421
828.02	57.13697
828.428	68.17305
828.835	88.23361
829.243	53.12562
829.65	57.1421
830.057	26.06339
830.464	65.15827
830.871	53.12736
831.278	99.24178
831.685	76.16919
832.092	37.09087
832.499	72.16075
832.905	36.09087
833.312	39.089
833.718	51.12714
834.124	39.089
834.531	56.1409
834.937	89.22869
835.343	58.13961
835.749	59.138
836.155	61.16099
836.561	29.07238
836.966	39.09439
837.372	64.16356
837.777	18.04492
838.183	27.06074
838.588	29.07335
838.993	68.16579
839.399	54.13357
839.804	23.05736
840.209	44.11363
840.613	18.04072
841.018	58.14625
841.423	59.15235
841.828	54.13796
842.232	25.06149
842.637	62.14618
843.041	25.06489
843.445	50.12679
843.849	-4.01005
844.253	54.12865
844.657	23.05846
845.061	29.06615
845.465	73.17848
845.869	-15.03499
846.272	62.1546
846.676	17.04129
847.079	33.08471
847.483	49.12313
847.886	18.04321
848.289	49.13239
848.692	5.01274
849.095	69.16638
849.498	28.06989
849.901	44.10213
850.304	45.10744
850.707	32.0819
851.109	-16.04021
851.512	39.09652
851.914	34.08702
852.316	29.07342
852.718	-45.11772
853.121	49.12069
853.523	25.05873
853.925	23.06076
854.326	51.12926
854.728	55.14162
855.13	40.1048
855.531	38.09189
855.933	29.06948
856.334	21.05319
856.736	38.0868
857.137	38.08998
857.538	21.05347
857.939	70.17334
858.34	42.1016
858.741	28.07301
859.142	17.04098
859.542	51.13528
859.943	8.02003
860.343	24.06039
860.744	32.07796
861.144	74.18069
861.544	34.08355
861.945	35.08893
862.345	24.05923
862.745	70.1748
863.145	73.17269
863.544	61.15384
863.944	18.04239
864.344	49.12158
864.743	45.11117
865.143	39.10063
865.542	21.04908
865.941	39.09705
866.34	61.14502
866.74	35.09417
867.139	87.21128
867.537	4.01015
867.936	34.08203
868.335	22.05587
868.734	41.10414
869.132	4.00933
869.531	34.08181
869.929	58.13553
870.327	49.11851
870.726	19.04673
871.124	31.07259
871.522	37.09438
871.92	22.05372
872.318	78.19017
872.715	54.1323
873.113	57.13967
873.511	37.09268
873.908	38.09783
874.306	61.15235
874.703	28.07005
875.1	27.06865
875.497	38.09223
875.894	55.13781
876.291	52.12749
876.688	21.05426
877.085	14.0337
877.482	38.09568
877.878	29.07014
878.275	60.15399
878.671	30.06665
879.068	0
879.464	31.07464
879.86	24.0574
880.256	26.06427
880.652	48.12302
881.048	63.15352
881.444	30.07216
881.84	106.2689
882.236	3.00755
882.631	8.01961
883.027	7.01694
883.422	13.03347
883.817	-4.01023
884.213	55.14138
884.608	31.07731
885.003	17.04149
885.398	20.05063
885.793	48.12081
886.188	40.10122
886.582	54.1366
886.977	31.07328
887.371	70.17707
887.766	64.16282
888.16	18.04452
888.554	6.01473
888.949	26.06485
889.343	-11.02672
889.737	17.04571
890.131	59.14922
890.525	21.05377
890.918	57.14354
891.312	20.04761
891.706	21.0555
892.099	83.21178
892.492	17.03683
892.886	23.05655
893.279	57.14642
893.672	37.09484
894.065	42.10545
894.458	30.0757
894.851	87.21105
895.244	-16.04128
895.637	20.04842
896.029	15.03684
896.422	24.05895
896.814	3.00752
897.206	28.06837
897.599	-4.00992
897.991	52.12692
898.383	19.04505
898.775	15.03408
899.167	6.01422
899.559	23.05811
899.951	15.03554
900.342	46.11636
900.734	39.09902
901.125	14.03676
901.517	17.04214
901.908	77.18405
902.299	41.10099
902.69	-5.01191
903.082	56.1348
903.473	8.01936
903.863	34.08698
904.254	64.15043
904.645	1.00247
905.036	56.13811
905.426	-3.00681
905.817	69.17014
906.207	-6.01456
906.597	55.1298
906.987	42.10922
907.378	31.07849
907.768	34.08942
908.158	32.07802
908.547	57.148
908.937	41.10528
909.327	20.04894
909.717	76.19197
910.106	40.09694
910.495	47.11598
910.885	60.15107
911.274	21.05256
911.663	13.03276
912.052	10.02459
912.441	39.0999
912.83	16.03702
913.219	2.0052
913.608	12.02938
913.997	30.07648
914.385	22.05274
914.774	46.11194
915.162	19.046
915.55	-27.06572
915.939	20.05111
916.327	66.16523
916.715	21.05432
917.103	9.02189
917.491	33.08161
917.878	55.13457
918.266	52.13508
918.654	73.18699
919.041	37.09808
919.429	43.1029
919.816	27.06826
920.203	42.10286
920.591	38.09399
920.978	37.09073
921.365	5.0132
921.752	19.04595
922.139	-4.00873
922.525	45.10883
922.912	-12.02946
923.299	31.07756
923.685	53.13959
924.072	2.00457
924.458	20.04994
924.844	49.12247
925.231	34.07926
925.617	46.11884
926.003	-6.01533
926.389	-6.01524
926.774	36.09226
927.16	26.06417
927.546	16.04125
927.931	47.11692
928.317	52.11955
928.702	-4.00938
929.088	-12.02886
929.473	0
929.858	11.02713
930.243	63.15243
930.628	-9.02199
931.013	3.00743
931.398	30.06911
931.783	19.04971
932.167	7.01731
932.552	-22.05474
932.937	-3.00741
933.321	30.07621
933.705	8.0201
934.09	47.11743
934.474	80.18957
934.858	51.13173
935.242	19.04488
935.626	29.07426
936.009	23.06115
936.393	25.06381
936.777	60.15399
937.16	34.08884
937.544	13.03049
937.927	27.06882
938.311	30.07279
938.694	-10.02638
939.077	24.05843
939.46	5.01224
939.843	27.05692
940.226	21.05379
940.609	35.08138
940.991	29.07452
941.374	-32.07912
941.757	26.06434
942.139	60.13656
942.522	-25.05907
942.904	11.02684
943.286	40.10126
943.668	9.0234
944.05	80.19955
944.432	67.16679
944.814	-11.02706
945.196	5.01242
945.578	38.09237
945.959	-4.00943
946.341	5.0121
946.722	51.11952
947.104	9.02155
947.485	26.06035
947.866	19.04865
948.247	-8.02052
948.628	23.05619
949.009	68.17513
949.39	27.06741
949.771	10.02318
950.152	23.05669
950.532	31.0777
950.913	8.01918
951.293	70.19039
951.674	-8.01941
952.054	-39.09716
952.434	-26.06462
952.814	-13.03113
953.194	28.07309
953.574	54.13328
953.954	47.1132
954.334	54.13494
954.714	13.03203
955.093	53.12992
955.473	34.08552
955.853	28.07249
956.232	-36.09842
956.611	-54.12964
956.99	41.10384
957.37	-3.0077
957.749	58.13956
958.128	0
958.506	-23.06044
958.885	26.06598
959.264	-33.08236
959.643	-14.03204
960.021	3.00749
960.4	-30.06787
960.778	42.10339
961.156	21.05288
961.535	17.03997
961.913	51.11933
962.291	27.07037
962.669	10.02553
963.047	17.04344
963.424	-14.03593
963.802	31.07698
964.18	7.01758
964.557	-14.03198
964.935	-1.00238
965.312	8.02106
965.69	15.03767
966.067	40.09829
966.444	56.13862
966.821	65.16661
967.198	5.01208
967.575	3.00738
967.952	52.1217
968.329	-28.06834
968.705	-20.04332
969.082	40.10302
969.458	-31.07624
969.835	15.03681
970.211	51.13146
970.587	70.1734
970.963	46.11744
971.339	32.08384
971.715	-27.06748
972.091	1.00246
972.467	62.15471
972.843	11.02732
973.219	-11.0263
973.594	45.11864
973.97	30.07035
974.345	-17.04096
974.721	19.04628
975.096	-15.03647
975.471	41.09785
975.846	2.0048
976.221	26.06647
976.596	21.05039
976.971	24.05891
977.346	-13.03049
977.72	25.06437
978.095	-17.04408
978.469	50.12004
978.844	29.07232
979.218	42.10236
979.593	75.17906
979.967	7.01704
980.341	-8.01861
980.715	-1.00253
981.089	20.0502
981.463	-16.03746
981.837	20.04943
982.21	37.08525
982.584	7.01715
982.957	24.06073
983.331	49.11636
983.704	20.04929
984.078	34.08348
984.451	33.08149
984.824	25.0619
985.197	63.15443
985.57	17.04275
985.943	31.07638
986.316	-26.06365
986.688	41.09972
987.061	42.09853
987.434	-2.00524
987.806	14.03439
988.179	3.00708
988.551	-43.10891
988.923	-11.0273
989.295	64.16051
989.667	-13.032
990.039	41.1024
990.411	-3.00691
990.783	1.00231
991.155	-37.09053
991.527	-28.06888
991.898	63.1582
992.27	105.26233
992.641	5.01244
993.012	-44.10265
993.384	25.06026
993.755	-23.05871
994.126	-30.0735
994.497	42.10435
994.868	18.04175
995.239	26.0632
995.61	11.02804
995.98	-3.00736
996.351	45.11312
996.722	30.07106
997.092	17.04099
997.462	40.09534
997.833	61.1467
998.203	-8.01952
998.573	23.05753
998.943	20.04714
999.313	53.12702
999.683	39.09507
1000.053	72.16639
1000.423	8.01943
1000.792	2.00523
1001.162	46.11532
1001.531	-3.00738
1001.901	33.08233
1002.27	35.07829
1002.639	33.08441
1003.009	-15.03602
1003.378	4.01034
1003.747	10.02367
1004.116	20.04873
1004.485	32.07706
1004.853	24.0608
1005.222	7.01772
1005.591	26.06159
1005.959	45.10339
1006.328	81.18804
1006.696	-15.03635
1007.064	17.04283
1007.433	-22.0547
1007.801	20.04924
1008.169	58.14734
1008.537	33.07318
1008.905	35.08299
1009.273	-43.10666
1009.64	76.18454
1010.008	-43.10255
1010.375	35.08375
1010.743	-31.07023
1011.11	-2.00478
1011.478	58.14326
1011.845	37.08786
1012.212	51.11718
1012.579	19.0472
1012.946	18.04267
1013.313	28.06617
1013.68	53.11929
1014.047	3.00728
1014.414	2.0048
1014.78	77.19287
1015.147	12.02897
1015.513	-5.01215
1015.88	40.10237
1016.246	-10.0246
1016.612	49.11263
1016.978	16.03892
1017.344	-18.04448
1017.71	0
1018.076	19.04484
1018.442	-28.07158
1018.808	66.16677
1019.174	24.06049
1019.539	-4.00898
1019.905	13.03125
1020.27	14.03479
1020.636	27.06454
1021.001	43.10196
1021.366	1.00242
1021.731	12.03108
1022.096	18.0462
1022.461	40.0953
1022.826	4.00954
1023.191	3.00791
1023.556	31.07328
1023.92	19.04682
1024.285	-30.07323
1024.649	16.03959
1025.014	45.11121
1025.378	47.11853
1025.742	73.18219
1026.107	10.02282
1026.471	-24.05601
1026.835	39.0979
1027.199	14.03444
1027.562	48.11295
1027.926	1.00244
1028.29	12.03025
1028.654	45.10397
1029.017	46.11324
1029.381	4.00969
1029.744	-4.01026
1030.107	77.18045
1030.471	8.01936
1030.834	66.15234
1031.197	7.0168
1031.56	-28.06674
1031.923	19.04974
1032.286	20.04708
1032.648	-19.04502
1033.011	12.02773
1033.374	-50.11702
1033.736	19.05048
1034.099	17.04155
1034.461	16.04102
1034.823	34.08496
1035.185	8.02022
1035.548	-1.00246
1035.91	-66.15827
1036.272	32.07327
1036.634	30.07262
1036.995	-1.00237
1037.357	55.13577
1037.719	-6.01468
1038.08	15.03541
1038.442	23.0547
1038.803	17.04099
1039.165	51.13013
1039.526	26.0633
1039.887	13.03133
1040.248	-14.03512
1040.609	-6.0148
1040.97	-28.0689
1041.331	40.10176
1041.692	25.06037
1042.053	19.04331
1042.413	-37.08675
1042.774	12.02927
1043.134	6.01416
1043.495	20.05063
1043.855	-7.01689
1044.215	-9.02249
1044.576	12.0293
1044.936	32.07398
1045.296	50.12467
1045.656	41.10147
1046.016	46.11194
1046.375	7.01712
1046.735	0
1047.095	83.19695
1047.454	-1.00213
1047.814	11.0267
1048.173	9.02122
1048.533	-8.01854
1048.892	-1.00244
1049.251	28.06954
1049.61	53.13184
1049.969	-7.01658
1050.328	-26.0567
1050.687	35.08567
1051.046	28.06855
1051.405	-17.04278
1051.763	16.0374
1052.122	56.1408
1052.48	33.08086
1052.839	49.1165
1053.197	-2.00474
1053.555	12.02718
1053.914	74.18035
1054.272	41.09905
1054.63	34.08385
1054.988	35.08404
1055.345	47.10222
1055.703	30.07224
1056.061	4.01034
1056.419	57.14886
1056.776	88.21054
1057.134	8.01873
1057.491	20.05027
1057.848	1.0025
1058.206	28.06658
1058.563	12.02698
1058.92	95.21766
1059.277	40.09822
1059.634	60.14207
1059.991	26.06194
1060.348	7.016
1060.704	45.10871
1061.061	11.02547
1061.418	15.03703
1061.774	36.08859
1062.131	58.15612
1062.487	3.00711
1062.843	22.05462
1063.199	33.08239
1063.555	-3.00712
1063.911	13.03269
1064.267	42.08724
1064.623	27.06646
1064.979	86.20088
1065.335	40.09453
1065.691	5.01207
1066.046	49.10951
1066.402	30.06911
1066.757	10.02532
1067.112	4.00985
1067.468	13.03139
1067.823	59.14259
1068.178	49.11976
1068.533	-36.08754
1068.888	-20.04774
1069.243	12.02975
1069.598	31.0754
1069.952	11.02565
1070.307	6.01499
1070.662	54.13013
1071.016	21.04794
1071.371	10.02296
1071.725	23.05464
1072.079	8.01909
1072.434	-22.05456
1072.788	43.10227
1073.142	9.02216
1073.496	24.05832
1073.85	20.04681
1074.203	15.03654
1074.557	-1.00266
1074.911	23.05439
1075.265	41.09612
1075.618	-23.05644
1075.971	28.06725
1076.325	35.08928
1076.678	48.11238
1077.031	39.09036
1077.385	-41.0911
1077.738	7.01594
1078.091	52.12098
1078.444	-32.07489
1078.796	33.08224
1079.149	-6.0149
1079.502	55.13237
1079.855	-10.0234
1080.207	-11.02702
1080.56	54.141
1080.912	-21.05119
1081.264	40.09687
1081.617	42.10377
1081.969	10.02546
1082.321	0
1082.673	-32.07451
1083.025	-19.04528
1083.377	28.06668
1083.728	37.08688
1084.08	29.07277
1084.432	50.12168
1084.783	33.07767
1085.135	57.14406
1085.486	12.02806
1085.838	54.13293
1086.189	5.01223
1086.54	-35.08388
1086.891	69.17637
1087.242	14.03422
1087.593	7.01703
1087.944	-7.01599
1088.295	-13.0297
1088.646	17.0417
1088.996	-5.01226
1089.347	20.04922
1089.698	15.03588
1090.048	70.18097
1090.398	58.13531
1090.749	-17.04096
1091.099	4.01013
1091.449	71.17739
1091.799	49.12256
1092.149	19.0473
1092.499	-18.04423
1092.849	-10.02575
1093.199	13.03247
1093.548	64.15575
1093.898	17.0431
1094.248	33.08497
1094.597	35.09103
1094.947	-2.00532
1095.296	23.05711
1095.645	-1.00259
1095.994	-21.05106
1096.343	-33.08403
1096.692	15.03985
1097.041	46.12516
1097.39	11.02777
1097.739	-6.01567
1098.088	-15.03975
1098.437	20.05345
1098.785	21.05648
1099.134	-31.08184
1099.482	39.10654
1099.83	11.02874
1100.179	-26.06877
1100.527	49.13106
1100.875	19.0508
1101.223	16.0425
1101.571	-12.03314
1101.919	-10.02652
1102.267	14.03984
1102.615	5.01607
1102.962	14.04501
1103.31	14.04502
1103.658	13.04177
