Data from N2 R4 sample 5_Subt2__5__19-23-35-467.txt Node

Date: Wed Aug 27 19:23:35 PDT 2025
User: uwsun
Spectrometer: HDX01956
Trigger mode: 0
Integration Time (sec): 5.000000E-1
Scans to average: 1
Nonlinearity correction enabled: true
Boxcar width: 0
Storing dark spectrum: false
XAxis mode: Wavelengths
Number of Pixels in Spectrum: 2068
>>>>>Begin Spectral Data<<<<<
194.03	518.33065
194.578	507.49125
195.127	502.44867
195.676	491.42864
196.225	483.15244
196.773	579.42537
197.321	847.92663
197.87	1080.08077
198.418	1187.23573
198.966	1115.16423
199.513	1096.03321
200.061	1089.05366
200.609	1113.20736
201.156	1127.77107
201.704	1089.01569
202.251	1107.18324
202.798	1149.20507
203.345	1172.09312
203.892	1135.09382
204.438	1140.94432
204.985	1205.02979
205.532	1214.324
206.078	1210.07955
206.624	1182.08621
207.17	1118.80596
207.716	1166.03762
208.262	1160.55003
208.808	1204.1626
209.354	1149.01251
209.899	1214.16177
210.445	1149.05557
210.99	1181.99461
211.535	1230.95778
212.08	1174.90006
212.625	1219.15345
213.17	1212.15044
213.715	1177.85965
214.259	1184.95931
214.804	1246.18373
215.348	1163.8532
215.892	1138.93156
216.436	1208.93349
216.98	1230.85359
217.524	1225.0425
218.068	1103.01742
218.612	1100.00839
219.155	1102.88631
219.698	1065.82228
220.242	1051.88287
220.785	1042.76709
221.328	981.83466
221.871	1055.96169
222.414	1019.86561
222.956	1017.8554
223.499	1030.75608
224.041	1024.76266
224.583	1072.64402
225.126	1062.71896
225.668	988.84096
226.21	1079.04366
226.751	1074.72093
227.293	1062.78757
227.835	999.81148
228.376	1012.70773
228.918	1058.97652
229.459	1053.98796
230	1061.87848
230.541	1045.75266
231.082	1053.87971
231.622	1076.80436
232.163	1066.93474
232.704	1038.91906
233.244	1063.00352
233.784	970.77972
234.324	1088.7721
234.864	1039.73593
235.404	1066.85273
235.944	1064.84827
236.484	1077.97204
237.023	1111.91952
237.563	1046.77008
238.102	1062.8147
238.641	1159.13717
239.18	1091.86891
239.719	1067.97132
240.258	1068.71127
240.797	1032.8029
241.335	1101.9616
241.874	1105.45107
242.412	1142.97692
242.95	1133.99805
243.488	1119.84264
244.026	1098.81141
244.564	1135.61653
245.102	1096.75138
245.64	1141.96841
246.177	1089.76434
246.715	1100.92207
247.252	1077.77124
247.789	1093.37859
248.326	1091.92975
248.863	1048.60041
249.4	1046.68345
249.936	1110.56138
250.473	1098.8184
251.009	1209.98825
251.546	1095.68591
252.082	1159.70898
252.618	1134.79187
253.154	1131.98417
253.69	1096.74343
254.226	1161.9459
254.761	1102.72311
255.297	1074.68299
255.832	1073.81643
256.367	1114.84298
256.903	1161.78498
257.438	1122.86546
257.972	1123.73128
258.507	1216.94637
259.042	1156.7237
259.576	1204.80117
260.111	1166.87331
260.645	1221.79561
261.179	1147.89521
261.713	1177.81715
262.247	1177.90121
262.781	1138.64979
263.315	1153.00797
263.849	1154.06613
264.382	1205.90088
264.915	1266.01668
265.449	1210.10161
265.982	1172.80041
266.515	1197.98691
267.048	1181.74905
267.58	1202.74005
268.113	1237.8315
268.646	1199.07968
269.178	1198.83413
269.71	1188.726
270.243	1182.83185
270.775	1248.218
271.307	1224.01916
271.838	1181.91734
272.37	1176.03264
272.902	1277.96453
273.433	1211.744
273.965	1172.96068
274.496	1206.07374
275.027	1183.03132
275.558	1240.04683
276.089	1238.11438
276.62	1254.17838
277.15	1309.14423
277.681	1204.71183
278.211	1274.13218
278.741	1250.85481
279.272	1218.89018
279.802	1245.12017
280.332	1310.08489
280.861	1295.05209
281.391	1287.95226
281.921	1249.01482
282.45	1359.25005
282.98	1288.28469
283.509	1316.88308
284.038	1292.94078
284.567	1266.9492
285.096	1301.11103
285.625	1306.94325
286.153	1315.04018
286.682	1323.9658
287.21	1284.05134
287.739	1293.98467
288.267	1367.1769
288.795	1345.3893
289.323	1375.08345
289.851	1381.06296
290.378	1439.00086
290.906	1365.1934
291.433	1419.27059
291.961	1420.00868
292.488	1402.26658
293.015	1286.99757
293.542	1299.17603
294.069	1373.19643
294.596	1330.09177
295.122	1441.17926
295.649	1398.90628
296.175	1359.07118
296.702	1391.11789
297.228	1382.07127
297.754	1439.92299
298.28	1522.03815
298.806	1472.18651
299.332	1519.94644
299.857	1537.0202
300.383	1470.33499
300.908	1476.24922
301.433	1529.25919
301.958	1514.07385
302.483	1517.29403
303.008	1508.20968
303.533	1508.43116
304.058	1505.03949
304.582	1542.15898
305.107	1519.44152
305.631	1510.967
306.155	1580.09494
306.679	1603.15894
307.203	1605.11533
307.727	1601.18711
308.251	1596.30626
308.775	1577.19408
309.298	1622.20558
309.822	1726.45269
310.345	1680.16119
310.868	1650.23562
311.391	1644.23888
311.914	1745.43175
312.437	1632.94238
312.96	1737.13926
313.482	1743.17385
314.005	1780.4447
314.527	1823.58891
315.049	1823.44676
315.571	1755.97518
316.093	1830.319
316.615	1847.23234
317.137	1837.89643
317.659	1865.28506
318.18	1947.32695
318.702	1965.13192
319.223	1872.71829
319.744	1984.97039
320.265	1922.22997
320.786	1971.34146
321.307	2034.38695
321.828	1966.96298
322.348	2004.10673
322.869	2122.19461
323.389	2117.12287
323.909	2111.95468
324.43	2173.22419
324.95	2096.92897
325.47	2213.28376
325.989	2137.99403
326.509	2262.91577
327.029	2317.95076
327.548	2330.89611
328.067	2406.12057
328.587	2289.1712
329.106	2266.80415
329.625	2352.38293
330.144	2420.94824
330.662	2455.87058
331.181	2395.84013
331.7	2545.91623
332.218	2571.52997
332.736	2551.78648
333.255	2534.81579
333.773	2640.88054
334.291	2690.07587
334.808	2719.61331
335.326	2724.46487
335.844	2784.59909
336.361	2799.89839
336.879	2835.5757
337.396	2801.66996
337.913	2914.37152
338.43	3002.35743
338.947	3020.36432
339.464	3097.11922
339.981	3064.47157
340.497	3094.55379
341.014	3143.5597
341.53	3116.20239
342.046	3200.46985
342.562	3274.46306
343.078	3290.13712
343.594	3311.2498
344.11	3430.16567
344.626	3418.38502
345.141	3397.91297
345.657	3435.8125
346.172	3449.02568
346.687	3529.86903
347.202	3548.62219
347.717	3578.82389
348.232	3635.97418
348.747	3690.64793
349.261	3715.30792
349.776	3693.64423
350.29	3782.89082
350.805	3935.63175
351.319	3804.35946
351.833	3882.34208
352.347	3803.45295
352.861	3935.32366
353.374	3971.21381
353.888	3980.4176
354.401	4033.13072
354.915	4060.01199
355.428	4119.35136
355.941	4220.02744
356.454	4159.81239
356.967	4232.10997
357.48	4253.87399
357.993	4258.18526
358.505	4319.0733
359.018	4440.96322
359.53	4552.85591
360.042	4549.55153
360.554	4459.80372
361.066	4377.94039
361.578	4475.46553
362.09	4543.73628
362.602	4553.45639
363.113	4662.5237
363.625	4794.45178
364.136	4822.33397
364.647	4851.43525
365.158	4940.32952
365.669	4965.44111
366.18	5046.35564
366.691	5138.15034
367.201	5003.38006
367.712	5059.24565
368.222	5018.23225
368.733	5171.06275
369.243	5224.04368
369.753	5325.06997
370.263	5565.21627
370.773	5492.25124
371.282	5620.09935
371.792	5806.16054
372.301	5840.18508
372.811	6056.337
373.32	6032.2474
373.829	6143.32229
374.338	6464.72399
374.847	6507.77106
375.356	6818.20034
375.865	7030.0528
376.373	7429.81872
376.882	7556.8121
377.39	7551.10499
377.898	7761.74505
378.407	8100.05819
378.915	8425.15994
379.423	8891.64276
379.93	9061.67502
380.438	9561.63599
380.946	10015.75257
381.453	10670.47372
381.96	10823.35716
382.468	11734.16481
382.975	12496.14267
383.482	12658.95507
383.989	12944.32857
384.495	13492.24733
385.002	14236.11659
385.509	14978.45694
386.015	16027.13866
386.521	16741.08743
387.028	17395.41246
387.534	17994.81274
388.04	18809.94722
388.546	19077.95269
389.051	20037.87659
389.557	21228.98521
390.063	23288.00124
390.568	24230.31461
391.073	24866.80928
391.578	25768.02514
392.084	26399.5835
392.589	27055.49216
393.093	29070.9997
393.598	31755.02057
394.103	34409.55919
394.607	37990.96502
395.112	40627.7854
395.616	43180.21441
396.12	46291.0587
396.624	45704.02225
397.128	45041.38363
397.632	42674.3298
398.136	41053.8128
398.639	39575.50194
399.143	37072.18751
399.646	33425.07685
400.15	30257.92651
400.653	26744.30161
401.156	22069.35973
401.659	15501.4617
402.162	4304.81735
402.664	865.43837
403.167	0
403.67	0
404.172	0
404.674	0
405.176	0
405.678	0
406.18	0
406.682	0
407.184	0
407.686	0
408.187	0
408.688	0
409.19	0
409.691	0
410.192	0
410.693	0
411.194	0
411.694	11.28237
412.195	3122.18734
412.696	8274.79556
413.196	11824.3934
413.696	13768.63585
414.196	13509.3687
414.696	14514.78924
415.196	16680.3865
415.696	20882.81744
416.196	28662.6172
416.695	36400.56296
417.195	40282.64143
417.694	41360.26869
418.194	42711.87066
418.693	44201.96737
419.192	45008.95072
419.691	45305.8869
420.19	45830.68337
420.688	46191.2227
421.187	46668.04785
421.685	48102.17801
422.184	46084.86378
422.682	39836.39718
423.18	33991.38109
423.678	30485.47549
424.176	28126.93039
424.674	26353.34937
425.172	25469.14626
425.669	23966.11098
426.167	22073.5808
426.664	20229.6248
427.161	18670.81574
427.659	17069.92977
428.156	16023.02717
428.652	15118.27216
429.149	14636.39022
429.646	14027.30738
430.143	13221.07486
430.639	12391.28746
431.135	11807.07003
431.632	11111.44989
432.128	10258.2567
432.624	9877.11665
433.12	9687.38605
433.616	9085.5769
434.111	8912.27413
434.607	8473.97075
435.103	8374.06335
435.598	8064.96978
436.093	7846.77525
436.588	7349.02104
437.083	7014.01105
437.578	6690.22851
438.073	6358.53458
438.568	6309.46711
439.062	6053.31449
439.557	5756.06558
440.051	5523.96617
440.546	5413.96315
441.04	5264.9937
441.534	5245.14792
442.028	5084.04866
442.522	4987.07848
443.015	4963.0063
443.509	4756.20896
444.002	4700.27575
444.496	4591.11348
444.989	4565.41252
445.482	4567.5212
445.975	4454.23859
446.468	4420.12832
446.961	4343.33198
447.454	4239.43451
447.947	4234.60381
448.439	4134.67208
448.931	4020.58303
449.424	4033.97274
449.916	3954.88056
450.408	3937.67556
450.9	3799.07826
451.392	3701.23277
451.884	3637.95072
452.375	3652.4938
452.867	3502.00785
453.358	3572.09314
453.849	3496.90796
454.341	3393.16724
454.832	3420.04284
455.323	3377.51464
455.814	3350.29337
456.304	3286.36404
456.795	3233.31494
457.285	3164.30674
457.776	3077.51333
458.266	3130.69226
458.756	3079.77138
459.247	3006.84555
459.737	2974.89009
460.226	2945.63956
460.716	2858.04141
461.206	2726.03764
461.695	2808.34743
462.185	2777.02311
462.674	2746.97228
463.163	2658.94876
463.653	2595.72011
464.142	2613.40451
464.63	2509.39659
465.119	2514.33286
465.608	2412.27738
466.096	2441.12392
466.585	2352.33104
467.073	2405.41197
467.561	2282.49652
468.05	2344.40747
468.538	2234.63005
469.026	2171.52098
469.513	2230.19259
470.001	2213.45678
470.489	2108.56693
470.976	2091.47715
471.463	2057.84547
471.951	2005.81219
472.438	1864.67744
472.925	1998.71992
473.412	1792.68377
473.899	1856.58351
474.385	1739.76716
474.872	1833.71728
475.359	1811.88365
475.845	1761.38601
476.331	1678.40577
476.817	1644.85461
477.303	1582.61392
477.789	1556.75563
478.275	1618.96289
478.761	1497.69334
479.247	1428.47317
479.732	1452.84598
480.218	1448.02441
480.703	1367.82798
481.188	1417.49426
481.673	1316.54871
482.158	1317.45918
482.643	1267.7656
483.128	1262.57715
483.612	1279.63269
484.097	1214.66472
484.581	1199.60634
485.066	1193.6637
485.55	1087.36335
486.034	1143.41835
486.518	1093.56507
487.002	1099.65942
487.486	1093.66212
487.969	990.5257
488.453	1004.60191
488.936	1033.43165
489.42	977.31712
489.903	1020.66275
490.386	956.89255
490.869	905.24276
491.352	925.50017
491.835	908.17101
492.318	956.39474
492.8	909.17751
493.283	850.46858
493.765	893.49857
494.247	833.31942
494.73	809.20954
495.212	815.36134
495.694	716.15992
496.175	774.28595
496.657	750.23022
497.139	660.73231
497.62	748.27273
498.102	724.29825
498.583	677.23343
499.064	639.00141
499.545	656.07981
500.026	657.05899
500.507	643.08982
500.988	646.16761
501.469	638.19311
501.949	588.08533
502.43	617.09606
502.91	574.85347
503.39	598.10989
503.87	595.04322
504.35	571.00262
504.83	541.88824
505.31	583.06398
505.79	623.12509
506.269	592.02788
506.749	554.96477
507.228	548.96743
507.707	574.9543
508.187	522.92776
508.666	536.02527
509.145	554.00048
509.623	530.95861
510.102	484.91565
510.581	530.98652
511.059	513.00228
511.538	555.1081
512.016	518.95077
512.494	572.07104
512.972	575.04299
513.45	490.88985
513.928	503.94625
514.406	555.05169
514.884	560.11474
515.361	557.01592
515.839	492.85765
516.316	469.87663
516.793	566.1152
517.27	500.94453
517.747	526.07854
518.224	468.85162
518.701	438.75541
519.178	535.04683
519.654	483.90057
520.131	503.99142
520.607	438.85944
521.083	427.77403
521.56	508.95495
522.036	453.77567
522.512	468.90574
522.987	460.8647
523.463	511.97123
523.939	422.80928
524.414	481.8684
524.89	510.95022
525.365	489.87743
525.84	474.90199
526.315	437.83177
526.79	458.81059
527.265	429.7733
527.74	437.86011
528.215	481.89818
528.689	444.78499
529.164	511.86753
529.638	440.91025
530.112	420.80233
530.587	400.67257
531.061	439.84534
531.534	491.94821
532.008	477.91808
532.482	454.8211
532.956	420.87782
533.429	452.88147
533.903	431.73323
534.376	408.73789
534.849	420.77862
535.322	486.92933
535.795	410.81514
536.268	418.81787
536.741	408.79641
537.213	461.85102
537.686	430.86367
538.158	416.75198
538.631	424.8304
539.103	483.87602
539.575	379.6263
540.047	429.7638
540.519	402.77911
540.991	429.84476
541.463	473.9244
541.934	479.8785
542.406	515.99647
542.877	523.9515
543.348	435.84569
543.82	455.8909
544.291	431.81237
544.762	490.94333
545.233	416.84634
545.703	544.96488
546.174	476.86838
546.645	582.12204
547.115	538.02016
547.585	548.97804
548.056	497.95428
548.526	619.10703
548.996	549.00889
549.466	622.16026
549.935	623.12337
550.405	641.04774
550.875	733.30128
551.344	678.21247
551.814	665.12234
552.283	682.0842
552.752	699.21126
553.221	765.21415
553.69	784.24832
554.159	687.24726
554.628	728.15756
555.096	763.41223
555.565	734.21529
556.033	641.11818
556.502	599.1076
556.97	513.8521
557.438	637.16627
557.906	530.98456
558.374	551.01257
558.842	481.93558
559.31	404.7314
559.777	502.99386
560.245	476.9199
560.712	426.79723
561.18	333.61962
561.647	451.83297
562.114	450.84882
562.581	428.86599
563.048	395.75548
563.514	388.78614
563.981	427.81155
564.448	406.76506
564.914	302.59173
565.381	432.81886
565.847	382.73575
566.313	382.74106
566.779	409.76787
567.245	429.84754
567.711	364.72132
568.176	334.62999
568.642	404.87467
569.108	362.75091
569.573	371.72745
570.038	372.65011
570.504	394.7315
570.969	387.82015
571.434	399.7299
571.899	401.79966
572.363	415.76762
572.828	435.79577
573.293	455.8513
573.757	458.85925
574.222	412.74589
574.686	392.72924
575.15	456.88842
575.614	429.80662
576.078	428.82197
576.542	464.85205
577.006	421.77638
577.469	409.81106
577.933	484.88432
578.396	427.84636
578.86	414.79317
579.323	468.92525
579.786	436.76039
580.249	503.94904
580.712	445.89359
581.175	430.88438
581.637	340.64729
582.1	385.69504
582.563	425.73083
583.025	426.86629
583.487	447.73258
583.95	340.61269
584.412	448.75949
584.874	373.74382
585.336	432.84647
585.797	373.6596
586.259	428.82752
586.721	474.9336
587.182	444.84161
587.643	439.8104
588.105	418.81787
588.566	416.7144
589.027	378.74696
589.488	406.7613
589.949	452.89822
590.41	404.65339
590.87	435.80824
591.331	430.75666
591.791	383.73785
592.252	404.77887
592.712	437.87428
593.172	419.79169
593.632	507.89431
594.092	398.73451
594.552	373.65719
595.011	440.84421
595.471	388.71964
595.931	400.74227
596.39	386.77136
596.849	392.76627
597.308	391.7001
597.768	456.96952
598.227	370.73664
598.685	453.8396
599.144	394.76543
599.603	410.7988
600.062	417.74281
600.52	362.67409
600.978	463.91986
601.437	373.70822
601.895	403.70598
602.353	447.82682
602.811	445.81407
603.269	459.91192
603.727	426.84813
604.184	469.86969
604.642	428.87393
605.099	410.79082
605.557	481.97479
606.014	442.79531
606.471	454.9535
606.928	482.86464
607.385	573.12292
607.842	699.24079
608.299	653.15176
608.755	626.17813
609.212	530.92636
609.668	595.07552
610.125	536.0223
610.581	543.00335
611.037	542.98332
611.493	421.81964
611.949	477.95829
612.405	450.76205
612.861	370.73286
613.316	392.80079
613.772	344.66351
614.227	406.81283
614.683	409.73498
615.138	385.77489
615.593	385.76989
616.048	421.81652
616.503	406.84894
616.958	384.82782
617.412	436.88178
617.867	322.62346
618.321	441.77582
618.776	389.73644
619.23	396.80308
619.684	324.62163
620.138	300.58503
620.592	377.79372
621.046	326.65841
621.5	363.76862
621.954	351.684
622.407	374.7342
622.861	363.76929
623.314	320.63857
623.768	316.64436
624.221	323.56789
624.674	310.62983
625.127	314.65658
625.58	276.55896
626.033	325.63002
626.485	253.54743
626.938	340.71914
627.39	293.60928
627.843	306.62965
628.295	284.59201
628.747	250.5318
629.199	317.65625
629.651	297.62145
630.103	235.49129
630.555	249.49447
631.006	213.45911
631.458	193.42082
631.909	177.37184
632.361	238.51354
632.812	177.3807
633.263	205.41165
633.714	163.32777
634.165	150.33822
634.616	171.38281
635.067	166.3445
635.518	204.45527
635.968	154.29289
636.419	192.39721
636.869	138.31218
637.319	139.30218
637.769	135.29224
638.219	186.41887
638.669	181.41253
639.119	136.31479
639.569	143.33132
640.019	142.31376
640.468	103.22249
640.918	123.28227
641.367	201.44068
641.816	85.1829
642.265	91.20288
642.714	123.27717
643.163	127.28583
643.612	111.26501
644.061	120.25438
644.51	91.20389
644.958	197.43027
645.406	90.21047
645.855	130.3096
646.303	66.14979
646.751	138.31053
647.199	65.14539
647.647	125.28225
648.095	132.29836
648.543	106.21369
648.99	68.16045
649.438	87.19773
649.885	93.22501
650.333	134.25932
650.78	127.30205
651.227	91.21685
651.674	155.34756
652.121	131.31168
652.568	93.22306
653.015	151.37288
653.461	113.26534
653.908	93.2112
654.354	54.12668
654.801	135.31452
655.247	57.12302
655.693	42.10726
656.139	76.18107
656.585	87.20556
657.031	88.20506
657.477	54.11582
657.922	54.12375
658.368	114.2769
658.813	96.22018
659.259	76.18308
659.704	77.18031
660.149	129.30137
660.594	57.13431
661.039	96.21717
661.484	118.2767
661.929	81.1879
662.373	31.07745
662.818	73.1802
663.262	94.2255
663.707	82.20543
664.151	77.18672
664.595	54.13053
665.039	117.28882
665.483	89.22373
665.927	91.21285
666.371	102.23722
666.814	91.21651
667.258	22.0526
667.701	86.18549
668.145	107.26277
668.588	91.2234
669.031	75.17707
669.474	94.22738
669.917	41.09129
670.36	79.19602
670.803	70.16729
671.245	53.11321
671.688	50.12054
672.13	61.13858
672.573	100.25305
673.015	47.11329
673.457	35.07755
673.899	113.27226
674.341	91.21917
674.783	116.28335
675.225	55.13447
675.666	100.24372
676.108	91.20011
676.549	60.14278
676.991	102.23055
677.432	78.15978
677.873	107.25203
678.314	87.2097
678.755	31.07661
679.196	94.21827
679.637	64.15651
680.078	67.15671
680.518	21.04916
680.959	118.28769
681.399	59.14778
681.839	104.25593
682.28	130.32191
682.72	37.08658
683.16	98.24524
683.6	69.15816
684.039	27.0571
684.479	72.1792
684.919	95.22525
685.358	90.22969
685.798	77.20342
686.237	94.2285
686.676	61.14167
687.115	111.26176
687.554	129.30787
687.993	102.22905
688.432	134.31532
688.871	65.15138
689.309	54.12905
689.748	110.23461
690.186	104.24968
690.625	153.36486
691.063	72.17522
691.501	94.23251
691.939	120.30095
692.377	74.18311
692.815	97.23804
693.253	102.24571
693.69	95.21539
694.128	105.26091
694.565	130.31363
695.003	85.21712
695.44	64.1506
695.877	63.14891
696.314	113.24806
696.751	99.22537
697.188	44.1033
697.625	124.28781
698.061	46.1122
698.498	68.16511
698.934	93.22755
699.371	70.16958
699.807	93.22382
700.243	96.23685
700.679	79.18006
701.115	39.09283
701.551	94.2243
701.987	78.17602
702.422	97.2338
702.858	83.20112
703.294	47.10838
703.729	124.3057
704.164	98.23965
704.599	92.20863
705.035	128.29709
705.47	88.21511
705.904	139.33275
706.339	106.24769
706.774	122.29077
707.209	86.2034
707.643	78.1901
708.078	108.26547
708.512	61.15598
708.946	111.26714
709.38	40.09585
709.814	105.24318
710.248	94.2291
710.682	117.28265
711.116	84.2074
711.549	105.27347
711.983	64.15154
712.416	108.25572
712.85	81.20223
713.283	71.17081
713.716	128.31765
714.149	85.20511
714.582	71.16078
715.015	148.36809
715.448	139.34765
715.881	108.23454
716.313	73.17449
716.746	126.30053
717.178	95.23019
717.61	120.30181
718.043	102.25645
718.475	100.24426
718.907	90.22531
719.339	109.25265
719.77	99.23835
720.202	82.20706
720.634	144.35305
721.065	121.28711
721.497	86.21233
721.928	111.27501
722.359	138.33846
722.79	76.18474
723.221	125.31173
723.652	120.30409
724.083	142.32424
724.514	161.37139
724.945	74.17407
725.375	163.38677
725.806	171.42706
726.236	135.34337
726.666	154.36464
727.096	165.40385
727.526	161.41181
727.956	167.386
728.386	86.21062
728.816	135.34252
729.246	176.42877
729.675	196.48337
730.105	120.29312
730.534	137.3193
730.964	199.49266
731.393	143.34884
731.822	211.53114
732.251	154.38788
732.68	233.54517
733.109	176.43085
733.537	144.34885
733.966	188.46108
734.395	185.42267
734.823	226.50123
735.251	152.36143
735.68	215.53012
736.108	228.56744
736.536	185.431
736.964	188.43393
737.392	172.422
737.82	187.44183
738.247	238.5561
738.675	184.42791
739.102	222.54627
739.53	282.70333
739.957	276.69161
740.384	209.49935
740.811	285.69907
741.238	207.49343
741.665	228.52331
742.092	252.58696
742.519	262.63849
742.945	219.51823
743.372	286.68368
743.798	246.61223
744.225	263.61246
744.651	276.67737
745.077	287.69144
745.503	258.60543
745.929	276.64057
746.355	324.76205
746.781	316.76258
747.207	347.79783
747.632	368.87157
748.058	364.87108
748.483	407.88737
748.908	358.85378
749.334	425.99077
749.759	364.82235
750.184	395.90127
750.609	426.98157
751.033	380.84833
751.458	425.89752
751.883	422.98242
752.307	410.91491
752.732	414.98691
753.156	436.01008
753.58	396.88112
754.005	472.11863
754.429	441.96881
754.853	508.17207
755.277	469.03912
755.7	519.20105
756.124	526.21174
756.548	506.12241
756.971	555.22591
757.394	472.11734
757.818	526.25112
758.241	596.38028
758.664	587.35486
759.087	567.17192
759.51	606.35904
759.933	620.36254
760.356	563.30146
760.778	609.34254
761.201	639.38993
761.623	664.44223
762.046	695.46127
762.468	684.44158
762.89	693.49921
763.312	683.47001
763.734	709.50316
764.156	745.61798
764.578	723.43679
765	747.58242
765.421	760.72071
765.843	698.60456
766.264	776.64426
766.686	782.73898
767.107	776.64283
767.528	804.78792
767.949	805.77352
768.37	805.72244
768.791	843.75333
769.212	829.8287
769.632	808.66073
770.053	880.01707
770.473	879.8574
770.894	862.83614
771.314	849.71416
771.734	808.61974
772.154	853.8793
772.575	845.66243
772.994	850.65073
773.414	892.82779
773.834	906.95489
774.254	920.93096
774.673	844.76824
775.093	917.95039
775.512	890.87943
775.931	918.98248
776.351	859.82223
776.77	878.85246
777.189	876.77075
777.607	867.91492
778.026	924.96401
778.445	938.03944
778.864	859.89094
779.282	838.74176
779.701	846.81994
780.119	854.87092
780.537	784.70598
780.955	884.93503
781.373	839.77592
781.791	829.58581
782.209	832.61419
782.627	785.81717
783.045	832.62647
783.462	833.8719
783.88	782.77913
784.297	807.76903
784.715	826.89133
785.132	755.60704
785.549	703.54092
785.966	762.67839
786.383	706.55562
786.8	777.55859
787.217	693.45961
787.633	676.52051
788.05	742.52973
788.466	675.3849
788.883	713.64265
789.299	669.43738
789.715	649.41648
790.131	660.46571
790.547	611.36717
790.963	584.30642
791.379	619.41292
791.795	617.26404
792.21	514.08475
792.626	565.22045
793.041	550.24845
793.457	532.20217
793.872	539.15675
794.287	552.22511
794.702	488.10394
795.117	517.18269
795.532	480.12493
795.947	467.02608
796.362	446.98082
796.776	472.00336
797.191	446.02267
797.605	454.01271
798.02	427.97308
798.434	414.85685
798.848	400.93342
799.262	409.95685
799.676	423.95813
800.09	387.9054
800.504	428.97634
800.918	356.78326
801.331	314.77602
801.745	399.87472
802.158	303.71919
802.572	345.78816
802.985	315.7208
803.398	317.72625
803.811	311.75321
804.224	273.64949
804.637	291.66776
805.05	267.594
805.462	311.72507
805.875	296.74546
806.288	263.62185
806.7	236.57342
807.112	200.4456
807.525	246.58358
807.937	251.61044
808.349	244.59353
808.761	267.64083
809.173	217.51846
809.584	212.50816
809.996	220.52532
810.408	271.68386
810.819	279.63664
811.231	329.83343
811.642	352.80916
812.053	365.81805
812.464	457.97862
812.875	356.84576
813.286	248.60573
813.697	196.43072
814.108	195.46144
814.519	227.49369
814.929	209.51969
815.34	227.53674
815.75	186.46595
816.16	144.35108
816.571	160.4063
816.981	191.44393
817.391	183.4384
817.801	146.36086
818.211	119.27539
818.62	126.29984
819.03	134.32304
819.44	143.36513
819.849	174.42959
820.259	168.42238
820.668	108.26694
821.077	121.30045
821.486	127.30251
821.895	117.28339
822.304	58.15269
822.713	133.31449
823.122	100.24934
823.531	134.31667
823.939	135.3276
824.348	159.38309
824.756	94.23455
825.164	92.23031
825.573	72.18012
825.981	127.31258
826.389	98.24223
826.797	95.23735
827.205	119.27517
827.612	108.26331
828.02	95.22664
828.428	97.24559
828.835	119.31427
829.243	80.18862
829.65	39.09755
830.057	38.09244
830.464	75.18228
830.871	104.24749
831.278	113.27525
831.685	103.22802
832.092	71.17327
832.499	95.2111
832.905	54.13587
833.312	50.11385
833.718	70.17391
834.124	46.10482
834.531	71.17816
834.937	96.24638
835.343	56.13485
835.749	77.17947
836.155	77.20267
836.561	80.19781
836.966	-26.0637
837.372	89.22645
837.777	7.0175
838.183	102.22594
838.588	84.21036
838.993	84.20419
839.399	84.20663
839.804	32.07968
840.209	76.19519
840.613	38.08561
841.018	20.05077
841.423	58.14979
841.828	58.14807
842.232	56.13694
842.637	21.04991
843.041	70.18028
843.445	95.23898
843.849	62.15392
844.253	55.13101
844.657	12.03056
845.061	70.15835
845.465	70.17124
845.869	-2.00465
846.272	67.16691
846.676	75.18016
847.079	21.05402
847.483	72.18018
847.886	8.01924
848.289	69.18582
848.692	34.08619
849.095	64.15447
849.498	23.05746
849.901	93.21377
850.304	17.04081
850.707	32.0819
851.109	29.0723
851.512	42.10389
851.914	35.08956
852.316	20.05072
852.718	-50.13091
853.121	53.13045
853.523	2.00472
853.925	60.15752
854.326	40.10158
854.728	43.11095
855.13	1.00264
855.531	58.13972
855.933	52.12403
856.334	49.12349
856.736	56.12746
857.137	87.20405
857.538	79.19909
857.939	71.17578
858.34	28.06791
858.741	28.07301
859.142	23.05537
859.542	25.0666
859.943	43.10697
860.343	46.11528
860.744	39.09489
861.144	85.20712
861.544	39.09574
861.945	2.00511
862.345	31.07641
862.745	31.07796
863.145	76.17968
863.544	-8.02042
863.944	15.03535
864.344	73.18034
864.743	73.17941
865.143	20.05178
865.542	9.02108
865.941	17.04247
866.34	36.086
866.74	45.12087
867.139	28.06875
867.537	8.02029
867.936	15.03632
868.335	9.02291
868.734	23.05861
869.132	35.08116
869.531	27.06505
869.929	50.11702
870.327	61.1472
870.726	20.04918
871.124	52.12127
871.522	39.09944
871.92	27.06587
872.318	56.1371
872.715	43.10556
873.113	59.14452
873.511	15.03772
873.908	6.01553
874.306	30.07535
874.703	4.01005
875.1	46.11657
875.497	41.09946
875.894	30.07551
876.291	51.12506
876.688	31.07996
877.085	-2.00483
877.482	22.05555
877.878	-3.0073
878.275	58.14891
878.671	22.04896
879.068	-26.06254
879.464	18.04344
879.86	19.04548
880.256	100.24381
880.652	40.10266
881.048	5.01232
881.444	44.10555
881.84	50.1281
882.236	48.1199
882.631	0
883.027	12.02901
883.422	43.11015
883.817	-16.04101
884.213	49.12609
884.608	27.06739
885.003	28.06819
885.398	18.04558
885.793	50.1258
886.188	52.1313
886.582	32.08126
886.977	24.05681
887.371	50.12693
887.766	74.18792
888.16	39.0961
888.554	-9.02215
888.949	14.035
889.343	15.03626
889.737	18.04839
890.131	47.11912
890.525	37.09448
890.918	37.09351
891.312	-18.04316
891.706	17.04496
892.099	75.19164
892.492	10.0217
892.886	-17.0421
893.279	67.1718
893.672	33.08465
894.065	39.09797
894.458	17.043
894.851	44.1076
895.244	-14.03611
895.637	30.07249
896.029	54.13166
896.422	46.11253
896.814	-1.00251
897.206	40.09745
897.599	7.01732
897.991	53.12934
898.383	2.00476
898.775	-26.05956
899.167	19.04491
899.559	-1.00254
899.951	24.05676
900.342	28.07106
900.734	35.08893
901.125	4.01052
901.517	-6.01493
901.908	32.07715
902.299	-2.00497
902.69	23.05447
903.082	41.09897
903.473	-22.05354
903.863	25.06406
904.254	31.07333
904.645	0
905.036	35.08665
905.426	4.00906
905.817	42.10408
906.207	9.02178
906.597	9.02143
906.987	47.12212
907.378	22.05579
907.768	11.02904
908.158	40.09738
908.547	9.02356
908.937	2.00517
909.327	39.0951
909.717	60.15199
910.106	31.07526
910.495	-15.03744
910.885	28.0709
911.274	27.06751
911.663	-3.00758
912.052	20.04909
912.441	4.01031
912.83	2.00464
913.219	6.0156
913.608	6.01471
913.997	39.09927
914.385	16.0384
914.774	17.0416
915.162	47.1132
915.55	30.07224
915.939	35.08921
916.327	47.11806
916.715	40.10312
917.103	-14.0342
917.491	56.13791
917.878	12.0296
918.266	25.06525
918.654	41.10561
919.041	40.10598
919.429	72.17134
919.816	-16.04076
920.203	3.0074
920.591	-18.04498
920.978	36.0883
921.365	10.02639
921.752	44.10591
922.139	4.00872
922.525	0
922.912	23.05611
923.299	8.0201
923.685	50.13176
924.072	-6.01373
924.458	53.13155
924.844	30.07524
925.231	36.08389
925.617	35.09059
926.003	-40.1028
926.389	-31.0791
926.774	28.07186
927.16	0
927.546	1.00258
927.931	2.00502
928.317	26.06009
928.702	-3.00704
929.088	-2.0048
929.473	-51.13032
929.858	-33.08206
930.243	74.17867
930.628	-38.09334
931.013	-24.05976
931.398	47.1079
931.783	-11.02892
932.167	17.04197
932.552	-26.06474
932.937	14.03445
933.321	60.15161
933.705	-42.10647
934.09	45.11247
934.474	68.16151
934.858	31.08035
935.242	9.0213
935.626	-12.03095
936.009	-38.10205
936.393	3.00769
936.777	35.09022
937.16	50.13029
937.544	-1.00235
937.927	-8.02052
938.311	35.08484
938.694	29.076
939.077	12.02928
939.46	9.02201
939.843	30.06321
940.226	-10.02575
940.609	25.05825
940.991	26.06684
941.374	-8.01969
941.757	15.03719
942.139	50.11403
942.522	7.01644
942.904	17.04144
943.286	-1.00255
943.668	17.04414
944.05	20.05043
944.432	46.11495
944.814	12.0294
945.196	-12.0299
945.578	46.11165
945.959	17.0399
946.341	-23.05594
946.722	20.04716
947.104	0
947.485	-19.04449
947.866	48.12228
948.247	38.09667
948.628	-10.02458
949.009	37.0958
949.39	22.05498
949.771	-2.00465
950.152	10.02471
950.532	21.05273
950.913	-13.03129
951.293	21.05757
951.674	-9.02184
952.054	-34.08462
952.434	-8.01982
952.814	5.01193
953.194	33.08607
953.574	67.16497
953.954	38.09168
954.334	28.0703
954.714	-38.09451
955.093	32.07875
955.473	10.02526
955.853	19.04926
956.232	-23.06275
956.611	6.01424
956.99	14.03563
957.37	23.05875
957.749	51.12288
958.128	18.04584
958.506	-9.02359
958.885	23.0584
959.264	15.03711
959.643	-9.02058
960.021	27.06712
960.4	-25.0565
960.778	26.06419
961.156	5.01263
961.535	61.14217
961.913	20.04708
962.291	14.03657
962.669	45.11418
963.047	18.04599
963.424	34.08653
963.802	22.05472
964.18	-4.01007
964.557	-21.04804
964.935	8.01901
965.312	18.04731
965.69	46.11487
966.067	68.16623
966.444	44.10916
966.821	10.02588
967.198	34.08169
967.575	32.07828
967.952	-40.0953
968.329	-11.02676
968.705	17.03653
969.082	76.1945
969.458	6.01466
969.835	13.03191
970.211	48.12379
970.587	3.00752
970.963	4.01029
971.339	-16.04226
971.715	-24.05995
972.091	48.11729
972.467	26.0653
972.843	-23.05749
973.219	33.07824
973.594	35.09243
973.97	2.00472
974.345	-11.02647
974.721	58.14025
975.096	-22.05356
975.471	68.16145
975.846	-11.02648
976.221	-2.00514
976.596	-2.00482
976.971	31.07599
977.346	-7.0164
977.72	73.1864
978.095	25.06435
978.469	62.14851
978.844	11.02752
979.218	23.05625
979.593	35.0842
979.967	-16.03911
980.341	-11.02561
980.715	-8.02028
981.089	20.0502
981.463	31.07191
981.837	-3.00745
982.21	14.03241
982.584	31.0756
982.957	4.01016
983.331	23.05489
983.704	18.04438
984.078	6.01481
984.451	40.09865
984.824	29.07175
985.197	51.12529
985.57	26.06528
985.943	10.02474
986.316	15.03644
986.688	38.09248
987.061	25.05884
987.434	16.04179
987.806	75.18214
988.179	-4.00945
988.551	2.00502
988.923	11.02719
989.295	66.16546
989.667	21.05136
990.039	17.04264
990.411	-17.03928
990.783	-9.0208
991.155	-42.10286
991.527	-6.0147
991.898	66.16564
992.27	39.0986
992.641	-4.00997
993.012	-23.05344
993.384	21.05066
993.755	4.01016
994.126	21.05096
994.497	23.05734
994.868	22.05098
995.239	27.06562
995.61	28.07116
995.98	-1.00245
996.351	56.1405
996.722	29.06871
997.092	27.06498
997.462	5.012
997.833	112.26673
998.203	52.12546
998.573	-13.03273
998.943	25.05886
999.313	7.01692
999.683	37.09023
1000.053	64.14814
1000.423	-25.0611
1000.792	21.05469
1001.162	32.08043
1001.531	0
1001.901	13.03255
1002.27	10.02248
1002.639	20.05128
1003.009	-5.01198
1003.378	31.07977
1003.747	55.12905
1004.116	10.02441
1004.485	47.11286
1004.853	28.07088
1005.222	42.10567
1005.591	10.02376
1005.959	8.01852
1006.328	100.23128
1006.696	-22.05338
1007.064	47.11777
1007.433	-13.03227
1007.801	39.09567
1008.169	49.12468
1008.537	9.02006
1008.905	13.03095
1009.273	-24.05932
1009.64	59.14371
1010.008	0
1010.375	61.14525
1010.743	-39.0885
1011.11	-14.03352
1011.478	4.00998
1011.845	27.06424
1012.212	30.06922
1012.579	42.10389
1012.946	34.08035
1013.313	5.01187
1013.68	15.03402
1014.047	25.0604
1014.414	45.10711
1014.78	65.16316
1015.147	22.05302
1015.513	-7.01701
1015.88	41.10491
1016.246	-11.02706
1016.612	55.12627
1016.978	-15.0367
1017.344	12.02949
1017.71	43.10412
1018.076	68.15896
1018.442	-53.13609
1018.808	43.1091
1019.174	18.04542
1019.539	3.00672
1019.905	33.07903
1020.27	-12.02997
1020.636	45.10719
1021.001	-8.01915
1021.366	-22.05358
1021.731	44.11332
1022.096	32.08193
1022.461	28.06686
1022.826	-5.01195
1023.191	31.0814
1023.556	8.01899
1023.92	23.05663
1024.285	-14.03407
1024.649	18.04452
1025.014	16.03975
1025.378	10.02539
1025.742	42.10541
1026.107	17.03873
1026.471	13.03012
1026.835	59.14757
1027.199	39.09549
1027.562	92.21464
1027.926	11.02681
1028.29	0
1028.654	7.0163
1029.017	65.15945
1029.381	24.05795
1029.744	8.02047
1030.107	54.12712
1030.471	55.13192
1030.834	38.0882
1031.197	-5.01202
1031.56	46.10808
1031.923	18.04713
1032.286	44.1031
1032.648	-16.03789
1033.011	-1.00232
1033.374	-20.04653
1033.736	29.07692
1034.099	-3.00736
1034.461	40.10212
1034.823	19.04761
1035.185	36.09051
1035.548	54.13146
1035.91	-87.20946
1036.272	18.04133
1036.634	-17.04152
1036.995	15.03548
1037.357	32.07933
1037.719	-9.02203
1038.08	-13.03086
1038.442	-21.05037
1038.803	31.07455
1039.165	67.17048
1039.526	-23.05651
1039.887	17.04094
1040.248	19.04738
1040.609	16.03932
1040.97	-14.03436
1041.331	28.07138
1041.692	44.10587
1042.053	18.04103
1042.413	-4.00932
1042.774	26.06325
1043.134	13.03063
1043.495	31.07832
1043.855	0
1044.215	6.01496
1044.576	16.03904
1044.936	54.1243
1045.296	65.16163
1045.656	16.03978
1046.016	37.09019
1046.375	29.07064
1046.735	-10.02324
1047.095	36.0862
1047.454	18.03826
1047.814	11.0267
1048.173	9.02122
1048.533	27.06214
1048.892	-38.09327
1049.251	2.00499
1049.61	15.03757
1049.969	-31.07379
1050.328	-69.15186
1050.687	35.08567
1051.046	-8.01972
1051.405	36.08973
1051.763	58.13446
1052.122	27.06824
1052.48	12.02952
1052.839	31.07396
1053.197	-23.05477
1053.555	-1.00227
1053.914	-7.01732
1054.272	52.12536
1054.63	10.02477
1054.988	-40.09742
1055.345	-29.06409
1055.703	31.07464
1056.061	36.09259
1056.419	10.02633
1056.776	-1.00243
1057.134	25.05834
1057.491	-6.01515
1057.848	-10.02503
1058.206	6.01433
1058.563	-13.02938
1058.92	36.08346
1059.277	25.06156
1059.634	41.09744
1059.991	29.06905
1060.348	30.06825
1060.704	43.10392
1061.061	58.13302
1061.418	6.01484
1061.774	-25.06221
1062.131	34.09188
1062.487	18.04256
1062.843	-40.10043
1063.199	14.03507
1063.555	16.03781
1063.911	-5.01261
1064.267	41.08518
1064.623	-1.00247
1064.979	32.07554
1065.335	-3.00715
1065.691	46.11018
1066.046	29.06508
1066.402	28.06453
1066.757	43.10825
1067.112	9.02214
1067.468	27.06503
1067.823	42.10183
1068.178	88.21351
1068.533	18.04333
1068.888	-2.00476
1069.243	-12.02988
1069.598	17.04146
1069.952	3.00701
1070.307	-27.06785
1070.662	77.18475
1071.016	-4.00918
1071.371	1.0023
1071.725	-23.05512
1072.079	-29.06969
1072.434	35.08589
1072.788	11.02632
1073.142	8.0197
1073.496	31.07523
1073.85	19.04448
1074.203	33.08011
1074.557	-1.00266
1074.911	-25.05967
1075.265	25.0588
1075.618	16.03898
1075.971	-34.08262
1076.325	30.07659
1076.678	44.1031
1077.031	66.1521
1077.385	-9.01987
1077.738	-10.02285
1078.091	15.03515
1078.444	2.00465
1078.796	17.04249
1079.149	-11.02733
1079.502	82.19634
1079.855	27.06273
1080.207	-5.01227
1080.56	46.12028
1080.912	-34.08308
1081.264	6.01462
1081.617	11.02733
1081.969	15.03815
1082.321	20.04909
1082.673	7.01617
1083.025	-36.08607
1083.377	-1.00239
1083.728	56.13101
1084.08	17.04275
1084.432	-1.00246
1084.783	68.15896
1085.135	49.12402
1085.486	-5.01173
1085.838	34.08401
1086.189	-11.02698
1086.54	-11.02624
1086.891	39.10021
1087.242	-39.09627
1087.593	45.10871
1087.944	43.09725
1088.295	-9.02055
1088.646	8.01966
1088.996	18.04395
1089.347	-1.00247
1089.698	-17.04091
1090.048	15.03915
1090.398	33.07737
1090.749	-16.03854
1091.099	1.00253
1091.449	13.03282
1091.799	-17.04303
1092.149	15.03737
1092.499	-10.02454
1092.849	6.0154
1093.199	-3.00751
1093.548	57.1389
1093.898	40.101
1094.248	22.05676
1094.597	26.06773
1094.947	-15.03999
1095.296	44.10884
1095.645	-25.065
1095.994	1.00242
1096.343	14.03535
1096.692	-1.00266
1097.041	21.05737
1097.39	19.0479
1097.739	27.0701
1098.088	-4.01058
1098.437	-15.04032
1098.785	5.01348
1099.134	49.12762
1099.482	2.0055
1099.83	4.01046
1100.179	33.08642
1100.527	50.13371
1100.875	9.0241
1101.223	7.01862
1101.571	-7.01932
1101.919	3.00794
1102.267	41.11619
1102.615	12.03855
1102.962	20.06426
1103.31	11.03539
1103.658	12.03856
