Data from N2 R4 sample 12_Subt2__2__19-31-26-957.txt Node

Date: Wed Aug 27 19:31:26 PDT 2025
User: uwsun
Spectrometer: HDX01956
Trigger mode: 0
Integration Time (sec): 5.000000E-1
Scans to average: 1
Nonlinearity correction enabled: true
Boxcar width: 0
Storing dark spectrum: false
XAxis mode: Wavelengths
Number of Pixels in Spectrum: 2068
>>>>>Begin Spectral Data<<<<<
194.03	488.26003
194.578	541.58367
195.127	537.54182
195.676	515.49335
196.225	550.29574
196.773	622.51921
197.321	837.90771
197.87	1101.11071
198.418	1155.19224
198.966	1189.26785
199.513	1086.01959
200.061	1174.16868
200.609	1235.38071
201.156	1154.79966
201.704	1165.11627
202.251	1131.2182
202.798	1162.22315
203.345	1227.16093
203.892	1156.12156
204.438	1191.00284
204.985	1191.01367
205.532	1288.42239
206.078	1209.07838
206.624	1273.19474
207.17	1175.86817
207.716	1168.04007
208.262	1219.59798
208.808	1232.19732
209.354	1203.07788
209.899	1227.17773
210.445	1218.14112
210.99	1226.04474
211.535	1213.93989
212.08	1237.96731
212.625	1236.17402
213.17	1185.11697
213.715	1174.85648
214.259	1237.01662
214.804	1330.28081
215.348	1220.91311
215.892	1263.07185
216.436	1299.02569
216.98	1288.90818
217.524	1244.06363
218.068	1192.13224
218.612	1192.1268
219.155	1179.97727
219.698	1141.91328
220.242	1056.88943
220.785	1090.82495
221.328	1066.95234
221.871	1000.88451
222.414	1061.92224
222.956	1076.93419
223.499	1096.83603
224.041	1095.84982
224.583	1049.61945
225.126	1086.74615
225.668	1139.04282
226.21	1127.11001
226.751	1054.6983
227.293	1087.81743
227.835	1020.83982
228.376	1073.78123
228.918	1043.95563
229.459	1116.0735
230	1100.9281
230.541	1033.73811
231.082	1055.88232
231.622	1083.81269
232.163	1157.05089
232.704	1073.96667
233.244	1142.11148
233.784	1020.84825
234.324	1140.8303
234.864	1055.75507
235.404	1052.83506
235.944	1109.90391
236.484	1153.07013
237.023	1083.88485
237.563	1053.77861
238.102	1053.8036
238.641	1130.09855
239.18	1111.89316
239.719	1080.98894
240.258	1093.73913
240.797	1090.87565
241.335	1067.91748
241.874	1117.46107
242.412	1179.02012
242.95	1214.09531
243.488	1149.87661
244.026	1175.89796
244.564	1185.66193
245.102	1151.81107
245.64	1141.96841
246.177	1168.85117
246.715	1144.97622
247.252	1148.85153
247.789	1124.40286
248.326	1194.05519
248.863	1153.70731
249.4	1161.80906
249.936	1138.5869
250.473	1144.871
251.009	1225.00471
251.546	1185.77734
252.082	1216.76265
252.618	1207.86811
253.154	1164.02349
253.69	1146.79746
254.226	1109.88468
254.761	1135.75808
255.297	1148.76125
255.832	1102.85114
256.367	1116.84529
256.903	1289.9091
257.438	1234.98986
257.972	1226.83432
258.507	1261.99317
259.042	1157.72468
259.576	1273.86586
260.111	1245.95649
260.645	1255.82693
261.179	1247.00368
261.713	1217.85738
262.247	1231.95882
262.781	1248.74941
263.315	1248.12019
263.849	1221.1492
264.382	1291.98738
264.915	1287.03816
265.449	1277.17959
265.982	1227.8551
266.515	1179.96654
267.048	1270.83138
267.58	1251.78424
268.113	1294.88361
268.646	1333.23211
269.178	1256.8908
269.71	1257.7884
270.243	1270.91887
270.775	1244.21313
271.307	1255.05297
271.838	1301.04172
272.37	1228.09387
272.902	1291.97809
273.433	1231.76206
273.965	1246.04211
274.496	1235.10755
275.027	1235.09182
275.558	1293.10381
276.089	1326.2125
276.62	1269.19589
277.15	1272.10458
277.681	1313.80477
278.211	1311.17247
278.741	1279.88159
279.272	1273.94459
279.802	1255.13157
280.332	1383.1565
280.861	1292.04905
281.391	1320.98317
281.921	1376.14241
282.45	1374.26571
282.98	1401.41405
283.509	1262.83551
284.038	1347.99092
284.567	1333.01209
285.096	1337.14809
285.625	1380.00788
286.153	1346.06992
286.682	1344.98465
287.21	1360.12708
287.739	1386.06988
288.267	1411.21956
288.795	1444.50101
289.323	1424.1272
289.851	1486.15197
290.378	1391.96368
290.906	1496.31753
291.433	1413.26473
291.961	1442.02612
292.488	1460.32291
293.015	1440.13848
293.542	1448.32976
294.069	1453.27313
294.596	1431.18705
295.122	1489.22067
295.649	1545.0093
296.175	1424.12974
296.702	1434.15638
297.228	1461.1394
297.754	1575.01335
298.28	1564.06654
298.806	1523.22854
299.332	1480.92086
299.857	1530.01553
300.383	1535.39436
300.908	1505.27435
301.433	1604.31797
301.958	1551.10005
302.483	1559.32903
303.008	1593.27576
303.533	1585.50155
304.058	1547.06876
304.582	1581.18719
305.107	1575.49269
305.631	1601.02358
306.155	1670.15097
306.679	1614.16622
307.203	1642.1385
307.727	1640.21321
308.251	1673.36219
308.775	1718.28736
309.298	1751.28566
309.822	1750.46886
310.345	1783.21726
310.868	1824.33801
311.391	1753.30662
311.914	1807.47063
312.437	1757.00089
312.96	1785.16306
313.482	1782.19375
314.005	1888.50718
314.527	1789.56659
315.049	1841.457
315.571	1780.98535
316.093	1876.3416
316.615	2010.29661
317.137	1918.91924
317.659	1945.31951
318.18	1977.33874
318.702	1986.13822
319.223	1994.73854
319.744	1989.97151
320.265	1998.25714
320.786	2093.38373
321.307	2125.41633
321.828	2075.98491
322.348	2170.1419
322.869	2141.19851
323.389	2255.09693
323.909	2177.962
324.43	2262.23825
324.95	2229.94114
325.47	2226.28603
325.989	2228.00309
326.509	2345.91584
327.029	2433.94751
327.548	2429.89148
328.067	2408.12058
328.587	2379.177
329.106	2433.7944
329.625	2421.38969
330.144	2517.94066
330.662	2546.86011
331.181	2534.82534
331.7	2563.91394
332.218	2610.52067
332.736	2696.75852
333.255	2730.77854
333.773	2700.86922
334.291	2805.05551
334.808	2835.57969
335.326	2825.4327
335.844	2882.56861
336.361	2953.85711
336.879	2881.56087
337.396	2993.60839
337.913	3012.3333
338.43	3095.31896
338.947	3096.33282
339.464	3195.07343
339.981	3132.44382
340.497	3169.52345
341.014	3244.51732
341.53	3387.07218
342.046	3337.40831
342.562	3375.41654
343.078	3445.05902
343.594	3403.20474
344.11	3487.13647
344.626	3531.32895
345.141	3516.84951
345.657	3658.69006
346.172	3521.98717
346.687	3604.82809
347.202	3569.6105
347.717	3753.72654
348.232	3804.88064
348.747	3778.59824
349.261	3831.2421
349.776	3886.53494
350.29	4026.75294
350.805	4088.54499
351.319	3928.28921
351.833	4007.27158
352.347	3990.34698
352.861	4023.27415
353.374	4092.1466
353.888	4147.32392
354.401	4114.08625
354.915	4164.95558
355.428	4364.2178
355.941	4362.95335
356.454	4308.73748
356.967	4405.01974
357.48	4392.8048
357.993	4392.11448
358.505	4526.9686
359.018	4600.8869
359.53	4667.80448
360.042	4676.5018
360.554	4566.75469
361.066	4639.81667
361.578	4551.43522
362.09	4635.69644
362.602	4764.38157
363.113	4777.48239
363.625	4846.43534
364.136	4982.2939
364.647	5111.37026
365.158	5015.31254
365.669	5116.40542
366.18	5045.35585
366.691	5133.15079
367.201	5213.34046
367.712	5330.21913
368.222	5311.20164
368.733	5365.06882
369.243	5498.07111
369.753	5518.09333
370.263	5690.23643
370.773	5802.29687
371.282	5693.12065
371.792	6026.26638
372.301	6237.40721
372.811	6032.32554
373.32	6317.51551
373.829	6420.56651
374.338	6560.85046
374.847	6908.37134
375.356	6937.39682
375.865	7270.60771
376.373	7548.12585
376.882	7751.31775
377.39	7785.76071
377.898	8233.26577
378.407	8491.66173
378.915	8815.02053
379.423	9276.64117
379.93	9501.21124
380.438	10023.63367
380.946	10452.95714
381.453	10812.63331
381.96	11225.89359
382.468	12076.65989
382.975	13063.55404
383.482	13407.87252
383.989	13653.84931
384.495	14055.38593
385.002	14626.38665
385.509	15427.73578
386.015	16536.51314
386.521	17381.39985
387.028	17892.61607
387.534	18583.225
388.04	19315.05549
388.546	19799.88172
389.051	20679.22465
389.557	22210.55786
390.063	24144.62921
390.568	25237.69033
391.073	25689.04078
391.578	26891.35001
392.084	27234.30669
392.589	28302.41134
393.093	30587.96606
393.598	33178.68987
394.103	36134.32109
394.607	39410.55631
395.112	42677.34909
395.616	44912.89239
396.12	47051.36525
396.624	45867.539
397.128	45041.38363
397.632	42674.3298
398.136	41053.8128
398.639	39575.50194
399.143	37072.18751
399.646	33425.07685
400.15	30257.92651
400.653	26744.30161
401.156	22069.35973
401.659	15501.4617
402.162	4304.81735
402.664	865.43837
403.167	0
403.67	0
404.172	0
404.674	0
405.176	0
405.678	0
406.18	0
406.682	0
407.184	0
407.686	0
408.187	0
408.688	0
409.19	0
409.691	0
410.192	0
410.693	0
411.194	0
411.694	11.28237
412.195	3122.18734
412.696	8274.79556
413.196	11824.3934
413.696	13768.63585
414.196	13509.3687
414.696	14514.78924
415.196	16680.3865
415.696	20882.81744
416.196	28662.6172
416.695	36400.56296
417.195	40282.64143
417.694	41360.26869
418.194	42711.87066
418.693	44201.96737
419.192	45008.95072
419.691	45305.8869
420.19	45830.68337
420.688	46191.2227
421.187	46668.04785
421.685	48102.17801
422.184	47829.34232
422.682	41901.75837
423.18	35647.77566
423.678	31742.24427
424.176	29520.19957
424.674	27511.65621
425.172	26267.96014
425.669	24676.97868
426.167	23022.16761
426.664	21162.55986
427.161	19450.70806
427.659	17496.12315
428.156	16740.43459
428.652	15682.18317
429.149	15128.11908
429.646	14607.03521
430.143	13861.02168
430.639	12879.88285
431.135	12237.48112
431.632	11629.34409
432.128	10773.39061
432.624	10212.44152
433.12	9918.93952
433.616	9450.83257
434.111	9225.94212
434.607	8730.15501
435.103	8632.2653
435.598	8388.37993
436.093	7972.20853
436.588	7563.61733
437.083	7172.36531
437.578	6941.68412
438.073	6553.75674
438.568	6429.58664
439.062	6262.53768
439.557	6032.23892
440.051	5773.07489
440.546	5664.04139
441.04	5336.0009
441.534	5324.14703
442.028	5225.04544
442.522	5150.06527
443.015	5076.99871
443.509	4900.17521
444.002	4852.23414
444.496	4781.06699
444.989	4682.37066
445.482	4757.45093
445.975	4593.19178
446.468	4644.06223
446.961	4488.27578
447.454	4476.33543
447.947	4355.54743
448.439	4173.65256
448.931	4142.52254
449.424	4073.95109
449.916	4032.83854
450.408	4005.64004
450.9	3950.99348
451.392	3829.16026
451.884	3761.88113
452.375	3758.43373
452.867	3701.8948
453.358	3653.04718
453.849	3619.83849
454.341	3553.0765
454.832	3553.96676
455.323	3488.45304
455.814	3458.23262
456.304	3312.34966
456.795	3296.28004
457.285	3317.22196
457.776	3210.44264
458.266	3233.63877
458.756	3125.74841
459.247	3092.80397
459.737	3034.86193
460.226	2894.66424
460.716	2943.0051
461.206	2745.0303
461.695	2940.29844
462.185	2746.03531
462.674	2788.9552
463.163	2773.90268
463.653	2729.66251
464.142	2803.34532
464.63	2649.35912
465.119	2683.28388
465.608	2633.21607
466.096	2490.10972
466.585	2483.30185
467.073	2364.4195
467.561	2332.49012
468.05	2369.4031
468.538	2386.61625
469.026	2273.51283
469.513	2306.17741
470.001	2251.45282
470.489	2221.56299
470.976	2205.47074
471.463	2075.84765
471.951	2034.81625
472.438	2030.70088
472.925	1987.71859
473.412	1891.70527
473.899	1933.59391
474.385	1874.80564
474.872	1816.71323
475.359	1826.88844
475.845	1781.38866
476.331	1637.39676
476.817	1584.82574
477.303	1541.5973
477.789	1600.77661
478.275	1579.94117
478.761	1456.67149
479.247	1455.48527
479.732	1456.84861
480.218	1402.98871
480.703	1457.89248
481.188	1421.49619
481.673	1379.5868
482.158	1404.50569
482.643	1317.80683
483.128	1328.62268
483.612	1234.5989
484.097	1255.69874
484.581	1248.64573
485.066	1187.65843
485.55	1147.40939
486.034	1184.44868
486.518	1166.63247
487.002	1139.69972
487.486	1095.66419
487.969	1135.67641
488.453	989.58461
488.936	1032.43071
489.42	1020.35611
489.903	1005.64505
490.386	1019.92571
490.869	965.29998
491.352	903.47341
491.835	972.22686
492.318	909.34501
492.8	903.17207
493.283	882.5111
493.765	850.4429
494.247	909.40897
494.73	868.2751
495.212	853.41022
495.694	749.20229
496.175	796.31461
496.657	785.27528
497.139	693.75929
497.62	764.29444
498.102	744.32735
498.583	734.31825
499.064	607.96125
499.545	694.13051
500.026	639.03514
500.507	681.14256
500.988	676.21262
501.469	682.26172
501.949	642.16924
502.43	656.15374
502.91	564.84113
503.39	568.06196
503.87	584.02684
504.35	554.97854
504.83	611.98375
505.31	561.02944
505.79	578.05564
506.269	539.95029
506.749	546.95284
507.228	537.95072
507.707	578.95989
508.187	548.96743
508.666	530.01524
509.145	541.98176
509.623	539.97266
510.102	549.02054
510.581	529.9849
511.059	512.00056
511.538	548.09587
512.016	529.96828
512.494	577.07909
512.972	521.95941
513.45	494.89621
513.928	471.89301
514.406	507.97348
514.884	542.08335
515.361	544.997
515.839	476.83325
516.316	481.8964
516.793	501.00194
517.27	451.86218
517.747	528.08216
518.224	445.81448
518.701	447.76909
519.178	468.93175
519.654	499.92672
520.131	461.9176
520.607	456.89096
521.083	469.8411
521.56	448.85458
522.036	434.74692
522.512	469.90746
522.987	501.93229
523.463	478.9158
523.939	413.79374
524.414	467.84613
524.89	454.85762
525.365	468.84427
525.84	459.87663
526.315	426.813
526.79	443.7871
527.265	427.77009
527.74	468.91441
528.215	447.84171
528.689	439.77716
529.164	434.75211
529.638	419.87088
530.112	368.71185
530.587	379.6409
531.061	393.76513
531.534	423.8302
532.008	391.76812
532.482	437.79378
532.956	409.85692
533.429	401.79148
533.903	385.66309
534.376	441.79087
534.849	360.67737
535.322	440.85073
535.795	472.92485
536.268	471.91002
536.741	433.8402
537.213	437.81155
537.686	448.89608
538.158	378.68991
538.631	413.81096
539.103	444.81327
539.575	444.72056
540.047	412.73676
540.519	378.7368
540.991	424.8359
541.463	425.84003
541.934	464.8542
542.406	455.89301
542.877	482.88601
543.348	411.8036
543.82	399.7916
544.291	404.76652
544.762	493.94842
545.233	432.87569
545.703	502.90007
546.174	456.8361
546.645	557.08019
547.115	490.94151
547.585	529.94875
548.056	487.93733
548.526	583.05217
548.996	586.06704
549.466	588.10594
549.935	614.10965
550.405	646.05446
550.875	650.17845
551.344	631.1419
551.814	591.01719
552.283	637.0255
552.752	713.231
553.221	746.19034
553.69	765.22458
554.159	760.35457
554.628	698.11924
555.096	720.34676
555.565	788.28555
556.033	600.0578
556.502	625.14829
556.97	481.80597
557.438	578.07376
557.906	526.9781
558.374	548.0078
558.842	453.88699
559.31	363.66404
559.777	452.90534
560.245	430.84016
560.712	381.72094
561.18	424.77114
561.647	376.70747
562.114	365.70283
562.581	370.75859
563.048	361.69613
563.514	292.60463
563.981	384.73746
564.448	380.72063
564.914	366.70628
565.381	434.82225
565.847	348.67574
566.313	303.59889
566.779	345.65793
567.245	416.82437
567.711	318.63694
568.176	298.56705
568.642	433.93164
569.108	405.83203
569.573	359.70592
570.038	373.65169
570.504	322.60854
570.969	409.8626
571.434	384.70512
571.899	423.83922
572.363	323.61118
572.828	389.71988
573.293	463.86456
573.757	417.79023
574.222	384.70015
574.686	395.73427
575.15	436.8535
575.614	408.77109
576.078	351.68661
576.542	407.75809
577.006	418.77143
577.469	344.69253
577.933	437.80792
578.396	443.87479
578.86	422.80693
579.323	413.82703
579.786	413.72464
580.249	406.78423
580.712	404.81893
581.175	437.89736
581.637	377.71128
582.1	384.69341
582.563	355.62187
583.025	416.84788
583.487	340.57384
583.95	392.697
584.412	435.74004
584.874	367.73288
585.336	383.75915
585.797	341.60803
586.259	381.74494
586.721	428.85211
587.182	354.68575
587.643	350.66049
588.105	418.81787
588.566	338.59255
589.027	312.62608
589.488	413.77309
589.949	430.85888
590.41	407.65769
590.87	453.83792
591.331	396.70302
591.791	385.74135
592.252	377.73153
592.712	412.82904
593.172	437.82207
593.632	455.81346
594.092	384.71116
594.552	362.63964
595.011	402.77837
595.471	379.70453
595.931	414.76558
596.39	387.77317
596.849	420.81556
597.308	404.72095
597.768	415.89023
598.227	331.66498
598.685	366.69306
599.144	382.74424
599.603	370.72772
600.062	443.78383
600.52	339.63487
600.978	438.87527
601.437	378.71684
601.895	381.67129
602.353	436.80869
602.811	379.70488
603.269	455.90481
603.727	388.77931
604.184	381.722
604.642	388.79945
605.099	385.74705
605.557	442.90374
606.014	424.76644
606.471	423.89447
606.928	457.82506
607.385	508.01057
607.842	641.15472
608.299	557.00668
608.755	539.03575
609.212	511.89761
609.668	611.1
610.125	493.95162
610.581	526.97761
611.037	445.82724
611.493	423.82315
611.949	387.79362
612.405	380.6557
612.861	347.69101
613.316	372.76338
613.772	361.69346
614.227	378.76168
614.683	388.70099
615.138	348.70639
615.593	405.80613
616.048	409.79552
616.503	348.73702
616.958	343.74595
617.412	349.7199
617.867	359.68895
618.321	345.62218
618.776	383.72614
619.23	352.72103
619.684	297.57354
620.138	278.54496
620.592	328.69801
621.046	245.50402
621.5	333.70973
621.954	287.5678
622.407	372.73062
622.861	333.71034
623.314	310.62006
623.768	277.56985
624.221	294.52082
624.674	277.56702
625.127	302.63317
625.58	300.60423
626.033	274.53763
626.485	229.49804
626.938	284.60806
627.39	222.46895
627.843	228.4774
628.295	225.47518
628.747	213.45674
629.199	274.57269
629.651	214.45601
630.103	192.40522
630.555	257.5094
631.006	184.39907
631.458	208.45208
631.909	145.30677
632.361	214.46414
632.812	172.37034
633.263	217.43454
633.714	176.35285
634.165	79.18071
634.616	129.29129
635.067	125.26179
635.518	165.3712
635.968	153.29106
636.419	187.3873
636.869	134.30338
637.319	107.2342
637.769	189.40441
638.219	134.30498
638.669	97.22483
639.119	99.23083
639.569	143.33132
640.019	93.2076
640.468	80.17366
640.918	115.26433
641.367	190.41753
641.816	53.11483
642.265	58.13019
642.714	135.30346
643.163	128.28802
643.612	100.23925
644.061	122.2585
644.51	97.21706
644.958	187.4093
645.406	113.26306
645.855	106.25361
646.303	25.05721
646.751	122.27542
647.199	71.15862
647.647	81.18454
648.095	75.17149
648.543	69.14029
648.99	68.16045
649.438	35.08039
649.885	115.27708
650.333	154.2966
650.78	74.17779
651.227	67.16039
651.674	100.22677
652.121	81.19457
652.568	79.18998
653.015	149.36808
653.461	89.20996
653.908	65.14845
654.354	77.17982
654.801	93.21846
655.247	35.0759
655.693	54.13762
656.139	30.07211
656.585	65.15424
657.031	76.17752
657.477	25.05396
657.922	46.10559
658.368	81.19797
658.813	66.15228
659.259	92.22095
659.704	66.15489
660.149	102.23956
660.594	52.12265
661.039	79.17933
661.484	84.19828
661.929	86.1993
662.373	41.10225
662.818	76.18751
663.262	49.11855
663.707	97.24235
664.151	78.18911
664.595	48.11616
665.039	91.22571
665.483	52.13159
665.927	79.18521
666.371	74.17305
666.814	80.19074
667.258	-5.01202
667.701	83.17914
668.145	90.22172
668.588	69.17008
669.031	77.18172
669.474	61.14848
669.917	120.26282
670.36	32.08008
670.803	75.17906
671.245	99.20936
671.688	43.1038
672.13	24.05493
672.573	122.3075
673.015	40.09654
673.457	82.1799
673.899	126.30284
674.341	50.12136
674.783	137.33333
675.225	-5.01236
675.666	87.21255
676.108	58.12842
676.549	82.19431
676.991	75.17046
677.432	73.1497
677.873	100.23587
678.314	112.26868
678.755	103.25117
679.196	80.18627
679.637	111.26906
680.078	54.12663
680.518	105.24173
680.959	114.27815
681.399	70.17499
681.839	87.21476
682.28	55.13806
682.72	21.04929
683.16	65.16363
683.6	76.17396
684.039	20.04236
684.479	92.22815
684.919	94.22292
685.358	97.24724
685.798	62.16421
686.237	76.18537
686.676	73.16914
687.115	106.25021
687.554	48.11633
687.993	110.24661
688.432	113.26699
688.871	118.27193
689.309	31.07441
689.748	100.21374
690.186	120.28721
690.625	87.21009
691.063	118.28468
691.501	111.2737
691.939	94.23685
692.377	64.15865
692.815	89.21873
693.253	59.14329
693.69	107.242
694.128	115.28524
694.565	141.33946
695.003	104.26476
695.44	34.08048
695.877	45.10674
696.314	72.15942
696.751	76.17382
697.188	66.15428
697.625	138.31942
698.061	70.16997
698.498	108.26026
698.934	60.14771
699.371	74.17914
699.807	64.15487
700.243	89.21986
700.679	77.17557
701.115	46.10934
701.551	109.25934
701.987	66.1493
702.422	105.2527
702.858	92.22255
703.294	75.17198
703.729	91.22571
704.164	47.11602
704.599	88.19972
705.035	107.24939
705.47	38.09375
705.904	129.3094
706.339	90.21096
706.774	125.29775
707.209	53.12615
707.643	101.2451
708.078	79.19523
708.512	84.21392
708.946	72.17456
709.38	33.07918
709.814	72.16784
710.248	71.17378
710.682	77.18742
711.116	107.26306
711.549	117.30409
711.983	106.24895
712.416	74.17637
712.85	60.15037
713.283	54.13033
713.716	67.16812
714.149	76.1837
714.582	59.13393
715.015	87.21878
715.448	89.22461
715.881	62.13596
716.313	88.20974
716.746	120.28655
717.178	55.13427
717.61	90.22758
718.043	93.2342
718.475	52.12815
718.907	51.12857
719.339	76.17731
719.77	73.17662
720.202	65.16463
720.634	81.20091
721.065	65.1559
721.497	110.27039
721.928	58.14509
722.359	60.14928
722.79	76.18474
723.221	60.1514
723.652	56.14352
724.083	61.14156
724.514	82.19213
724.945	25.05937
725.375	91.21892
725.806	101.25544
726.236	112.28603
726.666	17.04132
727.096	95.23554
727.526	117.30158
727.956	49.11591
728.386	60.14765
728.816	77.19737
729.246	61.1518
729.675	60.15167
730.105	68.16771
730.534	82.19319
730.964	109.2743
731.393	112.2748
731.822	73.1883
732.251	61.1562
732.68	145.34512
733.109	75.18704
733.537	79.19372
733.966	78.1952
734.395	49.11501
734.823	42.09671
735.251	35.0851
735.68	108.27154
736.108	96.24465
736.536	70.16677
736.964	53.12562
737.392	14.03535
737.82	90.21664
738.247	19.0463
738.675	82.19454
739.102	42.10677
739.53	98.25256
739.957	72.18704
740.384	52.12796
740.811	32.08216
741.238	36.08862
741.665	59.14
742.092	49.11869
742.519	49.12415
742.945	45.11006
743.372	55.13727
743.798	85.21773
744.225	36.08758
744.651	68.1733
745.077	27.06824
745.503	50.12209
745.929	45.1092
746.355	91.22373
746.781	107.26839
747.207	77.18658
747.632	88.21966
748.058	57.14437
748.483	98.22764
748.908	67.16867
749.334	83.20647
749.759	46.11064
750.184	71.17256
750.609	50.12381
751.033	84.19898
751.458	73.16605
751.883	70.17423
752.307	65.15537
752.732	27.06911
753.156	57.14221
753.58	84.19898
754.005	70.17902
754.429	36.0858
754.853	55.13851
755.277	92.2202
755.7	91.22875
756.124	72.18109
756.548	34.08293
756.971	43.10525
757.394	-1.00259
757.818	61.15822
758.241	71.18168
758.664	60.15312
759.087	55.12688
759.51	42.10518
759.933	59.14506
760.356	-2.00515
760.778	8.01987
761.201	36.08839
761.623	110.26729
762.046	79.18876
762.468	63.15099
762.89	30.07413
763.312	47.11504
763.734	22.05366
764.156	55.13702
764.578	11.02551
765	33.08083
765.421	17.04429
765.843	57.14784
766.264	116.28134
766.686	92.23388
767.107	44.10808
767.528	50.12855
767.949	47.11997
768.37	27.06748
768.791	52.12721
769.212	55.14093
769.632	62.1489
770.053	80.2128
770.473	96.23763
770.894	14.0353
771.314	53.12659
771.734	58.13649
772.154	37.09541
772.575	48.11221
772.994	52.12027
773.414	90.21787
773.834	69.1755
774.254	46.11512
774.673	56.13776
775.093	80.20107
775.512	54.13489
775.931	60.15329
776.351	19.04768
776.77	64.15912
777.189	22.05318
777.607	61.15735
778.026	86.21607
778.445	91.2335
778.864	57.14652
779.282	43.10521
779.701	-5.01272
780.119	19.04892
780.537	72.18038
780.955	68.1744
781.373	47.1167
781.791	42.09571
782.209	25.05788
782.627	46.12204
783.045	52.12051
783.462	60.15613
783.88	42.10982
784.297	41.10436
784.715	128.33411
785.132	83.20255
785.549	-37.09375
785.966	33.08379
786.383	56.14024
786.8	63.1473
787.217	17.04115
787.633	28.07136
788.05	108.25454
788.466	0
788.883	70.18197
789.299	68.16511
789.715	74.1813
790.131	78.19428
790.547	20.05023
790.963	60.14885
791.379	33.08426
791.795	24.05582
792.21	32.07477
792.626	57.13666
793.041	73.18192
793.457	56.13898
793.872	15.03587
794.287	47.11538
794.702	19.04714
795.117	27.06792
795.532	18.04605
795.947	5.01207
796.362	24.05744
796.776	15.03511
797.191	79.1948
797.605	41.09942
798.02	-1.00247
798.434	29.06519
798.848	57.14195
799.262	6.01514
799.676	72.17469
800.09	66.16409
800.504	60.147
800.918	42.09849
801.331	24.06245
801.745	41.09665
802.158	12.03007
802.572	11.02681
802.985	51.12288
803.398	56.135
803.811	58.14713
804.224	48.11912
804.637	20.04838
805.05	11.02577
805.462	26.06401
805.875	73.19117
806.288	33.08149
806.7	14.03543
807.112	20.04622
807.525	26.06429
807.937	15.03809
808.349	74.18572
808.761	62.1546
809.173	61.15008
809.584	47.11619
809.996	8.01988
810.408	75.19587
810.819	71.1688
811.231	171.44534
811.642	198.46918
812.053	314.71114
812.464	274.60995
812.875	229.55736
813.286	146.36338
813.697	55.12445
814.108	56.13608
814.519	75.16839
814.929	96.24362
815.34	58.14162
815.75	76.19416
816.16	18.04492
816.571	54.1397
816.981	77.18299
817.391	86.20983
817.801	43.10829
818.211	-16.03802
818.62	33.07993
819.03	13.03206
819.44	73.18869
819.849	49.12375
820.259	57.14616
820.668	64.15947
821.077	65.16304
821.486	66.15905
821.895	71.17346
822.304	22.05827
822.713	72.17226
823.122	58.14572
823.531	84.20043
823.939	52.12815
824.348	56.13755
824.756	66.16552
825.164	64.16103
825.573	16.04043
825.981	60.1495
826.389	51.12714
826.797	34.08588
827.205	58.13574
827.612	65.15975
828.02	102.24301
828.428	81.20566
828.835	130.34268
829.243	46.10917
829.65	41.10251
830.057	60.14536
830.464	34.08327
830.871	66.15821
831.278	107.26092
831.685	50.11191
832.092	87.21168
832.499	32.07204
832.905	28.07078
833.312	44.10031
833.718	53.13208
834.124	25.05721
834.531	36.0909
834.937	56.14472
835.343	11.02671
835.749	69.16107
836.155	38.10068
836.561	70.1734
836.966	-4.00976
837.372	65.16609
837.777	-12.03011
838.183	7.01581
838.588	79.19802
838.993	80.19461
839.399	61.15069
839.804	26.06481
840.209	78.20025
840.613	60.13457
841.018	21.0533
841.423	80.20582
841.828	47.12022
842.232	63.15386
842.637	72.16943
843.041	15.039
843.445	18.04591
843.849	65.16128
844.253	61.14514
844.657	31.07868
845.061	7.01604
845.465	48.1179
845.869	17.0394
846.272	80.19883
846.676	8.01946
847.079	54.1381
847.483	119.29526
847.886	-11.02655
848.289	75.20178
848.692	4.01019
849.095	81.19487
849.498	24.05995
849.901	45.10443
850.304	79.18738
850.707	49.12503
851.109	23.0574
851.512	29.0719
851.914	52.13266
852.316	13.03301
852.718	-4.01039
853.121	84.20557
853.523	27.0634
853.925	11.02912
854.326	29.07379
854.728	18.04665
855.13	47.123
855.531	24.05819
855.933	50.11931
856.334	51.12848
856.736	83.18788
857.137	69.1624
857.538	75.18914
857.939	8.02003
858.34	-19.04649
858.741	40.10409
859.142	-8.01937
859.542	54.14316
859.943	22.05494
860.343	5.01262
860.744	30.07312
861.144	63.15415
861.544	44.10792
861.945	-10.02561
862.345	46.11307
862.745	38.09544
863.145	47.11174
863.544	49.12384
863.944	30.07049
864.344	37.09201
864.743	59.14538
865.143	87.22262
865.542	27.06303
865.941	25.06237
866.34	40.09548
866.74	22.05932
867.139	101.24464
867.537	-2.00508
867.936	3.00728
868.335	50.12634
868.734	23.05861
869.132	-2.00467
869.531	13.03141
869.929	75.17467
870.327	47.11371
870.726	54.13195
871.124	48.11203
871.522	32.0817
871.92	0
872.318	44.10796
872.715	-6.01486
873.113	44.10808
873.511	48.11999
873.908	50.12846
874.306	42.10526
874.703	-12.03024
875.1	39.09895
875.497	56.13546
875.894	63.15763
876.291	-16.03972
876.688	20.05169
877.085	31.07438
877.482	34.08567
877.878	-3.0073
878.275	51.13109
878.671	32.07106
879.068	-28.06737
879.464	15.03622
879.86	59.14016
880.256	24.05934
880.652	34.08735
881.048	22.05402
881.444	75.17886
881.84	70.17871
882.236	27.0677
882.631	-10.02459
883.027	13.03142
883.422	21.054
883.817	-5.01279
884.213	12.03108
884.608	18.045
885.003	23.05607
885.398	23.05819
885.793	34.08579
886.188	12.03052
886.582	12.03058
886.977	43.1014
887.371	40.10172
887.766	59.15023
888.16	0
888.554	-22.05428
888.949	-12.03014
889.343	30.07232
889.737	-27.07312
890.131	83.20902
890.525	48.12233
890.918	34.08598
891.312	15.03574
891.706	41.10799
892.099	73.1866
892.492	44.09478
892.886	63.15374
893.279	61.15658
893.672	0
894.065	50.12535
894.458	28.07068
894.851	15.03688
895.244	3.00771
895.637	40.09647
896.029	-2.00493
896.422	25.0614
896.814	33.08227
897.206	37.09019
897.599	64.15668
897.991	43.10513
898.383	8.01901
898.775	27.06119
899.167	-11.02615
899.559	19.04804
899.951	34.08026
900.342	23.05842
900.734	25.06363
901.125	20.05246
901.517	-19.0474
901.908	70.16754
902.299	14.03466
902.69	14.03321
903.082	46.11094
903.473	-2.00485
903.863	44.11237
904.254	57.13416
904.645	54.13215
905.036	67.16491
905.426	3.0068
905.817	45.11145
906.207	-3.00728
906.597	11.02618
906.987	51.13242
907.378	-10.0255
907.768	20.05272
908.158	20.04887
908.547	51.13256
908.937	12.03097
909.327	59.14334
909.717	17.04339
910.106	53.12813
910.495	39.09638
910.885	16.0406
911.274	2.00502
911.663	21.05285
912.052	28.06862
912.441	39.0999
912.83	19.04393
913.219	-24.06271
913.608	6.01471
913.997	40.1018
914.385	41.09793
914.774	25.06108
915.162	68.16313
915.55	29.06985
915.939	49.12459
916.327	36.09061
916.715	67.17192
917.103	1.00244
917.491	66.16224
917.878	39.09571
918.266	38.09895
918.654	60.15404
919.041	47.12438
919.429	38.09102
919.816	25.06323
920.203	33.08095
920.591	8.0199
920.978	43.10533
921.365	25.0658
921.752	56.13449
922.139	2.00436
922.525	22.05344
922.912	15.03665
923.299	21.05264
923.685	73.19162
924.072	0
924.458	18.04496
924.844	65.16199
925.231	-8.0188
925.617	49.12652
926.003	22.05593
926.389	-7.01779
926.774	58.14807
927.16	46.11312
927.546	23.05922
927.931	17.04252
928.317	32.07386
928.702	6.01405
929.088	32.07633
929.473	-12.03045
929.858	4.00988
930.243	40.0972
930.628	5.01218
931.013	-7.01738
931.398	41.09424
931.783	38.09909
932.167	38.09344
932.552	-11.02731
932.937	17.04181
933.321	25.06357
933.705	-21.05304
934.09	44.10999
934.474	63.14978
934.858	17.04417
935.242	44.10342
935.626	-20.05165
936.009	12.03196
936.393	19.04855
936.777	16.04138
937.16	33.08624
937.544	-2.0047
937.927	23.05867
938.311	-6.01466
938.694	14.03678
939.077	25.06085
939.46	8.01957
939.843	81.16874
940.226	-3.00772
940.609	29.06751
940.991	32.08218
941.374	21.05142
941.757	59.14511
942.139	29.06642
942.522	-13.03065
942.904	22.05358
943.286	39.09874
943.668	17.04414
944.05	71.17739
944.432	71.17662
944.814	-8.01967
945.196	-2.00497
945.578	34.08271
945.959	-19.04491
946.341	5.0121
946.722	-31.07381
947.104	17.04063
947.485	-19.04449
947.866	12.03077
948.247	12.03067
948.628	5.01226
949.009	34.08808
949.39	33.0823
949.771	74.16938
950.152	6.01484
950.532	-13.03284
950.913	-15.03611
951.293	47.12831
951.674	-14.03401
952.054	-31.07712
952.434	-19.04716
952.814	-9.02154
953.194	36.09384
953.574	61.15036
953.954	31.07489
954.334	32.08028
954.714	-31.077
955.093	29.0714
955.473	-1.00253
955.853	18.04668
956.232	-15.04087
956.611	14.03318
956.99	60.15145
957.37	25.06384
957.749	56.1348
958.128	14.03568
958.506	25.06516
958.885	40.10126
959.264	5.01239
959.643	32.07257
960.021	10.02493
960.4	-18.04062
960.778	25.06174
961.156	-18.04565
961.535	35.08199
961.913	35.08215
962.291	34.08851
962.669	-5.0128
963.047	28.07141
963.424	12.03066
963.802	36.08931
964.18	28.07007
964.557	-18.04115
964.935	35.08273
965.312	25.06562
965.69	52.12971
966.067	12.02964
966.444	61.15086
966.821	16.04136
967.198	33.0793
967.575	26.06368
967.952	36.08452
968.329	3.00728
968.705	-22.04768
969.082	21.05426
969.458	11.02684
969.835	25.06124
970.211	-13.03388
970.587	37.09221
970.963	41.10476
971.339	27.0708
971.715	-17.04241
972.091	1.00246
972.467	25.0628
972.843	-17.04244
973.219	3.00715
973.594	36.09506
973.97	33.07734
974.345	8.01918
974.721	74.1784
975.096	-9.02186
975.471	53.1262
975.846	-9.02166
976.221	32.08172
976.596	42.10037
976.971	9.02215
977.346	17.03964
977.72	6.0155
978.095	-17.04408
978.469	40.09621
978.844	6.01503
979.218	32.07814
979.593	37.08898
979.967	10.02433
980.341	13.03012
980.715	31.07804
981.089	-10.02523
981.463	25.05806
981.837	2.00496
982.21	16.03702
982.584	53.12871
982.957	33.08337
983.331	43.10223
983.704	4.00989
984.078	-27.06704
984.451	14.03469
984.824	10.02483
985.197	61.14959
985.57	49.12251
985.943	63.15432
986.316	13.0316
986.688	73.17649
987.061	17.04007
987.434	30.07817
987.806	31.07591
988.179	-3.00709
988.551	-31.07835
988.923	43.10568
989.295	80.20006
989.667	17.04161
990.039	34.08502
990.411	-35.08116
990.783	20.04596
991.155	-6.0146
991.527	51.12362
991.898	58.14577
992.27	34.08604
992.641	16.03972
993.012	-33.07682
993.384	10.02417
993.755	-22.05615
994.126	41.09912
994.497	8.02
994.868	50.11523
995.239	2.00488
995.61	30.07621
995.98	15.0367
996.351	25.06307
996.722	43.1016
997.092	0
997.462	12.02875
997.833	65.1562
998.203	48.11589
998.573	-14.03525
998.943	7.01654
999.313	-9.02182
999.683	56.13608
1000.053	25.05831
1000.423	11.0267
1000.792	29.07543
1001.162	86.21405
1001.531	-1.00246
1001.901	21.05251
1002.27	32.07162
1002.639	-4.0103
1003.009	22.05246
1003.378	56.14347
1003.747	16.03783
1004.116	21.05115
1004.485	56.13424
1004.853	29.0734
1005.222	38.09568
1005.591	35.08276
1005.959	80.18252
1006.328	76.17661
1006.696	-35.08513
1007.064	27.0679
1007.433	-34.08472
1007.801	45.11027
1008.169	51.12972
1008.537	67.14752
1008.905	64.1509
1009.273	15.03681
1009.64	34.08321
1010.008	-37.08814
1010.375	43.10274
1010.743	-17.0384
1011.11	-9.02153
1011.478	13.03237
1011.845	27.06424
1012.212	85.19397
1012.579	41.10143
1012.946	33.078
1013.313	58.13627
1013.68	25.05659
1014.047	51.1226
1014.414	38.09057
1014.78	42.10586
1015.147	2.00484
1015.513	-9.02188
1015.88	30.07691
1016.246	-31.07655
1016.612	54.124
1016.978	-55.13557
1017.344	-3.00739
1017.71	47.11371
1018.076	34.08001
1018.442	10.0254
1018.808	56.14176
1019.174	12.03031
1019.539	13.02907
1019.905	97.22946
1020.27	-2.00499
1020.636	23.05502
1021.001	48.1137
1021.366	7.01696
1021.731	42.10821
1022.096	41.1048
1022.461	75.17748
1022.826	35.08299
1023.191	37.09706
1023.556	51.12008
1023.92	24.05908
1024.285	-7.01701
1024.649	48.11808
1025.014	30.07434
1025.378	16.04057
1025.742	30.07546
1026.107	40.09071
1026.471	19.04397
1026.835	61.15252
1027.199	36.0882
1027.562	52.12227
1027.926	45.109
1028.29	0
1028.654	43.09939
1029.017	30.07407
1029.381	36.08672
1029.744	11.02813
1030.107	5.01188
1030.471	60.14377
1030.834	90.20675
1031.197	28.06691
1031.56	16.03781
1031.923	-2.00525
1032.286	19.04474
1032.648	-4.00945
1033.011	6.01388
1033.374	-19.0442
1033.736	54.14264
1034.099	49.11904
1034.461	28.07163
1034.823	79.1958
1035.185	22.05545
1035.548	35.08551
1035.91	-49.11712
1036.272	29.06645
1036.634	2.00487
1036.995	25.05902
1037.357	47.11619
1037.719	75.18071
1038.08	38.08932
1038.442	-13.03113
1038.803	9.02173
1039.165	39.09972
1039.526	31.0754
1039.887	63.15041
1040.248	16.03992
1040.609	23.05644
1040.97	15.03662
1041.331	40.10176
1041.692	65.15578
1042.053	27.06144
1042.413	4.0093
1042.774	12.02927
1043.134	11.02593
1043.495	21.05315
1043.855	-33.08002
1044.215	49.12118
1044.576	28.06817
1044.936	62.14248
1045.296	47.11726
1045.656	81.199
1046.016	72.17436
1046.375	33.08032
1046.735	37.08518
1047.095	82.19461
1047.454	27.05727
1047.814	60.14432
1048.173	23.05407
1048.533	33.07585
1048.892	-10.02442
1049.251	26.0646
1049.61	59.14661
1049.969	27.06355
1050.328	9.01948
1050.687	-4.00986
1051.046	12.02946
1051.405	20.05
1051.763	58.13446
1052.122	55.13831
1052.48	20.04913
1052.839	32.07633
1053.197	1.00237
1053.555	38.08561
1053.914	35.08592
1054.272	63.15156
1054.63	26.06422
1054.988	41.09834
1055.345	21.04593
1055.703	26.06266
1056.061	21.05415
1056.419	29.0761
1056.776	38.09178
1057.134	30.06994
1057.491	16.04024
1057.848	4.00999
1058.206	49.11605
1058.563	29.06498
1058.92	68.15665
1059.277	34.08358
1059.634	68.16076
1059.991	42.09976
1060.348	-9.02064
1060.704	21.05096
1061.061	45.10348
1061.418	69.16864
1061.774	-15.03726
1062.131	49.13209
1062.487	31.07311
1062.843	-23.05757
1063.199	46.11458
1063.555	54.12668
1063.911	4.01008
1064.267	26.0542
1064.623	32.07869
1064.979	44.10362
1065.335	17.04035
1065.691	26.06251
1066.046	51.11394
1066.402	44.10108
1066.757	28.07068
1067.112	58.14141
1067.468	20.04823
1067.823	64.15452
1068.178	49.11976
1068.533	11.02651
1068.888	6.01425
1069.243	11.02727
1069.598	48.11637
1069.952	43.09963
1070.307	40.0993
1070.662	18.04367
1071.016	14.03201
1071.371	-9.02075
1071.725	-11.0263
1072.079	-33.07936
1072.434	47.11508
1072.788	18.04302
1073.142	13.03199
1073.496	74.17813
1073.85	26.06078
1074.203	10.02438
1074.557	-1.00266
1074.911	24.05674
1075.265	35.08215
1075.618	18.04384
1075.971	44.10535
1076.325	39.09941
1076.678	60.14015
1077.031	66.1521
1077.385	28.06133
1077.738	49.11064
1078.091	62.14396
1078.444	65.14923
1078.796	40.09956
1079.149	20.04942
1079.502	76.18218
1079.855	-1.00234
1080.207	52.12626
1080.56	57.14876
1080.912	10.02424
1081.264	26.06313
1081.617	22.05456
1081.969	45.11385
1082.321	0
1082.673	24.05527
1083.025	-2.00475
1083.377	243.55472
1083.728	55.12869
1084.08	20.05027
1084.432	45.10961
1084.783	36.08468
1085.135	39.09888
1085.486	22.05135
1085.838	4.00994
1086.189	24.05849
1086.54	-19.0454
1086.891	61.15614
1087.242	30.07312
1087.593	-8.01952
1087.944	23.05223
1088.295	50.11279
1088.646	47.11466
1088.996	25.06096
1089.347	63.1538
1089.698	-6.01441
1090.048	41.10653
1090.398	36.08435
1090.749	-15.03613
1091.099	-12.03048
1091.449	44.11047
1091.799	38.09523
1092.149	1.0025
1092.499	17.0415
1092.849	40.10208
1093.199	48.11912
1093.548	29.07104
1093.898	29.07337
1094.248	47.12073
1094.597	34.08845
1094.947	-18.04801
1095.296	39.09656
1095.645	-2.00518
1095.994	23.05546
1096.343	1.00253
1096.692	29.07687
1097.041	42.11435
1097.39	70.17486
1097.739	21.05458
1098.088	5.0132
1098.437	23.06143
1098.785	22.05916
1099.134	-23.06064
1099.482	19.05207
1099.83	6.01569
1100.179	-6.01582
1100.527	54.14431
1100.875	51.13564
1101.223	8.02128
1101.571	-19.05253
1101.919	-26.06914
1102.267	45.12745
1102.615	13.04175
1102.962	22.07067
1103.31	16.05144
1103.658	16.05139
