Data from N2 R4 sample 2_Subt2__5__19-18-38-975.txt Node

Date: Wed Aug 27 19:18:38 PDT 2025
User: uwsun
Spectrometer: HDX01956
Trigger mode: 0
Integration Time (sec): 5.000000E-1
Scans to average: 1
Nonlinearity correction enabled: true
Boxcar width: 0
Storing dark spectrum: false
XAxis mode: Wavelengths
Number of Pixels in Spectrum: 2068
>>>>>Begin Spectral Data<<<<<
194.03	413.1292
194.578	426.31679
195.127	409.24873
195.676	398.22034
196.225	424.0832
196.773	467.23452
197.321	649.66247
197.87	883.01147
198.418	922.11005
198.966	909.10968
199.513	880.97792
200.061	894.03614
200.609	868.03776
201.156	882.71459
201.704	913.06152
202.251	929.17048
202.798	938.17829
203.345	931.02634
203.892	918.03545
204.438	931.95791
204.985	873.84954
205.532	884.07213
206.078	992.12785
206.624	965.09511
207.17	975.96882
207.716	977.10147
208.262	905.54772
208.808	1000.15787
209.354	990.11447
209.899	924.04707
210.445	955.08213
210.99	897.92104
211.535	957.96505
212.08	954.95317
212.625	965.10307
213.17	918.02368
213.715	924.82445
214.259	954.92418
214.804	982.11179
215.348	961.91043
215.892	963.00321
216.436	937.8808
216.98	1002.90119
217.524	873.82542
218.068	923.01568
218.612	951.10128
219.155	883.83414
219.698	846.78023
220.242	834.83552
220.785	876.80224
221.328	865.91606
221.871	818.81982
222.414	843.87583
222.956	774.68847
223.499	798.61218
224.041	837.75472
224.583	855.60333
225.126	858.68448
225.668	877.89996
226.21	762.73361
226.751	846.65621
227.293	874.7522
227.835	767.68483
228.376	869.77942
228.918	846.89453
229.459	852.90328
230	764.62304
230.541	825.7075
231.082	853.84795
231.622	871.80037
232.163	849.8385
232.704	905.9864
233.244	763.68515
233.784	813.76201
234.324	835.63503
234.864	833.67721
235.404	796.67714
235.944	781.65307
236.484	798.76432
237.023	889.85726
237.563	922.86128
238.102	797.65243
238.641	841.88063
239.18	826.73126
239.719	918.02452
240.258	829.6485
240.797	859.83884
241.335	839.81761
241.874	840.43126
242.412	872.8422
242.95	867.85437
243.488	884.79346
244.026	777.60591
244.564	861.53858
245.102	910.81019
245.64	888.88419
246.177	873.70874
246.715	890.8573
247.252	885.76734
247.789	850.35301
248.326	870.8724
248.863	875.69008
249.4	861.69554
249.936	942.69276
250.473	875.80058
251.009	893.81297
251.546	935.81562
252.082	876.66013
252.618	943.83812
253.154	876.85549
253.69	921.8164
254.226	802.68018
254.761	879.73995
255.297	904.75076
255.832	874.80457
256.367	926.91883
256.903	912.75115
257.438	850.74165
257.972	912.79569
258.507	922.87232
259.042	902.67627
259.576	852.63027
260.111	922.84683
260.645	912.69489
261.179	932.87719
261.713	907.76451
262.247	934.86918
262.781	888.60855
263.315	957.01534
263.849	972.1072
264.382	948.86578
264.915	1046.10836
265.449	948.03163
265.982	1007.94451
266.515	991.07703
267.048	936.68109
267.58	942.74989
268.113	1016.87177
268.646	984.10164
269.178	994.93355
269.71	921.70614
270.243	1003.946
270.775	998.19379
271.307	1013.06083
271.838	960.94337
272.37	958.03109
272.902	1016.96705
273.433	987.84499
273.965	953.00253
274.496	963.04834
275.027	1000.14228
275.558	1005.09071
276.089	963.07751
276.62	1027.22042
277.15	1053.20037
277.681	963.79385
278.211	1005.11102
278.741	966.84522
279.272	974.91791
279.802	1073.2747
280.332	1074.15207
280.861	1068.16947
281.391	1029.98516
281.921	1023.06522
282.45	1048.23655
282.98	1037.30849
283.509	1001.93106
284.038	998.93859
284.567	1028.00586
285.096	973.0151
285.625	979.88135
286.153	1030.05523
286.682	1092.11598
287.21	1061.15279
287.739	1116.19846
288.267	1091.22478
288.795	1095.43362
289.323	1095.14343
289.851	1104.13016
290.378	1085.06502
290.906	1127.31277
291.433	1114.31724
291.961	1124.13686
292.488	1083.23927
293.015	1133.20965
293.542	1167.46663
294.069	1158.38125
294.596	1105.2767
295.122	1146.26293
295.649	1113.00926
296.175	1137.3041
296.702	1174.33233
297.228	1200.37086
297.754	1165.1376
298.28	1189.21554
298.806	1117.2071
299.332	1214.20504
299.857	1128.09793
300.383	1176.42909
300.908	1167.38211
301.433	1191.36234
301.958	1203.29462
302.483	1182.45883
303.008	1176.34171
303.533	1308.75699
304.058	1201.27208
304.582	1267.44486
305.107	1185.56651
305.631	1241.25823
306.155	1334.47379
306.679	1312.45206
307.203	1361.47494
307.727	1299.48772
308.251	1288.50965
308.775	1249.39517
309.298	1290.50174
309.822	1317.64524
310.345	1400.55699
310.868	1389.57549
311.391	1340.57072
311.914	1399.78073
312.437	1362.37809
312.96	1373.5194
313.482	1400.57359
314.005	1461.86678
314.527	1395.87859
315.049	1435.79864
315.571	1448.45281
316.093	1505.82013
316.615	1438.64764
317.137	1516.42642
317.659	1503.70551
318.18	1501.71009
318.702	1605.77649
319.223	1523.28145
319.744	1542.57266
320.265	1563.82396
320.786	1650.01449
321.307	1636.01106
321.828	1570.57297
322.348	1599.71975
322.869	1705.90907
323.389	1681.88107
323.909	1717.79678
324.43	1729.90669
324.95	1714.77876
325.47	1788.11129
325.989	1759.8927
326.509	1791.74569
327.029	1854.84443
327.548	1840.79812
328.067	1939.17548
328.587	1867.12819
329.106	1940.98005
329.625	1858.37141
330.144	1776.79764
330.662	1986.02475
331.181	1922.9537
331.7	2006.0114
332.218	2043.75995
332.736	2010.98622
333.255	2083.08607
333.773	2055.07092
334.291	2113.29915
334.808	2102.86456
335.326	2149.94991
335.844	2301.18215
336.361	2271.53637
336.879	2263.2027
337.396	2313.29954
337.913	2413.22985
338.43	2413.00962
338.947	2413.30245
339.464	2462.88819
339.981	2410.26192
340.497	2495.46154
341.014	2505.44142
341.53	2472.0395
342.046	2533.42481
342.562	2594.48947
343.078	2602.25559
343.594	2620.34559
344.11	2681.26842
344.626	2764.60414
345.141	2719.04008
345.657	2830.94434
346.172	2891.41335
346.687	2873.14787
347.202	2922.07472
347.717	2971.29333
348.232	3003.6221
348.747	2938.14289
349.261	2965.8744
349.776	2967.26682
350.29	3078.55388
350.805	3106.55348
351.319	3070.15967
351.833	3119.08809
352.347	3114.21475
352.861	3172.20569
353.374	3149.02472
353.888	3145.21646
354.401	3229.10649
354.915	3273.06793
355.428	3350.47402
355.941	3380.06991
356.454	3390.77466
356.967	3354.11481
357.48	3387.92606
357.993	3423.34363
358.505	3491.34961
359.018	3599.32392
359.53	3607.07687
360.042	3613.68918
360.554	3603.09973
361.066	3690.25754
361.578	3615.57384
362.09	3664.06871
362.602	3631.56752
363.113	3752.84842
363.625	3877.5734
364.136	3758.53567
364.647	3858.79644
365.158	3965.78496
365.669	4061.93783
366.18	3915.81844
366.691	3885.44913
367.201	3976.84964
367.712	4071.62377
368.222	4078.50436
368.733	4043.24609
369.243	4224.28351
369.753	4324.37602
370.263	4488.6574
370.773	4428.92456
371.282	4512.49102
371.792	4623.24663
372.301	4717.53016
372.811	4719.96586
373.32	4779.73885
373.829	4914.07317
374.338	5228.58794
374.847	5298.7053
375.356	5356.79043
375.865	5664.06265
376.373	5891.22602
376.882	5987.81028
377.39	6065.48572
377.898	6367.5595
378.407	6519.08604
378.915	6867.81042
379.423	7146.19984
379.93	7327.11998
380.438	7635.53059
380.946	8062.7994
381.453	8456.38132
381.96	8733.82715
382.468	9322.16679
382.975	10027.25212
383.482	10269.37442
383.989	10357.26567
384.495	10775.54736
385.002	11267.90736
385.509	12160.60915
386.015	12744.885
386.521	13310.45659
387.028	13987.64282
387.534	14298.87244
388.04	14955.00889
388.546	15286.96202
389.051	15947.66907
389.557	17157.72012
390.063	18772.33849
390.568	19592.56777
391.073	19974.16056
391.578	20705.87036
392.084	21292.66081
392.589	21992.5696
393.093	23565.58493
393.598	25798.32133
394.103	28140.81635
394.607	30771.12424
395.112	33359.1808
395.616	35423.95504
396.12	38318.55249
396.624	42474.25061
397.128	46314.7998
397.632	51067.44235
398.136	55362.18734
398.639	58250.82824
399.143	58919.41042
399.646	59162.71799
400.15	58613.02828
400.653	57879.39077
401.156	57173.58385
401.659	56177.40201
402.162	53821.55638
402.664	47275.14456
403.167	32260.27245
403.67	3851.94142
404.172	0
404.674	0
405.176	0
405.678	0
406.18	0
406.682	0
407.184	0
407.686	12367.42319
408.187	34596.90747
408.688	44563.94194
409.19	48906.19284
409.691	51236.67962
410.192	52883.26968
410.693	53713.23343
411.194	54189.54801
411.694	54767.79104
412.195	55625.98899
412.696	55971.27715
413.196	55815.15953
413.696	55802.1488
414.196	55740.09561
414.696	56340.4775
415.196	57067.59327
415.696	58258.21704
416.196	59666.45207
416.695	60284.20726
417.195	60024.94621
417.694	56487.46691
418.194	53626.57357
418.693	49706.34118
419.192	48144.29174
419.691	47525.75308
420.19	46299.902
420.688	44991.15571
421.187	43349.68268
421.685	40477.08998
422.184	37001.95828
422.682	32305.06994
423.18	27542.24081
423.678	24521.74775
424.176	22819.29059
424.674	21451.80271
425.172	20434.61164
425.669	19375.23229
426.167	17686.78884
426.664	16226.20023
427.161	14946.78975
427.659	13924.25778
428.156	12954.00542
428.652	12197.81819
429.149	11598.63591
429.646	11214.07808
430.143	10777.35602
430.639	10043.41634
431.135	9502.56712
431.632	8947.2677
432.128	8286.0759
432.624	7907.84055
433.12	7624.26563
433.616	7425.041
434.111	7107.20203
434.607	6873.15213
435.103	6813.69637
435.598	6452.50985
436.093	6269.07114
436.588	5913.93982
437.083	5608.21406
437.578	5318.23221
438.073	5177.06266
438.568	4938.01745
439.062	4769.36849
439.557	4542.00646
440.051	4512.93061
440.546	4399.04886
441.04	4324.37045
441.534	4151.73854
442.028	4184.37588
442.522	4043.51625
443.015	3915.13489
443.509	3946.76587
444.002	3792.79426
444.496	3688.16959
444.989	3673.81717
445.482	3681.9377
445.975	3649.46963
446.468	3640.26665
446.961	3491.12679
447.454	3450.60365
447.947	3408.74388
448.439	3444.8997
448.931	3293.47611
449.424	3267.14792
449.916	3272.93408
450.408	3233.53726
450.9	3131.89995
451.392	3112.19264
451.884	3009.70954
452.375	2945.11182
452.867	2955.5563
453.358	2904.68185
453.849	2818.41984
454.341	2779.58799
454.832	2807.46269
455.323	2802.09032
455.814	2736.73693
456.304	2771.77175
456.795	2707.80042
457.285	2619.59228
457.776	2626.65166
458.266	2616.97687
458.756	2548.0391
459.247	2589.99261
459.737	2456.03758
460.226	2418.70888
460.716	2351.93935
461.206	2284.9606
461.695	2323.18338
462.185	2277.90735
462.674	2282.77125
463.163	2159.62445
463.653	2186.43107
464.142	2121.92891
464.63	2119.95006
465.119	2079.74682
465.608	2066.76941
466.096	2059.56903
466.585	2028.74358
467.073	1949.81586
467.561	1897.80966
468.05	1966.73487
468.538	1905.90267
469.026	1873.75863
469.513	1845.32813
470.001	1911.75994
470.489	1863.85429
470.976	1719.5239
471.463	1717.83381
471.951	1684.78114
472.438	1629.57753
472.925	1658.64693
473.412	1554.62513
473.899	1552.43296
474.385	1548.65976
474.872	1493.43168
475.359	1457.57992
475.845	1504.15432
476.331	1408.18
476.817	1385.4405
477.303	1332.27215
477.789	1396.44664
478.275	1264.37597
478.761	1321.38987
479.247	1235.05254
479.732	1205.32717
480.218	1222.43122
480.703	1193.27987
481.188	1140.84684
481.673	1201.09631
482.158	1190.97794
482.643	1145.28881
483.128	1162.08157
483.612	1113.03883
484.097	1087.11476
484.581	973.80625
485.066	1034.03471
485.55	958.70839
486.034	991.73787
486.518	954.80645
487.002	1000.03571
487.486	927.88547
487.969	940.89418
488.453	912.8982
488.936	884.66148
489.42	933.70354
489.903	843.77508
490.386	908.20224
490.869	848.53516
491.352	793.62512
491.835	826.42776
492.318	882.68127
492.8	879.54581
493.283	774.68705
493.765	757.61409
494.247	790.57049
494.73	697.32842
495.212	709.46326
495.694	751.52093
496.175	698.45309
496.657	721.47608
497.139	640.97899
497.62	680.43001
498.102	709.55995
498.583	674.49373
499.064	582.14785
499.545	625.26659
500.026	606.21711
500.507	633.30797
500.988	635.39992
501.469	608.3652
501.949	582.27357
502.43	609.30215
502.91	593.10524
503.39	579.29443
503.87	614.29048
504.35	535.13236
504.83	587.15692
505.31	522.14643
505.79	545.18773
506.269	549.1519
506.749	537.11081
507.228	528.12653
507.707	584.15019
508.187	579.23044
508.666	433.9748
509.145	491.04995
509.623	578.23125
510.102	530.16256
510.581	541.16055
511.059	515.18424
511.538	493.15342
512.016	556.21353
512.494	524.16962
512.972	519.10945
513.45	468.00564
513.928	526.16636
514.406	507.13512
514.884	458.08498
515.361	482.042
515.839	513.06819
516.316	532.16646
516.793	467.08694
517.27	481.06133
517.747	522.2297
518.224	445.94469
518.701	456.93912
519.178	441.00816
519.654	470.01905
520.131	424.97151
520.607	473.06713
521.083	461.97396
521.56	429.93334
522.036	465.93849
522.512	470.0489
522.987	495.07723
523.463	428.94678
523.939	467.03769
524.414	474.005
524.89	516.12372
525.365	427.88791
525.84	460.00919
526.315	440.98386
526.79	429.88849
527.265	493.03603
527.74	444.9928
528.215	450.00088
528.689	423.86822
529.164	448.90521
529.638	472.11347
530.112	384.85053
530.587	456.9142
531.061	451.01036
531.534	491.09518
532.008	434.97565
532.482	407.85989
532.956	415.98
533.429	432.9608
533.903	385.78881
534.376	425.88375
534.849	377.80942
535.322	463.00576
535.795	421.94701
536.268	379.85745
536.741	372.8291
537.213	374.80662
537.686	404.91455
538.158	408.86068
538.631	334.75366
539.103	450.94302
539.575	389.75193
540.047	418.86087
540.519	399.87877
540.991	429.95868
541.463	377.85049
541.934	319.6852
542.406	369.81612
542.877	388.80592
543.348	348.7647
543.82	394.89228
544.291	366.78699
544.762	403.89093
545.233	406.93923
545.703	372.77131
546.174	417.89876
546.645	444.98421
547.115	490.0819
547.585	414.86912
548.056	439.97009
548.526	505.07807
548.996	491.06489
549.466	546.18513
549.935	544.16424
550.405	541.0651
550.875	504.07849
551.344	511.1008
551.814	582.19142
552.283	467.91656
552.752	522.08141
553.221	545.06241
553.69	553.08212
554.159	603.31709
554.628	594.18748
555.096	608.35962
555.565	630.25782
556.033	576.20146
556.502	581.25881
556.97	426.85839
557.438	445.95992
557.906	424.92501
558.374	418.88719
558.842	353.79148
559.31	373.78288
559.777	388.87477
560.245	296.64771
560.712	317.68765
561.18	355.73952
561.647	315.66057
562.114	367.7978
562.581	300.68772
563.048	353.76313
563.514	336.77579
563.981	333.71866
564.448	363.75685
564.914	303.65785
565.381	337.71326
565.847	295.64812
566.313	347.76362
566.779	295.63802
567.245	273.59903
567.711	279.63664
568.176	326.68319
568.642	264.62482
569.108	297.68644
569.573	308.67511
570.038	334.65846
570.504	328.69284
570.969	263.61101
571.434	282.58026
571.899	313.69806
572.363	266.56879
572.828	299.63007
573.293	413.87448
573.757	331.70393
574.222	376.78065
574.686	282.59882
575.15	336.74609
575.614	326.69888
576.078	342.73729
576.542	274.58209
577.006	344.71357
577.469	276.62026
577.933	280.5925
578.396	281.62151
578.86	300.65702
579.323	280.63002
579.786	291.58435
580.249	246.52921
580.712	255.57883
581.175	332.7577
581.637	299.63367
582.1	249.5037
582.563	293.58483
583.025	261.59317
583.487	317.60511
583.95	295.59867
584.412	320.61721
584.874	322.7257
585.336	335.73505
585.797	288.58086
586.259	306.66761
586.721	287.63187
587.182	279.60162
587.643	247.52004
588.105	268.58149
588.566	208.40832
589.027	260.58359
589.488	246.52033
589.949	311.69274
590.41	275.50762
590.87	246.51121
591.331	295.58828
591.791	265.56996
592.252	248.52593
592.712	245.53918
593.172	238.50054
593.632	230.46004
594.092	263.54056
594.552	245.48289
595.011	256.54788
595.471	229.47811
595.931	227.46973
596.39	285.63562
596.849	266.57272
597.308	179.35695
597.768	311.73305
598.227	224.49824
598.685	219.46474
599.144	297.64345
599.603	279.60884
600.062	329.64266
600.52	237.49481
600.978	274.60236
601.437	224.4767
601.895	245.47675
602.353	235.47931
602.811	257.53418
603.269	236.51992
603.727	300.65951
604.184	247.52141
604.642	246.55285
605.099	331.70975
605.557	293.65346
606.014	195.39591
606.471	253.58755
606.928	255.50922
607.385	362.80415
607.842	466.9554
608.299	410.85769
608.755	400.85861
609.212	370.75276
609.668	301.61475
610.125	369.79566
610.581	388.80843
611.037	311.64123
611.493	309.66316
611.949	249.55258
612.405	282.53869
612.861	226.48891
613.316	268.59858
613.772	213.45161
614.227	189.41228
614.683	270.53379
615.138	272.59168
615.593	288.62515
616.048	278.59084
616.503	227.50837
616.958	236.54471
617.412	234.51681
617.867	214.45245
618.321	278.54368
618.776	209.43345
619.23	217.47556
619.684	264.55986
620.138	207.44119
620.592	228.51261
621.046	197.42918
621.5	240.546
621.954	219.46089
622.407	198.41532
622.861	213.48899
623.314	230.48883
623.768	196.43144
624.221	120.22945
624.674	162.35406
625.127	191.41929
625.58	115.24713
626.033	174.35917
626.485	199.45465
626.938	112.25388
627.39	157.35031
627.843	133.29271
628.295	121.26686
628.747	208.46822
629.199	123.26911
629.651	145.32045
630.103	193.42225
630.555	163.33805
631.006	84.19118
631.458	140.32096
631.909	94.20779
632.361	125.28364
632.812	97.21957
633.263	65.13746
633.714	158.33186
634.165	39.09183
634.616	94.21663
635.067	91.19429
635.518	101.23345
635.968	71.14073
636.419	120.25327
636.869	41.09443
637.319	136.31354
637.769	45.09937
638.219	114.2646
638.669	31.07288
639.119	44.1039
639.569	92.21725
640.019	31.07029
640.468	81.17834
640.918	33.07737
641.367	76.16933
641.816	52.11331
642.265	68.1532
642.714	64.14519
643.163	51.11535
643.612	69.1643
644.061	25.05285
644.51	87.19565
644.958	50.11043
645.406	52.12294
645.855	104.25195
646.303	122.27868
646.751	61.13813
647.199	71.15823
647.647	73.16538
648.095	107.24102
648.543	120.24603
648.99	94.22206
649.438	63.14377
649.885	47.11359
650.333	144.27747
650.78	100.23815
651.227	87.20946
651.674	115.2602
652.121	117.28019
652.568	102.24525
653.015	108.26802
653.461	66.15531
653.908	63.14487
654.354	124.291
654.801	106.25041
655.247	54.11717
655.693	71.18117
656.139	130.31079
656.585	111.2643
657.031	122.28586
657.477	108.23514
657.922	105.24222
658.368	141.34409
658.813	99.22828
659.259	96.22889
659.704	59.13822
660.149	133.30803
660.594	86.20387
661.039	43.0984
661.484	91.21526
661.929	76.17661
662.373	58.14724
662.818	93.22907
663.262	65.15697
663.707	88.2207
664.151	43.10443
664.595	127.3075
665.039	97.23866
665.483	96.24543
665.927	89.20686
666.371	38.09074
666.814	104.24797
667.258	87.20739
667.701	73.15884
668.145	96.23763
668.588	99.2425
669.031	89.21192
669.474	57.13817
669.917	105.23167
670.36	68.16912
670.803	126.30261
671.245	101.21864
671.688	49.11931
672.13	115.26359
672.573	105.26385
673.015	77.18553
673.457	68.15195
673.899	78.18925
674.341	59.14312
674.783	93.22484
675.225	93.23059
675.666	79.19315
676.108	28.06151
676.549	96.22661
676.991	94.21109
677.432	147.30664
677.873	99.23083
678.314	100.23943
678.755	81.19995
679.196	154.35786
679.637	95.23313
680.078	100.23605
680.518	111.2584
680.959	38.09126
681.399	83.20647
681.839	95.23253
682.28	75.18779
682.72	109.25475
683.16	107.26791
683.6	74.17006
684.039	50.10655
684.479	55.13677
684.919	133.31364
685.358	102.2571
685.798	139.3661
686.237	82.19948
686.676	85.19569
687.115	104.24616
687.554	100.24053
687.993	96.21549
688.432	80.18576
688.871	111.25585
689.309	106.25631
689.748	92.19715
690.186	115.27603
690.625	148.34962
691.063	123.2986
691.501	129.32043
691.939	140.35211
692.377	147.36113
692.815	106.2567
693.253	93.22407
693.69	120.26759
694.128	149.36442
694.565	123.29456
695.003	124.31355
695.44	160.37943
695.877	121.28678
696.314	162.34986
696.751	139.31502
697.188	113.26015
697.625	151.34207
698.061	160.38645
698.498	145.35042
698.934	121.29242
699.371	123.29231
699.807	161.38099
700.243	97.23415
700.679	177.39918
701.115	115.26771
701.551	118.27778
701.987	154.3478
702.422	170.40423
702.858	159.38004
703.294	106.23891
703.729	167.40449
704.164	138.33029
704.599	114.25589
705.035	103.23419
705.47	112.27184
705.904	197.46004
706.339	134.31114
706.774	180.42224
707.209	148.34582
707.643	173.41255
708.078	178.42764
708.512	160.39909
708.946	151.35843
709.38	177.41837
709.814	219.50095
710.248	241.57909
710.682	203.48074
711.116	210.50509
711.549	259.65731
711.983	181.41852
712.416	228.53023
712.85	234.57431
713.283	204.47479
713.716	208.50786
714.149	167.39274
714.582	197.44282
715.015	263.63698
715.448	197.49021
715.881	190.40382
716.313	199.4541
716.746	222.51709
717.178	238.56395
717.61	254.62477
718.043	284.6846
718.475	238.56242
718.907	243.59209
719.339	237.53557
719.77	217.50873
720.202	262.64706
720.634	286.68133
721.065	264.6166
721.497	285.6822
721.928	303.72555
722.359	277.66103
722.79	332.77356
723.221	269.65445
723.652	317.78013
724.083	331.72903
724.514	295.65384
724.945	296.67665
725.375	298.68368
725.806	286.68002
726.236	320.78068
726.666	351.80412
727.096	346.82328
727.526	348.85181
727.956	361.79843
728.386	355.8429
728.816	433.05615
729.246	353.82523
729.675	323.76517
730.105	358.84691
730.534	366.82214
730.964	376.90219
731.393	419.9714
731.822	397.95056
732.251	447.07129
732.68	423.93006
733.109	507.17741
733.537	439.00237
733.966	429.00305
734.395	504.08221
734.823	481.00988
735.251	526.17264
735.68	529.21793
736.108	554.29658
736.536	513.13583
736.964	522.12286
737.392	547.26143
737.82	511.11446
738.247	618.35188
738.675	564.21231
739.102	593.37414
739.53	540.26674
739.957	598.39749
740.384	630.39033
740.811	631.4438
741.238	623.37
741.665	670.39164
742.092	703.48913
742.519	685.53857
742.945	725.54112
743.372	739.62533
743.798	765.74079
744.225	765.61283
744.651	770.70098
745.077	757.66494
745.503	836.78227
745.929	833.73558
746.355	765.61424
746.781	854.82852
747.207	821.67347
747.632	871.84369
748.058	892.88694
748.483	950.85572
748.908	908.92832
749.334	986.04796
749.759	973.94686
750.184	988.96644
750.609	1024.06489
751.033	973.8716
751.458	1058.90951
751.883	1011.04931
752.307	1110.14584
752.732	1154.38466
753.156	1091.22578
753.58	1127.14413
754.005	1148.34802
754.429	1187.22703
754.853	1233.4537
755.277	1176.19178
755.7	1201.37009
756.124	1272.48774
756.548	1277.38587
756.971	1308.48764
757.394	1293.61947
757.818	1366.73191
758.241	1350.66282
758.664	1440.80643
759.087	1436.39203
759.51	1440.68811
759.933	1459.59543
760.356	1474.81767
760.778	1533.85182
761.201	1573.78782
761.623	1513.70433
762.046	1557.62389
762.468	1597.73365
762.89	1656.85405
763.312	1607.79161
763.734	1661.83796
764.156	1653.93488
764.578	1682.65699
765	1692.94405
765.421	1700.18337
765.843	1732.23883
766.264	1735.84975
766.686	1717.0109
767.107	1749.9721
767.528	1770.17244
767.949	1723.0651
768.37	1785.05214
768.791	1767.94409
769.212	1737.1373
769.632	1721.79408
770.053	1796.34113
770.473	1802.99889
770.894	1839.08247
771.314	1779.84139
771.734	1799.85761
772.154	1911.33135
772.575	1842.80775
772.994	1796.73987
773.414	1883.98763
773.834	1759.00415
774.254	1935.17923
774.673	1828.99992
775.093	1816.04927
775.512	1853.14777
775.931	1844.22942
776.351	1865.1382
776.77	1877.14343
777.189	1799.91396
777.607	1772.12962
778.026	1807.06894
778.445	1679.97066
778.864	1751.11364
779.282	1721.91174
779.701	1808.14636
780.119	1748.11697
780.537	1755.08592
780.955	1780.14224
781.373	1650.89291
781.791	1643.5543
782.209	1629.56877
782.627	1651.143
783.045	1667.66668
783.462	1564.91752
783.88	1577.03181
784.297	1602.95952
784.715	1563.98183
785.132	1500.66394
785.549	1508.82783
785.966	1495.78498
786.383	1500.72807
786.8	1438.42013
787.217	1440.52938
787.633	1377.67272
788.05	1389.40968
788.466	1376.43522
788.883	1341.64565
789.299	1316.42587
789.715	1333.51641
790.131	1306.53642
790.547	1179.31902
790.963	1314.53275
791.379	1217.43409
791.795	1203.1086
792.21	1216.23873
792.626	1135.1344
793.041	1168.31289
793.457	1066.14581
793.872	1107.07449
794.287	1086.1602
794.702	1013.0422
795.117	1057.19127
795.532	996.08615
795.947	1016.00108
796.362	941.84202
796.776	962.82605
797.191	975.01477
797.605	903.81831
798.02	918.90478
798.434	886.64648
798.848	838.78885
799.262	841.81576
799.676	825.71434
800.09	745.58367
800.504	763.62197
800.918	740.50785
801.331	732.67673
801.745	647.30527
802.158	673.50666
802.572	636.35673
802.985	706.50427
803.398	630.34972
803.811	596.36774
804.224	608.35571
804.637	551.19829
805.05	594.24674
805.462	599.34415
805.875	532.28185
806.288	523.15079
806.7	493.14576
807.112	525.11455
807.525	444.01523
807.937	412.96217
808.349	435.00597
808.761	432.98189
809.173	450.01659
809.584	411.93625
809.996	424.98396
810.408	437.06315
810.819	431.96315
811.231	449.10824
811.642	552.24185
812.053	545.2068
812.464	589.27779
812.875	528.24867
813.286	385.93132
813.697	339.73036
814.108	326.753
814.519	348.728
814.929	303.72997
815.34	289.6714
815.75	306.74625
816.16	287.68489
816.571	276.6946
816.981	229.51728
817.391	294.6845
817.801	219.53083
818.211	215.49575
818.62	271.6358
819.03	247.58809
819.44	223.56275
819.849	243.59628
820.259	206.50877
820.668	199.48054
821.077	209.51248
821.486	216.51024
821.895	167.40114
822.304	162.42039
822.713	152.35461
823.122	162.39555
823.531	175.40417
823.939	184.44038
824.348	179.42637
824.756	174.42706
825.164	175.42785
825.573	160.39677
825.981	131.31647
826.389	164.4058
826.797	156.38953
827.205	147.33815
827.612	123.29882
828.02	145.34048
828.428	121.30395
828.835	136.35232
829.243	149.34864
829.65	121.29836
830.057	65.15661
830.464	106.25583
830.871	61.1448
831.278	92.22146
831.685	118.2628
832.092	97.23725
832.499	67.14795
832.905	85.21367
833.312	90.20484
833.718	68.1682
834.124	46.10504
834.531	67.16855
834.937	94.23905
835.343	62.15015
835.749	86.19945
836.155	96.25075
836.561	56.1371
836.966	82.19895
837.372	109.27646
837.777	35.0877
838.183	108.24023
838.588	49.12265
838.993	45.10863
839.399	80.19839
839.804	26.06445
840.209	55.14098
840.613	67.15024
841.018	60.1521
841.423	68.17397
841.828	54.13645
842.232	58.14247
842.637	41.09744
843.041	45.11612
843.445	92.23031
843.849	53.13194
844.253	33.07867
844.657	43.10949
845.061	42.09567
845.465	72.1762
845.869	68.15871
846.272	43.1063
846.676	-24.05771
847.079	77.19696
847.483	43.10666
847.886	80.19315
848.289	40.10732
848.692	28.07085
849.095	98.23438
849.498	50.12504
849.901	24.05564
850.304	13.03113
850.707	78.19724
851.109	-1.00252
851.512	62.1542
851.914	34.0882
852.316	66.16707
852.718	55.14589
853.121	41.10199
853.523	133.31583
853.925	47.12375
854.326	43.10883
854.728	9.02341
855.13	6.01563
855.531	44.10736
855.933	53.1278
856.334	33.08278
856.736	38.08806
857.137	68.15977
857.538	52.13262
857.939	40.10079
858.34	50.12222
858.741	34.08923
859.142	-8.01941
859.542	39.10324
859.943	66.166
860.343	30.07591
860.744	38.09289
861.144	32.07854
861.544	50.12313
861.945	17.04387
862.345	2.00494
862.745	-10.02506
863.145	32.07612
863.544	31.07888
863.944	36.08669
864.344	27.0669
864.743	36.08895
865.143	56.14503
865.542	30.07087
865.941	19.04721
866.34	27.06456
866.74	32.08594
867.139	20.04842
867.537	33.08447
867.936	1.00244
868.335	0
868.734	36.09265
869.132	-14.03311
869.531	-24.05784
869.929	30.07029
870.327	49.11936
870.726	1.00249
871.124	7.0164
871.522	9.023
871.92	30.0747
872.318	22.0538
872.715	6.01477
873.113	-4.0099
873.511	-63.15752
873.908	-9.02304
874.306	33.08322
874.703	4.01008
875.1	-2.00511
875.497	-8.01948
875.894	14.03511
876.291	11.02687
876.688	15.039
877.085	3.00726
877.482	11.02783
877.878	14.03435
878.275	-4.01026
878.671	-7.0155
879.068	29.07035
879.464	6.01477
879.86	24.05786
880.256	16.03961
880.652	54.13878
881.048	22.05472
881.444	-18.04315
881.84	8.02061
882.236	17.04292
882.631	4.00989
883.027	20.04822
883.422	55.14182
883.817	31.0796
884.213	47.12128
884.608	30.07535
885.003	29.07146
885.398	20.0507
885.793	36.0911
886.188	45.11365
886.582	64.16345
886.977	14.03373
887.371	-9.02266
887.766	-1.00253
888.16	47.11785
888.554	-34.08398
888.949	28.07017
889.343	64.1561
889.737	-7.01897
890.131	44.11102
890.525	50.12904
890.918	41.10395
891.312	11.02641
891.706	7.01843
892.099	28.07126
892.492	8.0174
892.886	29.07246
893.279	37.09564
893.672	42.10772
894.065	18.04529
894.458	5.0126
894.851	29.0704
895.244	10.02592
895.637	30.0726
896.029	53.13107
896.422	-3.00742
896.814	34.08591
897.206	-15.03651
897.599	14.03455
897.991	18.04418
898.383	-38.09112
898.775	4.00917
899.167	38.09047
899.559	25.063
899.951	18.04308
900.342	39.09965
900.734	4.01017
901.125	51.13492
901.517	-9.02227
901.908	-26.06282
902.299	39.09747
902.69	18.04302
903.082	-21.05085
903.473	29.0708
903.863	3.00767
904.254	3.00703
904.645	8.01977
905.036	21.05169
905.426	70.16022
905.817	58.1432
906.207	11.02682
906.597	-2.00476
906.987	-30.07764
907.378	15.03807
907.768	38.10085
908.158	19.04671
908.547	50.13114
908.937	-17.04362
909.327	15.03661
909.717	13.03289
910.106	71.17262
910.495	34.08462
910.885	63.15979
911.274	49.12304
911.663	29.07337
912.052	4.00988
912.441	13.03357
912.83	42.09806
913.219	8.02091
913.608	-3.00732
913.997	6.01533
914.385	31.07495
914.774	21.05152
915.162	28.06796
915.55	-21.0511
915.939	-1.00256
916.327	-4.00993
916.715	40.10388
917.103	47.11543
917.491	45.11149
917.878	83.20459
918.266	31.08013
918.654	15.03852
919.041	7.0184
919.429	-64.15388
919.816	14.03574
920.203	-1.00246
920.591	-30.07508
920.978	-4.00988
921.365	20.05276
921.752	2.00481
922.139	-7.01541
922.525	47.11598
922.912	4.00981
923.299	49.12384
923.685	-13.03411
924.072	5.01164
924.458	15.03754
924.844	17.04293
925.231	29.06844
925.617	28.07276
926.003	39.09965
926.389	-15.03815
926.774	42.10673
927.16	21.05254
927.546	-15.03888
927.931	70.17537
928.317	23.0535
928.702	-11.02618
929.088	34.08246
929.473	31.07938
929.858	45.11137
930.243	-2.00487
930.628	42.10385
931.013	30.07489
931.398	0
931.783	-3.00785
932.167	15.0367
932.552	-26.06523
932.937	55.13592
933.321	37.09401
933.705	-15.03823
934.09	11.02737
934.474	-8.0193
934.858	-35.09122
935.242	-42.09933
935.626	48.12345
936.009	12.03222
936.393	20.05081
936.777	-16.04108
937.16	68.17707
937.544	27.06328
937.927	-13.03333
938.311	26.06356
938.694	-2.00527
939.077	18.04384
939.46	8.01959
939.843	48.10033
940.226	12.03116
940.609	35.08215
940.991	61.15609
941.374	28.0688
941.757	71.17565
942.139	-26.05944
942.522	13.03069
942.904	36.08643
943.286	33.08373
943.668	71.18428
944.05	55.13662
944.432	29.07282
944.814	54.13455
945.196	56.13928
945.578	51.12404
945.959	23.05447
946.341	24.05832
946.722	-17.04018
947.104	-20.04825
947.485	34.08076
947.866	36.09178
948.247	7.01788
948.628	30.07353
949.009	55.14148
949.39	13.03237
949.771	25.05866
950.152	39.09649
950.532	-15.03787
950.913	39.09567
951.293	47.12794
951.674	-19.04661
952.054	-3.00752
952.434	-31.07784
952.814	-45.10707
953.194	-30.07831
953.574	20.04907
953.954	41.09826
954.334	-8.02015
954.714	-20.04976
955.093	11.02682
955.473	23.05792
955.853	-13.03373
956.232	-12.03283
956.611	34.08104
956.99	-44.11102
957.37	7.01792
957.749	12.02885
958.128	-18.04571
958.506	13.03406
958.885	14.03558
959.264	42.10457
959.643	-5.01166
960.021	-10.02497
960.4	-33.07628
960.778	-15.03692
961.156	35.08858
961.535	21.04929
961.913	49.11519
962.291	5.01306
962.669	-49.12437
963.047	44.11265
963.424	6.01542
963.802	-20.04976
964.18	7.01772
964.557	25.05834
964.935	27.06387
965.312	23.06064
965.69	31.07787
966.067	-17.04195
966.444	2.00496
966.821	2.00514
967.198	8.01931
967.575	11.02699
967.952	4.00937
968.329	-30.07413
968.705	31.068
969.082	55.14256
969.458	-18.04403
969.835	-36.08803
970.211	11.02854
970.587	40.09952
970.963	20.05144
971.339	-27.07145
971.715	22.05525
972.091	18.04474
972.467	6.01503
972.843	36.09068
973.219	5.01199
973.594	6.01587
973.97	11.02638
974.345	-19.04644
974.721	24.05832
975.096	19.04658
975.471	-27.06367
975.846	1.00244
976.221	45.11595
976.596	-21.0515
976.971	-15.03708
977.346	24.05606
977.72	-16.04073
978.095	-13.03366
978.469	-36.08705
978.844	3.00752
979.218	45.10978
979.593	-3.00717
979.967	67.16387
980.341	39.09093
980.715	3.00758
981.089	29.07327
981.463	7.01635
981.837	3.00745
982.21	-20.04598
982.584	55.13377
982.957	-13.03296
983.331	4.00953
983.704	7.01748
984.078	17.04207
984.451	-33.0817
984.824	30.07461
985.197	-8.01966
985.57	33.08287
985.943	0
986.316	44.10776
986.688	39.09411
987.061	27.06407
987.434	14.03647
987.806	-32.07814
988.179	75.17927
988.551	29.07389
988.923	38.09275
989.295	36.09032
989.667	20.04924
990.039	1.00251
990.411	-33.07755
990.783	-58.13457
991.155	-2.00495
991.527	-2.00487
991.898	-46.11653
992.27	20.05025
992.641	40.10017
993.012	53.12494
993.384	-16.03886
993.755	3.00772
994.126	28.0676
994.497	28.06987
994.868	-13.03023
995.239	8.01959
995.61	25.06377
995.98	31.07636
996.351	44.11039
996.722	-23.05481
997.092	0
997.462	19.04568
997.833	-25.05955
998.203	20.04858
998.573	9.02257
998.943	30.07136
999.313	-37.08942
999.683	-46.11249
1000.053	-6.01395
1000.423	-24.05878
1000.792	39.10217
1001.162	-14.03495
1001.531	32.0793
1001.901	-4.01004
1002.27	43.09733
1002.639	-33.08554
1003.009	-20.04845
1003.378	-20.05149
1003.747	49.11632
1004.116	-11.02681
1004.485	-14.0336
1004.853	5.01271
1005.222	-14.0358
1005.591	-6.01443
1005.959	67.15554
1006.328	6.01381
1006.696	-57.13993
1007.064	36.09136
1007.433	-16.04005
1007.801	0
1008.169	27.06894
1008.537	9.01996
1008.905	-38.09092
1009.273	14.03483
1009.64	14.03406
1010.008	32.07688
1010.375	-67.16131
1010.743	24.05573
1011.11	4.00963
1011.478	-34.08481
1011.845	-2.00474
1012.212	27.06233
1012.579	9.02224
1012.946	3.00723
1013.313	10.02369
1013.68	-25.05689
1014.047	16.03918
1014.414	-24.0579
1014.78	-44.11091
1015.147	23.05546
1015.513	-5.01221
1015.88	41.10432
1016.246	-43.10759
1016.612	12.02779
1016.978	18.04462
1017.344	-26.06509
1017.71	-23.05569
1018.076	42.09872
1018.442	34.08726
1018.808	-2.00506
1019.174	10.02542
1019.539	-2.00459
1019.905	-33.07906
1020.27	-21.05277
1020.636	8.01922
1021.001	45.10883
1021.366	-22.0533
1021.731	25.06446
1022.096	-48.12259
1022.461	-3.00709
1022.826	-8.01939
1023.191	41.10737
1023.556	2.00475
1023.92	-14.03453
1024.285	30.07309
1024.649	-8.01969
1025.014	-27.06729
1025.378	46.11644
1025.742	29.0724
1026.107	20.04554
1026.471	10.02331
1026.835	-22.05478
1027.199	-26.06408
1027.562	-26.06197
1027.926	-15.03682
1028.29	27.0695
1028.654	76.17535
1029.017	-4.00986
1029.381	36.08813
1029.744	35.09003
1030.107	2.00472
1030.471	7.01688
1030.834	-3.0069
1031.197	-3.00721
1031.56	-30.07158
1031.923	-42.11004
1032.286	-18.04218
1032.648	25.06035
1033.011	42.09849
1033.374	-14.03297
1033.736	9.02402
1034.099	72.17653
1034.461	68.17403
1034.823	22.05523
1035.185	52.13121
1035.548	18.04423
1035.91	55.13287
1036.272	51.1169
1036.634	-18.0441
1036.995	-37.0878
1037.357	-10.02463
1037.719	16.03888
1038.08	-5.01184
1038.442	17.04065
1038.803	-18.04412
1039.165	-10.02538
1039.526	29.07009
1039.887	30.07235
1040.248	6.01516
1040.609	-14.03472
1040.97	44.10923
1041.331	8.02026
1041.692	0
1042.053	14.03204
1042.413	-4.00938
1042.774	15.03659
1043.134	15.03551
1043.495	17.04281
1043.855	9.02193
1044.215	-35.08735
1044.576	22.05358
1044.936	-19.04348
1045.296	24.05987
1045.656	47.11534
1046.016	12.02917
1046.375	24.05926
1046.735	22.05108
1047.095	-2.00476
1047.454	-23.04911
1047.814	-22.05294
1048.173	14.0332
1048.533	0
1048.892	32.07834
1049.251	-3.00755
1049.61	-3.00749
1049.969	-48.11445
1050.328	55.11957
1050.687	7.01724
1051.046	1.00245
1051.405	6.01504
1051.763	14.03265
1052.122	18.04576
1052.48	13.03188
1052.839	15.03568
1053.197	-17.0402
1053.555	-10.02251
1053.914	30.07374
1054.272	-1.00242
1054.63	35.08684
1054.988	-16.03849
1055.345	39.08518
1055.703	-12.02889
1056.061	5.01295
1056.419	16.04165
1056.776	-20.04865
1057.134	18.04226
1057.491	20.05018
1057.848	34.08481
1058.206	11.02618
1058.563	4.00901
1058.92	7.01624
1059.277	-3.00739
1059.634	21.05002
1059.991	-17.04056
1060.348	71.16346
1060.704	-57.13941
1061.061	-16.03653
1061.418	42.10294
1061.774	-4.01
1062.131	-8.02132
1062.487	-4.00944
1062.843	45.11235
1063.199	-19.04756
1063.555	12.02805
1063.911	6.01534
1064.267	36.07518
1064.623	28.06878
1064.979	-50.11821
1065.335	-49.11685
1065.691	-10.02391
1066.046	-65.14551
1066.402	12.02782
1066.757	-9.0227
1067.112	-23.05617
1067.468	-17.04102
1067.823	56.13475
1068.178	11.02666
1068.533	5.01213
1068.888	-10.02426
1069.243	6.01493
1069.598	24.05895
1069.952	-14.0326
1070.307	24.06028
1070.662	17.04108
1071.016	3.00691
1071.371	6.01382
1071.725	14.03355
1072.079	-20.04823
1072.434	-4.00986
1072.788	48.1162
1073.142	22.05414
1073.496	80.19388
1073.85	-5.01168
1074.203	-10.02418
1074.557	6.01608
1074.911	8.01908
1075.265	26.06063
1075.618	15.03684
1075.971	14.03366
1076.325	2.00515
1076.678	60.14064
1077.031	20.04616
1077.385	40.08934
1077.738	18.04181
1078.091	46.10732
1078.444	75.17418
1078.796	-1.00248
1079.149	6.01495
1079.502	35.08401
1079.855	39.09215
1080.207	3.00739
1080.56	40.1043
1080.912	-2.00493
1081.264	5.01217
1081.617	37.09174
1081.969	28.07168
1082.321	31.07672
1082.673	25.05875
1083.025	16.03797
1083.377	-1.00216
1083.728	-2.00472
1084.08	41.10329
1084.432	60.14591
1084.783	-30.07057
1085.135	13.0329
1085.486	55.12799
1085.838	-1.00249
1086.189	-12.02958
1086.54	-9.02155
1086.891	15.03856
1087.242	-2.00491
1087.593	-29.07046
1087.944	53.12202
1088.295	-15.03423
1088.646	16.03905
1088.996	2.00492
1089.347	40.09829
1089.698	57.13734
1090.048	-10.02607
1090.398	9.02104
1090.749	4.0096
1091.099	-13.03325
1091.449	-28.07027
1091.799	55.13876
1092.149	-24.06078
1092.499	-6.01463
1092.849	-3.00769
1093.199	-1.0025
1093.548	-36.08774
1093.898	48.12125
1094.248	19.0486
1094.597	-25.06545
1094.947	29.07738
1095.296	19.04742
1095.645	23.05968
1095.994	49.11891
1096.343	56.14044
1096.692	37.09847
1097.041	24.06557
1097.39	-18.04555
1097.739	-21.05464
1098.088	8.02148
1098.437	-2.00532
1098.785	27.07324
1099.134	7.01863
1099.482	15.04119
1099.83	-23.06031
1100.179	-19.05021
1100.527	36.09624
1100.875	-24.06429
1101.223	-20.05325
1101.571	1.00279
1101.919	1.00266
1102.267	-14.03966
1102.615	2.00644
1102.962	-1.00322
1103.31	8.02575
1103.658	4.01287
