Data from N2 R4 sample 11_Subt2__0__19-30-41-958.txt Node

Date: Wed Aug 27 19:30:41 PDT 2025
User: uwsun
Spectrometer: HDX01956
Trigger mode: 0
Integration Time (sec): 5.000000E-1
Scans to average: 1
Nonlinearity correction enabled: true
Boxcar width: 0
Storing dark spectrum: false
XAxis mode: Wavelengths
Number of Pixels in Spectrum: 2068
>>>>>Begin Spectral Data<<<<<
194.03	385.0113
194.578	367.10013
195.127	347.02325
195.676	346.027
196.225	388.94439
196.773	441.11268
197.321	629.49322
197.87	833.70026
198.418	875.77397
198.966	889.81877
199.513	822.62888
200.061	827.65978
200.609	871.82525
201.156	782.35008
201.704	790.57122
202.251	817.72104
202.798	853.7537
203.345	864.66521
203.892	894.74866
204.438	918.65796
204.985	834.54583
205.532	865.79513
206.078	880.64503
206.624	923.73873
207.17	917.56411
207.716	907.69268
208.262	933.33885
208.808	873.70069
209.354	906.68789
209.899	916.75631
210.445	925.75017
210.99	851.56448
211.535	906.5739
212.08	946.628
212.625	939.7793
213.17	870.68
213.715	895.52729
214.259	878.57427
214.804	953.79798
215.348	939.59059
215.892	889.60914
216.436	966.65104
216.98	905.49482
217.524	919.66019
218.068	834.62884
218.612	849.64839
219.155	893.61312
219.698	789.44883
220.242	780.49373
220.785	800.44441
221.328	780.53043
221.871	769.53046
222.414	761.48291
222.956	801.54029
223.499	845.51147
224.041	773.41868
224.583	759.27032
225.126	821.41797
225.668	827.6018
226.21	835.67585
226.751	758.32245
227.293	800.44147
227.835	748.44201
228.376	789.41108
228.918	774.5465
229.459	812.62252
230	774.47151
230.541	799.42901
231.082	729.40902
231.622	760.38323
232.163	857.63709
232.704	799.56444
233.244	790.58871
233.784	762.47045
234.324	808.41806
234.864	762.36865
235.404	796.48113
235.944	802.48862
236.484	836.62273
237.023	811.51171
237.563	846.50821
238.102	767.41329
238.641	800.60737
239.18	790.46121
239.719	818.60434
240.258	833.42273
240.797	815.50417
241.335	821.56746
241.874	790.14585
242.412	896.65109
242.95	849.60692
243.488	814.45253
244.026	833.47389
244.564	834.2987
245.102	773.34762
245.64	804.51012
246.177	866.48995
246.715	892.64288
247.252	804.42135
247.789	835.14613
248.326	834.57272
248.863	766.26632
249.4	830.41645
249.936	835.2757
250.473	836.48344
251.009	896.60003
251.546	817.35947
252.082	828.34272
252.618	900.51652
253.154	879.64275
253.69	803.38312
254.226	813.49074
254.761	766.31326
255.297	877.45162
255.832	835.50352
256.367	813.4556
256.903	891.47731
257.438	914.60542
257.972	851.41544
258.507	868.52522
259.042	903.44794
259.576	906.47543
260.111	889.539
260.645	915.46975
261.179	882.56283
261.713	919.52473
262.247	868.52283
262.781	921.42348
263.315	889.65575
263.849	888.69845
264.382	883.52049
264.915	920.60925
265.449	942.75162
265.982	913.50808
266.515	875.57973
267.048	958.51345
267.58	867.38371
268.113	971.55213
268.646	905.69144
269.178	941.54849
269.71	877.39495
270.243	949.56948
270.775	929.78684
271.307	933.66242
271.838	885.55476
272.37	947.73612
272.902	968.62264
273.433	895.41394
273.965	833.52136
274.496	893.66321
275.027	901.66322
275.558	906.63291
276.089	934.72469
276.62	929.75176
277.15	901.64251
277.681	894.39331
278.211	922.69062
278.741	979.5703
279.272	961.60166
279.802	980.7873
280.332	977.70162
280.861	969.67789
281.391	985.62654
281.921	870.5527
282.45	1012.83465
282.98	1012.92299
283.509	997.56675
284.038	994.62472
284.567	988.64367
285.096	984.73774
285.625	1008.63303
286.153	989.67918
286.682	1024.6572
287.21	1021.75234
287.739	977.63733
288.267	1035.80295
288.795	1052.00833
289.323	1059.75404
289.851	1065.74077
290.378	1026.61299
290.906	1023.80165
291.433	975.75533
291.961	1047.65327
292.488	1051.86554
293.015	1070.76503
293.542	1042.86719
294.069	1072.86025
294.596	1092.83428
295.122	1093.82252
295.649	1117.65967
296.175	1035.72734
296.702	1086.80141
297.228	989.65571
297.754	1078.6096
298.28	1063.63638
298.806	1095.80993
299.332	1163.66812
299.857	1157.71119
300.383	1121.95632
300.908	1146.91492
301.433	1105.8406
301.958	1178.78636
302.483	1113.88338
303.008	1096.8061
303.533	1161.05165
304.058	1117.70285
304.582	1170.82898
305.107	1167.05909
305.631	1153.67943
306.155	1181.77024
306.679	1207.83334
307.203	1209.80057
307.727	1223.8721
308.251	1218.96282
308.775	1172.83847
309.298	1230.88234
309.822	1274.06175
310.345	1332.91212
310.868	1321.97817
311.391	1277.94272
311.914	1253.01452
312.437	1240.68097
312.96	1300.84263
313.482	1231.80492
314.005	1332.08775
314.527	1366.21167
315.049	1406.13904
315.571	1358.75207
316.093	1349.98667
316.615	1329.89772
317.137	1436.71586
317.659	1438.02044
318.18	1390.98756
318.702	1437.87115
319.223	1390.541
319.744	1475.76648
320.265	1459.97445
320.786	1538.10449
321.307	1550.13071
321.828	1538.79918
322.348	1555.91782
322.869	1596.98938
323.389	1493.11542
323.909	1543.77415
324.43	1684.05292
324.95	1621.79298
325.47	1647.07434
325.989	1660.85905
326.509	1768.82926
327.029	1816.87319
327.548	1798.82262
328.067	1795.00296
328.587	1723.01677
329.106	1697.71458
329.625	1762.19887
330.144	1767.85691
330.662	1854.82353
331.181	1881.80116
331.7	1875.87362
332.218	1978.57968
332.736	1987.79181
333.255	2020.81923
333.773	1952.87481
334.291	2050.06085
334.808	2075.6864
335.326	2037.56262
335.844	2158.69252
336.361	2139.94608
336.879	2220.68526
337.396	2169.75685
337.913	2244.53257
338.43	2256.54848
338.947	2236.56195
339.464	2358.36565
339.981	2404.65161
340.497	2274.74244
341.014	2411.75433
341.53	2442.42921
342.046	2500.68529
342.562	2484.71009
343.078	2463.43906
343.594	2533.53102
344.11	2604.49224
344.626	2561.68775
345.141	2614.25091
345.657	2606.18175
346.172	2616.37419
346.687	2672.25618
347.202	2659.04841
347.717	2805.19281
348.232	2827.3504
348.747	2786.09614
349.261	2708.82879
349.776	2899.04842
350.29	2931.30983
350.805	2894.1657
351.319	2888.84548
351.833	2963.83639
352.347	2935.91159
352.861	2940.858
353.374	3019.735
353.888	3119.88694
354.401	3072.6616
354.915	3110.54011
355.428	3102.90663
355.941	3307.53625
356.454	3199.34566
356.967	3227.66798
357.48	3190.46227
357.993	3331.70184
358.505	3194.69452
359.018	3353.5613
359.53	3476.43742
360.042	3413.14401
360.554	3311.42854
361.066	3350.50726
361.578	3419.01218
362.09	3447.32228
362.602	3459.01409
363.113	3584.06573
363.625	3652.99767
364.136	3760.80806
364.647	3668.99032
365.158	3792.82284
365.669	3760.98452
366.18	3837.86059
366.691	3783.63589
367.201	3675.96947
367.712	3842.72005
368.222	3921.65123
368.733	3930.43378
369.243	4161.29627
369.753	4217.30654
370.263	4179.52579
370.773	4207.57792
371.282	4239.26417
371.792	4411.19585
372.301	4456.20735
372.811	4632.2894
373.32	4536.84873
373.829	4569.00437
374.338	4867.77318
374.847	4998.78736
375.356	5116.81279
375.865	5290.81245
376.373	5734.07924
376.882	5778.07247
377.39	5834.15755
377.898	5989.31578
378.407	6287.11579
378.915	6515.88206
379.423	6823.23611
379.93	6943.07973
380.438	7308.17793
380.946	7728.26596
381.453	8075.16604
381.96	8285.11417
382.468	8911.11727
382.975	9625.62307
383.482	9881.39502
383.989	9928.40331
384.495	10297.87571
385.002	10720.48355
385.509	11262.03
386.015	12162.75497
386.521	12692.88319
387.028	13160.37871
387.534	13583.5763
388.04	14201.66705
388.546	14631.00333
389.051	15110.13022
389.557	16151.11426
390.063	17820.06874
390.568	18360.12924
391.073	18797.16435
391.578	19502.19257
392.084	20005.39882
392.589	20439.4501
393.093	21986.03572
393.598	23930.84587
394.103	26262.48605
394.607	28765.4253
395.112	31198.62663
395.616	32658.48271
396.12	35662.02814
396.624	38540.17131
397.128	41572.50189
397.632	41785.42012
398.136	41023.04475
398.639	39575.50194
399.143	37072.18751
399.646	33425.07685
400.15	30257.92651
400.653	26744.30161
401.156	22069.35973
401.659	15501.4617
402.162	4304.81735
402.664	865.43837
403.167	0
403.67	0
404.172	0
404.674	0
405.176	0
405.678	0
406.18	0
406.682	0
407.184	0
407.686	0
408.187	0
408.688	0
409.19	0
409.691	0
410.192	0
410.693	0
411.194	0
411.694	11.28237
412.195	3122.18734
412.696	8274.79556
413.196	11824.3934
413.696	13768.63585
414.196	13509.3687
414.696	14514.78924
415.196	16680.3865
415.696	20882.81744
416.196	28662.6172
416.695	36400.56296
417.195	40282.64143
417.694	41360.26869
418.194	42711.87066
418.693	44201.96737
419.192	44973.05529
419.691	44847.05231
420.19	44701.08574
420.688	43329.6628
421.187	41982.32824
421.685	39448.68555
422.184	35872.33863
422.682	31352.40007
423.18	26520.61796
423.678	23079.9215
424.176	21622.09789
424.674	20015.7402
425.172	19429.29678
425.669	18297.98712
426.167	16958.51108
426.664	15358.99015
427.161	14344.48643
427.659	12990.45366
428.156	12242.40489
428.652	11613.96679
429.149	11172.46072
429.646	10823.96025
430.143	9965.41924
430.639	9476.77412
431.135	9091.72927
431.632	8667.1589
432.128	7878.88095
432.624	7498.04257
433.12	7232.41598
433.616	7022.23373
434.111	6797.41574
434.607	6423.51381
435.103	6363.62738
435.598	6058.15987
436.093	5949.48548
436.588	5749.18657
437.083	5387.86471
437.578	5124.74681
438.073	4853.85975
438.568	4847.91553
439.062	4474.74021
439.557	4468.94434
440.051	4188.03446
440.546	4170.11093
441.04	3959.30434
441.534	3933.5627
442.028	3939.40285
442.522	3668.57366
443.015	3766.41491
443.509	3572.73827
444.002	3597.78605
444.496	3524.59087
444.989	3471.96251
445.482	3462.09082
445.975	3418.74645
446.468	3342.64597
446.961	3316.86158
447.454	3255.95938
447.947	3150.19621
448.439	3073.25805
448.931	3064.11233
449.424	3085.50041
449.916	2962.43108
450.408	2940.23
450.9	2952.54443
451.392	2848.68943
451.884	2807.40672
452.375	2820.92025
452.867	2702.43899
453.358	2681.56634
453.849	2649.36722
454.341	2469.63179
454.832	2474.53086
455.323	2551.90528
455.814	2453.72954
456.304	2412.77572
456.795	2360.72467
457.285	2332.69376
457.776	2395.81445
458.266	2319.01949
458.756	2249.08246
459.247	2269.11132
459.737	2199.15073
460.226	2154.93523
460.716	2176.23955
461.206	2060.20598
461.695	2120.48745
462.185	1997.21584
462.674	2057.1582
463.163	2064.10808
463.653	1959.90734
464.142	1965.48353
464.63	1928.45286
465.119	1892.39894
465.608	1832.32895
466.096	1823.20839
466.585	1852.36448
467.073	1764.42954
467.561	1765.48295
468.05	1788.42042
468.538	1658.56252
469.026	1597.45545
469.513	1636.20907
470.001	1610.41099
470.489	1619.49734
470.976	1547.40327
471.463	1587.71423
471.951	1409.60508
472.438	1441.53591
472.925	1445.55489
473.412	1306.48075
473.899	1369.42762
474.385	1337.57669
474.872	1378.54033
475.359	1311.63178
475.845	1322.26252
476.331	1147.20003
476.817	1235.604
477.303	1119.3542
477.789	1181.51761
478.275	1135.61046
478.761	1079.40998
479.247	1070.26141
479.732	1076.54201
480.218	1098.70393
480.703	1089.58754
481.188	1074.28475
481.673	947.263
482.158	1039.2718
482.643	922.42462
483.128	1010.37132
483.612	933.33051
484.097	881.33673
484.581	888.3102
485.066	840.30199
485.55	823.12592
486.034	806.11725
486.518	862.32219
487.002	798.3121
487.486	778.29261
487.969	757.24553
488.453	683.18848
488.936	679.04705
489.42	624.93922
489.903	692.23057
490.386	696.72376
490.869	664.98334
491.352	686.18648
491.835	632.8921
492.318	692.09071
492.8	625.88808
493.283	624.14214
493.765	620.11709
494.247	599.01178
494.73	583.9317
495.212	573.01984
495.694	508.872
496.175	514.91591
496.657	509.89175
497.139	538.62484
497.62	502.91165
498.102	491.93412
498.583	474.90901
499.064	470.77353
499.545	471.81604
500.026	490.82803
500.507	528.92384
500.988	454.86182
501.469	415.81988
501.949	466.88763
502.43	461.85315
502.91	309.49645
503.39	406.79063
503.87	426.78108
504.35	442.80348
504.83	372.63949
505.31	423.80434
505.79	417.7937
506.269	372.68446
506.749	359.65738
507.228	328.61229
507.707	408.70929
508.187	312.58473
508.666	426.83787
509.145	404.75867
509.623	380.71359
510.102	315.62056
510.581	328.64116
511.059	362.7338
511.538	346.72542
512.016	332.6379
512.494	372.732
512.972	310.60109
513.45	270.51777
513.928	269.53518
514.406	369.73208
514.884	325.68335
515.361	328.63386
515.839	329.59818
516.316	294.57333
516.793	380.78261
517.27	364.71052
517.747	390.8256
518.224	316.5972
518.701	256.46296
519.178	370.75344
519.654	363.69696
520.131	292.60409
520.607	230.47348
521.083	311.58041
521.56	345.67455
522.036	326.57722
522.512	317.63567
522.987	296.57888
523.463	351.69312
523.939	275.5461
524.414	321.60323
524.89	287.56434
525.365	345.64195
525.84	312.61711
526.315	327.63905
526.79	280.51853
527.265	268.50301
527.74	356.71405
528.215	285.55803
528.689	285.52476
529.164	282.50842
529.638	298.6361
530.112	310.60798
530.587	262.45712
531.061	273.54668
531.534	319.64146
532.008	300.602
532.482	271.51303
532.956	241.52369
533.429	290.58731
533.903	242.43272
534.376	303.56267
534.849	270.51927
535.322	340.67313
535.795	306.62312
536.268	336.67019
536.741	249.5044
537.213	249.48407
537.686	301.62257
538.158	249.4693
538.631	294.59351
539.103	297.56418
539.575	251.42949
540.047	308.56555
540.519	303.60114
540.991	269.54965
541.463	323.6537
541.934	265.51223
542.406	306.6217
542.877	296.56955
543.348	237.48251
543.82	275.5614
544.291	301.58545
544.762	317.63567
545.233	313.65174
545.703	321.60234
546.174	255.49125
546.645	393.79318
547.115	351.69702
547.585	366.68391
548.056	380.75021
548.526	336.64559
548.996	400.76375
549.466	444.86587
549.935	448.84504
550.405	412.71738
550.875	516.96856
551.344	435.82756
551.814	403.7294
552.283	519.86445
552.752	515.93694
553.221	472.81278
553.69	603.00916
554.159	500.95194
554.628	512.86523
555.096	498.98364
555.565	526.92179
556.033	416.76966
556.502	457.87619
556.97	355.61533
557.438	409.79287
557.906	364.70411
558.374	372.71545
558.842	338.67982
559.31	296.55063
559.777	281.58511
560.245	302.60798
560.712	254.49556
561.18	279.52611
561.647	316.60335
562.114	239.47416
562.581	234.49451
563.048	262.51724
563.514	237.49679
563.981	256.50682
564.448	253.49467
564.914	238.47339
565.381	302.59061
565.847	268.53033
566.313	248.49651
566.779	267.51882
567.245	274.56101
567.711	242.49325
568.176	188.36731
568.642	283.62855
569.108	234.49928
569.573	205.41774
570.038	273.48954
570.504	219.42433
570.969	258.56218
571.434	276.52058
571.899	276.56638
572.363	239.46153
572.828	266.50739
573.293	273.53377
573.757	314.61001
574.222	202.3853
574.686	255.49054
575.15	266.54167
575.614	278.54213
576.078	261.52144
576.542	268.51642
577.006	258.49523
577.469	250.51419
577.933	266.51281
578.396	280.57407
578.86	280.55382
579.323	299.61455
579.786	263.47963
580.249	311.61441
580.712	278.57977
581.175	244.52287
581.637	302.58026
582.1	320.58729
582.563	288.51338
583.025	310.64707
583.487	266.45797
583.95	218.40512
584.412	293.51756
584.874	260.5321
585.336	277.56266
585.797	209.3854
586.259	308.61263
586.721	315.64364
587.182	282.55568
587.643	220.42841
588.105	257.52203
588.566	289.51316
589.027	208.42742
589.488	270.52327
589.949	297.61154
590.41	247.41719
590.87	271.52408
591.331	272.49843
591.791	262.51943
592.252	257.51297
592.712	282.58445
593.172	289.56345
593.632	360.65938
594.092	238.45684
594.552	245.44612
595.011	270.5393
595.471	299.56687
595.931	273.52264
596.39	233.48214
596.849	287.57498
597.308	313.57169
597.768	280.61814
598.227	228.46894
598.685	257.49963
599.144	258.51748
599.603	253.51133
600.062	325.59271
600.52	275.52315
600.978	257.53514
601.437	300.57975
601.895	218.40048
602.353	267.5161
602.811	290.55129
603.269	326.66778
603.727	330.67169
604.184	266.51823
604.642	289.60873
605.099	284.56436
605.557	344.71899
606.014	296.55255
606.471	317.68589
606.928	351.65085
607.385	359.7402
607.842	489.91629
608.299	426.79684
608.755	391.77935
609.212	297.55098
609.668	402.76347
610.125	407.80181
610.581	327.63784
611.037	375.70924
611.493	298.59716
611.949	240.50853
612.405	308.54165
612.861	241.49177
613.316	242.51119
613.772	245.4838
614.227	236.49108
614.683	258.48161
615.138	294.60414
615.593	269.55239
616.048	310.61718
616.503	279.59981
616.958	258.57124
617.412	261.54903
617.867	282.55124
618.321	293.53543
618.776	216.42623
619.23	258.53973
619.684	224.44015
620.138	206.4107
620.592	242.52464
621.046	192.39971
621.5	218.47624
621.954	239.47815
622.407	253.51086
622.861	221.48289
623.314	188.38667
623.768	184.38646
624.221	204.36985
624.674	191.3986
625.127	218.46555
625.58	190.39237
626.033	248.4896
626.485	159.35095
626.938	187.40878
627.39	162.34671
627.843	208.43745
628.295	177.37775
628.747	135.29436
629.199	197.41879
629.651	184.39464
630.103	156.33185
630.555	149.3028
631.006	139.30437
631.458	133.29369
631.909	127.26975
632.361	149.32764
632.812	91.19935
633.263	112.22974
633.714	124.25159
634.165	71.16268
634.616	75.17122
635.067	120.2516
635.518	144.32535
635.968	95.18328
636.419	133.27879
636.869	88.2011
637.319	53.11733
637.769	70.15364
638.219	156.35347
638.669	57.13317
639.119	82.19183
639.569	79.18536
640.019	86.19225
640.468	46.10058
640.918	94.21697
641.367	116.25888
641.816	81.17444
642.265	69.15453
642.714	94.21308
643.163	82.18626
643.612	112.26735
644.061	75.16055
644.51	69.1553
644.958	113.2512
645.406	40.09446
645.855	67.16149
646.303	45.10257
646.751	111.25115
647.199	89.19809
647.647	70.15984
648.095	88.20069
648.543	68.13828
648.99	73.17208
649.438	72.16414
649.885	36.08803
650.333	120.23301
650.78	70.16831
651.227	59.14146
651.674	95.21565
652.121	81.19457
652.568	52.12569
653.015	82.20506
653.461	65.15406
653.908	62.14168
654.354	85.19819
654.801	56.1325
655.247	14.03049
655.693	33.08441
656.139	51.12209
656.585	73.17295
657.031	50.11738
657.477	52.11158
657.922	80.18238
658.368	73.17868
658.813	64.14773
659.259	76.18308
659.704	78.18262
660.149	121.28312
660.594	19.0451
661.039	59.13448
661.484	89.20988
661.929	38.0889
662.373	-9.02265
662.818	29.07217
663.262	110.26308
663.707	71.17822
664.151	55.13392
664.595	80.19242
665.039	45.11255
665.483	45.11401
665.927	79.18521
666.371	8.01895
666.814	79.1884
667.258	62.14709
667.701	121.25902
668.145	80.19745
668.588	73.17981
669.031	51.12097
669.474	96.23213
669.917	62.13745
670.36	71.17643
670.803	55.13182
671.245	37.07931
671.688	22.05332
672.13	45.10257
672.573	93.23563
673.015	9.02185
673.457	83.18205
673.899	87.21065
674.341	38.09244
674.783	121.29528
675.225	11.02711
675.666	72.1764
676.108	44.09771
676.549	60.14278
676.991	128.28779
677.432	36.07444
677.873	99.23355
678.314	90.21681
678.755	83.20316
679.196	73.17021
679.637	67.16375
680.078	58.1359
680.518	70.16228
680.959	61.15031
681.399	90.22417
681.839	103.25351
682.28	56.14055
682.72	67.15585
683.16	89.22308
683.6	131.29653
684.039	3.00638
684.479	57.14226
684.919	87.2066
685.358	109.27724
685.798	104.2735
686.237	85.20697
686.676	60.13938
687.115	79.18746
687.554	71.17133
687.993	79.17824
688.432	131.30844
688.871	53.12372
689.309	45.10773
689.748	92.19698
690.186	74.17867
690.625	107.25742
691.063	86.20874
691.501	81.20083
691.939	89.22445
692.377	80.19774
692.815	85.20905
693.253	94.22678
693.69	82.18641
694.128	158.3888
694.565	102.24739
695.003	56.14377
695.44	21.04983
695.877	35.08318
696.314	60.13319
696.751	47.10812
697.188	95.22081
697.625	153.35308
698.061	68.16517
698.498	86.20811
698.934	70.172
699.371	103.24798
699.807	104.24977
700.243	57.14164
700.679	36.08277
701.115	96.22599
701.551	69.16543
701.987	76.17158
702.422	64.15522
702.858	102.24627
703.294	56.1289
703.729	116.2864
704.164	89.218
704.599	83.18856
705.035	124.28804
705.47	70.17169
705.904	126.30238
706.339	99.23165
706.774	70.1685
707.209	74.17542
707.643	94.22841
708.078	71.17572
708.512	112.28381
708.946	91.21984
709.38	93.22059
709.814	103.23864
710.248	47.11555
710.682	91.22092
711.116	82.20253
711.549	108.28113
711.983	90.21203
712.416	51.12209
712.85	69.17264
713.283	78.1874
713.716	105.26167
714.149	113.27123
714.582	42.09567
715.015	130.32438
715.448	69.17476
715.881	36.07938
716.313	100.23779
716.746	112.26786
717.178	39.09549
717.61	64.16259
718.043	100.25151
718.475	68.16709
718.907	66.16594
719.339	48.1126
719.77	53.12871
720.202	68.17213
720.634	108.26655
721.065	73.17482
721.497	125.30641
721.928	60.15004
722.359	121.2977
722.79	94.22773
723.221	46.11636
723.652	71.18148
724.083	99.22801
724.514	120.27908
724.945	27.06409
725.375	101.24252
725.806	113.28518
726.236	130.33095
726.666	137.32545
727.096	99.24528
727.526	96.24835
727.956	127.29588
728.386	64.15738
728.816	63.16188
729.246	90.22278
729.675	109.27312
730.105	68.16771
730.534	116.27148
730.964	66.16737
731.393	74.18284
731.822	109.2794
732.251	71.18148
732.68	165.39121
733.109	98.24338
733.537	134.32524
733.966	106.26392
734.395	126.2913
734.823	138.31167
735.251	52.12602
735.68	130.32556
736.108	138.34907
736.536	101.2392
736.964	76.17933
737.392	63.15769
737.82	103.24732
738.247	108.25879
738.675	111.26186
739.102	68.17207
739.53	115.2955
739.957	108.27882
740.384	108.26302
740.811	65.16591
741.238	65.15916
741.665	149.34741
742.092	113.27041
742.519	124.30997
742.945	118.28468
743.372	114.28146
743.798	122.31047
744.225	117.2803
744.651	134.33751
745.077	114.28363
745.503	121.29154
745.929	136.32438
746.355	134.32682
746.781	136.33935
747.207	115.27666
747.632	125.30992
748.058	128.32008
748.483	150.34485
748.908	114.28456
749.334	183.44691
749.759	159.37422
750.184	163.3893
750.609	181.43741
751.033	169.39373
751.458	132.29666
751.883	164.40118
752.307	113.26762
752.732	128.32182
753.156	169.41303
753.58	161.37568
754.005	191.47804
754.429	110.25845
754.853	156.38572
755.277	153.36192
755.7	239.58473
756.124	159.39364
756.548	203.47944
756.971	197.46834
757.394	132.33354
757.818	186.47199
758.241	212.52897
758.664	194.48336
759.087	210.46943
759.51	220.53315
759.933	162.39068
760.356	160.39996
760.778	167.40267
761.201	200.47611
761.623	231.54853
762.046	253.58429
762.468	222.51587
762.89	197.47176
763.312	224.53016
763.734	211.4964
764.156	258.61888
764.578	185.41415
765	181.43113
765.421	200.50463
765.843	208.52537
766.264	273.6425
766.686	251.62001
767.107	199.47473
767.528	212.52954
767.949	217.53722
768.37	258.6177
768.791	225.53263
769.212	217.54016
769.632	237.55018
770.053	248.64108
770.473	285.6809
770.894	261.62881
771.314	221.5108
771.734	189.43337
772.154	244.60637
772.575	244.54835
772.994	272.60148
773.414	284.66226
773.834	224.55404
774.254	243.58634
774.673	263.6221
775.093	257.62526
775.512	232.56075
775.931	241.59597
776.351	222.53658
776.77	254.60951
777.189	217.50515
777.607	221.55412
778.026	245.59785
778.445	232.58054
778.864	220.54932
779.282	238.56112
779.701	222.54184
780.119	229.56796
780.537	212.51762
780.955	254.63007
781.373	211.50817
781.791	206.45383
782.209	192.42973
782.627	227.58386
783.045	187.42173
783.462	262.65796
783.88	193.49157
784.297	200.49468
784.715	250.63886
785.132	219.52084
785.549	170.41478
785.966	180.44506
786.383	191.46662
786.8	205.46591
787.217	164.38591
787.633	159.3958
788.05	225.51819
788.466	165.37789
788.883	199.50578
789.299	129.30963
789.715	178.42764
790.131	131.32314
790.547	155.3798
790.963	150.36598
791.379	138.34584
791.795	162.36647
792.21	96.2215
792.626	113.26803
793.041	145.35662
793.457	156.38005
793.872	126.29488
794.287	164.39386
794.702	138.33495
795.117	125.3089
795.532	112.28179
795.947	116.27414
796.362	126.29569
796.776	119.27287
797.191	85.20936
797.605	165.39076
798.02	104.25243
798.434	138.30326
798.848	126.30983
799.262	115.28451
799.676	125.30026
800.09	118.29059
800.504	121.29308
800.918	95.22046
801.331	96.24672
801.745	118.27399
802.158	79.19559
802.572	73.17589
802.985	85.20348
803.398	126.29973
803.811	88.22205
804.224	135.32969
804.637	80.19133
805.05	62.14379
805.462	93.22611
805.875	91.23757
806.288	67.16442
806.7	74.18525
807.112	44.1012
807.525	97.23672
807.937	127.31603
808.349	78.19562
808.761	97.24033
809.173	118.28726
809.584	97.2376
809.996	33.08161
810.408	114.29573
810.819	127.29868
811.231	148.38697
811.642	194.46005
812.053	252.57793
812.464	237.53164
812.875	218.53168
813.286	133.33181
813.697	78.17566
814.108	75.1816
814.519	102.22773
814.929	114.28837
815.34	72.17535
815.75	98.2494
816.16	55.13632
816.571	47.12174
816.981	97.22964
817.391	98.23858
817.801	85.21244
818.211	21.04954
818.62	32.07752
819.03	31.07619
819.44	63.16312
819.849	74.18605
820.259	98.24949
820.668	96.23781
821.077	79.19766
821.486	54.13043
821.895	84.20472
822.304	16.04242
822.713	63.15099
823.122	56.14075
823.531	37.08908
823.939	81.19856
824.348	107.26034
824.756	84.20998
825.164	70.17593
825.573	-9.02284
825.981	53.13223
826.389	47.11726
826.797	43.10844
827.205	83.1933
827.612	67.1646
828.02	81.19376
828.428	112.28281
828.835	113.29872
829.243	31.07379
829.65	58.14457
830.057	80.19308
830.464	31.07596
830.871	58.13924
831.278	90.22017
831.685	42.09416
832.092	37.09087
832.499	105.23283
832.905	52.13088
833.312	28.06404
833.718	56.13948
834.124	36.0822
834.531	94.23489
834.937	65.16772
835.343	59.14199
835.749	76.17717
836.155	84.22083
836.561	77.1905
836.966	23.05584
837.372	46.11793
837.777	-1.0025
838.183	21.0473
838.588	88.22022
838.993	56.13684
839.399	75.1848
839.804	17.04244
840.209	83.2129
840.613	-18.04102
841.018	23.05836
841.423	52.13443
841.828	60.15312
842.232	42.10297
842.637	20.04754
843.041	46.11896
843.445	53.13433
843.849	30.07491
844.253	86.20363
844.657	49.12397
845.061	24.0548
845.465	85.20736
845.869	10.02321
846.272	46.11503
846.676	60.14454
847.079	27.06938
847.483	53.13309
847.886	4.00963
848.289	51.13775
848.692	50.12639
849.095	52.12579
849.498	65.16116
849.901	69.15936
850.304	40.09559
850.707	45.1149
851.109	2.00501
851.512	30.07437
851.914	66.16796
852.316	63.15854
852.718	-27.07042
853.121	4.00993
853.523	-5.01181
853.925	47.12367
854.326	50.12675
854.728	38.09814
855.13	45.1178
855.531	24.05819
855.933	15.03603
856.334	48.12099
856.736	19.04357
857.137	72.16936
857.538	26.06614
857.939	8.02003
858.34	-13.03177
858.741	7.01832
859.142	34.08169
859.542	41.10893
859.943	47.11683
860.343	25.06289
860.744	68.16455
861.144	65.15898
861.544	45.11035
861.945	-1.00256
862.345	40.09843
862.745	70.1748
863.145	35.0834
863.544	32.08112
863.944	-17.04031
864.344	57.14122
864.743	67.16485
865.143	41.10576
865.542	-5.01175
865.941	58.14383
866.34	12.0288
866.74	84.22418
867.139	49.11985
867.537	4.01015
867.936	0
868.335	44.1113
868.734	-15.03848
869.132	41.09496
869.531	44.10567
869.929	78.18155
870.327	23.0559
870.726	-16.03961
871.124	69.16038
871.522	31.07916
871.92	15.03667
872.318	6.01483
872.715	24.05913
873.113	32.07878
873.511	26.06525
873.908	29.07478
874.306	36.09032
874.703	32.07999
875.1	28.07118
875.497	23.05598
875.894	24.06047
876.291	23.05669
876.688	29.07483
877.085	14.0337
877.482	67.16782
877.878	9.02185
878.275	53.13619
878.671	25.0556
879.068	-6.01438
879.464	36.08659
879.86	-10.02407
880.256	37.09127
880.652	72.18375
881.048	-14.0346
881.444	24.05779
881.84	59.15092
882.236	-9.02271
882.631	13.03183
883.027	30.07227
883.422	28.07191
883.817	15.03823
884.213	30.07745
884.608	47.11687
885.003	25.06092
885.398	2.00508
885.793	-9.02288
886.188	42.10624
886.582	44.1115
886.977	51.12008
887.371	49.12441
887.766	48.12246
888.16	31.0765
888.554	12.02942
888.949	2.00501
889.343	-16.03891
889.737	5.01347
890.131	10.02551
890.525	6.0154
890.918	49.12357
891.312	7.01671
891.706	23.06076
892.099	113.28681
892.492	-9.01961
892.886	42.1029
893.279	79.20215
893.672	42.10756
894.065	5.01264
894.458	48.12073
894.851	7.01724
895.244	60.15275
895.637	23.05565
896.029	-2.00493
896.422	35.0858
896.814	23.05744
897.206	47.11436
897.599	26.0641
897.991	61.14864
898.383	2.00476
898.775	30.06795
899.167	34.08013
899.559	45.11324
899.951	9.02135
900.342	38.09626
900.734	26.06617
901.125	13.03414
901.517	45.11096
901.908	19.04592
902.299	11.02724
902.69	10.02374
903.082	43.10376
903.473	-8.01942
903.863	10.02569
904.254	4.00951
904.645	29.0713
905.036	32.07927
905.426	36.08104
905.817	48.11882
906.207	-6.01456
906.597	39.09233
906.987	50.12984
907.378	35.08855
907.768	-35.09312
908.158	22.05374
908.547	27.07047
908.937	34.08741
909.327	61.14814
909.717	80.20193
910.106	27.0656
910.495	14.03476
910.885	73.18338
911.274	17.04258
911.663	1.00253
912.052	22.05398
912.441	49.12529
912.83	49.11263
913.219	-9.02346
913.608	13.03182
913.997	-14.03597
914.385	41.09793
914.774	48.11677
915.162	43.10364
915.55	17.04104
915.939	65.1648
916.327	9.02276
916.715	59.15161
917.103	-3.00731
917.491	27.06685
917.878	14.03452
918.266	18.04703
918.654	35.09025
919.041	29.07697
919.429	33.07912
919.816	2.00508
920.203	34.08339
920.591	6.01493
920.978	10.02464
921.365	13.03429
921.752	52.12498
922.139	-4.00873
922.525	44.10644
922.912	-8.01963
923.299	26.06511
923.685	54.1422
924.072	-29.06669
924.458	11.02751
924.844	90.22327
925.231	14.03277
925.617	52.1342
926.003	37.09381
926.389	17.04301
926.774	70.17833
927.16	-8.01987
927.546	8.02065
927.931	37.09221
928.317	25.05779
928.702	-23.05416
929.088	12.02873
929.473	-49.12516
929.858	50.12245
930.243	4.00979
930.628	10.02434
931.013	-23.05726
931.398	30.06911
931.783	26.06794
932.167	48.11782
932.552	-17.04226
932.937	4.00986
933.321	-1.00255
933.705	-30.07589
934.09	16.0402
934.474	22.05272
934.858	16.04158
935.242	68.15908
935.626	21.05385
936.009	-25.067
936.393	18.046
936.777	16.04138
937.16	36.09403
937.544	-4.00941
937.927	18.04595
938.311	15.0365
938.694	12.03154
939.077	44.10672
939.46	62.15015
939.843	79.16465
940.226	22.05634
940.609	23.05361
940.991	3.00774
941.374	15.03677
941.757	29.07172
942.139	10.02299
942.522	10.02347
942.904	56.13552
943.286	6.01528
943.668	26.0674
944.05	42.10549
944.432	68.16925
944.814	7.01717
945.196	6.0149
945.578	59.14286
945.959	-16.0378
946.341	-1.00242
946.722	26.06123
947.104	30.07153
947.485	0
947.866	63.16007
948.247	27.06882
948.628	13.03182
949.009	52.13429
949.39	11.02754
949.771	40.09218
950.152	-21.05218
950.532	44.11003
950.913	-6.01442
951.293	42.11475
951.674	-4.0097
952.054	-56.13994
952.434	-8.01982
952.814	21.04997
953.194	32.08347
953.574	32.0793
953.954	20.04842
954.334	43.10767
954.714	-13.03219
955.093	1.00247
955.473	-5.01266
955.853	10.02597
956.232	-21.05727
956.611	-35.08372
956.99	43.10887
957.37	50.12711
957.749	50.12049
958.128	21.05345
958.506	14.03656
958.885	29.07355
959.264	-8.01988
959.643	-35.08045
960.021	5.01248
960.4	-25.0565
960.778	36.08872
961.156	20.05038
961.535	40.09361
961.913	15.03535
962.291	29.07556
962.669	1.00256
963.047	32.08155
963.424	-4.01025
963.802	54.13352
964.18	8.02009
964.557	-50.11504
964.935	-25.05978
965.312	28.07346
965.69	25.06266
966.067	30.07385
966.444	36.08944
966.821	16.04136
967.198	17.04098
967.575	41.10013
967.952	25.05882
968.329	-5.01215
968.705	48.10246
969.082	40.10302
969.458	-6.01469
969.835	36.088
970.211	25.06473
970.587	-18.04531
970.963	23.05896
971.339	13.03417
971.715	23.05696
972.091	4.00985
972.467	38.09523
972.843	24.05947
973.219	-6.01433
973.594	9.02387
973.97	-7.01653
974.345	9.02158
974.721	28.06809
975.096	13.03144
975.471	-1.00241
975.846	-5.01202
976.221	38.09695
976.596	-25.06051
976.971	3.00739
977.346	-16.03755
977.72	60.15356
978.095	15.03868
978.469	52.12479
978.844	19.04747
979.218	39.0951
979.593	3.00726
979.967	-1.00244
980.341	-36.08422
980.715	1.00253
981.089	8.02012
981.463	10.02329
981.837	10.02476
982.21	6.01391
982.584	62.15032
982.957	-11.02801
983.331	25.05964
983.704	27.06646
984.078	4.00988
984.451	9.02232
984.824	26.06436
985.197	51.12529
985.57	60.14972
985.943	33.08128
986.316	25.06062
986.688	76.18364
987.061	24.0565
987.434	-1.00262
987.806	54.13166
988.179	-50.11917
988.551	-8.02014
988.923	21.05182
989.295	98.24427
989.667	37.09023
990.039	28.0701
990.411	-12.0277
990.783	23.05282
991.155	11.02667
991.527	56.13562
991.898	51.12834
992.27	66.16606
992.641	43.10623
993.012	-16.03712
993.384	28.06745
993.755	-5.01272
994.126	-8.01952
994.497	38.09448
994.868	34.0786
995.239	-3.00733
995.61	12.03058
995.98	2.00491
996.351	88.2195
996.722	34.08048
997.092	9.02173
997.462	3.0072
997.833	83.19877
998.203	28.06786
998.573	2.00502
998.943	25.05886
999.313	-5.01212
999.683	31.07568
1000.053	68.15727
1000.423	40.09658
1000.792	30.07801
1001.162	48.12029
1001.531	-16.03943
1001.901	15.03754
1002.27	12.02697
1002.639	8.02055
1003.009	-2.00479
1003.378	32.08233
1003.747	6.01421
1004.116	26.06327
1004.485	10.02418
1004.853	42.10605
1005.222	29.07314
1005.591	23.05451
1005.959	39.08972
1006.328	49.11448
1006.696	-27.06557
1007.064	-5.01265
1007.433	-31.0772
1007.801	28.06883
1008.169	56.14231
1008.537	26.05774
1008.905	12.02858
1009.273	15.03681
1009.64	95.22985
1010.008	-42.10014
1010.375	19.04561
1010.743	-15.03387
1011.11	-2.00478
1011.478	27.06707
1011.845	43.10199
1012.212	44.10124
1012.579	30.07437
1012.946	8.019
1013.313	59.13859
1013.68	6.01363
1014.047	7.01697
1014.414	5.01199
1014.78	62.15572
1015.147	7.01692
1015.513	9.02181
1015.88	88.22332
1016.246	-19.04682
1016.612	65.14893
1016.978	10.02435
1017.344	-46.11424
1017.71	1.00244
1018.076	-1.00237
1018.442	-17.04338
1018.808	79.19916
1019.174	41.10303
1019.539	42.09335
1019.905	-2.00482
1020.27	-4.00997
1020.636	42.1001
1021.001	-28.0673
1021.366	-21.05113
1021.731	25.0646
1022.096	32.08193
1022.461	93.21931
1022.826	-3.00717
1023.191	21.05524
1023.556	60.14103
1023.92	-20.04963
1024.285	4.0097
1024.649	32.07895
1025.014	43.1063
1025.378	47.11853
1025.742	22.05541
1026.107	5.01142
1026.471	-22.05133
1026.835	50.12526
1027.199	50.12218
1027.562	65.15245
1027.926	7.01708
1028.29	-8.02024
1028.654	16.03718
1029.017	45.1108
1029.381	10.02421
1029.744	21.0536
1030.107	47.11079
1030.471	15.03625
1030.834	37.0859
1031.197	8.01919
1031.56	-26.06194
1031.923	30.07839
1032.286	39.09147
1032.648	1.00236
1033.011	-1.00232
1033.374	-42.09814
1033.736	33.08747
1034.099	10.02447
1034.461	54.13752
1034.823	18.04511
1035.185	25.06298
1035.548	-3.00738
1035.91	-15.03562
1036.272	-19.04395
1036.634	-12.02928
1036.995	3.00711
1037.357	41.10147
1037.719	8.01952
1038.08	-8.01897
1038.442	1.00239
1038.803	4.00967
1039.165	76.19307
1039.526	34.08265
1039.887	29.06969
1040.248	6.015
1040.609	29.07109
1040.97	-27.06643
1041.331	24.06123
1041.692	114.27066
1042.053	17.03876
1042.413	8.01859
1042.774	28.06809
1043.134	-27.06412
1043.495	52.13088
1043.855	-45.10937
1044.215	0
1044.576	17.04147
1044.936	51.11746
1045.296	39.09744
1045.656	91.22315
1046.016	68.1648
1046.375	34.08274
1046.735	38.08747
1047.095	60.143
1047.454	27.05727
1047.814	18.04364
1048.173	16.03767
1048.533	-14.03248
1048.892	-13.03176
1049.251	25.06212
1049.61	26.065
1049.969	24.05652
1050.328	27.05822
1050.687	59.14377
1051.046	61.14842
1051.405	13.03254
1051.763	-9.02114
1052.122	4.01015
1052.48	0
1052.839	25.05971
1053.197	31.07305
1053.555	47.10569
1053.914	46.1127
1054.272	58.13967
1054.63	53.13026
1054.988	48.11497
1055.345	12.02629
1055.703	45.10805
1056.061	18.04644
1056.419	38.09956
1056.776	3.00729
1057.134	10.0234
1057.491	1.00252
1057.848	22.05476
1058.206	45.10666
1058.563	42.09385
1058.92	40.09266
1059.277	30.0738
1059.634	43.10215
1059.991	40.09504
1060.348	12.0274
1060.704	21.05096
1061.061	53.12168
1061.418	16.03949
1061.774	-16.03975
1062.131	69.1854
1062.487	12.0284
1062.843	0
1063.199	25.06251
1063.555	40.09409
1063.911	-25.0633
1064.267	33.06868
1064.623	-6.01486
1064.979	48.11295
1065.335	27.06397
1065.691	28.0673
1066.046	57.12718
1066.402	22.05076
1066.757	-5.0127
1067.112	13.03196
1067.468	40.0961
1067.823	2.00489
1068.178	51.1246
1068.533	-3.00725
1068.888	23.05445
1069.243	7.01737
1069.598	45.10916
1069.952	32.0743
1070.307	33.08203
1070.662	52.12536
1071.016	24.05476
1071.371	8.01838
1071.725	11.02619
1072.079	-34.08178
1072.434	7.01727
1072.788	-1.0024
1073.142	20.04914
1073.496	65.15673
1073.85	39.09093
1074.203	-11.02692
1074.557	4.01064
1074.911	25.05909
1075.265	53.12397
1075.618	-7.01713
1075.971	49.11721
1076.325	10.02562
1076.678	41.09612
1077.031	63.14527
1077.385	-21.04647
1077.738	-13.02973
1078.091	59.13708
1078.444	14.03247
1078.796	49.12176
1079.149	7.01734
1079.502	63.15139
1079.855	-57.13463
1080.207	6.01469
1080.56	14.03681
1080.912	6.01455
1081.264	53.12804
1081.617	44.10868
1081.969	-57.14682
1082.321	6.01477
1082.673	-46.1074
1083.025	-13.03094
1083.377	45.10682
1083.728	46.10783
1084.08	3.00756
1084.432	57.13853
1084.783	34.08001
1085.135	63.15905
1085.486	19.04437
1085.838	12.02977
1086.189	-23.05655
1086.54	-49.11775
1086.891	41.10532
1087.242	13.03178
1087.593	-1.00244
1087.944	-1.00228
1088.295	19.04313
1088.646	29.07098
1088.996	-24.05906
1089.347	-32.0795
1089.698	-52.12598
1090.048	74.19118
1090.398	47.10989
1090.749	-9.02165
1091.099	11.02783
1091.449	11.02778
1091.799	10.02519
1092.149	0
1092.499	-11.02699
1092.849	29.07415
1093.199	-14.03514
1093.548	41.10021
1093.898	43.10852
1094.248	-2.00518
1094.597	12.03133
1094.947	-24.06407
1095.296	39.09656
1095.645	-11.02853
1095.994	16.03863
1096.343	7.0177
1096.692	-13.0347
1097.041	7.01916
1097.39	28.07048
1097.739	9.02344
1098.088	-20.05304
1098.437	47.12504
1098.785	38.10192
1099.134	-9.02367
1099.482	18.04934
1099.83	-11.02885
1100.179	-13.03431
1100.527	49.13106
1100.875	45.1198
1101.223	57.15038
1101.571	6.01652
1101.919	8.02115
1102.267	49.13869
1102.615	3.00965
1102.962	16.05143
1103.31	16.05144
1103.658	6.0193
