Data from N2 R4 sample 12_Subt2__0__19-31-24-959.txt Node

Date: Wed Aug 27 19:31:24 PDT 2025
User: uwsun
Spectrometer: HDX01956
Trigger mode: 0
Integration Time (sec): 5.000000E-1
Scans to average: 1
Nonlinearity correction enabled: true
Boxcar width: 0
Storing dark spectrum: false
XAxis mode: Wavelengths
Number of Pixels in Spectrum: 2068
>>>>>Begin Spectral Data<<<<<
194.03	513.31894
194.578	508.49399
195.127	494.42723
195.676	547.57883
196.225	519.22996
196.773	576.41876
197.321	847.92663
197.87	1125.14445
198.418	1221.28094
198.966	1184.261
199.513	1151.10656
200.061	1186.18441
200.609	1189.31692
201.156	1175.82146
201.704	1095.02382
202.251	1136.22542
202.798	1171.23558
203.345	1153.06908
203.892	1208.18858
204.438	1268.08873
204.985	1177.99855
205.532	1185.28411
206.078	1188.05348
206.624	1199.10703
207.17	1229.92454
207.716	1207.08702
208.262	1208.58925
208.808	1247.21565
209.354	1235.11542
209.899	1248.20319
210.445	1192.10937
210.99	1216.03349
211.535	1222.94939
212.08	1295.02524
212.625	1213.14613
213.17	1207.14429
213.715	1230.91446
214.259	1255.03592
214.804	1228.16213
215.348	1211.90384
215.892	1211.01464
216.436	1310.03649
216.98	1222.84584
217.524	1261.08227
218.068	1232.18157
218.612	1191.12555
219.155	1178.97612
219.698	1062.81858
220.242	1083.92448
220.785	1118.85777
221.328	1094.9897
221.871	1066.97681
222.414	1052.91023
222.956	1039.88514
223.499	1158.90768
224.041	1056.80249
224.583	1063.63446
225.126	1145.8109
225.668	1062.94305
226.21	1093.06323
226.751	1067.71305
227.293	1081.81031
227.835	1051.88095
228.376	1128.84471
228.918	1098.02988
229.459	1101.05312
230	1097.92434
230.541	1095.81192
231.082	1112.95531
231.622	1124.86062
232.163	1175.07327
232.704	1081.9774
233.244	1155.12872
233.784	1046.883
234.324	1112.79925
234.864	1042.73954
235.404	1081.87147
235.944	1063.84701
236.484	1073.96667
237.023	1168.988
237.563	1117.85457
238.102	1113.87628
238.641	1214.20837
239.18	1150.93943
239.719	1071.97676
240.258	1056.6977
240.797	1087.87196
241.335	1068.91879
241.874	1122.4652
242.412	1121.9512
242.95	1164.03518
243.488	1090.80907
244.026	1134.85251
244.564	1215.68818
245.102	1121.77883
245.64	1138.96478
246.177	1095.77112
246.715	1211.05427
247.252	1110.8091
247.789	1097.38176
248.326	1136.98622
248.863	1128.6827
249.4	1152.79964
249.936	1217.65541
250.473	1178.90871
251.009	1265.04766
251.546	1193.78514
252.082	1100.65056
252.618	1182.84251
253.154	1220.09015
253.69	1127.77718
254.226	1135.91558
254.761	1097.71773
255.297	1131.74369
255.832	1115.86646
256.367	1117.84644
256.903	1207.83117
257.438	1220.9749
257.972	1141.74994
258.507	1187.91529
259.042	1186.75279
259.576	1235.83073
260.111	1233.9442
260.645	1265.83596
261.179	1218.97385
261.713	1228.86821
262.247	1235.96299
262.781	1231.73466
263.315	1183.04426
263.849	1265.20162
264.382	1349.04129
264.915	1269.01977
265.449	1236.13233
265.982	1211.83945
266.515	1236.02898
267.048	1302.85938
267.58	1259.79127
268.113	1200.79622
268.646	1258.14871
269.178	1303.93467
269.71	1267.79712
270.243	1246.89578
270.775	1278.25405
271.307	1211.00474
271.838	1249.98989
272.37	1269.14048
272.902	1362.04345
273.433	1216.74854
273.965	1256.05291
274.496	1229.10061
275.027	1268.129
275.558	1289.09959
276.089	1279.16093
276.62	1326.26065
277.15	1237.06599
277.681	1255.75652
278.211	1323.18528
278.741	1349.94336
279.272	1303.97321
279.802	1300.18185
280.332	1362.13636
280.861	1308.06517
281.391	1315.97854
281.921	1299.06668
282.45	1350.24055
282.98	1377.3875
283.509	1291.86135
284.038	1395.0318
284.567	1405.07658
285.096	1384.19482
285.625	1359.99061
286.153	1361.08402
286.682	1353.99261
287.21	1362.12901
287.739	1367.05286
288.267	1418.2262
288.795	1369.41716
289.323	1417.12107
289.851	1453.12496
290.378	1424.98997
290.906	1468.29219
291.433	1469.31819
291.961	1481.0561
292.488	1507.36651
293.015	1512.19814
293.542	1471.35182
294.069	1439.2601
294.596	1434.18975
295.122	1483.21559
295.649	1450.94489
296.175	1481.17824
296.702	1518.22721
297.228	1494.16635
297.754	1450.93088
298.28	1533.04572
298.806	1550.24994
299.332	1599.99527
299.857	1506.99993
300.383	1520.38097
300.908	1559.31931
301.433	1611.32323
301.958	1606.13703
302.483	1618.3758
303.008	1567.25616
303.533	1630.54043
304.058	1545.0674
304.582	1488.11793
305.107	1557.47652
305.631	1571.00541
306.155	1647.13724
306.679	1659.19505
307.203	1628.12985
307.727	1742.27594
308.251	1671.3608
308.775	1710.28248
309.298	1705.25856
309.822	1774.48457
310.345	1745.1975
310.868	1776.31205
311.391	1693.27046
311.914	1725.41857
312.437	1732.99043
312.96	1711.12566
313.482	1811.20782
314.005	1884.50502
314.527	1803.57589
315.049	1854.46424
315.571	1903.02872
316.093	1876.3416
316.615	1928.26662
317.137	1940.92468
317.659	1982.33391
318.18	2042.36213
318.702	2018.14724
319.223	2040.74378
319.744	2026.9793
320.265	2007.26009
320.786	2047.369
321.307	2106.41066
321.828	2077.98524
322.348	2102.12963
322.869	2122.19461
323.389	2132.12048
323.909	2166.96096
324.43	2238.23495
324.95	2231.94124
325.47	2335.30096
325.989	2299.00685
326.509	2352.91568
327.029	2449.94649
327.548	2412.89265
328.067	2383.12029
328.587	2389.17735
329.106	2444.79324
329.625	2413.38905
330.144	2557.93612
330.662	2524.86302
331.181	2450.83546
331.7	2579.91176
332.218	2715.49245
332.736	2708.75578
333.255	2633.7992
333.773	2787.84991
334.291	2860.04361
334.808	2799.5907
335.326	2788.44493
335.844	2974.53674
336.361	2975.85043
336.879	2943.53966
337.396	2982.61229
337.913	3018.33086
338.43	3133.30251
338.947	3034.35865
339.464	3193.07439
339.981	3165.42986
340.497	3199.51084
341.014	3230.52337
341.53	3311.11033
342.046	3333.41017
342.562	3253.4724
343.078	3353.10595
343.594	3453.17952
344.11	3503.12816
344.626	3591.29817
345.141	3635.78426
345.657	3631.70514
346.172	3491.00362
346.687	3712.76813
347.202	3653.5634
347.717	3747.72991
348.232	3803.8812
348.747	3812.57897
349.261	3684.32553
349.776	3838.5622
350.29	3954.79383
350.805	4081.54894
351.319	4026.23418
351.833	4014.26766
352.347	3938.37635
352.861	4178.18838
353.374	4051.16923
353.888	4127.33503
354.401	4059.11637
354.915	4178.94818
355.428	4233.28836
355.941	4366.95133
356.454	4476.65892
356.967	4361.0422
357.48	4342.82923
357.993	4392.11448
358.505	4462.99989
359.018	4541.91435
359.53	4706.78787
360.042	4749.47568
360.554	4641.72215
361.066	4729.77829
361.578	4649.39894
362.09	4732.65716
362.602	4688.40668
363.113	4734.49729
363.625	4861.4308
364.136	5007.28866
364.647	4970.4019
365.158	5135.29078
365.669	5165.39605
366.18	5142.33736
366.691	5104.15367
367.201	5114.35654
367.712	5189.22816
368.222	5340.2011
368.733	5297.06418
369.243	5437.06096
369.753	5562.10198
370.263	5758.25168
370.773	5800.29638
371.282	5706.12483
371.792	6008.25633
372.301	6176.36496
372.811	6189.40853
373.32	6260.45608
373.829	6408.55452
374.338	6719.07848
374.847	6836.25123
375.356	6935.39339
375.865	7234.52024
376.373	7772.75489
376.882	7767.36146
377.39	7945.24453
377.898	8241.29408
378.407	8398.26093
378.915	8741.65469
379.423	9349.03963
379.93	9481.08931
380.438	9910.87483
380.946	10671.65803
381.453	10733.98845
381.96	11323.78549
382.468	12106.97598
382.975	12952.26966
383.482	13309.67244
383.989	13353.17956
384.495	14101.9883
385.002	14787.59058
385.509	15342.53799
386.015	16596.38227
386.521	17314.42598
387.028	17976.83233
387.534	18568.00876
388.04	19416.47044
388.546	19642.74203
389.051	20570.83163
389.557	22131.65294
390.063	24046.66723
390.568	24937.96177
391.073	25421.72518
391.578	26465.86541
392.084	27539.74123
392.589	28310.47578
393.093	30390.21494
393.598	33079.54131
394.103	36109.95477
394.607	39222.43086
395.112	42566.72025
395.616	44602.90436
396.12	47028.9418
396.624	45951.39909
397.128	45041.38363
397.632	42674.3298
398.136	41053.8128
398.639	39575.50194
399.143	37072.18751
399.646	33425.07685
400.15	30257.92651
400.653	26744.30161
401.156	22069.35973
401.659	15501.4617
402.162	4304.81735
402.664	865.43837
403.167	0
403.67	0
404.172	0
404.674	0
405.176	0
405.678	0
406.18	0
406.682	0
407.184	0
407.686	0
408.187	0
408.688	0
409.19	0
409.691	0
410.192	0
410.693	0
411.194	0
411.694	11.28237
412.195	3122.18734
412.696	8274.79556
413.196	11824.3934
413.696	13768.63585
414.196	13509.3687
414.696	14514.78924
415.196	16680.3865
415.696	20882.81744
416.196	28662.6172
416.695	36400.56296
417.195	40282.64143
417.694	41360.26869
418.194	42711.87066
418.693	44201.96737
419.192	45008.95072
419.691	45305.8869
420.19	45830.68337
420.688	46191.2227
421.187	46668.04785
421.685	48102.17801
422.184	47740.89036
422.682	41198.62117
423.18	35587.92465
423.678	31350.46342
424.176	29210.65705
424.674	27362.46808
425.172	26350.65128
425.669	24582.08009
426.167	23057.55004
426.664	21194.96423
427.161	19292.51974
427.659	17864.46071
428.156	16629.82666
428.652	15764.34702
429.149	15102.76887
429.646	14585.7475
430.143	13844.81603
430.639	12866.72897
431.135	12324.39845
431.632	11726.29764
432.128	10680.61979
432.624	10258.77493
433.12	10029.70882
433.616	9365.28774
434.111	9172.64922
434.607	8764.31962
435.103	8696.57868
435.598	8142.2943
436.093	7976.22273
436.588	7598.72015
437.083	7301.67583
437.578	6981.76302
438.073	6590.80296
438.568	6498.66131
439.062	6344.63638
439.557	6061.26074
440.051	5851.11862
440.546	5599.01682
441.04	5378.00664
441.534	5317.14697
442.028	5276.04706
442.522	5054.07135
443.015	5170.99784
443.509	4964.16323
444.002	4820.2421
444.496	4744.0748
444.989	4762.34492
445.482	4728.46084
445.975	4640.17761
446.468	4548.08809
446.961	4507.26894
447.454	4393.3682
447.947	4317.56475
448.439	4159.65954
448.931	4169.50959
449.424	4194.887
449.916	4146.77875
450.408	4000.64262
450.9	3916.01284
451.392	3990.07022
451.884	3693.91917
452.375	3696.4689
452.867	3622.93927
453.358	3716.01156
453.849	3652.81999
454.341	3549.07877
454.832	3478.0099
455.323	3500.44632
455.814	3371.28161
456.304	3425.28652
456.795	3228.3177
457.285	3210.28148
457.776	3316.38465
458.266	3223.64404
458.756	3168.72657
459.247	3161.76948
459.737	3003.87659
460.226	2926.64882
460.716	3019.97048
461.206	2875.97664
461.695	2856.3303
462.185	2821.00527
462.674	2779.9589
463.163	2818.88355
463.653	2716.66832
464.142	2616.40369
464.63	2637.36264
465.119	2656.29246
465.608	2499.25564
466.096	2536.09553
466.585	2486.3011
467.073	2434.40617
467.561	2383.48233
468.05	2342.4078
468.538	2345.62114
469.026	2283.51174
469.513	2267.18553
470.001	2251.45282
470.489	2190.56476
470.976	2185.47237
471.463	2120.85225
471.951	2040.81703
472.438	2003.69822
472.925	1975.71705
473.412	1841.6952
473.899	1890.58855
474.385	1840.79709
474.872	1860.72334
475.359	1822.88718
475.845	1743.38342
476.331	1653.40041
476.817	1694.87668
477.303	1600.62084
477.789	1546.75067
478.275	1533.91407
478.761	1545.71736
479.247	1446.4813
479.732	1509.88227
480.218	1559.10558
480.703	1458.89316
481.188	1487.52622
481.673	1413.60611
482.158	1349.47694
482.643	1305.79712
483.128	1280.58991
483.612	1264.62161
484.097	1267.70844
484.581	1230.63148
485.066	1120.59751
485.55	1086.36255
486.034	1061.35365
486.518	1139.60806
487.002	1158.71839
487.486	1077.64542
487.969	1076.61724
488.453	1013.6122
488.936	1050.44745
489.42	981.32081
489.903	1036.6814
490.386	1030.9312
490.869	985.31839
491.352	953.53363
491.835	945.20371
492.318	969.40816
492.8	900.16934
493.283	847.46455
493.765	876.47676
494.247	889.38589
494.73	871.27835
495.212	871.43292
495.694	797.26221
496.175	806.3275
496.657	817.31553
497.139	713.77521
497.62	766.29713
498.102	745.3288
498.583	726.30652
499.064	609.96387
499.545	721.16575
500.026	679.08775
500.507	697.16437
500.988	703.25243
501.469	647.20729
501.949	618.13227
502.43	627.11098
502.91	576.85593
503.39	581.08283
503.87	659.13634
504.35	596.03977
504.83	565.92148
505.31	574.0499
505.79	570.0431
506.269	603.04398
506.749	588.01337
507.228	506.90305
507.707	589.97521
508.187	500.89372
508.666	597.12538
509.145	536.97392
509.623	533.9633
510.102	477.90395
510.581	533.99136
511.059	496.97463
511.538	491.99642
512.016	540.98568
512.494	545.02717
512.972	548.00073
513.45	517.93246
513.928	502.9446
514.406	508.97516
514.884	539.07809
515.361	487.90533
515.839	497.86522
516.316	493.91603
516.793	489.98239
517.27	477.90615
517.747	524.07491
518.224	507.91348
518.701	486.82752
519.178	505.99676
519.654	468.87585
520.131	483.95647
520.607	456.89096
521.083	446.80457
521.56	482.91186
522.036	449.76964
522.512	472.91261
522.987	448.84463
523.463	486.92933
523.939	408.78507
524.414	493.88734
524.89	513.9551
525.365	455.82354
525.84	442.84764
526.315	407.78032
526.79	425.75864
527.265	416.75236
527.74	462.90397
528.215	453.85175
528.689	499.86963
529.164	465.79922
529.638	438.90652
530.112	383.7382
530.587	353.60114
531.061	409.79325
531.534	449.87583
532.008	406.79477
532.482	388.71354
532.956	427.89107
533.429	428.83942
533.903	333.58148
534.376	440.78928
534.849	391.73009
535.322	447.86281
535.795	411.81693
536.268	416.81434
536.741	396.77519
537.213	407.76148
537.686	383.77761
538.158	373.68164
538.631	361.71755
539.103	419.77231
539.575	364.604
540.047	426.75905
540.519	433.83298
540.991	427.84122
541.463	429.84715
541.934	421.78339
542.406	436.85956
542.877	476.8763
543.348	436.84744
543.82	394.78259
544.291	421.79547
544.762	437.85201
545.233	445.89936
545.703	512.91565
546.174	473.86356
546.645	574.10871
547.115	522.99528
547.585	497.89867
548.056	552.04421
548.526	565.0243
548.996	576.05145
549.466	639.18703
549.935	592.07581
550.405	657.06917
550.875	708.26494
551.344	609.10817
551.814	633.07747
552.283	656.0505
552.752	712.2296
553.221	720.15724
553.69	824.29727
554.159	741.3271
554.628	721.14869
555.096	732.3652
555.565	757.24553
556.033	659.14421
556.502	655.19447
556.97	497.82915
557.438	529.99615
557.906	522.97162
558.374	545.00303
558.842	424.8359
559.31	398.72164
559.777	433.8711
560.245	438.85416
560.712	348.66381
561.18	394.72203
561.647	377.70918
562.114	371.71336
562.581	372.76234
563.048	396.75721
563.514	357.72846
563.981	413.78762
564.448	364.69298
564.914	361.69747
565.381	443.83745
565.847	354.68641
566.313	331.64994
566.779	397.74754
567.245	443.87233
567.711	331.66099
568.176	359.67299
568.642	438.94138
569.108	405.83203
569.573	383.74885
570.038	338.59598
570.504	354.66378
570.969	404.85299
571.434	377.69348
571.899	414.82309
572.363	383.71409
572.828	350.65401
573.293	461.86125
573.757	396.75428
574.222	380.69356
574.686	449.82347
575.15	393.77715
575.614	418.78806
576.078	391.75761
576.542	398.74298
577.006	375.69952
577.469	357.71655
577.933	497.9051
578.396	405.80688
578.86	416.79661
579.323	480.9463
579.786	405.71209
580.249	459.87535
580.712	417.84277
581.175	451.92319
581.637	387.72835
582.1	410.73545
582.563	360.6298
583.025	455.91915
583.487	423.69788
583.95	386.6874
584.412	433.73703
584.874	325.65533
585.336	424.83236
585.797	377.66598
586.259	444.85517
586.721	476.93709
587.182	403.77153
587.643	396.73888
588.105	396.77886
588.566	387.66974
589.027	324.64836
589.488	367.69479
589.949	403.81
590.41	455.72533
590.87	396.74291
591.331	392.69664
591.791	424.80879
592.252	391.75616
592.712	419.84177
593.172	459.85879
593.632	437.7849
594.092	385.71283
594.552	434.75251
595.011	411.79408
595.471	409.75463
595.931	389.72384
596.39	366.73478
596.849	449.86584
597.308	470.82448
597.768	417.89413
598.227	358.71474
598.685	415.77645
599.144	398.77247
599.603	420.81634
600.062	385.69148
600.52	385.71283
600.978	461.91632
601.437	378.71684
601.895	392.68869
602.353	413.77041
602.811	419.77153
603.269	417.83659
603.727	380.76465
604.184	365.69438
604.642	412.84431
605.099	380.73823
605.557	399.82377
606.014	472.84278
606.471	424.89639
606.928	495.885
607.385	491.98232
607.842	647.16377
608.299	688.20257
608.755	583.10863
609.212	518.90824
609.668	615.10608
610.125	545.03723
610.581	516.9614
611.037	508.92959
611.493	420.81789
611.949	461.92956
612.405	407.69725
612.861	360.71473
613.316	374.76714
613.772	345.66528
614.227	440.87396
614.683	437.77966
615.138	422.84212
615.593	374.7498
616.048	392.76554
616.503	419.8736
616.958	368.79606
617.412	390.79706
617.867	310.60195
618.321	349.62875
618.776	392.74158
619.23	373.76042
619.684	304.58607
620.138	276.5413
620.592	341.72362
621.046	323.6528
621.5	346.73535
621.954	347.67685
622.407	410.79804
622.861	336.71628
623.314	285.57336
623.768	294.6025
624.221	301.53225
624.674	252.51877
625.127	303.63513
625.58	235.4804
626.033	276.5413
626.485	245.53103
626.938	300.64009
627.39	299.62093
627.843	244.50909
628.295	246.51714
628.747	250.5318
629.199	250.52531
629.651	252.53255
630.103	203.4274
630.555	272.53724
631.006	201.43436
631.458	157.34494
631.909	163.34349
632.361	190.41419
632.812	219.46677
633.263	189.38093
633.714	163.32777
634.165	145.32728
634.616	131.29568
635.067	179.3704
635.518	199.44457
635.968	156.29655
636.419	181.37538
636.869	178.39938
637.319	120.26193
637.769	199.42488
638.219	139.31604
638.669	136.31279
639.119	113.26275
639.569	140.32456
640.019	103.22944
640.468	76.16512
640.918	115.26433
641.367	190.41753
641.816	56.12125
642.265	73.16336
642.714	98.22196
643.163	133.29897
643.612	90.21574
644.061	129.27292
644.51	99.22145
644.958	165.36282
645.406	76.17822
645.855	116.277
646.303	85.19217
646.751	107.2423
647.199	106.2351
647.647	112.25357
648.095	111.25197
648.543	83.16821
648.99	90.21146
649.438	63.14388
649.885	65.15809
650.333	92.17983
650.78	103.2461
651.227	112.26581
651.674	90.20451
652.121	93.22289
652.568	124.29565
653.015	145.35846
653.461	61.14469
653.908	90.20451
654.354	73.17061
654.801	83.19535
655.247	36.07805
655.693	27.06914
656.139	63.15047
656.585	52.1237
657.031	89.20735
657.477	59.12641
657.922	60.13733
658.368	110.26739
658.813	105.24038
659.259	102.2445
659.704	110.25592
660.149	104.24416
660.594	64.1506
661.039	49.11191
661.484	92.21683
661.929	70.16273
662.373	7.01757
662.818	71.17533
663.262	88.21135
663.707	88.22022
664.151	114.27452
664.595	85.20426
665.039	118.29123
665.483	58.14661
665.927	103.24035
666.371	91.21209
666.814	92.21885
667.258	52.1236
667.701	121.25902
668.145	82.20231
668.588	87.21374
669.031	69.1631
669.474	81.19642
669.917	96.21132
670.36	85.21067
670.803	78.18612
671.245	82.17405
671.688	54.13008
672.13	30.06858
672.573	118.29764
673.015	74.17745
673.457	58.12789
673.899	88.21303
674.341	64.15493
674.783	110.26899
675.225	49.11994
675.666	77.18847
676.108	96.21088
676.549	97.22919
676.991	122.27464
677.432	82.16782
677.873	113.26586
678.314	79.1907
678.755	106.25834
679.196	80.18627
679.637	108.26194
680.078	52.12198
680.518	53.12329
680.959	95.23261
681.399	56.14034
681.839	74.18311
682.28	80.19991
682.72	38.0889
683.16	108.26978
683.6	73.16719
684.039	40.08435
684.479	54.13484
684.919	79.18789
685.358	116.29468
685.798	104.2735
686.237	85.20697
686.676	60.13938
687.115	95.22473
687.554	84.2022
687.993	52.11797
688.432	116.27392
688.871	120.27643
689.309	38.09109
689.748	110.23461
690.186	103.24732
690.625	134.32072
691.063	66.1608
691.501	79.19595
691.939	94.23685
692.377	101.24868
692.815	122.298
693.253	82.19828
693.69	92.20871
694.128	101.25115
694.565	119.28769
695.003	96.24474
695.44	-2.00477
695.877	38.09026
696.314	111.24378
696.751	59.1354
697.188	92.21396
697.625	121.28101
698.061	93.22484
698.498	62.15071
698.934	94.22995
699.371	86.20772
699.807	105.25212
700.243	114.28033
700.679	45.10327
701.115	103.24214
701.551	85.20317
701.987	59.13366
702.422	84.20297
702.858	92.22255
703.294	78.17875
703.729	112.27673
704.164	101.24685
704.599	78.17739
705.035	106.2471
705.47	73.17894
705.904	124.29769
706.339	108.25226
706.774	96.22994
707.209	102.24049
707.643	73.17808
708.078	89.21954
708.512	35.0899
708.946	98.23643
709.38	71.16912
709.814	57.13327
710.248	63.15443
710.682	94.22807
711.116	93.22924
711.549	101.26323
711.983	18.043
712.416	75.17872
712.85	28.07058
713.283	81.1945
713.716	89.22244
714.149	104.25006
714.582	35.07984
715.015	102.25581
715.448	91.22958
715.881	69.15109
716.313	106.25177
716.746	59.14253
717.178	40.09793
717.61	50.12733
718.043	82.20691
718.475	67.16466
718.907	60.15102
719.339	83.19337
719.77	99.23835
720.202	87.21948
720.634	67.16661
721.065	72.17246
721.497	58.14394
721.928	71.1772
722.359	95.23486
722.79	105.25385
723.221	85.21352
723.652	55.14098
724.083	62.14385
724.514	99.23119
724.945	-11.0263
725.375	141.33599
725.806	140.35161
726.236	89.22821
726.666	107.25566
727.096	95.23554
727.526	119.30663
727.956	131.30496
728.386	50.12327
728.816	63.16188
729.246	104.25677
729.675	87.21886
730.105	35.08684
730.534	58.13728
730.964	88.22229
731.393	68.1682
731.822	116.29697
732.251	107.27177
732.68	163.38662
733.109	82.20424
733.537	85.20821
733.966	37.09328
734.395	93.21641
734.823	89.20302
735.251	56.13562
735.68	102.25673
736.108	88.22458
736.536	71.16912
736.964	94.22103
737.392	38.09554
737.82	35.08513
738.247	88.21167
738.675	41.09804
739.102	63.15956
739.53	71.18384
739.957	79.20498
740.384	89.21752
740.811	53.13557
741.238	44.10816
741.665	84.19836
742.092	110.26338
742.519	69.1742
742.945	18.04425
743.372	28.07022
743.798	59.15182
744.225	63.15248
744.651	83.21096
745.077	47.11836
745.503	22.054
745.929	24.05847
746.355	67.16545
746.781	96.24128
747.207	54.13141
747.632	48.12068
748.058	57.14437
748.483	59.13811
748.908	105.26252
749.334	81.20157
749.759	61.14631
750.184	19.04663
750.609	40.09923
751.033	76.1803
751.458	86.1951
751.883	75.1865
752.307	40.09607
752.732	41.10469
753.156	34.08518
753.58	36.08607
754.005	79.20172
754.429	44.10471
754.853	54.13601
755.277	67.16113
755.7	68.17164
756.124	76.19101
756.548	18.04403
756.971	33.08092
757.394	53.13581
757.818	67.1736
758.241	89.22701
758.664	69.17581
759.087	32.07416
759.51	72.17933
759.933	37.09134
760.356	58.14766
760.778	66.16218
761.201	72.17561
761.623	87.21231
762.046	64.15336
762.468	47.11299
762.89	46.11332
763.312	15.03693
763.734	-44.10864
764.156	29.07259
764.578	46.10592
765	4.00985
765.421	87.22394
765.843	43.1118
766.264	74.18089
766.686	84.21385
767.107	54.1324
767.528	67.17174
767.949	57.14524
768.37	73.18093
768.791	93.22577
769.212	52.13332
769.632	64.15365
770.053	59.15749
770.473	80.19861
770.894	62.15499
771.314	38.09102
771.734	61.14346
772.154	63.16171
772.575	38.089
772.994	25.05813
773.414	72.17489
773.834	83.21059
774.254	107.26481
774.673	61.14992
775.093	60.15134
775.512	45.11259
775.931	76.19362
776.351	23.05767
776.77	70.17385
777.189	40.09636
777.607	49.12666
778.026	42.10636
778.445	75.19299
778.864	32.08261
779.282	28.0687
779.701	0
780.119	26.06687
780.537	28.0707
780.955	64.16425
781.373	21.05239
781.791	13.0298
782.209	36.08316
782.627	67.17712
783.045	50.11592
783.462	55.14325
783.88	36.09423
784.297	52.1321
784.715	100.26227
785.132	30.07393
785.549	6.01509
785.966	20.0509
786.383	51.12784
786.8	23.0542
787.217	61.14642
787.633	47.11938
788.05	26.06225
788.466	40.09391
788.883	95.24589
789.299	40.09763
789.715	52.12792
790.131	61.15241
790.547	29.07272
790.963	73.18067
791.379	27.06902
791.795	62.14311
792.21	12.02815
792.626	23.0555
793.041	40.10028
793.457	11.02752
793.872	43.10227
794.287	42.1032
794.702	34.08413
795.117	41.10288
795.532	26.06642
795.947	8.0193
796.362	67.15904
796.776	79.1826
797.191	68.16802
797.605	32.07773
798.02	37.09093
798.434	51.11413
798.848	32.08005
799.262	33.08287
799.676	36.08794
800.09	43.10736
800.504	40.09836
800.918	27.0635
801.331	38.09865
801.745	73.17101
802.158	1.00251
802.572	30.07287
802.985	47.11333
803.398	72.17305
803.811	9.02303
804.224	28.06974
804.637	36.08682
805.05	-2.0047
805.462	76.18537
805.875	33.08701
806.288	27.06675
806.7	25.06314
807.112	-16.03724
807.525	14.03469
807.937	72.18096
808.349	66.16588
808.761	49.12247
809.173	75.18405
809.584	35.08672
809.996	8.01988
810.408	61.15969
810.819	93.22017
811.231	147.38442
811.642	204.48283
812.053	286.65142
812.464	303.67045
812.875	292.70228
813.286	140.34882
813.697	95.2132
814.108	76.18398
814.519	84.18824
814.929	54.13806
815.34	72.17535
815.75	31.07982
816.16	53.13141
816.571	47.12174
816.981	61.14542
817.391	30.07396
817.801	65.16304
818.211	-4.00948
818.62	34.08234
819.03	17.04189
819.44	58.15031
819.849	53.13376
820.259	83.21186
820.668	45.11251
821.077	42.10579
821.486	47.11367
821.895	74.18069
822.304	-4.01064
822.713	91.21693
823.122	31.07826
823.531	55.13197
823.939	42.1037
824.348	63.15455
824.756	62.1556
825.164	23.05829
825.573	9.02277
825.981	97.24006
826.389	66.16409
826.797	44.11095
827.205	77.17954
827.612	84.20572
828.02	90.21492
828.428	43.10991
828.835	108.28575
829.243	-8.01918
829.65	13.03267
830.057	44.10692
830.464	69.16788
830.871	58.13924
831.278	128.31091
831.685	51.11413
832.092	81.1973
832.499	117.25879
832.905	52.13088
833.312	39.089
833.718	57.14195
834.124	11.02524
834.531	59.14837
834.937	73.1881
835.343	60.14437
835.749	48.11251
836.155	53.14007
836.561	64.15871
836.966	33.07996
837.372	71.18123
837.777	16.03994
838.183	79.17583
838.588	101.25216
838.993	49.11989
839.399	38.09427
839.804	43.10685
840.209	83.2129
840.613	53.11904
841.018	56.14125
841.423	78.20074
841.828	52.1329
842.232	41.10054
842.637	39.09236
843.041	37.09584
843.445	40.10162
843.849	37.09228
844.253	58.13808
844.657	11.02802
845.061	28.06388
845.465	54.13249
845.869	-9.02097
846.272	81.20127
846.676	57.13739
847.079	45.11527
847.483	64.16039
847.886	16.03843
848.289	65.17517
848.692	53.1339
849.095	42.10179
849.498	10.02504
849.901	89.20474
850.304	18.0432
850.707	57.14524
851.109	39.09705
851.512	50.1235
851.914	24.06153
852.316	36.09103
852.718	-5.01299
853.121	41.10114
853.523	18.04234
853.925	41.10799
854.326	52.13177
854.728	62.15945
855.13	26.06828
855.531	37.08949
855.933	27.06471
856.334	39.09846
856.736	54.12295
857.137	40.09468
857.538	71.17918
857.939	55.13657
858.34	19.04616
858.741	18.04702
859.142	28.06735
859.542	59.15629
859.943	40.09956
860.343	43.10782
860.744	36.08764
861.144	43.1056
861.544	28.06888
861.945	-33.08486
862.345	32.07886
862.745	28.07045
863.145	25.05969
863.544	69.17376
863.944	10.02359
864.344	38.09448
864.743	68.16728
865.143	55.14152
865.542	23.05373
865.941	61.15119
866.34	51.12148
866.74	32.08614
867.139	27.06631
867.537	-19.04843
867.936	-7.01702
868.335	36.0912
868.734	44.1117
869.132	41.09496
869.531	-1.00242
869.929	62.14476
870.327	36.08728
870.726	-7.0173
871.124	14.03289
871.522	5.01283
871.92	2.0049
872.318	-4.0099
872.715	18.04439
873.113	75.18317
873.511	35.0877
873.908	57.14626
874.306	37.09281
874.703	34.08496
875.1	23.05852
875.497	62.14981
875.894	65.16258
876.291	71.17346
876.688	17.04396
877.085	34.08153
877.482	39.09818
877.878	20.04845
878.275	95.24232
878.671	34.07547
879.068	18.04293
879.464	33.07942
879.86	42.1001
880.256	70.17162
880.652	55.14078
881.048	18.04423
881.444	92.21868
881.84	56.14332
882.236	28.0702
882.631	19.04647
883.027	6.01452
883.422	35.08978
883.817	21.05347
884.213	38.09797
884.608	59.14639
885.003	31.07546
885.398	30.07581
885.793	36.09081
886.188	17.04319
886.582	10.02549
886.977	30.07093
887.371	56.14201
887.766	77.19544
888.16	7.01735
888.554	43.10482
888.949	41.10199
889.343	-15.03647
889.737	5.01347
890.131	79.19909
890.525	11.02822
890.918	47.11857
891.312	12.02861
891.706	50.13149
892.099	56.14357
892.492	47.10118
892.886	15.03693
893.279	69.17687
893.672	52.13294
894.065	31.07798
894.458	34.08573
894.851	59.14388
895.244	35.0895
895.637	33.07969
896.029	27.06616
896.422	16.03936
896.814	7.01753
897.206	33.0805
897.599	64.15668
897.991	67.16308
898.383	-10.02384
898.775	7.01593
899.167	17.0402
899.559	5.01267
899.951	15.03554
900.342	12.03054
900.734	73.18423
901.125	23.06029
901.517	57.14024
901.908	44.10583
902.299	19.04699
902.69	62.14573
903.082	22.0533
903.473	-12.02915
903.863	9.02313
904.254	19.04505
904.645	10.02467
905.036	36.08911
905.426	-24.05469
905.817	55.13597
906.207	1.00242
906.597	24.05698
906.987	62.16067
907.378	44.11114
907.768	-13.03446
908.158	24.0586
908.547	39.10157
908.937	30.07718
909.327	76.18405
909.717	62.157
910.106	16.03895
910.495	-4.00996
910.885	21.05324
911.274	59.14666
911.663	33.08287
912.052	28.06862
912.441	52.1329
912.83	32.0738
913.219	-9.02346
913.608	40.09742
913.997	34.08662
914.385	-6.01446
914.774	38.09261
915.162	38.09168
915.55	-18.04374
915.939	35.08921
916.327	60.15037
916.715	40.10312
917.103	-7.01708
917.491	12.02979
917.878	10.02467
918.266	32.08341
918.654	57.14642
919.041	51.13487
919.429	64.15254
919.816	4.01015
920.203	72.17535
920.591	9.02238
920.978	21.05165
921.365	12.03165
921.752	20.04836
922.139	6.01307
922.525	0
922.912	27.06582
923.299	18.04514
923.685	68.17865
924.072	-24.05513
924.458	36.08963
924.844	-1.00252
925.231	11.02576
925.617	66.16992
926.003	25.06352
926.389	-5.0127
926.774	67.17078
927.16	31.07644
927.546	16.04125
927.931	28.06989
928.317	27.06238
928.702	-41.09688
929.088	-22.05302
929.473	-7.01775
929.858	-1.00247
930.243	22.05364
930.628	13.03163
931.013	11.02721
931.398	27.06224
931.783	18.0471
932.167	65.15904
932.552	-21.05224
932.937	5.01232
933.321	40.10144
933.705	-2.00503
934.09	11.02766
934.474	38.09078
934.858	4.01042
935.242	-15.03566
935.626	32.0819
936.009	4.01067
936.393	52.1321
936.777	38.0979
937.16	39.10182
937.544	-16.03774
937.927	17.04341
938.311	25.06071
938.694	-5.01318
939.077	37.08986
939.46	41.09968
939.843	89.18508
940.226	4.01028
940.609	60.13882
940.991	33.08474
941.374	-7.01723
941.757	36.08892
942.139	30.06869
942.522	17.03984
942.904	45.10912
943.286	16.04068
943.668	8.0208
944.05	86.21428
944.432	27.0677
944.814	-5.01229
945.196	19.04708
945.578	11.02687
945.959	47.10967
946.341	-3.00727
946.722	17.04011
947.104	49.11641
947.485	9.02096
947.866	56.14246
948.247	12.03067
948.628	52.12636
949.009	27.07003
949.39	57.14153
949.771	2.00464
950.152	12.02964
950.532	37.09264
950.913	-21.05062
951.293	51.13914
951.674	-14.03401
952.054	-27.06712
952.434	-57.14246
952.814	13.03098
953.194	48.12486
953.574	60.14792
953.954	42.10125
954.334	56.13989
954.714	3.00741
955.093	38.09341
955.473	39.098
955.853	28.07249
956.232	-6.01632
956.611	-40.09577
956.99	39.09881
957.37	16.04092
957.749	55.13242
958.128	15.03822
958.506	24.06256
958.885	40.10126
959.264	18.04451
959.643	-14.03204
960.021	12.02991
960.4	-33.0747
960.778	41.10095
961.156	6.01515
961.535	50.11679
961.913	48.11238
962.291	47.12207
962.669	-7.01792
963.047	-3.00769
963.424	5.01279
963.802	36.08931
964.18	44.10979
964.557	-4.00912
964.935	-2.00476
965.312	6.0158
965.69	26.06516
966.067	47.11534
966.444	66.16307
966.821	10.02588
967.198	18.04338
967.575	44.1074
967.952	32.07519
968.329	5.01213
968.705	31.06642
969.082	3.00778
969.458	-7.01714
969.835	57.13879
970.211	70.17984
970.587	65.16116
970.963	28.07171
971.339	17.04465
971.715	-13.03241
972.091	17.04178
972.467	43.10767
972.843	2.00498
973.219	37.08766
973.594	42.11079
973.97	21.04933
974.345	28.06689
974.721	57.13786
975.096	-30.07314
975.471	65.15442
975.846	-5.01202
976.221	18.04608
976.596	-3.00723
976.971	-1.00247
977.346	11.02568
977.72	60.15356
978.095	23.05922
978.469	67.16033
978.844	19.04747
979.218	51.12409
979.593	25.06026
979.967	14.03403
980.341	-6.01395
980.715	-5.01267
981.089	52.12975
981.463	27.06268
981.837	16.03958
982.21	-35.0818
982.584	16.03913
982.957	28.0708
983.331	36.0857
983.704	6.01483
984.078	-36.08954
984.451	22.05444
984.824	60.1476
985.197	59.14473
985.57	16.04024
985.943	27.06658
986.316	34.08231
986.688	36.08764
987.061	51.11943
987.434	47.12212
987.806	46.11232
988.179	0
988.551	-8.02014
988.923	21.05182
989.295	58.14562
989.667	33.08053
990.039	43.10736
990.411	-15.03464
990.783	48.10969
991.155	-6.0146
991.527	1.00245
991.898	13.03294
992.27	41.10362
992.641	17.0422
993.012	-38.08855
993.384	66.15785
993.755	16.04056
994.126	44.10632
994.497	39.09695
994.868	26.0602
995.239	-16.0392
995.61	52.13159
995.98	-6.01474
996.351	21.05302
996.722	36.08518
997.092	29.06977
997.462	27.06451
997.833	113.26906
998.203	39.09432
998.573	18.04506
998.943	8.0189
999.313	40.0961
999.683	33.08053
1000.053	34.07917
1000.423	20.04847
1000.792	38.09868
1001.162	65.1624
1001.531	-24.05923
1001.901	18.04503
1002.27	50.1115
1002.639	3.00771
1003.009	33.07852
1003.378	37.09511
1003.747	7.01658
1004.116	-6.01469
1004.485	51.12237
1004.853	44.11106
1005.222	24.06058
1005.591	31.07336
1005.959	13.03006
1006.328	64.14908
1006.696	-7.01694
1007.064	40.10035
1007.433	-14.03476
1007.801	64.15627
1008.169	29.07405
1008.537	5.01115
1008.905	54.12757
1009.273	-2.00492
1009.64	65.15815
1010.008	-7.01658
1010.375	30.07186
1010.743	-25.05657
1011.11	2.00477
1011.478	31.07695
1011.845	36.08551
1012.212	66.15119
1012.579	28.06944
1012.946	-3.00714
1013.313	6.01424
1013.68	76.17024
1014.047	30.07241
1014.414	50.1189
1014.78	41.10336
1015.147	55.13172
1015.513	30.07241
1015.88	69.17569
1016.246	-19.04682
1016.612	37.08525
1016.978	-7.0171
1017.344	-17.042
1017.71	18.04379
1018.076	28.06597
1018.442	11.02793
1018.808	60.15178
1019.174	32.08054
1019.539	-30.06767
1019.905	19.04562
1020.27	28.06941
1020.636	1.0024
1021.001	0
1021.366	23.05554
1021.731	27.06974
1022.096	48.12254
1022.461	44.10475
1022.826	36.08534
1023.191	9.02372
1023.556	16.03793
1023.92	49.12007
1024.285	4.0097
1024.649	14.03466
1025.014	10.02487
1025.378	38.09599
1025.742	86.21413
1026.107	32.07269
1026.471	19.04397
1026.835	20.05038
1027.199	58.14152
1027.562	36.08491
1027.926	66.15923
1028.29	-32.08129
1028.654	28.06491
1029.017	56.1376
1029.381	40.09629
1029.744	21.0536
1030.107	72.1689
1030.471	30.0723
1030.834	88.20223
1031.197	-5.01202
1031.56	-18.04282
1031.923	63.16369
1032.286	31.07282
1032.648	-8.01891
1033.011	29.06679
1033.374	-21.04887
1033.736	17.04518
1034.099	11.02691
1034.461	47.11984
1034.823	5.01256
1035.185	18.0454
1035.548	24.05876
1035.91	-62.14856
1036.272	42.09598
1036.634	-8.01951
1036.995	27.06372
1037.357	55.13577
1037.719	-2.00489
1038.08	8.01891
1038.442	34.08069
1038.803	67.16002
1039.165	77.19557
1039.526	10.02442
1039.887	42.10068
1040.248	25.06228
1040.609	16.03932
1040.97	-12.02944
1041.331	23.05869
1041.692	64.15341
1042.053	17.03876
1042.413	13.03018
1042.774	43.10427
1043.134	35.08212
1043.495	59.14831
1043.855	-24.0581
1044.215	26.06457
1044.576	70.16907
1044.936	31.07168
1045.296	65.16163
1045.656	61.15042
1046.016	68.1648
1046.375	17.0415
1046.735	14.03238
1047.095	72.17121
1047.454	23.04883
1047.814	48.11572
1048.173	-16.0379
1048.533	-15.03481
1048.892	-11.02686
1049.251	-15.03754
1049.61	80.19803
1049.969	-3.0071
1050.328	-3.00651
1050.687	14.0344
1051.046	18.04415
1051.405	32.07982
1051.763	37.08614
1052.122	48.12086
1052.48	21.05157
1052.839	57.13531
1053.197	21.04958
1053.555	37.08338
1053.914	47.11513
1054.272	39.09425
1054.63	-5.01242
1054.988	39.09358
1055.345	46.10007
1055.703	43.10329
1056.061	-7.01814
1056.419	75.19527
1056.776	-11.02681
1057.134	40.09306
1057.491	-3.00757
1057.848	19.04732
1058.206	68.16045
1058.563	51.11375
1058.92	42.09725
1059.277	29.07135
1059.634	65.15376
1059.991	50.11858
1060.348	-55.12728
1060.704	59.14216
1061.061	5.01159
1061.418	37.09097
1061.774	36.08859
1062.131	66.17743
1062.487	41.0965
1062.843	14.03481
1063.199	55.13677
1063.555	17.04017
1063.911	9.02265
1064.267	22.0459
1064.623	27.06646
1064.979	51.11994
1065.335	35.08279
1065.691	23.05533
1066.046	59.13159
1066.402	66.15095
1066.757	27.06817
1067.112	7.01723
1067.468	13.03139
1067.823	75.18071
1068.178	26.06382
1068.533	27.06488
1068.888	42.09907
1069.243	33.08149
1069.598	57.13796
1069.952	18.04191
1070.307	19.04735
1070.662	50.12059
1071.016	53.12021
1071.371	4.0092
1071.725	8.01906
1072.079	-51.12307
1072.434	26.06391
1072.788	24.05729
1073.142	47.11491
1073.496	43.10412
1073.85	4.00939
1074.203	49.1186
1074.557	25.06629
1074.911	33.07788
1075.265	16.0377
1075.618	41.09942
1075.971	44.10535
1076.325	17.0435
1076.678	61.14245
1077.031	27.06271
1077.385	-42.09335
1077.738	-13.02973
1078.091	51.11868
1078.444	10.02321
1078.796	36.08967
1079.149	4.00991
1079.502	23.05569
1079.855	-13.03044
1080.207	34.08283
1080.56	24.06299
1080.912	-26.06344
1081.264	28.06796
1081.617	62.15263
1081.969	-24.06147
1082.321	19.04664
1082.673	-12.02783
1083.025	8.01896
1083.377	285.64508
1083.728	59.13795
1084.08	15.03773
1084.432	22.05382
1084.783	31.07299
1085.135	45.11397
1085.486	45.10455
1085.838	0
1086.189	-21.05161
1086.54	3.00714
1086.891	42.10787
1087.242	14.03422
1087.593	15.03644
1087.944	5.0114
1088.295	22.04991
1088.646	76.1844
1088.996	37.09003
1089.347	17.04186
1089.698	16.03827
1090.048	62.16051
1090.398	37.08668
1090.749	16.03831
1091.099	-22.05599
1091.449	40.1005
1091.799	30.07529
1092.149	3.00749
1092.499	-6.01471
1092.849	-4.01029
1093.199	35.08707
1093.548	35.08564
1093.898	79.19809
1094.248	43.11053
1094.597	46.11942
1094.947	-19.05068
1095.296	25.06205
1095.645	26.06701
1095.994	33.07942
1096.343	17.0429
1096.692	29.07687
1097.041	1.00274
1097.39	26.06546
1097.739	2.00522
1098.088	-30.07969
1098.437	22.05877
1098.785	23.06184
1099.134	1.00263
1099.482	1.00275
1099.83	-15.03936
1100.179	19.04987
1100.527	45.12044
1100.875	42.11187
1101.223	13.03455
1101.571	-4.01103
1101.919	2.00529
1102.267	47.13307
1102.615	3.00965
1102.962	6.01931
1103.31	5.0161
1103.658	17.0546
