Data from N2 R4 sample 6_Subt2__1__19-24-57-468.txt Node

Date: Wed Aug 27 19:24:57 PDT 2025
User: uwsun
Spectrometer: HDX01956
Trigger mode: 0
Integration Time (sec): 5.000000E-1
Scans to average: 1
Nonlinearity correction enabled: true
Boxcar width: 0
Storing dark spectrum: false
XAxis mode: Wavelengths
Number of Pixels in Spectrum: 2068
>>>>>Begin Spectral Data<<<<<
194.03	608.53757
194.578	591.71773
195.127	591.6834
195.676	581.66867
196.225	599.39791
196.773	673.62829
197.321	1043.27701
197.87	1328.40925
198.418	1388.48816
198.966	1393.52828
199.513	1306.29889
200.061	1348.38422
200.609	1342.52179
201.156	1316.95825
201.704	1277.25519
202.251	1329.48696
202.798	1402.52998
203.345	1380.3357
203.892	1337.34458
204.438	1409.23288
204.985	1427.26292
205.532	1397.5585
206.078	1368.25451
206.624	1439.37428
207.17	1347.03824
207.716	1389.28872
208.262	1381.71537
208.808	1421.41388
209.354	1376.27028
209.899	1413.38996
210.445	1462.41052
210.99	1422.24789
211.535	1424.14374
212.08	1440.16034
212.625	1407.367
213.17	1394.35953
213.715	1415.08646
214.259	1490.26277
214.804	1448.40691
215.348	1435.1137
215.892	1442.25124
216.436	1439.15561
216.98	1427.02692
217.524	1370.19593
218.068	1414.38846
218.612	1369.33375
219.155	1324.13363
219.698	1311.09774
220.242	1290.17083
220.785	1338.0912
221.328	1218.14556
221.871	1233.1918
222.414	1197.09367
222.956	1216.10764
223.499	1342.09992
224.041	1273.04803
224.583	1236.80623
225.126	1222.89092
225.668	1252.18174
226.21	1253.27442
226.751	1207.86267
227.293	1241.98942
227.835	1230.10065
228.376	1207.93134
228.918	1211.17688
229.459	1278.28087
230	1214.06435
230.541	1198.92716
231.082	1274.14607
231.622	1272.02056
232.163	1285.20383
232.704	1227.16205
233.244	1253.25381
233.784	1206.08254
234.324	1288.98331
234.864	1241.96137
235.404	1248.06577
235.944	1244.05912
236.484	1231.16688
237.023	1295.12936
237.563	1297.04826
238.102	1252.03159
238.641	1329.34864
239.18	1275.0778
239.719	1280.24009
240.258	1294.9438
240.797	1331.14559
241.335	1298.19615
241.874	1251.56487
242.412	1322.18062
242.95	1355.2532
243.488	1342.07577
244.026	1270.99774
244.564	1285.74658
245.102	1261.92273
245.64	1290.13805
246.177	1324.0061
246.715	1320.17491
247.252	1279.98835
247.789	1281.51408
248.326	1333.21156
248.863	1306.84657
249.4	1279.92626
249.936	1418.80705
250.473	1286.02091
251.009	1420.2013
251.546	1315.89744
252.082	1303.83939
252.618	1385.03437
253.154	1354.23865
253.69	1317.96624
254.226	1284.08036
254.761	1286.90635
255.297	1298.90571
255.832	1304.07175
256.367	1334.0753
256.903	1334.9495
257.438	1336.09286
257.972	1339.93717
258.507	1326.05679
259.042	1359.90598
259.576	1384.96168
260.111	1378.08372
260.645	1393.94431
261.179	1373.12968
261.713	1366.99547
262.247	1428.14727
262.781	1375.85212
263.315	1410.29361
263.849	1419.37188
264.382	1464.14188
264.915	1476.21491
265.449	1481.39329
265.982	1467.06364
266.515	1442.2357
267.048	1407.94541
267.58	1419.92088
268.113	1467.02475
268.646	1463.36529
269.178	1423.03759
269.71	1449.94162
270.243	1446.07283
270.775	1495.49167
271.307	1436.23405
271.838	1450.18068
272.37	1481.35861
272.902	1523.17851
273.433	1348.86115
273.965	1431.22814
274.496	1385.27081
275.027	1495.35958
275.558	1456.26414
276.089	1511.39728
276.62	1480.4217
277.15	1514.34297
277.681	1508.94724
278.211	1478.33983
278.741	1514.07251
279.272	1478.1245
279.802	1469.35521
280.332	1583.33009
280.861	1569.29807
281.391	1533.16043
281.921	1514.26579
282.45	1534.42101
282.98	1538.55621
283.509	1518.03937
284.038	1550.15392
284.567	1574.21137
285.096	1630.40958
285.625	1579.16214
286.153	1581.26958
286.682	1592.17952
287.21	1547.29298
287.739	1549.20384
288.267	1622.40193
288.795	1674.72834
289.323	1646.30099
289.851	1609.24494
290.378	1574.09787
290.906	1611.41483
291.433	1663.48339
291.961	1650.17212
292.488	1764.573
293.015	1678.31987
293.542	1630.49235
294.069	1709.48327
294.596	1606.33229
295.122	1721.39471
295.649	1694.09749
296.175	1633.29478
296.702	1704.36391
297.228	1713.32326
297.754	1763.11607
298.28	1792.19713
298.806	1816.43005
299.332	1713.05603
299.857	1790.1639
300.383	1794.59684
300.908	1795.48851
301.433	1798.44943
301.958	1861.27843
302.483	1729.45626
303.008	1824.42668
303.533	1883.72874
304.058	1845.23775
304.582	1772.30827
305.107	1843.70232
305.631	1819.13544
306.155	1897.26537
306.679	1932.33731
307.203	1929.28341
307.727	1898.35676
308.251	1941.52121
308.775	1984.42253
309.298	1979.3968
309.822	2017.61912
310.345	2018.31631
310.868	2087.45058
311.391	2009.43088
311.914	2071.604
312.437	1981.07904
312.96	1990.24609
313.482	2092.31324
314.005	2125.6142
314.527	2073.72613
315.049	2116.58381
315.571	2141.08461
316.093	2249.46985
316.615	2183.3449
317.137	2196.96537
317.659	2248.40995
318.18	2354.43512
318.702	2347.20183
319.223	2304.74994
319.744	2328.01122
320.265	2260.3211
320.786	2419.44845
321.307	2454.47735
321.828	2381.00759
322.348	2419.16271
322.869	2538.22971
323.389	2648.97856
323.909	2483.96299
324.43	2632.24652
324.95	2588.9242
325.47	2607.30764
325.989	2674.98067
326.509	2773.85936
327.029	2874.87324
327.548	2791.83258
328.067	2771.08723
328.587	2801.1449
329.106	2762.73464
329.625	2853.37109
330.144	2901.86583
330.662	2899.78268
331.181	2899.74322
331.7	2980.81902
332.218	3124.34341
332.736	3173.60545
333.255	3099.66451
333.773	3185.72254
334.291	3197.94297
334.808	3254.41837
335.326	3244.26264
335.844	3365.37129
336.361	3425.6768
336.879	3367.36168
337.396	3482.39779
337.913	3533.08686
338.43	3616.06407
338.947	3615.07967
339.464	3769.76937
339.981	3708.16288
340.497	3762.2343
341.014	3793.24463
341.53	3809.84372
342.046	3894.11876
342.562	3906.13921
343.078	3900.80944
343.594	3997.8822
344.11	4057.82189
344.626	4112.01174
345.141	4207.46169
345.657	4203.38258
346.172	4115.65547
346.687	4141.52545
347.202	4200.25546
347.717	4255.44325
348.232	4401.54467
348.747	4446.2277
349.261	4381.94378
349.776	4466.21536
350.29	4565.45458
350.805	4666.23531
351.319	4623.92477
351.833	4635.94463
352.347	4705.97498
352.861	4780.89155
353.374	4793.80369
353.888	4749.01684
354.401	4763.77122
354.915	4894.62848
355.428	4978.93247
355.941	5106.6514
356.454	4981.47409
356.967	5120.72448
357.48	5111.534
357.993	5187.78272
358.505	5098.73926
359.018	5348.63669
359.53	5361.58993
360.042	5478.33914
360.554	5451.50148
361.066	5447.57766
361.578	5387.2545
362.09	5524.47441
362.602	5452.27069
363.113	5699.36359
363.625	5781.35929
364.136	5873.31465
364.647	5849.37418
365.158	5966.35965
365.669	5984.43351
366.18	6003.40092
366.691	6013.30371
367.201	5927.38556
367.712	6119.39427
368.222	6150.40145
368.733	6162.35544
369.243	6315.46348
369.753	6500.62525
370.263	6667.78639
370.773	6635.76163
371.282	6711.84999
371.792	6964.17233
372.301	7048.28081
372.811	7256.5336
373.32	7185.81078
373.829	7358.93341
374.338	7704.09641
374.847	8010.92326
375.356	8173.36424
375.865	8450.3359
376.373	8813.49181
376.882	9124.22162
377.39	9224.2994
377.898	9378.1541
378.407	9853.84892
378.915	10316.12903
379.423	10917.44573
379.93	11154.12955
380.438	11605.10295
380.946	12255.86476
381.453	12676.24908
381.96	13051.4623
382.468	14106.01541
382.975	15054.46912
383.482	15646.30005
383.989	15644.98624
384.495	16256.37287
385.002	17076.07719
385.509	18103.30648
386.015	19306.50653
386.521	20360.76645
387.028	20976.58437
387.534	21374.12997
388.04	22442.1499
388.546	22999.18837
389.051	24152.588
389.557	25850.62047
390.063	28092.21703
390.568	29065.49061
391.073	29694.54476
391.578	31194.21615
392.084	31675.0055
392.589	32800.05113
393.093	35519.86768
393.598	38597.46147
394.103	41943.55776
394.607	46124.66152
395.112	49068.91089
395.616	48826.38065
396.12	47940.09542
396.624	46379.54848
397.128	45041.38363
397.632	42674.3298
398.136	41053.8128
398.639	39575.50194
399.143	37072.18751
399.646	33425.07685
400.15	30257.92651
400.653	26744.30161
401.156	22069.35973
401.659	15501.4617
402.162	4304.81735
402.664	865.43837
403.167	0
403.67	0
404.172	0
404.674	0
405.176	0
405.678	0
406.18	0
406.682	0
407.184	0
407.686	0
408.187	0
408.688	0
409.19	0
409.691	0
410.192	0
410.693	0
411.194	0
411.694	11.28237
412.195	3122.18734
412.696	8274.79556
413.196	11824.3934
413.696	13768.63585
414.196	13509.3687
414.696	14514.78924
415.196	16680.3865
415.696	20882.81744
416.196	28662.6172
416.695	36400.56296
417.195	40282.64143
417.694	41360.26869
418.194	42711.87066
418.693	44201.96737
419.192	45008.95072
419.691	45305.8869
420.19	45830.68337
420.688	46191.2227
421.187	46668.04785
421.685	48102.17801
422.184	49619.62381
422.682	48672.45622
423.18	41439.93691
423.678	36891.89797
424.176	34047.19768
424.674	31877.01601
425.172	30316.59828
425.669	28534.95465
426.167	26644.07624
426.664	24387.18425
427.161	22356.41202
427.659	20798.53191
428.156	19566.05916
428.652	18230.98527
429.149	17448.20604
429.646	16728.83303
430.143	15987.61463
430.639	15005.78806
431.135	14405.7604
431.632	13477.39542
432.128	12422.95005
432.624	11916.60746
433.12	11392.54016
433.616	11025.6559
434.111	10735.86817
434.607	10221.83156
435.103	10156.21611
435.598	9741.82127
436.093	9429.75727
436.588	8871.50203
437.083	8528.63105
437.578	8048.54108
438.073	7685.80697
438.568	7628.5591
439.062	7369.44551
439.557	6985.35461
440.051	6897.213
440.546	6564.72835
441.04	6337.48057
441.534	6258.44411
442.028	6238.40454
442.522	6024.2731
443.015	5953.20939
443.509	5927.26076
444.002	5596.19443
444.496	5557.07029
444.989	5571.25042
445.482	5528.32312
445.975	5480.10218
446.468	5344.00976
446.961	5426.12723
447.454	5136.16992
447.947	5129.30038
448.439	4884.3696
448.931	4869.25003
449.424	4861.59243
449.916	4917.45738
450.408	4820.3039
450.9	4693.63211
451.392	4478.81718
451.884	4482.51961
452.375	4484.03766
452.867	4362.5535
453.358	4469.62181
453.849	4175.54433
454.341	4173.73677
454.832	4167.63493
455.323	4119.09831
455.814	3959.95003
456.304	3999.96309
456.795	3957.90794
457.285	3806.94511
457.776	3872.0711
458.266	3803.32192
458.756	3696.43804
459.247	3662.49783
459.737	3519.60905
460.226	3565.30632
460.716	3445.75547
461.206	3308.76793
461.695	3340.11866
462.185	3397.7264
462.674	3206.75972
463.163	3235.68249
463.653	3253.39804
464.142	3236.1652
464.63	3186.15013
465.119	3078.12979
465.608	3060.048
466.096	2953.93303
466.585	2976.13162
467.073	2871.27636
467.561	2819.36866
468.05	2772.29514
468.538	2704.55136
469.026	2656.43722
469.513	2713.05511
470.001	2766.33319
470.489	2582.50695
470.976	2531.41653
471.463	2529.84132
471.951	2390.82579
472.438	2370.69864
472.925	2325.72741
473.412	2196.7334
473.899	2240.60072
474.385	2108.84442
474.872	2234.76081
475.359	2218.9617
475.845	2158.39485
476.331	1985.44001
476.817	1994.97261
477.303	1864.69701
477.789	1881.87832
478.275	1921.09361
478.761	1806.81909
479.247	1733.58023
479.732	1768.01603
480.218	1711.20116
480.703	1787.07551
481.188	1723.60857
481.673	1553.67657
482.158	1625.59914
482.643	1587.99513
483.128	1567.75968
483.612	1527.79062
484.097	1463.85063
484.581	1451.78861
485.066	1375.80982
485.55	1344.54066
486.034	1319.53925
486.518	1363.79263
487.002	1364.90159
487.486	1308.8657
487.969	1299.82562
488.453	1194.80434
488.936	1210.58447
489.42	1238.53063
489.903	1215.87509
490.386	1111.96892
490.869	1159.46471
491.352	1168.76794
491.835	1104.33155
492.318	1121.55454
492.8	1016.26953
493.283	1027.69242
493.765	1047.6846
494.247	1070.58221
494.73	1000.411
495.212	1003.59076
495.694	905.38965
496.175	935.48587
496.657	911.42858
497.139	833.86405
497.62	840.39441
498.102	826.44291
498.583	851.48318
499.064	749.13708
499.545	830.30147
500.026	813.25373
500.507	783.27773
500.988	805.3969
501.469	811.45276
501.949	800.39958
502.43	797.35087
502.91	634.92568
503.39	692.25476
503.87	733.23943
504.35	691.17582
504.83	745.15323
505.31	732.28639
505.79	760.32525
506.269	684.15918
506.749	673.13403
507.228	642.10431
507.707	665.07677
508.187	624.07843
508.666	669.23917
509.145	661.16165
509.623	644.12963
510.102	620.13251
510.581	642.16037
511.059	597.14357
511.538	678.31562
512.016	642.14028
512.494	663.21398
512.972	607.09222
513.45	610.07266
513.928	602.10345
514.406	670.23454
514.884	625.22559
515.361	582.05492
515.839	609.02759
516.316	590.06836
516.793	592.15941
517.27	592.09163
517.747	621.24643
518.224	535.95704
518.701	552.92325
519.178	589.13801
519.654	580.05395
520.131	582.12419
520.607	554.05568
521.083	555.97341
521.56	603.10557
522.036	521.87591
522.512	561.05998
522.987	549.00788
523.463	598.11099
523.939	494.93091
524.414	598.04602
524.89	508.94696
525.365	548.96844
525.84	584.08008
526.315	508.95025
526.79	572.98246
527.265	487.86486
527.74	555.06041
528.215	542.99684
528.689	575.98207
529.164	580.96641
529.638	538.08678
530.112	508.94978
530.587	563.90485
531.061	458.8779
531.534	507.97536
532.008	548.03511
532.482	533.94462
532.956	520.06093
533.429	513.98595
533.903	434.73774
534.376	492.87079
534.849	465.85239
535.322	536.01091
535.795	524.01244
536.268	509.97449
536.741	519.98644
537.213	514.9363
537.686	523.02621
538.158	491.87061
538.631	511.98021
539.103	508.91552
539.575	492.78772
540.047	528.91606
540.519	492.93306
540.991	536.02725
541.463	555.06194
541.934	576.02916
542.406	557.06526
542.877	564.01391
543.348	560.05472
543.82	520.00085
544.291	525.96677
544.762	532.0122
545.233	490.98009
545.703	576.01168
546.174	549.98311
546.645	627.19594
547.115	600.1208
547.585	630.09923
548.056	594.11231
548.526	623.11305
548.996	662.18258
549.466	720.31094
549.935	698.23484
550.405	699.12435
550.875	759.33848
551.344	754.32238
551.814	733.21463
552.283	781.20703
552.752	807.35901
553.221	861.3296
553.69	913.40116
554.159	829.45158
554.628	841.29479
555.096	810.48188
555.565	855.36915
556.033	746.26591
556.502	713.28144
556.97	606.98095
557.438	653.19082
557.906	545.00705
558.374	621.12147
558.842	538.03059
559.31	553.96328
559.777	479.95343
560.245	496.95396
560.712	421.78885
561.18	502.89498
561.647	497.90739
562.114	481.9004
562.581	418.8477
563.048	435.82394
563.514	407.82105
563.981	450.85048
564.448	442.82554
564.914	403.77078
565.381	457.86096
565.847	396.76015
566.313	444.84859
566.779	457.84786
567.245	501.97309
567.711	354.70314
568.176	349.65586
568.642	510.07724
569.108	464.94055
569.573	438.84524
570.038	421.72628
570.504	439.80593
570.969	455.94991
571.434	427.77561
571.899	488.95349
572.363	437.80388
572.828	444.8104
573.293	478.88926
573.757	488.90877
574.222	451.80839
574.686	481.87506
575.15	453.88321
575.614	466.86822
576.078	490.927
576.542	441.8145
577.006	589.03917
577.469	459.89958
577.933	475.86985
578.396	537.03537
578.86	438.83429
579.323	529.0292
579.786	424.7418
580.249	567.05145
580.712	486.96669
581.175	470.95794
581.637	474.87305
582.1	443.78792
582.563	467.79408
583.025	521.0348
583.487	471.76677
583.95	384.68419
584.412	490.82129
584.874	412.81415
585.336	451.87973
585.797	474.81622
586.259	524.98988
586.721	475.93535
587.182	441.83653
587.643	490.89302
588.105	464.898
588.566	472.79846
589.027	428.83585
589.488	469.86579
589.949	466.92302
590.41	542.84267
590.87	468.86243
591.331	472.82146
591.791	459.86813
592.252	491.92685
592.712	486.96128
593.172	482.8967
593.632	509.89738
594.092	521.93199
594.552	463.79663
595.011	491.93048
595.471	431.79084
595.931	526.94555
596.39	470.92093
596.849	497.94737
597.308	510.88529
597.768	516.08088
598.227	429.84238
598.685	430.80153
599.144	439.84371
599.603	421.81808
600.062	534.92255
600.52	401.73949
600.978	527.02969
601.437	433.81013
601.895	482.8269
602.353	523.94908
602.811	444.81245
603.269	543.05599
603.727	491.96276
604.184	488.90065
604.642	490.98644
605.099	445.85112
605.557	487.98559
606.014	470.83964
606.471	501.03945
606.928	598.03943
607.385	628.21495
607.842	783.36007
608.299	754.2954
608.755	698.29074
609.212	622.05956
609.668	647.15424
610.125	595.11886
610.581	637.14984
611.037	592.05891
611.493	473.9095
611.949	492.985
612.405	465.78427
612.861	449.87291
613.316	391.79892
613.772	398.75772
614.227	395.79282
614.683	468.8283
615.138	449.89039
615.593	406.80794
616.048	487.92966
616.503	412.86034
616.958	437.93135
617.412	440.88905
617.867	411.77886
618.321	408.72395
618.776	414.77898
619.23	407.82332
619.684	373.70718
620.138	332.64252
620.592	397.83215
621.046	368.73607
621.5	375.79194
621.954	385.7442
622.407	426.82602
622.861	384.81006
623.314	366.72257
623.768	362.73044
624.221	325.5711
624.674	339.68419
625.127	337.70108
625.58	347.69133
626.033	334.64608
626.485	327.69633
626.938	279.598
627.39	318.65758
627.843	322.66018
628.295	309.64055
628.747	279.58973
629.199	290.60398
629.651	296.6195
630.103	220.46146
630.555	290.57037
631.006	222.47758
631.458	259.55681
631.909	222.46175
632.361	210.45585
632.812	200.42803
633.263	162.32854
633.714	201.40064
634.165	191.42705
634.616	210.46633
635.067	203.41781
635.518	198.44242
635.968	184.34739
636.419	204.4209
636.869	151.34068
637.319	152.32953
637.769	133.28803
638.219	184.41454
638.669	192.43663
639.119	119.27637
639.569	147.34032
640.019	145.32019
640.468	107.23093
640.918	146.3335
641.367	192.42175
641.816	126.26873
642.265	73.16336
642.714	121.27278
643.163	135.30334
643.612	128.3046
644.061	106.22539
644.51	115.25638
644.958	139.30732
645.406	91.21276
645.855	87.2089
646.303	85.19217
646.751	129.29081
647.199	108.23943
647.647	71.16209
648.095	124.28074
648.543	83.16821
648.99	89.20915
649.438	97.22001
649.885	63.15329
650.333	130.25182
650.78	109.26014
651.227	89.21216
651.674	138.31053
652.121	80.19221
652.568	67.16149
653.015	134.33193
653.461	58.13765
653.908	67.15296
654.354	81.18901
654.801	84.19767
655.247	66.14217
655.693	27.06914
656.139	78.18576
656.585	88.20789
657.031	25.05898
657.477	4.00867
657.922	57.13055
658.368	102.24831
658.813	93.21342
659.259	113.2703
659.704	82.19183
660.149	99.23265
660.594	73.17148
661.039	73.16591
661.484	101.23762
661.929	61.14206
662.373	32.07994
662.818	55.13622
663.262	56.13531
663.707	54.13596
664.151	66.16038
664.595	93.22314
665.039	109.26946
665.483	47.11904
665.927	57.13421
666.371	50.11748
666.814	75.17899
667.258	50.1189
667.701	97.20872
668.145	66.16331
668.588	82.20164
669.031	37.088
669.474	110.26528
669.917	31.06917
670.36	44.10987
670.803	103.24459
671.245	85.1803
671.688	49.11815
672.13	39.089
672.573	81.20566
673.015	74.17745
673.457	77.16911
673.899	90.21779
674.341	54.13097
674.783	123.30005
675.225	33.08101
675.666	72.1764
676.108	32.07124
676.549	81.19198
676.991	84.19057
677.432	88.17985
677.873	131.30712
678.314	99.23808
678.755	80.19592
679.196	54.12638
679.637	83.20225
680.078	103.23921
680.518	85.19647
680.959	98.23983
681.399	36.09055
681.839	169.41088
682.28	91.22695
682.72	63.14666
683.16	98.24524
683.6	66.15137
684.039	51.10728
684.479	74.18411
684.919	98.23223
685.358	121.30711
685.798	89.23465
686.237	90.21894
686.676	61.14167
687.115	82.19446
687.554	112.26817
687.993	95.21364
688.432	126.29696
688.871	41.09594
689.309	75.17851
689.748	101.21583
690.186	70.16914
690.625	147.35096
691.063	102.24683
691.501	94.23251
691.939	102.25664
692.377	99.24385
692.815	114.27888
693.253	54.13127
693.69	90.20426
694.128	119.29494
694.565	87.2116
695.003	74.18939
695.44	8.01903
695.877	65.15358
696.314	49.10902
696.751	104.23651
697.188	55.12885
697.625	121.28101
698.061	57.13874
698.498	69.16751
698.934	92.22514
699.371	111.26684
699.807	97.23327
700.243	93.22957
700.679	63.14406
701.115	62.14692
701.551	104.24768
701.987	52.11797
702.422	54.13122
702.858	90.21779
703.294	48.11066
703.729	110.27189
704.164	84.20595
704.599	75.17067
705.035	128.29709
705.47	35.0864
705.904	144.34439
706.339	85.19944
706.774	96.22994
707.209	82.19409
707.643	89.21647
708.078	78.19279
708.512	75.1913
708.946	94.22696
709.38	60.14322
709.814	66.15404
710.248	24.05926
710.682	98.2376
711.116	102.251
711.549	81.21183
711.983	53.12576
712.416	68.16226
712.85	94.23413
713.283	76.18266
713.716	72.18051
714.149	99.23826
714.582	44.10019
715.015	95.23855
715.448	108.27163
715.881	28.06184
716.313	112.26571
716.746	83.1996
717.178	66.1608
717.61	66.16761
718.043	94.23668
718.475	90.22025
718.907	71.17835
719.339	76.17731
719.77	64.15511
720.202	99.24922
720.634	68.16906
721.065	56.13454
721.497	70.17334
721.928	70.17473
722.359	92.22756
722.79	52.12697
723.221	58.1464
723.652	95.24181
724.083	60.13926
724.514	116.26999
724.945	-9.02151
725.375	83.19998
725.806	127.31971
726.236	94.24082
726.666	56.13511
727.096	76.18909
727.526	86.22287
727.956	70.16492
728.386	60.14765
728.816	55.14152
729.246	44.10983
729.675	82.20646
730.105	54.13352
730.534	54.12791
730.964	53.13471
731.393	48.11917
731.822	78.20102
732.251	88.22427
732.68	98.23536
733.109	82.20424
733.537	50.12327
733.966	36.09077
734.395	44.10338
734.823	62.1422
735.251	-2.0049
735.68	104.26167
736.108	71.18174
736.536	27.06486
736.964	70.16536
737.392	61.15274
737.82	94.2261
738.247	48.11633
738.675	73.17349
739.102	41.10425
739.53	61.15822
739.957	71.18447
740.384	71.17411
740.811	70.17852
741.238	42.10328
741.665	53.12591
742.092	101.24224
742.519	54.1367
742.945	73.17762
743.372	31.0777
743.798	48.12375
744.225	90.21672
744.651	85.21597
745.077	46.11586
745.503	43.10513
745.929	40.09716
746.355	68.16789
746.781	88.22149
747.207	37.09033
747.632	66.1654
748.058	59.14938
748.483	66.15428
748.908	56.14125
749.334	76.1893
749.759	47.11303
750.184	32.07834
750.609	47.11645
751.033	36.08607
751.458	84.19064
751.883	64.15947
752.307	55.13172
752.732	40.10216
753.156	66.16439
753.58	52.12394
754.005	75.19164
754.429	47.11178
754.853	32.08092
755.277	86.20607
755.7	72.18161
756.124	38.09616
756.548	85.20534
756.971	46.11253
757.394	17.04384
757.818	62.16078
758.241	63.16143
758.664	43.11007
759.087	46.10631
759.51	55.13741
759.933	74.18143
760.356	32.08184
760.778	32.07912
761.201	36.08839
761.623	61.14959
762.046	69.16518
762.468	42.10106
762.89	6.01489
763.312	28.06878
763.734	55.13332
764.156	58.14441
764.578	9.02088
765	53.12934
765.421	45.11668
765.843	21.05481
766.264	110.26709
766.686	82.20883
767.107	47.11538
767.528	35.09022
767.949	49.12503
768.37	81.20047
768.791	75.18269
769.212	59.15108
769.632	57.13703
770.053	72.19178
770.473	114.28126
770.894	45.11284
771.314	70.16665
771.734	52.12251
772.154	44.11332
772.575	48.11221
772.994	6.014
773.414	110.26528
773.834	61.15538
774.254	87.2161
774.673	55.13532
775.093	48.12133
775.512	69.17189
775.931	94.23871
776.351	28.07015
776.77	60.14928
777.189	55.13212
777.607	63.16245
778.026	41.10384
778.445	76.19553
778.864	39.10056
779.282	80.19439
779.701	23.05821
780.119	11.02836
780.537	56.1407
780.955	86.21986
781.373	-9.02258
781.791	3.00689
782.209	48.11062
782.627	57.15094
783.045	15.03502
783.462	68.17671
783.88	24.06295
784.297	59.1497
784.715	117.30597
785.132	51.1252
785.549	5.01257
785.966	52.13159
786.383	29.07298
786.8	45.10558
787.217	23.05561
787.633	53.13447
788.05	76.18023
788.466	14.03303
788.883	50.13042
789.299	47.11457
789.715	74.1813
790.131	39.09783
790.547	32.0802
790.963	48.11934
791.379	67.17006
791.795	70.16132
792.21	47.1095
792.626	27.0651
793.041	66.16469
793.457	45.1119
793.872	25.05967
794.287	43.10564
794.702	28.06936
795.117	27.06792
795.532	90.22734
795.947	46.11018
796.362	23.05506
796.776	32.07466
797.191	33.08206
797.605	81.19494
798.02	11.02716
798.434	44.0986
798.848	54.13455
799.262	58.14499
799.676	24.05876
800.09	55.13702
800.504	52.12759
800.918	1.00236
801.331	8.02088
801.745	13.03081
802.158	17.04257
802.572	42.10179
802.985	35.08459
803.398	48.11589
803.811	45.11442
804.224	19.0474
804.637	39.094
805.05	13.03044
805.462	22.0542
805.875	38.1001
806.288	58.14257
806.7	-16.0407
807.112	-10.02325
807.525	32.07904
807.937	55.13866
808.349	27.06834
808.761	97.24033
809.173	71.17436
809.584	76.18689
809.996	17.04217
810.408	58.15191
810.819	97.22946
811.231	220.56812
811.642	274.6397
812.053	337.75965
812.464	329.72402
812.875	296.71136
813.286	124.30986
813.697	7.01599
814.108	67.16247
814.519	83.18604
814.929	73.18601
815.34	45.11015
815.75	67.17144
816.16	16.03994
816.571	47.12174
816.981	61.14542
817.391	84.20503
817.801	68.17048
818.211	-22.05233
818.62	27.06547
819.03	52.1273
819.44	41.10656
819.849	30.07602
820.259	53.136
820.668	59.14714
821.077	39.09829
821.486	47.11367
821.895	51.12506
822.304	6.01593
822.713	64.15336
823.122	43.10833
823.531	65.15566
823.939	49.12083
824.348	82.20045
824.756	65.16304
825.164	63.15854
825.573	22.05553
825.981	76.18882
826.389	60.14934
826.797	70.17568
827.205	109.25255
827.612	68.16703
828.02	63.15122
828.428	68.17305
828.835	97.25712
829.243	46.10917
829.65	24.06019
830.057	28.06824
830.464	11.02705
830.871	82.19596
831.278	104.25375
831.685	36.08081
832.092	31.07622
832.499	102.22632
832.905	50.12589
833.312	-13.02998
833.718	18.04514
834.124	12.02753
834.531	62.15583
834.937	78.20081
835.343	6.01459
835.749	68.15877
836.155	42.1112
836.561	45.11198
836.966	7.01704
837.372	61.15598
837.777	-8.02006
838.183	64.14289
838.588	68.17078
838.993	78.18982
839.399	24.05969
839.804	34.08462
840.209	75.19265
840.613	39.08785
841.018	13.03304
841.423	57.14723
841.828	74.18839
842.232	20.04924
842.637	-4.00955
843.041	55.14202
843.445	59.14938
843.849	45.11206
844.253	68.16157
844.657	30.07616
845.061	0
845.465	36.08862
845.869	-15.03499
846.272	96.23789
846.676	44.10632
847.079	40.10255
847.483	79.19745
847.886	14.03364
848.289	66.17783
848.692	11.028
849.095	55.13297
849.498	6.01504
849.901	45.10443
850.304	25.05992
850.707	59.15028
851.109	-19.04778
851.512	57.1406
851.914	19.04875
852.316	43.1086
852.718	-4.01039
853.121	56.13776
853.523	58.13537
853.925	44.11583
854.326	64.16184
854.728	54.13907
855.13	54.14115
855.531	20.04853
855.933	31.07424
856.334	39.09846
856.736	67.15215
857.137	38.08998
857.538	9.02296
857.939	42.10454
858.34	42.1016
858.741	13.03399
859.142	-3.00726
859.542	65.17201
859.943	44.10943
860.343	74.18452
860.744	-14.0344
861.144	84.20472
861.544	47.11521
861.945	50.1267
862.345	55.13497
862.745	39.09793
863.145	46.10938
863.544	36.0912
863.944	-7.01657
864.344	49.12158
864.743	55.13562
865.143	63.16188
865.542	10.02342
865.941	43.10693
866.34	37.08837
866.74	31.08346
867.139	78.18975
867.537	32.08083
867.936	33.07963
868.335	23.0584
868.734	36.09152
869.132	16.03724
869.531	31.07464
869.929	86.19985
870.327	49.11851
870.726	1.00247
871.124	46.1074
871.522	25.0639
871.92	-31.07644
872.318	40.09822
872.715	24.05913
873.113	82.2
873.511	28.07025
873.908	30.07734
874.306	59.14741
874.703	41.10233
875.1	54.13665
875.497	42.10187
875.894	65.16258
876.291	33.08119
876.688	37.09534
877.085	49.11717
877.482	72.18018
877.878	-11.0268
878.275	41.10557
878.671	72.15856
879.068	1.00239
879.464	29.06985
879.86	56.13311
880.256	42.10351
880.652	42.10775
881.048	42.10275
881.444	50.11981
881.84	7.01807
882.236	7.01762
882.631	-19.0468
883.027	14.03383
883.422	12.03091
883.817	14.03569
884.213	42.10821
884.608	55.13657
885.003	48.11646
885.398	38.09588
885.793	34.08579
886.188	54.13631
886.582	13.03312
886.977	8.01899
887.371	52.13196
887.766	55.14014
888.16	-38.09496
888.554	20.04896
888.949	36.08963
889.343	6.01453
889.737	2.00539
890.131	66.16671
890.525	47.1198
890.918	67.16842
891.312	9.02147
891.706	72.18864
892.099	70.17902
892.492	9.01953
892.886	-20.04956
893.279	31.07999
893.672	34.0872
894.065	42.10545
894.458	52.13069
894.851	56.13664
895.244	44.11233
895.637	8.01941
896.029	42.10263
896.422	25.0614
896.814	4.01002
897.206	68.1648
897.599	36.08859
897.991	48.11725
898.383	-17.04059
898.775	37.08368
899.167	-23.05481
899.559	35.08824
899.951	10.02372
900.342	72.18129
900.734	39.09902
901.125	31.08115
901.517	51.12562
901.908	57.13676
902.299	-12.02985
902.69	17.04031
903.082	20.04847
903.473	-10.02428
903.863	28.07171
904.254	11.02612
904.645	10.02467
905.036	77.18917
905.426	2.00453
905.817	59.14575
906.207	3.00727
906.597	27.06407
906.987	43.1118
907.378	18.04568
907.768	21.05535
908.158	41.0998
908.547	23.06007
908.937	63.16115
909.327	17.04163
909.717	61.1545
910.106	45.10896
910.495	15.03723
910.885	32.08098
911.274	45.11215
911.663	22.05535
912.052	-2.00493
912.441	35.08972
912.83	38.08754
913.219	9.02338
913.608	-1.00245
913.997	5.0128
914.385	62.14749
914.774	-16.03939
915.162	26.06287
915.55	12.029
915.939	18.04602
916.327	84.2096
916.715	37.09544
917.103	9.02189
917.491	30.07423
917.878	47.11517
918.266	45.11704
918.654	44.11328
919.041	59.15582
919.429	41.09815
919.816	-7.0178
920.203	16.03937
920.591	-15.03746
920.978	42.1029
921.365	29.07628
921.752	22.05318
922.139	0
922.525	18.04376
922.912	-4.00981
923.299	44.10983
923.685	22.05825
924.072	-46.10614
924.458	33.08221
924.844	41.10262
925.231	20.04675
925.617	55.14187
926.003	0
926.389	-11.02797
926.774	25.0642
927.16	12.02969
927.546	26.06691
927.931	26.06492
928.317	57.13091
928.702	12.02806
929.088	-9.02164
929.473	-19.04828
929.858	23.05661
930.243	33.08029
930.628	-5.01221
931.013	7.01733
931.398	-13.0302
931.783	3.00787
932.167	11.02718
932.552	-3.00744
932.937	2.00493
933.321	11.02804
933.705	-29.07335
934.09	22.05521
934.474	39.09315
934.858	18.04676
935.242	20.04723
935.626	23.05896
936.009	1.00267
936.393	16.04091
936.777	-3.00778
937.16	46.11995
937.544	-13.03065
937.927	29.07389
938.311	-11.02689
938.694	31.08121
939.077	56.13552
939.46	24.05854
939.843	37.07783
940.226	22.05634
940.609	11.0257
940.991	42.10768
941.374	-8.01969
941.757	36.08892
942.139	-3.00692
942.522	6.01409
942.904	70.16895
943.286	35.08868
943.668	52.1342
944.05	59.14773
944.432	63.15695
944.814	23.05623
945.196	14.03472
945.578	30.07303
945.959	10.0235
946.341	-1.00242
946.722	9.02127
947.104	3.00719
947.485	-49.11542
947.866	59.15002
948.247	13.03322
948.628	17.04158
949.009	52.13429
949.39	46.11445
949.771	19.04397
950.152	44.10804
950.532	19.04773
950.913	-11.02646
951.293	40.10932
951.674	-20.04864
952.054	-6.01486
952.434	-16.03969
952.814	7.0167
953.194	40.1042
953.574	44.1088
953.954	100.23843
954.334	19.04778
954.714	29.07125
955.093	33.08119
955.473	3.00759
955.853	39.10077
956.232	5.01358
956.611	-17.04053
956.99	39.09881
957.37	22.05621
957.749	-2.00487
958.128	8.02041
958.506	2.00523
958.885	36.0912
959.264	1.00248
959.643	-23.05274
960.021	-34.08545
960.4	-1.00225
960.778	46.11316
961.156	-28.07113
961.535	3.00707
961.913	-19.04507
962.291	50.1298
962.669	0
963.047	16.04089
963.424	6.01534
963.802	59.14575
964.18	-3.00755
964.557	3.00683
964.935	-8.01907
965.312	38.09953
965.69	10.02513
966.067	53.12992
966.444	66.16307
966.821	30.07737
967.198	2.00483
967.575	24.0588
967.952	3.00709
968.329	-12.0292
968.705	19.04081
969.082	15.0388
969.458	-20.04909
969.835	48.11707
970.211	31.08019
970.587	36.08973
970.963	23.05896
971.339	0
971.715	16.03968
972.091	3.00739
972.467	47.1176
972.843	-18.04495
973.219	-8.01912
973.594	31.08193
973.97	7.01649
974.345	20.04785
974.721	71.17126
975.096	3.00727
975.471	37.08837
975.846	5.012
976.221	-5.01285
976.596	-5.01206
976.971	12.02952
977.346	5.01169
977.72	39.10018
978.095	27.06948
978.469	58.13903
978.844	8.02003
979.218	-3.00737
979.593	47.11281
979.967	9.0219
980.341	13.03012
980.715	54.13538
981.089	-8.02018
981.463	2.00467
981.837	3.00744
982.21	14.03241
982.584	35.08529
982.957	9.02284
983.331	41.09751
983.704	9.02223
984.078	0
984.451	48.11821
984.824	41.10121
985.197	71.17378
985.57	21.05277
985.943	72.17607
986.316	14.03402
986.688	48.11659
987.061	16.03772
987.434	-9.02361
987.806	90.21795
988.179	-4.00945
988.551	-5.01258
988.923	-4.00992
989.295	66.16546
989.667	46.11199
990.039	17.04264
990.411	-1.0023
990.783	34.07792
991.155	-28.0684
991.527	20.04876
991.898	41.10336
992.27	40.10111
992.641	-9.02245
993.012	3.00693
993.384	34.08181
993.755	-10.02547
994.126	34.08231
994.497	49.12158
994.868	38.08778
995.239	14.03411
995.61	17.04329
995.98	-12.02951
996.351	18.04547
996.722	34.08048
997.092	42.10079
997.462	50.11894
997.833	99.23636
998.203	25.06062
998.573	-23.058
998.943	14.03303
999.313	-1.00242
999.683	1.00245
1000.053	33.07685
1000.423	30.07257
1000.792	39.10126
1001.162	72.17966
1001.531	-9.02215
1001.901	8.02005
1002.27	13.02921
1002.639	27.06914
1003.009	-41.09894
1003.378	9.02325
1003.747	11.02603
1004.116	17.04144
1004.485	12.02901
1004.853	15.03806
1005.222	11.02783
1005.591	-8.01907
1005.959	10.02314
1006.328	82.19033
1006.696	-68.16641
1007.064	13.03277
1007.433	-51.12747
1007.801	48.11755
1008.169	39.09941
1008.537	24.05332
1008.905	15.0357
1009.273	-10.02465
1009.64	76.18454
1010.008	8.01889
1010.375	-11.02655
1010.743	-7.01578
1011.11	-19.04554
1011.478	14.03486
1011.845	24.05714
1012.212	56.12854
1012.579	7.01743
1012.946	32.07565
1013.313	15.03554
1013.68	55.12374
1014.047	10.02423
1014.414	7.01678
1014.78	83.20767
1015.147	18.04341
1015.513	17.04113
1015.88	63.16058
1016.246	4.00981
1016.612	32.0738
1016.978	-9.022
1017.344	5.0123
1017.71	11.02679
1018.076	46.10799
1018.442	-38.09732
1018.808	40.10154
1019.174	-13.03298
1019.539	-12.02697
1019.905	26.06235
1020.27	24.05954
1020.636	28.06691
1021.001	5.01194
1021.366	-19.04625
1021.731	30.07745
1022.096	22.05642
1022.461	-16.03853
1022.826	12.02858
1023.191	22.05786
1023.556	-14.03338
1023.92	68.16604
1024.285	1.00243
1024.649	23.05684
1025.014	27.06695
1025.378	9.02285
1025.742	26.06544
1026.107	40.09071
1026.471	-48.11256
1026.835	69.17227
1027.199	54.13186
1027.562	53.1246
1027.926	19.04625
1028.29	17.04281
1028.654	20.04644
1029.017	12.02973
1029.381	1.00242
1029.744	5.0128
1030.107	42.0991
1030.471	-20.04865
1030.834	79.18188
1031.197	-16.03856
1031.56	-43.10278
1031.923	48.12504
1032.286	37.08681
1032.648	-18.04264
1033.011	-39.09104
1033.374	-17.03953
1033.736	29.07692
1034.099	34.08283
1034.461	11.02823
1034.823	22.0551
1035.185	-11.02789
1035.548	60.14591
1035.91	-40.09545
1036.272	10.023
1036.634	-17.04152
1036.995	-2.00475
1037.357	56.13821
1037.719	36.08738
1038.08	-40.09545
1038.442	-44.10599
1038.803	0
1039.165	10.0257
1039.526	15.03659
1039.887	12.02893
1040.248	5.0125
1040.609	6.01477
1040.97	7.01711
1041.331	55.13955
1041.692	116.2753
1042.053	5.01143
1042.413	-9.02098
1042.774	-1.00244
1043.134	-16.03791
1043.495	35.08836
1043.855	-30.07271
1044.215	0
1044.576	32.07785
1044.936	13.03017
1045.296	40.09992
1045.656	48.11864
1046.016	63.15283
1046.375	8.01956
1046.735	41.09432
1047.095	39.09333
1047.454	21.0446
1047.814	19.04606
1048.173	-17.04028
1048.533	25.05756
1048.892	-3.00732
1049.251	4.00998
1049.61	19.04756
1049.969	-34.08097
1050.328	-16.03482
1050.687	-7.01727
1051.046	4.00984
1051.405	17.04252
1051.763	-15.03528
1052.122	25.06321
1052.48	32.07843
1052.839	43.10235
1053.197	4.00948
1053.555	29.06546
1053.914	38.09324
1054.272	10.0243
1054.63	8.01982
1054.988	3.00725
1055.345	44.09576
1055.703	20.04825
1056.061	39.10025
1056.419	8.02107
1056.776	38.09178
1057.134	9.02107
1057.491	10.02518
1057.848	3.00749
1058.206	33.0784
1058.563	44.09828
1058.92	90.20641
1059.277	11.02715
1059.634	57.13505
1059.991	25.05957
1060.348	-18.04135
1060.704	38.09192
1061.061	8.01853
1061.418	19.04687
1061.774	11.02719
1062.131	43.11603
1062.487	26.06137
1062.843	-7.01747
1063.199	-6.01509
1063.555	13.03074
1063.911	-10.02525
1064.267	65.13432
1064.623	7.01729
1064.979	4.00949
1065.335	64.15055
1065.691	6.01448
1066.046	42.09401
1066.402	19.04387
1066.757	36.09074
1067.112	29.07109
1067.468	34.08178
1067.823	-5.01223
1068.178	60.14634
1068.533	-13.03148
1068.888	-2.00476
1069.243	21.05197
1069.598	13.03173
1069.952	3.00701
1070.307	1.0025
1070.662	61.14681
1071.016	14.03201
1071.371	6.01379
1071.725	5.01192
1072.079	-50.12063
1072.434	23.05657
1072.788	2.00479
1073.142	21.05159
1073.496	15.03651
1073.85	-19.04481
1074.203	50.121
1074.557	9.02393
1074.911	10.02371
1075.265	25.0588
1075.618	4.00977
1075.971	4.00965
1076.325	5.01282
1076.678	27.06347
1077.031	46.10643
1077.385	-55.12257
1077.738	8.01822
1078.091	58.13478
1078.444	18.04171
1078.796	39.09709
1079.149	3.00744
1079.502	35.08455
1079.855	-1.00234
1080.207	-13.03195
1080.56	33.08648
1080.912	50.12027
1081.264	8.01949
1081.617	26.06443
1081.969	5.01274
1082.321	20.04909
1082.673	-6.0139
1083.025	4.00949
1083.377	63.14903
1083.728	20.04712
1084.08	30.07527
1084.432	50.12168
1084.783	68.15896
1085.135	-2.00511
1085.486	31.07222
1085.838	16.03966
1086.189	33.08029
1086.54	14.03324
1086.891	48.12315
1087.242	0
1087.593	0
1087.944	8.01822
1088.295	40.09041
1088.646	46.11224
1088.996	31.07551
1089.347	29.07125
1089.698	-12.02885
1090.048	39.10137
1090.398	42.0983
1090.749	40.09534
1091.099	-2.00507
1091.449	26.06549
1091.799	25.0628
1092.149	-17.0426
1092.499	-7.01717
1092.849	0
1093.199	48.11912
1093.548	53.12924
1093.898	54.13601
1094.248	23.05933
1094.597	-1.00262
1094.947	-19.05068
1095.296	40.09901
1095.645	-3.00777
1095.994	60.14366
1096.343	31.07804
1096.692	23.06103
1097.041	-5.01372
1097.39	-12.03042
1097.739	10.02604
1098.088	-12.03178
1098.437	8.02142
1098.785	19.05112
1099.134	-19.05006
1099.482	13.03566
1099.83	52.1349
1100.179	-10.02638
1100.527	29.07782
1100.875	-8.02149
1101.223	-21.05613
1101.571	-2.00551
1101.919	1.00265
1102.267	25.07102
1102.615	17.05457
1102.962	24.07707
1103.31	11.03539
1103.658	13.04177
