Data from N2 R4 sample 2_Subt2__4__19-18-37-975.txt Node

Date: Wed Aug 27 19:18:37 PDT 2025
User: uwsun
Spectrometer: HDX01956
Trigger mode: 0
Integration Time (sec): 5.000000E-1
Scans to average: 1
Nonlinearity correction enabled: true
Boxcar width: 0
Storing dark spectrum: false
XAxis mode: Wavelengths
Number of Pixels in Spectrum: 2068
>>>>>Begin Spectral Data<<<<<
194.03	392.07526
194.578	410.26986
195.127	417.27185
195.676	411.25813
196.225	419.07134
196.773	467.23452
197.321	647.65792
197.87	874.99642
198.418	946.15465
198.966	942.17215
199.513	890.99632
200.061	889.02677
200.609	923.14387
201.156	862.6836
201.704	916.06704
202.251	916.14551
202.798	954.20852
203.345	937.03683
203.892	883.97374
204.438	891.89015
204.985	929.9443
205.532	964.22465
206.078	949.05424
206.624	981.12268
207.17	945.92124
207.716	936.03079
208.262	899.5399
208.808	963.09429
209.354	968.07721
209.899	948.08987
210.445	967.103
210.99	965.03487
211.535	985.0083
212.08	976.98836
212.625	930.04163
213.17	917.02189
213.715	912.80577
214.259	948.91469
214.804	967.08615
215.348	944.88399
215.892	887.87758
216.436	950.90123
216.98	943.81467
217.524	931.92191
218.068	922.01391
218.612	990.16984
219.155	901.86409
219.698	917.89975
220.242	849.86269
220.785	849.75721
221.328	823.83887
221.871	763.71667
222.414	829.85
222.956	784.7067
223.499	790.59892
224.041	899.85912
224.583	829.56442
225.126	873.70794
225.668	831.81784
226.21	805.81561
226.751	833.63572
227.293	829.67909
227.835	791.72885
228.376	863.76951
228.918	862.92404
229.459	816.83631
230	851.7739
230.541	868.77937
231.082	835.81585
231.622	844.75502
232.163	811.77035
232.704	862.90902
233.244	801.75514
233.784	823.77991
234.324	789.56158
234.864	860.72093
235.404	833.74096
235.944	801.68805
236.484	842.84462
237.023	867.82005
237.563	779.6237
238.102	838.72168
238.641	843.88433
239.18	825.72955
239.719	897.98859
240.258	859.69635
240.797	932.96387
241.335	856.84776
241.874	892.49892
242.412	846.79737
242.95	906.92157
243.488	933.8719
244.026	895.80136
244.564	874.55664
245.102	864.73691
245.64	889.88591
246.177	845.66477
246.715	856.79971
247.252	861.72889
247.789	806.29886
248.326	894.9142
248.863	856.66082
249.4	795.58961
249.936	942.69276
250.473	899.84007
251.009	923.86117
251.546	944.82921
252.082	853.62551
252.618	922.80605
253.154	890.87943
253.69	932.8334
254.226	851.76371
254.761	869.72414
255.297	870.69845
255.832	855.77279
256.367	913.89734
256.903	967.83245
257.438	933.8762
257.972	960.86909
258.507	982.96714
259.042	875.63688
259.576	937.75653
260.111	914.83416
260.645	935.72783
261.179	920.85808
261.713	887.73373
262.247	923.85182
262.781	949.69274
263.315	884.89278
263.849	961.08817
264.382	925.83026
264.915	996.0303
265.449	941.01963
265.982	960.8744
266.515	932.98016
267.048	883.60719
267.58	906.69789
268.113	948.77588
268.646	960.0609
269.178	997.93802
269.71	905.68311
270.243	970.89663
270.775	964.134
271.307	989.02283
271.838	969.95758
272.37	964.04117
272.902	1058.02662
273.433	936.77145
273.965	977.04226
274.496	969.05845
275.027	1034.19906
275.558	1049.16117
276.089	1027.18557
276.62	995.16577
277.15	993.1022
277.681	965.79669
278.211	1011.12086
278.741	990.8802
279.272	1011.97364
279.802	1056.24686
280.332	1042.10316
280.861	997.05755
281.391	994.93355
281.921	983.0024
282.45	1044.22992
282.98	1049.32946
283.509	1074.03466
284.038	1067.03753
284.567	1038.02065
285.096	1059.15164
285.625	989.89605
286.153	1019.03839
286.682	1148.19525
287.21	1091.19872
287.739	1063.11973
288.267	1086.21706
288.795	1087.41981
289.323	1047.07237
289.851	1117.14864
290.378	1092.07487
290.906	1090.25526
291.433	1097.2904
291.961	1152.17544
292.488	1070.21874
293.015	1115.18369
293.542	1140.42363
294.069	1151.37053
294.596	1135.32296
295.122	1150.26873
295.649	1098.99095
296.175	1179.36662
296.702	1144.28838
297.228	1121.25516
297.754	1134.09665
298.28	1184.20891
298.806	1106.19091
299.332	1223.21642
299.857	1213.20932
300.383	1185.4428
300.908	1258.51564
301.433	1154.30842
301.958	1249.35627
302.483	1189.46959
303.008	1202.37923
303.533	1217.61579
304.058	1195.26398
304.582	1294.48108
305.107	1203.5956
305.631	1222.23416
306.155	1271.39324
306.679	1305.44311
307.203	1314.41737
307.727	1358.56436
308.251	1214.40637
308.775	1300.46287
309.298	1391.63384
309.822	1295.61404
310.345	1347.49244
310.868	1357.5358
311.391	1285.49732
311.914	1427.81821
312.437	1355.37012
312.96	1373.5194
313.482	1355.51843
314.005	1456.86028
314.527	1455.9626
315.049	1424.7843
315.571	1392.39277
316.093	1468.77536
316.615	1524.74695
317.137	1441.35417
317.659	1440.63295
318.18	1529.7414
318.702	1628.79959
319.223	1544.2988
319.744	1566.59603
320.265	1576.83824
320.786	1629.99257
321.307	1617.99101
321.828	1656.65114
322.348	1553.67333
322.869	1665.87042
323.389	1737.90447
323.909	1713.79328
324.43	1698.87789
324.95	1778.83262
325.47	1750.0747
325.989	1756.89009
326.509	1876.8071
327.029	1796.80066
327.548	1808.77451
328.067	1906.14896
328.587	1797.06636
329.106	1937.97795
329.625	1879.39194
330.144	1883.87868
330.662	1933.98887
331.181	2024.02106
331.7	2010.01397
332.218	2000.73785
332.736	2070.02185
333.255	2146.12206
333.773	2059.07338
334.291	2077.27516
334.808	2144.88431
335.326	2151.95086
335.844	2289.17696
336.361	2283.54336
336.879	2286.21331
337.396	2281.28445
337.913	2415.23055
338.43	2416.01046
338.947	2463.32036
339.464	2407.87603
339.981	2485.28731
340.497	2562.48417
341.014	2481.43291
341.53	2539.05439
342.046	2575.43761
342.562	2636.50114
343.078	2611.25751
343.594	2684.35897
344.11	2722.27467
344.626	2683.58571
345.141	2764.04301
345.657	2700.94101
346.172	2737.39558
346.687	2770.14331
347.202	2928.07453
347.717	2881.29159
348.232	2990.62137
348.747	2947.14266
349.261	2883.88066
349.776	3023.2654
350.29	3009.553
350.805	3144.55224
351.319	3119.15475
351.833	3140.08532
352.347	3167.20883
352.861	3212.20017
353.374	3208.01486
353.888	3196.21004
354.401	3225.10718
354.915	3338.05402
355.428	3337.47605
355.941	3339.07949
356.454	3358.78387
356.967	3392.10596
357.48	3374.92952
357.993	3381.35221
358.505	3412.36721
359.018	3637.3128
359.53	3561.09134
360.042	3620.68653
360.554	3623.09328
361.066	3678.26143
361.578	3681.54726
362.09	3677.06422
362.602	3732.52581
363.113	3748.85001
363.625	3742.63251
364.136	3854.49284
364.647	3857.79687
365.158	3927.80206
365.669	4004.96372
366.18	3960.79834
366.691	3980.4035
367.201	3902.8823
367.712	4086.6164
368.222	4090.49834
368.733	4082.22595
369.243	4250.26957
369.753	4314.38142
370.263	4442.68232
370.773	4398.94025
371.282	4477.51031
371.792	4651.2308
372.301	4785.49171
372.811	4848.89377
373.32	4796.72927
373.829	4912.0743
374.338	5190.60772
374.847	5384.66169
375.356	5486.72549
375.865	5678.05748
376.373	5876.23095
376.882	6009.80206
377.39	6054.48913
377.898	6324.56871
378.407	6561.08539
378.915	6826.79885
379.423	7146.19984
379.93	7376.1496
380.438	7604.50879
380.946	8236.02221
381.453	8449.37064
381.96	8683.73289
382.468	9346.2302
382.975	9998.15282
383.482	10274.3941
383.989	10456.64086
384.495	10814.72853
385.002	11286.00921
385.509	12038.81448
386.015	12695.49616
386.521	13205.57755
387.028	13911.93789
387.534	14220.09343
388.04	14877.19502
388.546	15252.58274
389.051	15888.9746
389.557	17180.00708
390.063	18568.49754
390.568	19588.50999
391.073	19887.91806
391.578	20708.91457
392.084	21399.20995
392.589	21972.27669
393.093	23654.83062
393.598	25651.46173
394.103	27793.98953
394.607	30793.32656
395.112	33311.79703
395.616	35260.64924
396.12	38338.74111
396.624	42680.94564
397.128	45958.12596
397.632	51125.35954
398.136	55534.40741
398.639	58192.88652
399.143	58933.70699
399.646	59154.51254
400.15	58613.02828
400.653	57879.39077
401.156	57173.58385
401.659	56177.40201
402.162	53821.55638
402.664	47275.14456
403.167	32260.27245
403.67	3851.94142
404.172	0
404.674	0
405.176	0
405.678	0
406.18	0
406.682	0
407.184	0
407.686	12367.42319
408.187	34596.90747
408.688	44563.94194
409.19	48906.19284
409.691	51236.67962
410.192	52883.26968
410.693	53713.23343
411.194	54189.54801
411.694	54767.79104
412.195	55625.98899
412.696	55971.27715
413.196	55815.15953
413.696	55802.1488
414.196	55740.09561
414.696	56340.4775
415.196	57067.59327
415.696	58258.21704
416.196	59666.45207
416.695	60284.20726
417.195	60017.78413
417.694	56613.11619
418.194	53469.37175
418.693	49916.80356
419.192	48114.80195
419.691	46997.08395
420.19	46207.43031
420.688	44817.55473
421.187	43010.03106
421.685	40385.09232
422.184	36620.78363
422.682	32101.34504
423.18	27573.60234
423.678	24470.04572
424.176	22749.28968
424.674	21574.58732
425.172	20577.68398
425.669	19243.37352
426.167	17848.9404
426.664	16180.65626
427.161	15070.0905
427.659	13867.75319
428.156	12935.85913
428.652	12148.50687
429.149	11514.16247
429.646	11221.11573
430.143	10640.75404
430.639	10007.28918
431.135	9404.30926
431.632	8946.2655
432.128	8224.98938
432.624	7928.85947
433.12	7570.21944
433.616	7309.95962
434.111	7127.20888
434.607	6834.14584
435.103	6723.67212
435.598	6489.51427
436.093	6289.06824
436.588	5880.94895
437.083	5583.22433
437.578	5296.2427
438.073	5062.12632
438.568	4964.00285
439.062	4805.34859
439.557	4578.9855
440.051	4519.92665
440.546	4440.02589
441.04	4266.40159
441.534	4182.7231
442.028	4112.41318
442.522	4088.49385
443.015	3953.11571
443.509	3884.79342
444.002	3823.78131
444.496	3699.16456
444.989	3690.81069
445.482	3706.92845
445.975	3692.45156
446.468	3686.24636
446.961	3420.15551
447.454	3516.58042
447.947	3364.75693
448.439	3346.92655
448.931	3278.48069
449.424	3356.12989
449.916	3258.93716
450.408	3195.54749
450.9	3053.91173
451.392	3046.19823
451.884	3024.70719
452.375	2980.11031
452.867	2881.5669
453.358	2932.67856
453.849	2837.4173
454.341	2813.5853
454.832	2812.46212
455.323	2783.08942
455.814	2684.73672
456.304	2724.77212
456.795	2786.80041
457.285	2535.58878
457.776	2590.65022
458.266	2651.98089
458.756	2628.05227
459.247	2461.96854
459.737	2414.02628
460.226	2342.69353
460.716	2384.94895
461.206	2319.97288
461.695	2339.18985
462.185	2313.9195
462.674	2326.78371
463.163	2257.65478
463.653	2243.44429
464.142	2069.90225
464.63	2113.94702
465.119	2093.75318
465.608	2058.76555
466.096	1998.54296
466.585	2010.73436
467.073	1936.8078
467.561	1979.86178
468.05	1859.67042
468.538	1902.90056
469.026	1832.73052
469.513	1784.29638
470.001	1884.74267
470.489	1873.86151
470.976	1688.50097
471.463	1737.85151
471.951	1659.75818
472.438	1614.56443
472.925	1621.61424
473.412	1531.60194
473.899	1508.39316
474.385	1541.65254
474.872	1502.44036
475.359	1526.65493
475.845	1406.07368
476.331	1439.20842
476.817	1374.42791
477.303	1336.27658
477.789	1357.40206
478.275	1261.37205
478.761	1292.35433
479.247	1260.08004
479.732	1163.26828
480.218	1188.38199
480.703	1257.36565
481.188	1167.87651
481.673	1216.11429
482.158	1153.93558
482.643	1157.30646
483.128	1157.07522
483.612	1074.98773
484.097	1042.04857
484.581	1006.85238
485.066	1007.99549
485.55	942.6867
486.034	1021.77662
486.518	939.78448
487.002	929.92291
487.486	957.93332
487.969	927.87352
488.453	899.87651
488.936	864.63178
489.42	901.65825
489.903	867.81606
490.386	900.19476
490.869	848.53516
491.352	805.64528
491.835	777.36032
492.318	852.63577
492.8	850.506
493.283	754.65037
493.765	798.6865
494.247	744.49472
494.73	676.29488
495.212	654.36621
495.694	732.48883
496.175	673.40875
496.657	691.42415
497.139	702.05312
497.62	672.41564
498.102	705.55244
498.583	686.51656
499.064	627.22373
499.545	697.38955
500.026	628.25499
500.507	655.34684
500.988	607.34594
501.469	624.39658
501.949	600.30804
502.43	567.22321
502.91	527.99969
503.39	589.3141
503.87	573.21503
504.35	584.22303
504.83	548.08979
505.31	559.21829
505.79	541.18
506.269	558.1685
506.749	523.08518
507.228	477.02875
507.707	521.04106
508.187	538.15336
508.666	514.13592
509.145	473.01531
509.623	528.13676
510.102	502.10751
510.581	492.06638
511.059	540.23562
511.538	496.15977
512.016	585.2691
512.494	502.12552
512.972	460.99758
513.45	474.01725
513.928	568.24865
514.406	521.16316
514.884	502.17932
515.361	454.98919
515.839	506.05522
516.316	511.12529
516.793	520.19789
517.27	446.99316
517.747	522.2297
518.224	429.91391
518.701	480.98321
519.178	483.09505
519.654	461.00141
520.131	455.03396
520.607	453.02608
521.083	497.03986
521.56	464.00002
522.036	437.88765
522.512	441.99199
522.987	466.02023
523.463	483.05418
523.939	514.13119
524.414	464.98781
524.89	464.0214
525.365	407.85009
525.84	402.89447
526.315	443.98996
526.79	422.87536
527.265	482.01532
527.74	431.96633
528.215	524.14793
528.689	404.83279
529.164	414.84304
529.638	413.98735
530.112	474.02817
530.587	382.77894
531.061	419.94676
531.534	474.0609
532.008	408.9221
532.482	412.8695
532.956	420.99084
533.429	424.94458
533.903	345.71325
534.376	452.93423
534.849	360.77576
535.322	437.95639
535.795	420.94496
536.268	401.90314
536.741	366.81674
537.213	441.93743
537.686	388.8812
538.158	418.87984
538.631	363.81423
539.103	450.94302
539.575	401.7729
540.047	419.86273
540.519	425.93092
540.991	407.91366
541.463	412.92279
541.934	383.81132
542.406	312.69827
542.877	376.78308
543.348	356.78096
543.82	454.01355
544.291	336.72716
544.762	415.91515
545.233	396.91792
545.703	444.90577
546.174	464.98996
546.645	466.02624
547.115	437.97736
547.585	388.81921
548.056	466.02195
548.526	488.04555
548.996	488.05905
549.466	492.07998
549.935	511.10128
550.405	567.10957
550.875	551.16729
551.344	530.13716
551.814	569.16818
552.283	551.05835
552.752	537.10882
553.221	601.15624
553.69	540.05988
554.159	588.28834
554.628	613.22015
555.096	592.32815
555.565	567.14835
556.033	557.16666
556.502	539.17811
556.97	446.89456
557.438	439.9482
557.906	428.93295
558.374	387.82695
558.842	365.81636
559.31	436.90238
559.777	317.72508
560.245	340.73707
560.712	275.60189
561.18	367.76247
561.647	297.6253
562.114	391.84562
562.581	306.70063
563.048	322.70073
563.514	348.80157
563.981	353.75855
564.448	286.60652
564.914	290.63137
565.381	272.58388
565.847	287.6316
566.313	302.67088
566.779	333.71435
567.245	208.46266
567.711	303.68805
568.176	256.5448
568.642	304.71391
569.108	288.66683
569.573	271.59865
570.038	285.56833
570.504	274.58564
570.969	239.55789
571.434	289.59373
571.899	320.71263
572.363	279.5949
572.828	311.65363
573.293	352.75527
573.757	277.59602
574.222	317.66682
574.686	324.6817
575.15	355.78516
575.614	330.70685
576.078	332.71727
576.542	345.72156
577.006	271.57132
577.469	298.66667
577.933	348.72542
578.396	271.60065
578.86	325.70801
579.323	351.77826
579.786	288.57872
580.249	285.60796
580.712	258.58528
581.175	313.71708
581.637	286.60784
582.1	245.49607
582.563	280.56057
583.025	300.6764
583.487	280.53928
583.95	276.56254
584.412	280.54525
584.874	324.7299
585.336	312.68791
585.797	270.54681
586.259	316.68797
586.721	262.57986
587.182	298.63996
587.643	249.52402
588.105	280.60597
588.566	257.49867
589.027	302.672
589.488	247.52233
589.949	279.62559
590.41	269.49729
590.87	244.50728
591.331	288.57525
591.791	263.5659
592.252	225.47956
592.712	198.44005
593.172	272.56776
593.632	248.49397
594.092	270.55407
594.552	247.4866
595.011	239.51338
595.471	293.60303
595.931	262.5379
596.39	311.68987
596.849	241.52169
597.308	240.47181
597.768	283.67069
598.227	220.48975
598.685	254.53489
599.144	241.52837
599.603	286.62319
600.062	259.51432
600.52	232.48491
600.978	256.56492
601.437	269.56685
601.895	214.4195
602.353	218.44635
602.811	226.473
603.269	242.53247
603.727	287.63266
604.184	252.53138
604.642	219.4949
605.099	285.61719
605.557	241.54328
606.014	232.46705
606.471	275.63585
606.928	247.49416
607.385	339.75666
607.842	496.0082
608.299	463.95718
608.755	359.77742
609.212	388.78614
609.668	305.62236
610.125	376.80954
610.581	330.69646
611.037	316.65081
611.493	256.55569
611.949	246.54626
612.405	285.54402
612.861	218.47241
613.316	237.53273
613.772	257.53966
614.227	240.51786
614.683	266.52637
615.138	267.58142
615.593	237.52004
616.048	270.57484
616.503	213.4784
616.958	218.50497
617.412	244.53777
617.867	256.53626
618.321	324.62673
618.776	251.51566
619.23	189.41664
619.684	295.62137
620.138	201.42896
620.592	200.45224
621.046	222.48107
621.5	226.51561
621.954	173.36777
622.407	225.46913
622.861	201.46255
623.314	228.48479
623.768	187.41241
624.221	210.39278
624.674	177.38561
625.127	154.3407
625.58	164.34871
626.033	143.29723
626.485	210.47872
626.938	165.36998
627.39	175.38902
627.843	163.35647
628.295	146.3203
628.747	159.36151
629.199	188.40566
629.651	121.26876
630.103	129.28605
630.555	200.41135
631.006	149.33466
631.458	166.37857
631.909	127.2788
632.361	148.33425
632.812	66.15034
633.263	90.18928
633.714	148.31154
634.165	112.25996
634.616	118.27063
635.067	51.10984
635.518	96.22212
635.968	125.24463
636.419	86.18286
636.869	52.1195
637.319	158.36266
637.769	77.16889
638.219	86.20072
638.669	21.04947
639.119	12.02851
639.569	89.21029
640.019	53.11963
640.468	67.14795
640.918	55.12839
641.367	107.23687
641.816	22.04825
642.265	64.14431
642.714	70.15861
643.163	84.18871
643.612	71.16899
644.061	-6.01277
644.51	64.1446
644.958	100.21856
645.406	61.14396
645.855	111.26856
646.303	101.23169
646.751	63.14261
647.199	87.19324
647.647	62.14077
648.095	85.19233
648.543	138.28179
648.99	127.29809
649.438	84.19088
649.885	35.08478
650.333	118.2288
650.78	124.29395
651.227	112.26837
651.674	156.35002
652.121	101.24261
652.568	109.26173
653.015	111.27531
653.461	59.13903
653.908	102.23272
654.354	96.22652
654.801	107.25272
655.247	98.21065
655.693	65.16603
656.139	124.29678
656.585	145.343
657.031	124.29043
657.477	73.16012
657.922	129.29616
658.368	156.37963
658.813	144.32907
659.259	63.15116
659.704	80.18664
660.149	143.33053
660.594	118.278
661.039	12.02763
661.484	141.33031
661.929	79.18347
662.373	119.29882
662.818	100.24599
663.262	104.2493
663.707	104.26007
664.151	82.19768
664.595	109.26481
665.039	89.2193
665.483	106.27052
665.927	44.10318
666.371	78.18483
666.814	99.23627
667.258	72.17213
667.701	147.31481
668.145	118.29091
668.588	85.20875
669.031	77.18377
669.474	111.26633
669.917	106.23382
670.36	91.22538
670.803	121.29087
671.245	124.26711
671.688	68.16499
672.13	83.19147
672.573	90.22677
673.015	62.14981
673.457	116.25663
673.899	54.13161
674.341	94.22653
674.783	87.21057
675.225	117.28882
675.666	100.24354
676.108	54.11797
676.549	137.32081
676.991	87.19565
677.432	149.31067
677.873	98.22854
678.314	45.10888
678.755	123.30128
679.196	137.31943
679.637	107.262
680.078	122.28675
680.518	96.22414
680.959	70.16709
681.399	78.19421
681.839	115.28043
682.28	94.23455
682.72	106.24788
683.16	84.2112
683.6	116.26434
684.039	34.0727
684.479	114.28043
684.919	103.24431
685.358	111.27933
685.798	146.38408
686.237	104.25195
686.676	37.086
687.115	92.21826
687.554	117.28051
687.993	92.20668
688.432	106.24486
688.871	102.23553
689.309	97.23495
689.748	106.22647
690.186	134.32047
690.625	116.27573
691.063	109.26531
691.501	125.31072
691.939	115.29054
692.377	106.26239
692.815	71.17307
693.253	75.18132
693.69	112.25016
694.128	151.36918
694.565	110.26408
695.003	126.31849
695.44	150.3564
695.877	63.15099
696.314	115.25086
696.751	130.29516
697.188	115.26465
697.625	131.29797
698.061	155.37472
698.498	144.34807
698.934	153.36752
699.371	127.30158
699.807	145.34419
700.243	112.2696
700.679	123.28046
701.115	86.20135
701.551	148.34637
701.987	189.4238
702.422	181.42948
702.858	207.49022
703.294	106.23891
703.729	168.40684
704.164	144.34425
704.599	169.37505
705.035	154.34653
705.47	104.25281
705.904	153.36038
706.339	171.39415
706.774	174.40865
707.209	158.36846
707.643	160.3825
708.078	164.39506
708.512	154.38454
708.946	201.47251
709.38	196.46157
709.814	212.48562
710.248	210.50758
710.682	162.38669
711.116	192.46338
711.549	208.53267
711.983	201.46292
712.416	237.55018
712.85	204.50347
713.283	156.36652
713.716	205.50081
714.149	248.574
714.582	271.5999
715.015	234.56984
715.448	247.60901
715.881	202.4282
716.313	176.40348
716.746	265.612
717.178	235.55716
717.61	271.66449
718.043	287.69144
718.475	250.5894
718.907	262.63611
719.339	255.57413
719.77	258.59999
720.202	271.66818
720.634	292.69482
721.065	337.77577
721.497	351.82956
721.928	316.7548
722.359	313.74177
722.79	344.79962
723.221	321.77333
723.652	358.87433
724.083	352.77186
724.514	321.7076
724.945	344.77875
725.375	375.84702
725.806	286.68002
726.236	296.72537
726.666	333.76565
727.096	379.89606
727.526	373.90875
727.956	378.83305
728.386	384.90665
728.816	453.10091
729.246	438.0047
729.675	406.9463
730.105	476.09813
730.534	401.89428
730.964	438.03632
731.393	482.1014
731.822	421.00121
732.251	469.11941
732.68	449.98182
733.109	481.12266
733.537	446.01695
733.966	506.1656
734.395	466.00864
734.823	553.14294
735.251	540.20043
735.68	607.37604
736.108	589.36917
736.536	603.31042
736.964	581.23416
737.392	581.33089
737.82	575.23731
738.247	648.40863
738.675	665.39873
739.102	611.41086
739.53	642.47634
739.957	644.49154
740.384	648.42474
740.811	695.56997
741.238	668.45523
741.665	720.47901
742.092	726.5302
742.519	716.59806
742.945	731.55187
743.372	775.69173
743.798	810.82652
744.225	820.7081
744.651	808.77085
745.077	809.76003
745.503	854.81359
745.929	901.84915
746.355	871.79556
746.781	909.92333
747.207	843.70981
747.632	961.9945
748.058	973.02047
748.483	1034.98008
748.908	1018.10891
749.334	1054.15648
749.759	1016.01136
750.184	1046.0526
750.609	1080.15022
751.033	1092.03979
751.458	1140.01387
751.883	1144.24952
752.307	1148.19946
752.732	1241.51514
753.156	1209.40143
753.58	1207.2525
754.005	1269.52546
754.429	1307.38116
754.853	1341.6027
755.277	1305.35605
755.7	1333.55055
756.124	1384.63636
756.548	1345.47153
756.971	1385.58575
757.394	1437.81698
757.818	1467.86652
758.241	1527.88932
758.664	1457.82832
759.087	1522.47723
759.51	1571.8399
759.933	1508.64945
760.356	1572.93536
760.778	1677.01011
761.201	1716.93185
761.623	1691.88806
762.046	1697.75475
762.468	1669.80353
762.89	1725.92012
763.312	1714.89595
763.734	1703.87798
764.156	1785.0634
764.578	1788.74182
765	1846.08521
765.421	1883.37204
765.843	1810.32145
766.264	1801.90594
766.686	1814.10297
767.107	1856.06547
767.528	1884.28136
767.949	1857.19303
768.37	1981.21681
768.791	1976.11093
769.212	1920.31179
769.632	1855.90295
770.053	1900.44635
770.473	1990.14745
770.894	1945.16979
771.314	1928.9545
771.734	1893.92952
772.154	2014.4195
772.575	2051.94283
772.994	1945.84251
773.414	2023.08653
773.834	1914.13835
774.254	2055.26912
774.673	2025.14881
775.093	1959.16666
775.512	2012.27767
775.931	1955.32798
776.351	1980.23195
776.77	1915.17513
777.189	1998.06278
777.607	1955.29469
778.026	1954.19249
778.445	1853.13445
778.864	1902.25484
779.282	1916.07663
779.701	1829.16588
780.119	1822.18897
780.537	1875.19728
780.955	1845.20377
781.373	1753.99317
781.791	1783.66353
782.209	1801.7052
782.627	1752.25575
783.045	1794.77032
783.462	1754.12139
783.88	1719.19494
784.297	1701.06576
784.715	1620.04771
785.132	1628.79812
785.549	1675.01409
785.966	1620.92668
786.383	1573.80924
786.8	1529.51146
787.217	1498.59235
787.633	1532.866
788.05	1509.537
788.466	1526.59823
788.883	1429.76211
789.299	1424.55557
789.715	1444.65346
790.131	1392.64909
790.547	1313.50258
790.963	1387.62751
791.379	1275.51639
791.795	1305.22763
792.21	1315.36217
792.626	1237.26903
793.041	1200.35876
793.457	1203.34646
793.872	1164.15122
794.287	1165.2754
794.702	1072.1323
795.117	1154.34125
795.532	1073.2097
795.947	1052.05473
796.362	970.88591
796.776	1000.88083
797.191	980.02287
797.605	982.94182
798.02	960.97342
798.434	974.77097
798.848	891.88031
799.262	906.92907
799.676	895.83105
800.09	777.6403
800.504	803.69227
800.918	799.60647
801.331	733.67869
801.745	713.41689
802.158	707.57179
802.572	645.37328
802.985	747.5776
803.398	678.43768
803.811	625.42605
804.224	631.40038
804.637	609.30833
805.05	630.31194
805.462	625.39509
805.875	573.37008
806.288	529.16255
806.7	557.2784
807.112	535.13334
807.525	486.10208
807.937	490.12465
808.349	466.07118
808.761	460.03754
809.173	464.0453
809.584	423.96125
809.996	446.02839
810.408	427.04071
810.819	425.95092
811.231	464.14218
811.642	544.22583
812.053	582.27893
812.464	561.2242
812.875	538.26989
813.286	389.94028
813.697	334.72036
814.108	379.86616
814.519	318.66966
814.929	337.80664
815.34	302.6998
815.75	321.78064
816.16	286.68263
816.571	293.73513
816.981	257.57721
817.391	278.64929
817.801	235.56789
818.211	244.55936
818.62	281.65797
819.03	240.5722
819.44	252.63262
819.849	244.59863
820.259	189.46825
820.668	176.42685
821.077	214.52426
821.486	209.49438
821.895	231.5481
822.304	203.52305
822.713	165.38395
823.122	161.39318
823.531	171.39525
823.939	151.36368
824.348	151.36161
824.756	203.49556
825.164	117.28914
825.573	171.42319
825.981	142.34233
826.389	207.50815
826.797	179.4451
827.205	170.38926
827.612	130.31541
828.02	109.25774
828.428	101.25462
828.835	144.37252
829.243	118.27778
829.65	123.30318
830.057	123.2931
830.464	138.33105
830.871	115.27014
831.278	73.17635
831.685	118.2628
832.092	132.32074
832.499	112.24499
832.905	116.28997
833.312	100.22714
833.718	81.19988
834.124	65.14785
834.531	114.28435
834.937	90.22904
835.343	89.21444
835.749	107.24712
836.155	83.21728
836.561	64.15645
836.966	61.14859
837.372	86.21901
837.777	90.22327
838.183	103.22935
838.588	35.08783
838.993	24.05817
839.399	116.28577
839.804	37.09154
840.209	42.1079
840.613	65.14581
841.018	91.22941
841.423	77.19668
841.828	38.0963
842.232	44.10836
842.637	37.088
843.041	38.09817
843.445	70.17593
843.849	63.15655
844.253	80.18899
844.657	45.11454
845.061	46.1047
845.465	50.12286
845.869	30.07054
846.272	72.17705
846.676	-2.00479
847.079	91.2322
847.483	65.16057
847.886	47.11419
848.289	55.1472
848.692	21.05321
849.095	52.12546
849.498	60.14977
849.901	103.23504
850.304	28.06686
850.707	28.07143
851.109	9.02267
851.512	77.19099
851.914	93.2388
852.316	31.07896
852.718	34.0905
853.121	56.13892
853.523	90.21549
853.925	32.08447
854.326	54.1364
854.728	-2.00521
855.13	38.09848
855.531	64.15557
855.933	63.15162
856.334	11.0277
856.736	57.13159
857.137	81.18983
857.538	32.0819
857.939	43.10829
858.34	31.07605
858.741	21.05524
859.142	18.04346
859.542	25.06633
859.943	102.25488
860.343	35.08849
860.744	20.04905
861.144	36.0883
861.544	37.09134
861.945	28.07211
862.345	31.07613
862.745	-10.02506
863.145	6.01434
863.544	49.12428
863.944	34.08191
864.344	-10.02494
864.743	10.02483
865.143	49.12705
865.542	29.06852
865.941	9.0224
866.34	1.0024
866.74	9.02426
867.139	7.01699
867.537	31.07938
867.936	36.08725
868.335	53.13452
868.734	21.05419
869.132	12.02824
869.531	6.01438
869.929	20.04695
870.327	43.10486
870.726	2.00499
871.124	-21.04947
871.522	13.03319
871.92	34.08459
872.318	22.0538
872.715	7.01723
873.113	39.09578
873.511	-32.07956
873.908	-25.06417
874.306	-1.00254
874.703	5.01259
875.1	6.01531
875.497	0
875.894	39.09737
876.291	-47.11607
876.688	-27.07071
877.085	16.0386
877.482	42.10567
877.878	32.07825
878.275	4.01024
878.671	-24.05332
879.068	64.15423
879.464	28.06865
879.86	29.06985
880.256	-16.03984
880.652	32.08256
881.048	1.0025
881.444	-2.00478
881.84	51.13041
882.236	29.07306
882.631	31.07624
883.027	-8.01939
883.422	16.04154
883.817	-9.02327
884.213	40.10334
884.608	25.06285
885.003	39.09592
885.398	45.11357
885.793	29.07348
886.188	13.03302
886.582	49.12547
886.977	46.11014
887.371	-22.05551
887.766	17.04284
888.16	25.06294
888.554	-11.02705
888.949	10.02514
889.343	33.08095
889.737	0
890.131	8.02032
890.525	33.08542
890.918	26.0661
891.312	17.04077
891.706	-14.03699
892.099	25.06366
892.492	26.05634
892.886	75.18582
893.279	71.18244
893.672	46.11789
894.065	-17.04304
894.458	-4.0101
894.851	-3.00733
895.244	10.02592
895.637	42.10141
896.029	29.07204
896.422	33.08104
896.814	48.12099
897.206	20.04836
897.599	16.03948
897.991	15.03684
898.383	-18.043
898.775	15.03433
899.167	9.02155
899.559	11.02779
899.951	13.03114
900.342	40.10219
900.734	5.01271
901.125	77.20281
901.517	-11.02722
901.908	36.08597
902.299	42.10492
902.69	7.01676
903.082	3.00723
903.473	32.07808
903.863	26.06617
904.254	5.01171
904.645	-11.02727
905.036	-6.01484
905.426	52.11945
905.817	42.104
906.207	52.12584
906.597	-20.04781
906.987	-59.15345
907.378	11.02794
907.768	38.10085
908.158	32.07849
908.547	56.14672
908.937	15.03827
909.327	16.03904
909.717	1.00254
910.106	47.11478
910.495	-2.00501
910.885	19.04857
911.274	19.04797
911.663	49.12353
912.052	-20.04962
912.441	9.02326
912.83	67.15567
913.219	32.0833
913.608	9.02191
913.997	8.02044
914.385	33.07975
914.774	-19.04695
915.162	13.03164
915.55	-39.09521
915.939	2.00511
916.327	-35.08735
916.715	64.16551
917.103	31.07636
917.491	27.06712
917.878	33.08209
918.266	-26.06787
918.654	19.04875
919.041	-3.0079
919.429	-15.03573
919.816	3.00767
920.203	23.05623
920.591	-9.02244
920.978	26.06389
921.365	19.05013
921.752	-11.02652
922.139	-16.03528
922.525	62.15257
922.912	8.01961
923.299	15.03814
923.685	-5.0131
924.072	19.04411
924.458	-2.00502
924.844	28.07058
925.231	0
925.617	31.08052
926.003	25.06404
926.389	-45.11507
926.774	-8.02051
927.16	62.15398
927.546	-21.05449
927.931	88.21974
928.317	21.04887
928.702	-8.01903
929.088	30.07282
929.473	21.05387
929.858	34.08432
930.243	21.05096
930.628	13.03232
931.013	10.02505
931.398	-25.05753
931.783	-10.02621
932.167	-46.11383
932.552	-16.04007
932.937	18.04478
933.321	24.06112
933.705	19.04814
934.09	5.01246
934.474	48.11458
934.858	-29.0755
935.242	21.04906
935.626	17.04396
936.009	10.02686
936.393	-49.126
936.777	20.05102
937.16	20.05251
937.544	-70.16716
937.927	-10.02563
938.311	53.12891
938.694	-8.02111
939.077	50.12104
939.46	13.0318
939.843	-3.00634
940.226	17.04411
940.609	31.07282
940.991	39.10018
941.374	6.0148
941.757	36.08963
942.139	-10.02279
942.522	-27.06424
942.904	15.03616
943.286	-11.02813
943.668	51.13283
944.05	41.1021
944.432	40.10025
944.814	27.0676
945.196	35.08738
945.578	13.03184
945.959	9.02137
946.341	-3.00733
946.722	-1.00236
947.104	11.02638
947.485	37.08783
947.866	20.05113
948.247	48.12172
948.628	38.09299
949.009	23.05949
949.39	20.04974
949.771	50.11674
950.152	20.04965
950.532	17.04267
950.913	-6.01484
951.293	9.02465
951.674	32.07776
952.054	-21.05279
952.434	-8.02001
952.814	-33.07834
953.194	-48.12568
953.574	7.01722
953.954	32.07682
954.334	0
954.714	7.01733
955.093	-18.04413
955.473	23.05792
955.853	3.00776
956.232	-13.03557
956.611	11.02633
956.99	-50.1263
957.37	-9.0231
957.749	-18.04353
958.128	-2.00506
958.506	18.04711
958.885	-9.02296
959.264	2.00502
959.643	8.01861
960.021	6.01494
960.4	8.01834
960.778	-6.01474
961.156	5.01272
961.535	-7.01652
961.913	20.04728
962.291	-1.00261
962.669	-36.09116
963.047	16.04116
963.424	11.02825
963.802	-41.1024
964.18	-14.03558
964.557	40.09306
964.935	7.01662
965.312	-1.00265
965.69	16.0403
966.067	26.06365
966.444	-24.05976
966.821	-29.07499
967.198	-23.05584
967.575	11.02699
967.952	-12.02821
968.329	11.02697
968.705	49.10707
969.082	32.08327
969.458	-29.07109
969.835	-53.13002
970.211	15.03889
970.587	-18.04526
970.963	6.01547
971.339	24.06297
971.715	26.06525
972.091	24.05958
972.467	-17.04277
972.843	8.02025
973.219	-26.06273
973.594	5.01323
973.97	26.06218
974.345	35.08468
974.721	17.04136
975.096	-19.0469
975.471	-63.14961
975.846	39.09454
976.221	-3.00779
976.596	9.02195
976.971	-20.04949
977.346	-3.00704
977.72	-41.10484
978.095	-39.10144
978.469	6.01439
978.844	5.01253
979.218	27.06609
979.593	-45.10842
979.967	15.03704
980.341	19.04448
980.715	-23.05838
981.089	16.04052
981.463	6.01401
981.837	19.04706
982.21	-49.11331
982.584	6.01473
982.957	15.03784
983.331	-6.01433
983.704	59.14597
984.078	-8.01989
984.451	-6.01478
984.824	32.07956
985.197	46.1119
985.57	-14.03545
985.943	-17.04195
986.316	40.09803
986.688	39.09411
987.061	36.08528
987.434	4.01044
987.806	12.02906
988.179	47.11294
988.551	15.03832
988.923	-34.0841
989.295	46.1152
989.667	-12.02972
990.039	6.01504
990.411	26.0604
990.783	-20.04605
991.155	26.06403
991.527	0
991.898	7.01757
992.27	46.11503
992.641	31.07776
993.012	-2.00476
993.384	26.06266
993.755	-11.02838
994.126	-9.02188
994.497	23.05744
994.868	-24.05593
995.239	-2.00491
995.61	21.0536
995.98	30.07391
996.351	14.03531
996.722	35.08247
997.092	-16.03849
997.462	48.11475
997.833	1.00237
998.203	20.04858
998.573	18.04506
998.943	12.02864
999.313	-15.0361
999.683	-7.01699
1000.053	-15.03493
1000.423	11.02676
1000.792	37.09696
1001.162	19.04714
1001.531	-5.01247
1001.901	16.04001
1002.27	45.10182
1002.639	44.11253
1003.009	21.05048
1003.378	-27.0696
1003.747	15.03584
1004.116	-11.02681
1004.485	3.00718
1004.853	-5.01274
1005.222	29.07361
1005.591	8.01918
1005.959	40.09336
1006.328	15.03445
1006.696	-55.13497
1007.064	18.04582
1007.433	-33.08287
1007.801	8.0195
1008.169	42.10696
1008.537	1.00222
1008.905	10.02371
1009.273	46.11378
1009.64	-42.10324
1010.008	-15.03636
1010.375	-48.11515
1010.743	66.15198
1011.11	-4.00965
1011.478	-12.02981
1011.845	42.09876
1012.212	31.07151
1012.579	16.03949
1012.946	31.07427
1013.313	-44.10531
1013.68	11.02485
1014.047	36.08784
1014.414	29.06926
1014.78	7.01748
1015.147	-19.04618
1015.513	6.01462
1015.88	-3.00769
1016.246	11.02725
1016.612	44.10124
1016.978	18.04462
1017.344	0
1017.71	-17.04112
1018.076	-14.03327
1018.442	29.07449
1018.808	22.05545
1019.174	-12.03063
1019.539	60.1359
1019.905	8.01902
1020.27	-1.0025
1020.636	34.08128
1021.001	14.03406
1021.366	-31.07523
1021.731	3.00777
1022.096	-26.06614
1022.461	-29.06884
1022.826	11.02656
1023.191	-18.04761
1023.556	-36.08607
1023.92	4.00983
1024.285	51.12376
1024.649	11.02698
1025.014	-10.02484
1025.378	34.08625
1025.742	12.03005
1026.107	-5.01144
1026.471	-13.03044
1026.835	18.04449
1027.199	-4.00982
1027.562	22.05195
1027.926	15.03662
1028.29	41.10528
1028.654	7.01637
1029.017	-29.0718
1029.381	81.19664
1029.744	19.04901
1030.107	-25.05925
1030.471	-5.01208
1030.834	3.00689
1031.197	-40.09676
1031.56	0
1031.923	-14.03651
1032.286	28.06502
1032.648	8.01937
1033.011	31.07285
1033.374	3.00704
1033.736	-16.04289
1034.099	22.05444
1034.461	58.1487
1034.823	-1.00252
1035.185	8.02034
1035.548	23.05646
1035.91	37.08969
1036.272	55.12597
1036.634	19.04623
1036.995	14.03289
1037.357	-19.04687
1037.719	-12.02931
1038.08	1.00237
1038.442	-19.04574
1038.803	40.09698
1039.165	-14.03555
1039.526	-1.00243
1039.887	11.02662
1040.248	8.02021
1040.609	22.0542
1040.97	14.03495
1041.331	-45.11503
1041.692	12.02854
1042.053	9.02062
1042.413	-5.01173
1042.774	23.05602
1043.134	-18.04288
1043.495	8.02018
1043.855	-33.08104
1044.215	2.00496
1044.576	-18.04416
1044.936	-21.04808
1045.296	36.0896
1045.656	38.09341
1046.016	53.12784
1046.375	19.04695
1046.735	-7.01635
1047.095	3.00713
1047.454	-31.0663
1047.814	-55.13317
1048.173	-3.00714
1048.533	35.0809
1048.892	24.05884
1049.251	24.06013
1049.61	22.05468
1049.969	0
1050.328	-10.02204
1050.687	5.01232
1051.046	-29.07143
1051.405	12.03005
1051.763	-16.03753
1052.122	20.05083
1052.48	-7.01723
1052.839	-7.01672
1053.197	-48.11418
1053.555	0
1053.914	36.08839
1054.272	-2.00484
1054.63	-5.0125
1054.988	14.03348
1055.345	38.08302
1055.703	-24.0579
1056.061	-2.00519
1056.419	-21.05501
1056.776	-8.01942
1057.134	15.03524
1057.491	-8.02017
1057.848	12.03005
1058.206	-15.03588
1058.563	-12.02711
1058.92	-23.05367
1059.277	-29.0718
1059.634	26.06187
1059.991	-9.02144
1060.348	52.12017
1060.704	42.10083
1061.061	-32.0733
1061.418	5.01234
1061.774	-7.01751
1062.131	-10.02666
1062.487	-34.08069
1062.843	6.01509
1063.199	-7.01748
1063.555	-25.05886
1063.911	-9.02307
1064.267	0
1064.623	-18.04459
1064.979	7.01637
1065.335	-21.04981
1065.691	-32.07682
1066.046	1.00221
1066.402	-3.00698
1066.757	-16.0404
1067.112	-30.07336
1067.468	1.0024
1067.823	44.10612
1068.178	-8.01946
1068.533	-16.03898
1068.888	51.12232
1069.243	51.1259
1069.598	4.00986
1069.952	13.03011
1070.307	-2.00505
1070.662	21.05071
1071.016	19.0436
1071.371	-45.10468
1071.725	-11.02648
1072.079	-28.06763
1072.434	1.00246
1072.788	37.08976
1073.142	-26.06455
1073.496	93.22484
1073.85	-39.09172
1074.203	-33.08014
1074.557	-7.0188
1074.911	-10.02393
1075.265	-6.01408
1075.618	43.10505
1075.971	-1.00241
1076.325	10.02573
1076.678	76.17759
1077.031	36.08283
1077.385	22.04932
1077.738	82.18807
1078.091	61.14189
1078.444	64.14896
1078.796	3.00742
1079.149	29.07196
1079.502	32.07685
1079.855	22.05215
1080.207	8.0197
1080.56	2.00525
1080.912	12.02949
1081.264	6.0146
1081.617	34.08435
1081.969	37.09458
1082.321	-12.02993
1082.673	17.04001
1083.025	-55.13232
1083.377	-9.01952
1083.728	-27.06402
1084.08	31.07824
1084.432	26.06363
1084.783	27.06281
1085.135	-17.04326
1085.486	26.06085
1085.838	-16.03994
1086.189	6.01474
1086.54	-34.08178
1086.891	3.00773
1087.242	-1.00245
1087.593	-8.01936
1087.944	55.12657
1088.295	-23.05257
1088.646	-44.1086
1088.996	4.00984
1089.347	16.03949
1089.698	42.10148
1090.048	15.03893
1090.398	29.06754
1090.749	-13.03131
1091.099	13.0331
1091.449	-8.02001
1091.799	63.15871
1092.149	11.02768
1092.499	-9.02196
1092.849	26.06633
1093.199	1.0025
1093.548	-19.04616
1093.898	36.09113
1094.248	-22.05668
1094.597	-13.03396
1094.947	17.04545
1095.296	15.03746
1095.645	17.04415
1095.994	33.08032
1096.343	33.0831
1096.692	28.07463
1097.041	17.0465
1097.39	-3.00757
1097.739	15.03879
1098.088	15.04023
1098.437	-15.03997
1098.785	45.1217
1099.134	25.06633
1099.482	-1.00275
1099.83	-10.02617
1100.179	-5.01318
1100.527	19.05094
1100.875	5.01333
1101.223	-22.0586
1101.571	10.02789
1101.919	3.00797
1102.267	18.05074
1102.615	-2.00644
1102.962	2.00643
1103.31	3.00966
1103.658	5.01609
