Data from N2 R4 sample 11_Subt2__2__19-30-43-958.txt Node

Date: Wed Aug 27 19:30:43 PDT 2025
User: uwsun
Spectrometer: HDX01956
Trigger mode: 0
Integration Time (sec): 5.000000E-1
Scans to average: 1
Nonlinearity correction enabled: true
Boxcar width: 0
Storing dark spectrum: false
XAxis mode: Wavelengths
Number of Pixels in Spectrum: 2068
>>>>>Begin Spectral Data<<<<<
194.03	366.96684
194.578	362.08585
195.127	357.05132
195.676	392.15639
196.225	393.95567
196.773	450.13361
197.321	628.49113
197.87	820.67861
198.418	859.74784
198.966	821.70526
199.513	839.65603
200.061	795.60722
200.609	841.77396
201.156	868.46482
201.704	765.53026
202.251	811.71064
202.798	851.75037
203.345	866.66828
203.892	818.62849
204.438	830.53229
204.985	903.64533
205.532	896.84672
206.078	923.70731
206.624	938.76056
207.17	879.51439
207.716	962.77119
208.262	922.32753
208.808	939.80091
209.354	928.71956
209.899	933.78165
210.445	865.66037
210.99	893.62461
211.535	853.50232
212.08	901.56891
212.625	908.73342
213.17	886.70442
213.715	865.48783
214.259	917.62795
214.804	964.81389
215.348	861.48882
215.892	931.66739
216.436	923.59548
216.98	874.45581
217.524	907.64347
218.068	866.67865
218.612	865.67313
219.155	830.52312
219.698	827.50429
220.242	803.52933
220.785	806.45304
221.328	750.48187
221.871	792.56789
222.414	757.4765
222.956	786.51684
223.499	841.50585
224.041	836.51032
224.583	826.35753
225.126	822.41932
225.668	833.61114
226.21	819.64975
226.751	808.39139
227.293	807.45151
227.835	714.38756
228.376	821.45638
228.918	759.52174
229.459	810.61927
230	802.51449
230.541	776.39599
231.082	744.43291
231.622	811.45723
232.163	842.61421
232.704	782.53724
233.244	816.63128
233.784	794.52058
234.324	844.46747
234.864	789.40746
235.404	783.46159
235.944	749.40836
236.484	798.56285
237.023	856.57802
237.563	747.36536
238.102	772.42075
238.641	855.69633
239.18	832.52297
239.719	799.57403
240.258	841.43335
240.797	829.52472
241.335	850.61156
241.874	836.19563
242.412	833.55893
242.95	828.57512
243.488	857.51253
244.026	811.44307
244.564	891.36484
245.102	797.3808
245.64	842.56689
246.177	886.51635
246.715	854.58769
247.252	807.42556
247.789	926.23441
248.326	869.62483
248.863	800.31029
249.4	825.40978
249.936	790.22278
250.473	852.50564
251.009	855.54276
251.546	834.38137
252.082	798.30483
252.618	879.48946
253.154	892.66176
253.69	824.41146
254.226	819.4995
254.761	807.3686
255.297	886.46293
255.832	825.48927
256.367	815.45844
256.903	916.50846
257.438	873.54965
257.972	816.3701
258.507	848.49777
259.042	853.38689
259.576	849.40436
260.111	872.51628
260.645	903.45533
261.179	922.61698
261.713	825.40374
262.247	911.58052
262.781	886.3832
263.315	907.68183
263.849	886.69544
264.382	904.54807
264.915	902.58512
265.449	899.6893
265.982	929.52783
266.515	872.5755
267.048	905.45116
267.58	867.38371
268.113	975.55678
268.646	961.77156
269.178	892.48752
269.71	936.46413
270.243	889.49427
270.775	898.73995
271.307	946.68
271.838	941.62927
272.37	954.74591
272.902	969.62388
273.433	901.421
273.965	900.61628
274.496	938.72778
275.027	903.66609
275.558	912.64124
276.089	942.73603
276.62	925.74591
277.15	954.71612
277.681	917.41976
278.211	959.74231
278.741	893.4668
279.272	942.57805
279.802	931.71871
280.332	969.6912
280.861	972.68177
281.391	942.57376
281.921	1024.75611
282.45	1019.84409
282.98	989.88968
283.509	996.56562
284.038	964.58867
284.567	984.63878
285.096	959.70446
285.625	1017.64351
286.153	963.64633
286.682	994.62201
287.21	990.71301
287.739	940.591
288.267	1045.81564
288.795	1076.04241
289.323	1013.6988
289.851	1043.7151
290.378	983.56425
290.906	1070.86166
291.433	1040.84167
291.961	1008.60923
292.488	1050.86424
293.015	1069.76386
293.542	1038.8619
294.069	1097.89125
294.596	1031.76014
295.122	1092.82135
295.649	1089.63151
296.175	1034.72613
296.702	1104.82235
297.228	1079.76277
297.754	1105.63677
298.28	1073.64701
298.806	1164.88802
299.332	1108.61592
299.857	1113.66768
300.383	1160.00275
300.908	1168.94015
301.433	1150.89235
301.958	1193.80121
302.483	1091.85696
303.008	1151.8684
303.533	1179.07389
304.058	1173.75922
304.582	1205.86499
305.107	1188.08491
305.631	1174.69922
306.155	1117.70587
306.679	1190.81645
307.203	1210.80153
307.727	1165.81323
308.251	1225.97028
308.775	1272.93905
309.298	1225.87739
309.822	1289.07744
310.345	1261.84926
310.868	1309.9671
311.391	1280.94559
311.914	1278.04054
312.437	1225.66856
312.96	1251.79985
313.482	1300.86692
314.005	1356.11102
314.527	1294.1365
315.049	1357.09368
315.571	1389.77381
316.093	1348.98579
316.615	1374.93516
317.137	1392.68884
317.659	1428.01254
318.18	1490.06547
318.702	1437.87115
319.223	1428.56096
319.744	1441.74617
320.265	1451.96859
320.786	1463.04888
321.307	1548.12928
321.828	1476.76453
322.348	1525.89994
322.869	1605.99457
323.389	1616.13471
323.909	1578.79177
324.43	1622.01906
324.95	1605.7857
325.47	1657.08002
325.989	1676.8661
326.509	1806.84151
327.029	1838.87997
327.548	1768.8131
328.067	1724.97367
328.587	1759.0331
329.106	1764.73589
329.625	1750.1926
330.144	1803.86903
330.662	1835.81841
331.181	1822.78627
331.7	1923.88575
332.218	1875.56853
332.736	1968.78878
333.255	2002.81658
333.773	2021.88784
334.291	2021.05439
334.808	2078.68657
335.326	2047.56295
335.844	2146.69235
336.361	2073.93751
336.879	2202.68564
337.396	2166.75677
337.913	2173.53738
338.43	2363.53621
338.947	2273.55889
339.464	2349.3673
339.981	2328.65988
340.497	2336.73912
341.014	2424.75295
341.53	2390.43919
342.046	2432.6952
342.562	2484.71009
343.078	2514.42778
343.594	2616.51168
344.11	2595.49448
344.626	2630.67371
345.141	2610.25214
345.657	2596.18493
346.172	2628.37078
346.687	2650.26324
347.202	2723.02448
347.717	2780.2021
348.232	2758.37392
348.747	2865.0645
349.261	2739.81574
349.776	2850.0688
350.29	2955.3004
350.805	2893.1661
351.319	2982.8019
351.833	2911.86034
352.347	2939.90978
352.861	3035.81321
353.374	3041.72418
353.888	2982.95159
354.401	3031.68216
354.915	3061.56551
355.428	3202.8573
355.941	3212.58723
356.454	3246.31984
356.967	3261.65005
357.48	3202.45581
357.993	3281.72833
358.505	3383.5938
359.018	3455.50514
359.53	3501.42341
360.042	3429.13495
360.554	3385.38758
361.066	3412.47308
361.578	3401.0224
362.09	3487.29975
362.602	3513.98285
363.113	3486.12139
363.625	3654.99654
364.136	3738.82025
364.647	3722.95989
365.158	3768.83611
365.669	3790.96771
366.18	3880.83699
366.691	3762.64723
367.201	3819.8889
367.712	3950.66245
368.222	3985.61782
368.733	4028.38583
369.243	4082.33181
369.753	4081.36766
370.263	4332.45562
370.773	4249.55792
371.282	4261.25506
371.792	4467.1762
372.301	4597.16128
372.811	4458.35202
373.32	4588.83969
373.829	4739.96811
374.338	4989.78043
374.847	4935.78262
375.356	5184.82478
375.865	5259.79702
376.373	5709.0596
376.882	5727.03798
377.39	5892.20954
377.898	6008.33549
378.407	6165.91853
378.915	6596.05697
379.423	6879.36744
379.93	7016.28131
380.438	7090.51814
380.946	7694.13307
381.453	8004.85232
381.96	8224.81212
382.468	8890.99174
382.975	9530.93227
383.482	9824.9359
383.989	9959.6545
384.495	10349.33331
385.002	10832.61036
385.509	11463.21021
386.015	12180.97761
386.521	12661.4845
387.028	13264.76696
387.534	13640.3546
388.04	14464.35039
388.546	14559.99033
389.051	15263.35171
389.557	16342.89293
390.063	17928.57308
390.568	18388.51303
391.073	18901.52228
391.578	19611.55363
392.084	20089.38855
392.589	20857.06954
393.093	22336.45342
393.598	23957.06443
394.103	26198.97592
394.607	28885.60989
395.112	31441.6548
395.616	32748.80473
396.12	35617.28378
396.624	38639.61702
397.128	41917.16843
397.632	41841.55162
398.136	40920.53055
398.639	39575.50194
399.143	37072.18751
399.646	33425.07685
400.15	30257.92651
400.653	26744.30161
401.156	22069.35973
401.659	15501.4617
402.162	4304.81735
402.664	865.43837
403.167	0
403.67	0
404.172	0
404.674	0
405.176	0
405.678	0
406.18	0
406.682	0
407.184	0
407.686	0
408.187	0
408.688	0
409.19	0
409.691	0
410.192	0
410.693	0
411.194	0
411.694	11.28237
412.195	3122.18734
412.696	8274.79556
413.196	11824.3934
413.696	13768.63585
414.196	13509.3687
414.696	14514.78924
415.196	16680.3865
415.696	20882.81744
416.196	28662.6172
416.695	36400.56296
417.195	40282.64143
417.694	41360.26869
418.194	42711.87066
418.693	44201.96737
419.192	45008.95072
419.691	45074.25558
420.19	45029.54975
420.688	43731.47176
421.187	42863.72989
421.685	39603.01987
422.184	36101.10419
422.682	31507.26404
423.18	26293.80744
423.678	23155.60698
424.176	21630.18178
424.674	20241.38275
425.172	19346.2445
425.669	18444.9883
426.167	17185.76117
426.664	15500.03917
427.161	14289.71262
427.659	12885.07693
428.156	12234.30448
428.652	11792.95884
429.149	11210.85874
429.646	10840.12084
430.143	10090.47173
430.639	9616.84507
431.135	9041.40945
431.632	8573.62165
432.128	7947.1858
432.624	7478.97623
433.12	7349.80691
433.616	6909.88423
434.111	6891.64722
434.607	6342.36053
435.103	6359.61937
435.598	6201.41909
436.093	5987.53348
436.588	5652.0965
437.083	5371.8555
437.578	5027.7205
438.073	4918.85717
438.568	4907.91063
439.062	4615.7256
439.557	4384.96739
440.051	4321.98862
440.546	4109.13549
441.04	3985.29208
441.534	3915.57202
442.028	3898.42327
442.522	3834.48549
443.015	3772.41181
443.509	3677.67998
444.002	3527.82544
444.496	3613.542
444.989	3487.95342
445.482	3510.06356
445.975	3429.74023
446.468	3372.62907
446.961	3420.80255
447.454	3299.93443
447.947	3146.19842
448.439	3059.26564
448.931	3163.05724
449.424	3054.51656
449.916	2943.44085
450.408	2913.24435
450.9	2882.57906
451.392	2830.69779
451.884	2843.38865
452.375	2825.91812
452.867	2697.44138
453.358	2691.56178
453.849	2597.39189
454.341	2541.6023
454.832	2569.48969
455.323	2533.91176
455.814	2428.73879
456.304	2538.72853
456.795	2375.71938
457.285	2415.6635
457.776	2375.82116
458.266	2376.00377
458.756	2266.07863
459.247	2278.10931
459.737	2179.15427
460.226	2135.93949
460.716	2160.24181
461.206	2042.20774
461.695	2135.48683
462.185	2001.21556
462.674	2011.16304
463.163	2061.10848
463.653	1869.91975
464.142	1999.48485
464.63	1919.4523
465.119	1888.39869
465.608	1876.33137
466.096	1817.20824
466.585	1741.353
467.073	1792.43366
467.561	1764.48277
468.05	1739.41304
468.538	1750.58717
469.026	1640.4675
469.513	1693.21614
470.001	1623.41433
470.489	1588.48778
470.976	1593.41676
471.463	1542.6937
471.951	1477.64136
472.438	1484.55599
472.925	1396.53001
473.412	1373.51888
473.899	1311.39797
474.385	1262.52783
474.872	1368.53478
475.359	1283.61211
475.845	1283.24515
476.331	1202.23071
476.817	1183.56281
477.303	1198.41004
477.789	1176.51369
478.275	1129.6049
478.761	1080.41083
479.247	1033.23388
479.732	1049.51572
480.218	1078.68247
480.703	1081.57968
481.188	1034.25438
481.673	971.28494
482.158	988.2308
482.643	954.46049
483.128	945.30979
483.612	939.33659
484.097	903.3613
484.581	948.37365
485.066	831.29137
485.55	798.10042
486.034	862.17381
486.518	800.24919
487.002	794.30695
487.486	841.37345
487.969	759.24814
488.453	699.21126
488.936	734.1139
489.42	735.06873
489.903	708.25388
490.386	794.79353
490.869	703.02771
491.352	698.20344
491.835	640.90112
492.318	662.05231
492.8	612.87314
493.283	590.08902
493.765	637.14281
494.247	627.05116
494.73	567.91025
495.212	527.95051
495.694	546.92774
496.175	525.93285
496.657	584.00163
497.139	490.57918
497.62	534.9619
498.102	484.92237
498.583	465.89369
499.064	439.72871
499.545	486.83869
500.026	466.79259
500.507	450.80348
500.988	403.77452
501.469	491.95276
501.949	439.84168
502.43	390.73454
502.91	376.59264
503.39	393.76768
503.87	379.70312
504.35	396.72826
504.83	458.7693
505.31	376.72314
505.79	430.81586
506.269	403.73573
506.749	413.74598
507.228	365.67512
507.707	379.66392
508.187	340.63281
508.666	296.60001
509.145	360.68337
509.623	353.6673
510.102	363.70705
510.581	313.61401
511.059	345.70206
511.538	333.70017
512.016	363.69226
512.494	388.76061
512.972	338.651
513.45	352.66166
513.928	316.6218
514.406	372.73752
514.884	275.58459
515.361	394.74937
515.839	341.61811
516.316	330.63803
516.793	381.78449
517.27	392.76009
517.747	338.72367
518.224	345.64738
518.701	267.48149
519.178	346.70842
519.654	302.58837
520.131	338.69204
520.607	311.62855
521.083	274.51605
521.56	345.67455
522.036	288.51498
522.512	275.55681
522.987	306.59702
523.463	296.59205
523.939	292.57755
524.414	322.60496
524.89	310.60626
525.365	339.63173
525.84	335.65903
526.315	297.58455
526.79	314.57657
527.265	262.49247
527.74	283.57721
528.215	315.61239
528.689	318.58068
529.164	320.57132
529.638	289.6181
530.112	272.53825
530.587	249.43593
531.061	199.40533
531.534	270.54906
532.008	278.56069
532.482	298.56042
532.956	248.5381
533.429	319.64176
533.903	219.39391
534.376	299.5558
534.849	301.57457
535.322	348.68768
535.795	276.56587
536.268	261.52967
536.741	270.54431
537.213	279.53852
537.686	336.68951
538.158	271.50801
538.631	245.50016
539.103	339.63738
539.575	290.49103
540.047	272.50397
540.519	300.5956
540.991	298.6049
541.463	296.60276
541.934	256.4959
542.406	338.6817
542.877	355.67338
543.348	265.53607
543.82	232.47824
544.291	294.57279
544.762	285.57573
545.233	265.55769
545.703	338.63159
546.174	347.65371
546.645	404.81332
547.115	330.65853
547.585	382.71099
548.056	340.67754
548.526	376.71548
548.996	357.68875
549.466	441.86063
549.935	445.84
550.405	429.74364
550.875	514.96528
551.344	438.83266
551.814	430.77292
552.283	466.78745
552.752	455.84036
553.221	492.84271
553.69	535.91321
554.159	482.92168
554.628	501.84916
555.096	482.9556
555.565	504.88832
556.033	467.85303
556.502	449.86252
556.97	340.59167
557.438	378.7382
557.906	312.61104
558.374	387.74161
558.842	300.60868
559.31	281.52468
559.777	307.63555
560.245	303.60985
560.712	203.40086
561.18	266.5032
561.647	245.47584
562.114	315.61385
562.581	262.55028
563.048	323.62854
563.514	247.51661
563.981	322.62764
564.448	306.59078
564.914	243.48278
565.381	249.49308
565.847	220.44024
566.313	238.47759
566.779	232.45457
567.245	234.48345
567.711	225.46037
568.176	215.41738
568.642	279.62018
569.108	250.53157
569.573	261.52507
570.038	233.42211
570.504	232.44812
570.969	247.53947
571.434	233.44411
571.899	308.62748
572.363	220.42678
572.828	271.5163
573.293	287.55928
573.757	304.59199
574.222	231.43752
574.686	253.48693
575.15	278.56456
575.614	278.54213
576.078	271.54016
576.542	313.59661
577.006	306.58057
577.469	227.4693
577.933	311.59308
578.396	285.58366
578.86	279.55197
579.323	287.59148
579.786	265.48303
580.249	307.60708
580.712	283.58954
581.175	282.59934
581.637	269.52096
582.1	288.53282
582.563	320.56571
583.025	297.62173
583.487	287.49136
583.95	223.4139
584.412	328.57411
584.874	233.47976
585.336	273.55504
585.797	256.46651
586.259	277.55495
586.721	310.63414
587.182	280.552
587.643	224.43578
588.105	284.57332
588.566	274.48842
589.027	194.39991
589.488	226.44261
589.949	313.64216
590.41	211.35987
590.87	228.44547
591.331	308.55928
591.791	242.48202
592.252	289.57256
592.712	345.70494
593.172	266.52144
593.632	314.58179
594.092	255.48747
594.552	250.45465
595.011	273.54491
595.471	249.47784
595.931	284.54225
596.39	262.53863
596.849	266.5355
597.308	290.53276
597.768	272.60148
598.227	255.52128
598.685	266.51601
599.144	279.55689
599.603	252.50942
600.062	331.60274
600.52	249.47669
600.978	273.56643
601.437	263.51276
601.895	262.47599
602.353	302.57886
602.811	296.56187
603.269	274.56787
603.727	273.56288
604.184	226.44449
604.642	215.46024
605.099	275.54763
605.557	279.59154
606.014	246.4649
606.471	305.66163
606.928	334.62195
607.385	311.64815
607.842	426.81064
608.299	454.84334
608.755	430.84932
609.212	336.61728
609.668	433.81614
610.125	360.71706
610.581	363.70201
611.037	362.68683
611.493	284.57095
611.949	214.45601
612.405	322.5642
612.861	261.53016
613.316	240.50719
613.772	239.47261
614.227	251.52055
614.683	236.44294
615.138	240.49918
615.593	273.5601
616.048	245.49516
616.503	274.58969
616.958	234.5207
617.412	274.57472
617.867	248.48868
618.321	264.48597
618.776	274.53331
619.23	257.53776
619.684	182.36116
620.138	172.34563
620.592	241.52258
621.046	179.37372
621.5	265.57315
621.954	233.4668
622.407	282.56562
622.861	205.44945
623.314	213.43562
623.768	179.37638
624.221	201.36469
624.674	162.34026
625.127	255.54019
625.58	199.41013
626.033	213.42396
626.485	207.4523
626.938	193.42136
627.39	185.39396
627.843	201.42338
628.295	162.34686
628.747	155.33654
629.199	202.42895
629.651	193.41314
630.103	122.26144
630.555	175.35352
631.006	153.33403
631.458	152.33431
631.909	126.26768
632.361	111.24603
632.812	107.23361
633.263	131.26755
633.714	137.27714
634.165	125.28329
634.616	123.27808
635.067	127.26586
635.518	168.37772
635.968	79.15299
636.419	150.31324
636.869	104.2369
637.319	83.18259
637.769	82.17952
638.219	130.29612
638.669	120.27687
639.119	88.20563
639.569	93.21761
640.019	110.24468
640.468	79.17153
640.918	95.21924
641.367	107.23924
641.816	73.15749
642.265	83.18535
642.714	91.2064
643.163	105.23738
643.612	137.32545
644.061	115.24405
644.51	85.19068
644.958	148.32661
645.406	65.15275
645.855	83.19945
646.303	106.23862
646.751	84.19111
647.199	48.10774
647.647	55.12597
648.095	92.20965
648.543	85.17218
648.99	66.15579
649.438	47.10769
649.885	43.10502
650.333	89.17409
650.78	53.12784
651.227	71.16984
651.674	70.15971
652.121	66.15899
652.568	86.20654
653.015	114.28343
653.461	100.23541
653.908	46.10546
654.354	43.10109
654.801	61.14419
655.247	37.0802
655.693	35.0895
656.139	87.20684
656.585	87.20556
657.031	77.17982
657.477	7.01517
657.922	70.1599
658.368	85.20759
658.813	69.15911
659.259	66.15929
659.704	68.15952
660.149	143.33316
660.594	23.05456
661.039	56.12771
661.484	94.22146
661.929	87.20157
662.373	29.07248
662.818	85.20936
663.262	90.21607
663.707	43.10848
664.151	85.20581
664.595	38.09213
665.039	49.12247
665.483	77.19398
665.927	38.0898
666.371	15.03548
666.814	30.07221
667.258	56.13301
667.701	96.20662
668.145	69.17064
668.588	64.1579
669.031	69.1631
669.474	42.10259
669.917	45.10012
670.36	86.21311
670.803	46.11043
671.245	26.05586
671.688	61.14675
672.13	35.07993
672.573	90.22815
673.015	27.06533
673.457	46.10168
673.899	57.13879
674.341	97.23336
674.783	115.28096
675.225	22.05412
675.666	93.22696
676.108	93.20442
676.549	79.18731
676.991	133.29872
677.432	47.09695
677.873	110.25895
678.314	86.20733
678.755	112.27266
679.196	104.24101
679.637	129.31163
680.078	42.09872
680.518	89.20555
680.959	139.33756
681.399	95.2364
681.839	124.30401
682.28	103.25631
682.72	53.12363
683.16	64.16114
683.6	78.17846
684.039	-4.00852
684.479	78.19393
684.919	86.20426
685.358	97.24724
685.798	55.14584
686.237	107.25946
686.676	5.01174
687.115	56.13347
687.554	39.09468
687.993	105.23564
688.432	140.32906
688.871	58.13526
689.309	1.00241
689.748	71.15271
690.186	43.10443
690.625	119.28563
691.063	44.10764
691.501	91.22521
691.939	87.21948
692.377	73.18067
692.815	105.25729
693.253	61.14809
693.69	126.28387
694.128	95.23649
694.565	85.20681
695.003	60.15393
695.44	26.06164
695.877	47.11144
696.314	79.17467
696.751	67.15351
697.188	62.14505
697.625	154.35532
698.061	45.10978
698.498	73.17709
698.934	115.28022
699.371	98.23617
699.807	90.21672
700.243	115.28273
700.679	81.18454
701.115	73.17262
701.551	111.264
701.987	48.10898
702.422	93.22433
702.858	103.24864
703.294	75.17198
703.729	97.24033
704.164	95.23244
704.599	79.17962
705.035	137.31742
705.47	79.19344
705.904	126.30238
706.339	106.24769
706.774	116.27679
707.209	97.22892
707.643	88.21407
708.078	71.17572
708.512	57.14585
708.946	53.12896
709.38	70.16677
709.814	131.30183
710.248	40.09847
710.682	91.22092
711.116	91.22439
711.549	89.23243
711.983	70.16556
712.416	70.16697
712.85	85.21206
713.283	65.15655
713.716	89.22244
714.149	116.27827
714.582	74.16747
715.015	107.2681
715.448	65.16475
715.881	64.14029
716.313	96.22845
716.746	51.12339
717.178	52.12702
717.61	100.25242
718.043	91.22925
718.475	92.22506
718.907	80.20063
719.339	78.1819
719.77	86.20756
720.202	43.10933
720.634	94.2326
721.065	97.23123
721.497	80.19774
721.928	57.14262
722.359	93.23
722.79	106.25622
723.221	51.12889
723.652	69.17643
724.083	84.19404
724.514	101.23577
724.945	51.1205
725.375	109.26133
725.806	108.2728
726.236	76.19532
726.666	95.22751
727.096	119.29375
727.526	129.33182
727.956	107.25027
728.386	71.17436
728.816	66.1695
729.246	112.27612
729.675	81.20398
730.105	86.2114
730.534	107.25086
730.964	102.257
731.393	68.1682
731.822	141.35939
732.251	94.2393
732.68	138.3289
733.109	78.19442
733.537	72.17679
733.966	78.1952
734.395	100.23238
734.823	115.26095
735.251	80.19286
735.68	161.40093
736.108	101.25717
736.536	120.28315
736.964	94.22103
737.392	76.18978
737.82	120.28721
738.247	98.23527
738.675	73.17349
739.102	80.20201
739.53	144.36814
739.957	146.37443
740.384	109.26541
740.811	120.30333
741.238	70.17124
741.665	160.37225
742.092	152.36102
742.519	132.32949
742.945	116.27997
743.372	97.24024
743.798	132.33532
744.225	146.34784
744.651	153.38405
745.077	119.2958
745.503	101.24427
745.929	92.22129
746.355	108.26469
746.781	162.40232
747.207	159.37931
747.632	181.44416
748.058	172.42668
748.483	165.37819
748.908	155.38402
749.334	109.26986
749.759	175.41059
750.184	181.4308
750.609	151.36698
751.033	157.36664
751.458	204.45169
751.883	202.49064
752.307	163.38229
752.732	156.39024
753.156	163.39881
753.58	204.47198
754.005	205.51178
754.429	151.35193
754.853	209.51173
755.277	179.42129
755.7	218.53544
756.124	214.52445
756.548	194.45899
756.971	213.50481
757.394	184.46061
757.818	228.57424
758.241	194.48564
758.664	210.5217
759.087	256.56681
759.51	207.50288
759.933	236.56115
760.356	202.50109
760.778	203.48613
761.201	233.55114
761.623	242.57343
762.046	262.60399
762.468	232.53804
762.89	261.61737
763.312	231.54599
763.734	232.54357
764.156	254.60975
764.578	230.5101
765	268.62766
765.421	241.6036
765.843	255.63866
766.264	321.74838
766.686	326.79413
767.107	287.67307
767.528	291.71642
767.949	208.51579
768.37	283.67431
768.791	275.64468
769.212	280.68896
769.632	304.69633
770.053	295.75633
770.473	310.73707
770.894	262.6311
771.314	233.53725
771.734	289.64934
772.154	304.74718
772.575	280.6246
772.994	255.5659
773.414	295.68642
773.834	304.74082
774.254	303.72279
774.673	271.64002
775.093	323.77608
775.512	266.63879
775.931	275.67579
776.351	251.60335
776.77	311.73817
777.189	242.56056
777.607	275.68277
778.026	235.57452
778.445	281.6969
778.864	216.53973
779.282	267.62593
779.701	202.49486
780.119	243.60113
780.537	212.51762
780.955	278.68656
781.373	199.48036
781.791	235.51457
782.209	235.5213
782.627	238.61097
783.045	207.46492
783.462	251.63159
783.88	179.45704
784.297	191.4732
784.715	268.68268
785.132	196.4682
785.549	180.43835
785.966	219.5376
786.383	223.54154
786.8	232.52438
787.217	226.52537
787.633	171.42474
788.05	210.48509
788.466	174.39778
788.883	260.65364
789.299	170.40485
789.715	183.43924
790.131	209.50811
790.547	166.40592
790.963	197.47643
791.379	187.46448
791.795	161.36428
792.21	173.39302
792.626	173.40558
793.041	186.45398
793.457	155.37769
793.872	157.36519
794.287	156.37522
794.702	121.29462
795.117	138.34022
795.532	148.36996
795.947	135.31786
796.362	154.35942
796.776	169.38363
797.191	159.38628
797.605	142.33779
798.02	130.31399
798.434	140.30753
798.848	112.27612
799.262	117.28935
799.676	157.37483
800.09	155.3791
800.504	112.27174
800.918	74.17244
801.331	143.36449
801.745	123.28532
802.158	51.12691
802.572	137.32608
802.985	85.20348
803.398	180.42373
803.811	80.20215
804.224	93.2289
804.637	80.19133
805.05	103.23694
805.462	127.3068
805.875	70.1834
806.288	102.24869
806.7	66.16546
807.112	14.03239
807.525	91.22232
807.937	117.29168
808.349	108.26939
808.761	135.33215
809.173	148.35827
809.584	101.24721
809.996	51.12571
810.408	112.29065
810.819	180.41894
811.231	168.43776
811.642	170.40501
812.053	246.56485
812.464	233.5231
812.875	236.57364
813.286	112.28048
813.697	102.22858
814.108	97.23389
814.519	101.22555
814.929	124.3131
815.34	93.2256
815.75	116.29426
816.16	34.08459
816.571	72.18569
816.981	129.3035
817.391	95.2314
817.801	92.22965
818.211	23.05424
818.62	44.10636
819.03	69.16839
819.44	87.22433
819.849	70.17612
820.259	58.1487
820.668	82.20365
821.077	72.18038
821.486	57.1376
821.895	72.17587
822.304	12.03184
822.713	63.15099
823.122	55.13826
823.531	68.16275
823.939	99.24187
824.348	96.23406
824.756	73.18285
825.164	101.25243
825.573	30.07562
825.981	85.21083
826.389	67.16655
826.797	72.18064
827.205	101.23438
827.612	73.17914
828.02	79.18905
828.428	93.23563
828.835	119.31427
829.243	23.05483
829.65	65.16181
830.057	22.05368
830.464	53.12934
830.871	75.17947
831.278	78.19124
831.685	80.17795
832.092	46.11278
832.499	115.25447
832.905	28.07078
833.312	57.1296
833.718	38.09496
834.124	30.06858
834.531	78.19548
834.937	91.23375
835.343	33.07981
835.749	75.17487
836.155	90.23636
836.561	78.19294
836.966	15.03647
837.372	42.10775
837.777	44.10927
838.183	86.19114
838.588	122.30343
838.993	74.18022
839.399	39.09673
839.804	43.10685
840.209	65.16726
840.613	28.06321
841.018	-1.00255
841.423	55.14212
841.828	45.11515
842.232	42.10297
842.637	51.1205
843.041	38.09841
843.445	90.22661
843.849	55.13672
844.253	66.15688
844.657	32.08121
845.061	63.14272
845.465	55.13492
845.869	2.00465
846.272	70.17429
846.676	46.11111
847.079	48.12289
847.483	70.17524
847.886	6.01444
848.289	63.16983
848.692	23.05842
849.095	50.121
849.498	41.1021
849.901	59.13654
850.304	62.14754
850.707	42.1073
851.109	25.06237
851.512	86.21101
851.914	48.12254
852.316	49.12362
852.718	-3.00779
853.121	34.08398
853.523	3.00708
853.925	23.06076
854.326	59.14933
854.728	38.09814
855.13	43.11261
855.531	24.05819
855.933	67.15935
856.334	10.02538
856.736	9.02068
857.137	53.12513
857.538	9.02296
857.939	82.20261
858.34	28.06791
858.741	14.03659
859.142	13.03136
859.542	50.13265
859.943	28.06984
860.343	49.12273
860.744	51.12381
861.144	65.15898
861.544	35.08599
861.945	-14.03588
862.345	74.18096
862.745	57.14267
863.145	44.10467
863.544	52.13135
863.944	-11.02605
864.344	53.13141
864.743	49.12096
865.143	28.07239
865.542	42.09776
865.941	80.19759
866.34	21.05031
866.74	12.03241
867.139	88.21367
867.537	25.06323
867.936	10.02424
868.335	23.0584
868.734	9.02299
869.132	20.04651
869.531	34.08181
869.929	16.0377
870.327	74.17813
870.726	-11.0272
871.124	33.07725
871.522	2.00513
871.92	1.00245
872.318	30.0738
872.715	-14.03473
873.113	23.05671
873.511	50.12495
873.908	53.13609
874.306	22.05533
874.703	22.0551
875.1	22.05599
875.497	42.10187
875.894	46.11545
876.291	36.08853
876.688	38.0979
877.085	43.10294
877.482	51.12811
877.878	24.0581
878.275	41.10557
878.671	33.07327
879.068	-29.06979
879.464	8.01934
879.86	32.07642
880.256	28.06918
880.652	49.12556
881.048	13.03197
881.444	37.08888
881.84	60.15345
882.236	22.05521
882.631	38.09261
883.027	13.03142
883.422	20.05144
883.817	7.01787
884.213	60.15409
884.608	57.14148
885.003	61.14764
885.398	27.06826
885.793	72.18044
886.188	42.10624
886.582	38.0964
886.977	-5.0119
887.371	57.14452
887.766	58.14771
888.16	6.01487
888.554	23.05628
888.949	26.06485
889.343	20.04831
889.737	7.01885
890.131	62.15672
890.525	24.06142
890.918	45.11357
891.312	17.04049
891.706	50.13149
892.099	62.15879
892.492	15.03251
892.886	46.11261
893.279	58.14896
893.672	28.07189
894.065	53.1328
894.458	0
894.851	58.14146
895.244	19.04872
895.637	50.12036
896.029	-20.04943
896.422	7.01725
896.814	22.05496
897.206	43.1047
897.599	87.21208
897.991	63.15346
898.383	17.04032
898.775	-3.00684
899.167	29.06842
899.559	13.0329
899.951	11.02608
900.342	42.10632
900.734	63.15928
901.125	47.1227
901.517	23.05694
901.908	67.16045
902.299	12.02972
902.69	40.09442
903.082	1.00243
903.473	-6.01456
903.863	31.07935
904.254	52.12251
904.645	-9.02228
905.036	37.09157
905.426	23.05191
905.817	68.16771
906.207	-6.01456
906.597	34.08057
906.987	54.14014
907.378	-5.01274
907.768	1.00264
908.158	-27.06655
908.547	39.10157
908.937	46.11802
909.327	35.08541
909.717	88.22181
910.106	13.03167
910.495	0
910.885	35.08852
911.274	-3.00754
911.663	-12.03038
912.052	16.0393
912.441	46.11769
912.83	16.03702
913.219	11.02857
913.608	-13.03197
913.997	24.06125
914.385	19.04557
914.774	38.09261
915.162	7.01699
915.55	-6.01455
915.939	45.1145
916.327	53.13299
916.715	46.11847
917.103	10.02432
917.491	39.09634
917.878	42.10301
918.266	61.15822
918.654	70.1794
919.041	34.09017
919.429	58.1384
919.816	39.09839
920.203	17.04183
920.591	23.05705
920.978	49.11989
921.365	23.06056
921.752	19.04595
922.139	-18.03941
922.525	-18.04405
922.912	19.04639
923.299	36.08999
923.685	46.1213
924.072	-4.00915
924.458	28.06982
924.844	48.11999
925.231	32.07463
925.617	25.06482
926.003	14.03564
926.389	20.05057
926.774	45.11515
927.16	-1.00248
927.546	29.0746
927.931	24.05995
928.317	38.08761
928.702	-29.06836
929.088	-5.01201
929.473	-24.06103
929.858	22.05416
930.243	47.11406
930.628	-18.04405
931.013	-10.02484
931.398	32.07369
931.783	-6.01576
932.167	37.091
932.552	-32.07976
932.937	3.0074
933.321	31.07874
933.705	19.04764
934.09	34.08515
934.474	68.16151
934.858	23.0597
935.242	25.05898
935.626	-6.01546
936.009	-1.00267
936.393	16.04091
936.777	13.03364
937.16	48.12512
937.544	-6.01412
937.927	29.07389
938.311	15.0365
938.694	17.04464
939.077	47.11393
939.46	13.03177
939.843	34.07157
940.226	-10.02575
940.609	-3.00703
940.991	56.14322
941.374	-19.04687
941.757	9.02234
942.139	50.11403
942.522	-17.04011
942.904	61.14748
943.286	53.13385
943.668	25.06482
944.05	87.21673
944.432	48.1199
944.814	30.07325
945.196	11.02729
945.578	43.10443
945.959	19.04458
946.341	-27.06572
946.722	4.00946
947.104	62.14692
947.485	20.04648
947.866	67.17012
948.247	48.1219
948.628	54.13117
949.009	32.08293
949.39	44.10951
949.771	-13.03028
950.152	2.00495
950.532	49.12242
950.913	-6.01442
951.293	36.09845
951.674	-7.01698
952.054	-26.06462
952.434	-33.08212
952.814	33.07834
953.194	29.07569
953.574	61.15036
953.954	58.1394
954.334	-2.00505
954.714	-12.0297
955.093	32.07875
955.473	50.1254
955.853	10.02597
956.232	-11.02995
956.611	-23.05489
956.99	-5.01277
957.37	0
957.749	80.19169
958.128	27.06865
958.506	18.04697
958.885	41.10377
959.264	-4.00993
959.643	7.01595
960.021	-1.0025
960.4	-32.07242
960.778	55.13507
961.156	39.0979
961.535	25.05868
961.913	36.08448
962.291	11.02875
962.669	-2.00512
963.047	1.00256
963.424	-42.10832
963.802	28.06956
964.18	44.10979
964.557	-33.07567
964.935	17.04032
965.312	18.04731
965.69	70.17404
966.067	55.13477
966.444	63.15575
966.821	31.07994
967.198	19.04578
967.575	26.06368
967.952	15.03536
968.329	-1.00243
968.705	6.01292
969.082	20.05169
969.458	0
969.835	9.02211
970.211	44.11355
970.587	13.03254
970.963	18.04618
971.339	4.01053
971.715	-36.09012
972.091	-8.01975
972.467	40.10021
972.843	16.03971
973.219	-10.02391
973.594	31.08193
973.97	0
974.345	4.0096
974.721	59.14264
975.096	-12.02916
975.471	80.1895
975.846	-2.00481
976.221	4.01027
976.596	-3.00723
976.971	10.02461
977.346	12.02801
977.72	12.03097
978.095	-49.12775
978.469	56.13429
978.844	26.06488
979.218	19.04651
979.593	58.13893
979.967	8.01947
980.341	-15.03495
980.715	21.05296
981.089	18.04519
981.463	-41.09646
981.837	-15.03731
982.21	3.00696
982.584	9.02204
982.957	57.14339
983.331	21.05014
983.704	14.03454
984.078	-25.06205
984.451	43.10599
984.824	20.04956
985.197	55.13502
985.57	35.08773
985.943	46.11303
986.316	23.05579
986.688	36.08764
987.061	56.13101
987.434	16.04179
987.806	43.10505
988.179	-3.00709
988.551	18.04509
988.923	-11.0273
989.295	52.13069
989.667	44.10716
990.039	15.03764
990.411	6.0138
990.783	32.07336
991.155	-25.06103
991.527	21.05119
991.898	19.04809
992.27	108.26968
992.641	-7.01745
993.012	-44.10265
993.384	63.15076
993.755	-9.02292
994.126	41.09912
994.497	27.06726
994.868	14.0325
995.239	5.0122
995.61	21.05343
995.98	25.06106
996.351	62.15538
996.722	50.11798
997.092	24.05779
997.462	55.13071
997.833	35.08459
998.203	12.02917
998.573	-12.0302
998.943	7.01654
999.313	-4.00969
999.683	44.10716
1000.053	41.09533
1000.423	33.07978
1000.792	16.04171
1001.162	27.06792
1001.531	-13.03202
1001.901	13.03255
1002.27	21.04711
1002.639	-8.02061
1003.009	32.07615
1003.378	44.11296
1003.747	-11.02614
1004.116	-8.01959
1004.485	5.0121
1004.853	33.08346
1005.222	14.0354
1005.591	24.05687
1005.959	24.05538
1006.328	56.13065
1006.696	-50.12195
1007.064	4.0101
1007.433	-3.00743
1007.801	61.14903
1008.169	49.12468
1008.537	27.05995
1008.905	-17.04071
1009.273	26.06368
1009.64	44.10748
1010.008	-18.04272
1010.375	18.04321
1010.743	-8.01804
1011.11	4.00954
1011.478	42.10404
1011.845	47.1114
1012.212	37.08525
1012.579	14.03481
1012.946	5.01188
1013.313	3.00712
1013.68	43.09698
1014.047	23.05558
1014.414	-20.0482
1014.78	78.19534
1015.147	17.04101
1015.513	-2.00486
1015.88	14.03599
1016.246	17.04161
1016.612	50.11491
1016.978	-9.022
1017.344	17.04173
1017.71	41.09931
1018.076	16.03778
1018.442	3.00763
1018.808	74.18672
1019.174	4.01012
1019.539	-61.13847
1019.905	47.11226
1020.27	-4.00997
1020.636	27.06454
1021.001	26.06185
1021.366	10.02421
1021.731	35.09028
1022.096	77.19557
1022.461	54.12831
1022.826	16.03808
1023.191	47.12308
1023.556	44.10374
1023.92	22.05418
1024.285	-14.03407
1024.649	43.10588
1025.014	48.11856
1025.378	25.0633
1025.742	48.12034
1026.107	37.08396
1026.471	-7.01628
1026.835	70.17473
1027.199	51.1246
1027.562	33.07788
1027.926	23.05594
1028.29	-16.04053
1028.654	22.05106
1029.017	62.15218
1029.381	-15.03648
1029.744	14.03578
1030.107	39.09208
1030.471	42.10099
1030.834	71.16372
1031.197	8.01919
1031.56	-34.08113
1031.923	37.09656
1032.286	36.08448
1032.648	-22.05215
1033.011	-16.03718
1033.374	-47.10993
1033.736	1.00266
1034.099	33.08041
1034.461	40.10212
1034.823	-32.08092
1035.185	23.05796
1035.548	28.0685
1035.91	-28.06666
1036.272	40.09145
1036.634	14.03399
1036.995	6.01422
1037.357	40.09901
1037.719	21.05111
1038.08	12.02835
1038.442	-11.02633
1038.803	12.02896
1039.165	27.06919
1039.526	71.17139
1039.887	23.05533
1040.248	-20.05023
1040.609	16.03932
1040.97	-12.02944
1041.331	41.10429
1041.692	63.15105
1042.053	9.02055
1042.413	26.0602
1042.774	47.11389
1043.134	3.00708
1043.495	18.04558
1043.855	-19.04595
1044.215	11.02739
1044.576	25.0609
1044.936	52.11974
1045.296	56.13948
1045.656	37.09164
1046.016	58.14083
1046.375	11.02688
1046.735	54.1239
1047.095	88.20861
1047.454	53.11179
1047.814	0
1048.173	30.07043
1048.533	43.09864
1048.892	-3.00732
1049.251	7.01745
1049.61	63.15643
1049.969	-5.01184
1050.328	1.00217
1050.687	7.01722
1051.046	48.11707
1051.405	34.08478
1051.763	-18.04236
1052.122	42.10586
1052.48	2.00493
1052.839	35.08344
1053.197	25.05898
1053.555	9.0204
1053.914	52.12726
1054.272	66.15869
1054.63	26.06422
1054.988	56.13393
1055.345	12.02629
1055.703	37.08898
1056.061	9.02326
1056.419	64.16694
1056.776	30.07257
1057.134	8.01873
1057.491	23.05778
1057.848	54.13362
1058.206	13.031
1058.563	56.12477
1058.92	33.07655
1059.277	-10.02478
1059.634	50.11862
1059.991	2.00479
1060.348	-1.00229
1060.704	35.08471
1061.061	36.08293
1061.418	36.08853
1061.774	-2.00496
1062.131	66.17743
1062.487	37.08715
1062.843	12.02985
1063.199	35.08735
1063.555	33.07773
1063.911	4.01008
1064.267	58.12005
1064.623	17.04192
1064.979	33.07788
1065.335	-4.00953
1065.691	24.05773
1066.046	19.04273
1066.402	-9.02089
1066.757	38.09575
1067.112	21.05155
1067.468	36.08656
1067.823	63.15214
1068.178	32.07846
1068.533	-18.04362
1068.888	-3.00714
1069.243	16.03963
1069.598	25.06087
1069.952	46.10652
1070.307	-14.0351
1070.662	32.07744
1071.016	15.03429
1071.371	32.07316
1071.725	35.08295
1072.079	-24.05762
1072.434	40.09807
1072.788	21.05016
1073.142	16.03934
1073.496	48.11611
1073.85	48.11172
1074.203	-9.02202
1074.557	0
1074.911	46.10829
1075.265	6.01416
1075.618	14.03412
1075.971	53.12668
1076.325	25.06388
1076.678	69.16088
1077.031	80.18385
1077.385	-19.04203
1077.738	-28.06422
1078.091	28.06545
1078.444	-6.01397
1078.796	36.08967
1079.149	14.03463
1079.502	43.10372
1079.855	-32.07521
1080.207	31.07557
1080.56	40.1047
1080.912	21.05079
1081.264	28.06796
1081.617	52.12825
1081.969	-49.12604
1082.321	-14.03458
1082.673	-3.00695
1083.025	-7.01664
1083.377	16.03819
1083.728	41.0962
1084.08	10.02518
1084.432	30.07328
1084.783	76.17738
1085.135	36.09132
1085.486	9.02106
1085.838	10.02482
1086.189	-20.04914
1086.54	-2.00476
1086.891	8.02067
1087.242	34.0828
1087.593	9.02189
1087.944	8.01822
1088.295	-13.0297
1088.646	2.00492
1088.996	-4.00981
1089.347	6.0148
1089.698	2.0048
1090.048	11.02873
1090.398	28.06571
1090.749	32.07639
1091.099	-3.00761
1091.449	15.03786
1091.799	-13.03288
1092.149	-4.01
1092.499	-5.01226
1092.849	32.08178
1093.199	13.03247
1093.548	26.06372
1093.898	18.04563
1094.248	7.01811
1094.597	2.00523
1094.947	-11.0293
1095.296	39.09656
1095.645	-8.02074
1095.994	9.02176
1096.343	2.00506
1096.692	-13.0347
1097.041	30.08183
1097.39	19.0479
1097.739	-10.02613
1098.088	8.02112
1098.437	37.0986
1098.785	25.0672
1099.134	-14.03686
1099.482	39.10654
1099.83	9.02352
1100.179	-11.02902
1100.527	5.01347
1100.875	28.07475
1101.223	30.07951
1101.571	-1.00276
1101.919	25.06591
1102.267	38.10774
1102.615	3.00965
1102.962	7.02252
1103.31	16.05144
1103.658	9.02893
