Data from N2 R4 sample 3_Subt2__3__19-20-01-973.txt Node

Date: Wed Aug 27 19:20:01 PDT 2025
User: uwsun
Spectrometer: HDX01956
Trigger mode: 0
Integration Time (sec): 5.000000E-1
Scans to average: 1
Nonlinearity correction enabled: true
Boxcar width: 0
Storing dark spectrum: false
XAxis mode: Wavelengths
Number of Pixels in Spectrum: 2068
>>>>>Begin Spectral Data<<<<<
194.03	326.90579
194.578	365.13672
195.127	316.97894
195.676	329.01739
196.225	327.8515
196.773	367.98843
197.321	519.3593
197.87	655.56153
198.418	778.83324
198.966	725.74492
199.513	726.68289
200.061	727.71273
200.609	745.79238
201.156	710.43616
201.704	732.71484
202.251	681.66922
202.798	761.83018
203.345	759.71323
203.892	744.71035
204.438	738.61736
204.985	769.66589
205.532	737.77848
206.078	762.71616
206.624	797.79318
207.17	767.622
207.716	747.68682
208.262	679.23083
208.808	762.72873
209.354	769.72171
209.899	758.73838
210.445	736.67983
210.99	727.61362
211.535	800.70031
212.08	790.67686
212.625	712.63546
213.17	723.65974
213.715	758.55436
214.259	750.58291
214.804	819.82392
215.348	693.46281
215.892	760.65302
216.436	750.56977
216.98	771.54441
217.524	731.57611
218.068	756.71027
218.612	791.80721
219.155	741.58745
219.698	699.518
220.242	695.5738
220.785	652.40833
221.328	706.61521
221.871	662.51994
222.414	699.60143
222.956	605.36651
223.499	673.39819
224.041	703.51698
224.583	648.27646
225.126	695.41637
225.668	683.54034
226.21	615.44034
226.751	655.33958
227.293	607.29115
227.835	669.49954
228.376	693.47495
228.918	680.57436
229.459	705.62227
230	670.45219
230.541	680.45258
231.082	680.52702
231.622	705.51091
232.163	667.49995
232.704	676.55458
233.244	605.37982
233.784	667.49015
234.324	680.37979
234.864	639.34339
235.404	658.42797
235.944	649.4129
236.484	669.51856
237.023	676.47827
237.563	668.4263
238.102	623.34131
238.641	663.53649
239.18	644.40349
239.719	689.593
240.258	679.39688
240.797	713.574
241.335	681.52458
241.874	722.26878
242.412	708.54896
242.95	674.50116
243.488	772.60589
244.026	720.50691
244.564	699.30064
245.102	755.55552
245.64	690.52668
246.177	656.3492
246.715	678.48078
247.252	678.41829
247.789	634.07076
248.326	696.55339
248.863	736.46844
249.4	642.32867
249.936	795.48183
250.473	685.46927
251.009	728.53307
251.546	721.47075
252.082	699.38128
252.618	750.52825
253.154	717.57097
253.69	749.53623
254.226	683.46812
254.761	716.47078
255.297	725.46353
255.832	685.47369
256.367	731.58015
256.903	700.41203
257.438	685.45538
257.972	789.59798
258.507	736.5574
259.042	690.34913
259.576	705.39641
260.111	721.51067
260.645	766.47465
261.179	666.42264
261.713	707.4402
262.247	739.54502
262.781	718.35626
263.315	749.65009
263.849	730.6648
264.382	752.5476
264.915	841.77551
265.449	779.73124
265.982	729.50055
266.515	817.77895
267.048	664.27492
267.58	727.42193
268.113	756.48257
268.646	772.72524
269.178	803.6323
269.71	693.35597
270.243	740.52492
270.775	799.8306
271.307	747.61201
271.838	803.68339
272.37	772.70398
272.902	794.61801
273.433	774.52221
273.965	805.74762
274.496	793.74999
275.027	756.70542
275.558	790.72267
276.089	801.78897
276.62	810.8332
277.15	813.78966
277.681	839.61038
278.211	813.78069
278.741	849.66718
279.272	815.66423
279.802	854.89757
280.332	835.76591
280.861	832.78139
281.391	828.67362
281.921	806.70862
282.45	801.80145
282.98	876.01429
283.509	852.70176
284.038	857.72006
284.567	827.69105
285.096	817.75189
285.625	815.62739
286.153	789.66274
286.682	874.78201
287.21	848.80474
287.739	814.71734
288.267	884.8879
288.795	850.98583
289.323	886.82038
289.851	869.77141
290.378	868.73936
290.906	892.92796
291.433	869.90658
291.961	879.77074
292.488	823.80109
293.015	872.80606
293.542	931.06813
294.069	930.00923
294.596	936.00072
295.122	895.87145
295.649	850.63741
296.175	951.00793
296.702	964.00751
297.228	914.92677
297.754	923.79653
298.28	970.90556
298.806	894.85907
299.332	1009.92795
299.857	973.87966
300.383	930.02544
300.908	986.09415
301.433	969.02017
301.958	1035.05333
302.483	944.06634
303.008	891.89179
303.533	1044.32646
304.058	929.87414
304.582	1006.0609
305.107	997.24492
305.631	1003.93493
306.155	1021.03864
306.679	1150.2339
307.203	1040.04271
307.727	1076.16993
308.251	950.99919
308.775	1052.11178
309.298	1060.16683
309.822	1061.25508
310.345	1041.071
310.868	1033.08259
311.391	1082.20292
311.914	1103.34138
312.437	1092.03979
312.96	1086.13426
313.482	1116.19538
314.005	1137.39902
314.527	1139.48354
315.049	1139.37504
315.571	1099.03426
316.093	1200.41489
316.615	1154.27346
317.137	1215.10756
317.659	1203.32881
318.18	1183.30629
318.702	1166.24793
319.223	1218.98931
319.744	1266.26861
320.265	1228.40489
320.786	1265.53255
321.307	1333.63716
321.828	1318.3081
322.348	1302.38808
322.869	1354.52337
323.389	1559.82226
323.909	1380.4549
324.43	1402.56194
324.95	1373.43426
325.47	1401.68227
325.989	1456.59073
326.509	1454.44459
327.029	1500.53466
327.548	1419.42076
328.067	1542.79776
328.587	1532.79627
329.106	1577.67352
329.625	1510.97756
330.144	1447.48982
330.662	1543.65041
331.181	1633.71608
331.7	1597.68313
332.218	1644.5008
332.736	1657.71604
333.255	1688.79084
333.773	1637.74493
334.291	1705.96758
334.808	1725.62786
335.326	1780.72306
335.844	1860.92165
336.361	1850.22002
336.879	1864.95628
337.396	1866.0187
337.913	1916.96647
338.43	1896.77215
338.947	2013.09418
339.464	1954.69733
339.981	1954.02025
340.497	2020.20815
341.014	2010.18132
341.53	1954.82064
342.046	2087.21173
342.562	2044.22142
343.078	2114.06892
343.594	2122.14596
344.11	2174.09912
344.626	2215.39095
345.141	2194.91184
345.657	2202.83188
346.172	2234.2297
346.687	2240.01495
347.202	2290.97453
347.717	2371.18797
348.232	2396.47439
348.747	2316.04091
349.261	2417.84389
349.776	2434.1871
350.29	2450.43825
350.805	2573.48099
351.319	2429.0985
351.833	2508.06264
352.347	2535.17741
352.861	2573.18392
353.374	2612.03041
353.888	2511.17569
354.401	2577.10685
354.915	2693.09789
355.428	2647.45231
355.941	2682.11887
356.454	2757.86982
356.967	2726.1575
357.48	2654.99434
357.993	2775.37584
358.505	2766.3931
359.018	2901.40922
359.53	2911.19531
360.042	2895.85689
360.554	2865.21325
361.066	2974.37814
361.578	2887.75653
362.09	2965.20433
362.602	2887.75653
363.113	2952.04041
363.625	3000.84233
364.136	3018.7598
364.647	3107.01849
365.158	3164.04219
365.669	3241.20587
366.18	3198.04657
366.691	3122.71551
367.201	3152.10598
367.712	3231.93038
368.222	3211.83055
368.733	3283.56193
369.243	3404.64654
369.753	3381.78743
370.263	3578.06731
370.773	3592.27946
371.282	3605.91645
371.792	3671.72222
372.301	3883.95433
372.811	3836.38485
373.32	3742.29521
373.829	3923.60639
374.338	4222.1463
374.847	4193.31637
375.356	4347.34962
375.865	4597.59364
376.373	4640.83372
376.882	4877.36934
377.39	4877.04625
377.898	5087.09811
378.407	5261.46799
378.915	5423.97154
379.423	5639.30926
379.93	5842.98321
380.438	6213.23112
380.946	6451.93402
381.453	6659.06931
381.96	6981.96689
382.468	7405.11701
382.975	8101.83216
383.482	8284.01535
383.989	8226.07869
384.495	8553.47708
385.002	9044.72689
385.509	9488.80787
386.015	10212.26113
386.521	10641.75771
387.028	11155.48599
387.534	11399.54686
388.04	11755.91389
388.546	12055.6555
389.051	12686.02892
389.557	13743.51454
390.063	14897.43643
390.568	15456.82578
391.073	15718.2698
391.578	16206.39556
392.084	16982.08115
392.589	17439.62554
393.093	18613.4535
393.598	20574.8114
394.103	22256.29576
394.607	24661.05489
395.112	26348.38425
395.616	27950.68364
396.12	30379.10743
396.624	33542.95799
397.128	36249.15191
397.632	40543.83926
398.136	43990.97418
398.639	46611.04547
399.143	51053.55972
399.646	57342.94985
400.15	57988.58546
400.653	57879.39077
401.156	57173.58385
401.659	56177.40201
402.162	53821.55638
402.664	47275.14456
403.167	32260.27245
403.67	3851.94142
404.172	0
404.674	0
405.176	0
405.678	0
406.18	0
406.682	0
407.184	0
407.686	12367.42319
408.187	34596.90747
408.688	44563.94194
409.19	48906.19284
409.691	51236.67962
410.192	52883.26968
410.693	53713.23343
411.194	54189.54801
411.694	54767.79104
412.195	55625.98899
412.696	55971.27715
413.196	55815.15953
413.696	55802.1488
414.196	55740.09561
414.696	56340.4775
415.196	57067.59327
415.696	58258.21704
416.196	59666.45207
416.695	56390.72304
417.195	47695.948
417.694	45025.93357
418.194	42767.75449
418.693	39965.8505
419.192	38602.31904
419.691	37891.78326
420.19	37010.79304
420.688	35935.92441
421.187	34532.83008
421.685	32474.07409
422.184	29575.29086
422.682	25657.18901
423.18	21850.71462
423.678	19384.33404
424.176	18256.78022
424.674	16943.5534
425.172	16071.69376
425.669	15339.57405
426.167	14225.51567
426.664	12926.83853
427.161	11902.78363
427.659	10950.56593
428.156	10391.81596
428.652	9715.24272
429.149	9290.12249
429.646	9034.57241
430.143	8478.3538
430.639	7902.53614
431.135	7496.35455
431.632	7102.93604
432.128	6663.88994
432.624	6375.35788
433.12	5998.81649
433.616	5898.71949
434.111	5681.31499
434.607	5528.39267
435.103	5406.83779
435.598	5199.77038
436.093	4890.6207
436.588	4654.51479
437.083	4505.78491
437.578	4220.82975
438.073	4048.67938
438.568	3917.56848
439.062	3855.87479
439.557	3610.47784
440.051	3629.38304
440.546	3420.51347
441.04	3455.75982
441.534	3318.05083
442.028	3242.75691
442.522	3113.84479
443.015	3071.45761
443.509	3126.0232
444.002	3083.99472
444.496	2940.41849
444.989	2951.98608
445.482	2929.09574
445.975	2875.67805
446.468	2980.47895
446.961	2815.32459
447.454	2835.7332
447.947	2652.84379
448.439	2684.98842
448.931	2567.58021
449.424	2620.15603
449.916	2562.96493
450.408	2516.61407
450.9	2464.89478
451.392	2469.1412
451.884	2438.71029
452.375	2407.04472
452.867	2329.55267
453.358	2338.65548
453.849	2327.4179
454.341	2170.52353
454.832	2219.43344
455.323	2213.95788
455.814	2210.65976
456.304	2149.6686
456.795	2155.69471
457.285	2142.51496
457.776	2062.53675
458.266	2021.78577
458.756	2043.85781
459.247	1982.78015
459.737	1940.81371
460.226	1932.54352
460.716	1912.7387
461.206	1869.74769
461.695	1848.90586
462.185	1856.6963
462.674	1738.50377
463.163	1763.43251
463.653	1804.28526
464.142	1681.63809
464.63	1684.65868
465.119	1648.47905
465.608	1671.52077
466.096	1621.32063
466.585	1654.50144
467.073	1561.51804
467.561	1531.51201
468.05	1476.36586
468.538	1589.6409
469.026	1456.40977
469.513	1426.0527
470.001	1522.45529
470.489	1485.52193
470.976	1341.19092
471.463	1351.45052
471.951	1293.36147
472.438	1282.22609
472.925	1298.28002
473.412	1267.3034
473.899	1227.10053
474.385	1254.32039
474.872	1191.10053
475.359	1211.27884
475.845	1222.90194
476.331	1165.93038
476.817	1097.07583
477.303	1087.97544
477.789	1074.03861
478.275	1038.05786
478.761	1110.11425
479.247	1010.78193
479.732	995.01683
480.218	979.05634
480.703	970.9538
481.188	876.52325
481.673	945.76025
482.158	991.73606
482.643	883.87236
483.128	926.75931
483.612	897.73263
484.097	870.78026
484.581	807.55929
485.066	870.77866
485.55	846.55177
486.034	756.40657
486.518	805.57918
487.002	801.70502
487.486	792.65995
487.969	728.53777
488.453	737.59313
488.936	699.37289
489.42	716.37824
489.903	696.51244
490.386	684.97364
490.869	661.25298
491.352	604.29005
491.835	679.21895
492.318	650.30803
492.8	687.26814
493.283	651.45557
493.765	597.3166
494.247	594.23413
494.73	580.1364
495.212	566.20513
495.694	625.3018
496.175	546.17457
496.657	515.10279
497.139	553.86759
497.62	558.20453
498.102	546.24186
498.583	499.14556
499.064	488.98513
499.545	515.0695
500.026	539.09902
500.507	484.03294
500.988	517.16751
501.469	469.0826
501.949	502.11675
502.43	496.08604
502.91	478.91757
503.39	402.93293
503.87	444.96946
504.35	461.99315
504.83	469.95134
505.31	405.9129
505.79	445.99196
506.269	439.94495
506.749	374.80316
507.228	422.9226
507.707	433.88434
508.187	429.94285
508.666	401.90868
509.145	408.88974
509.623	452.99067
510.102	402.90706
510.581	418.92196
511.059	390.92081
511.538	356.85681
512.016	425.95483
512.494	463.04623
512.972	390.85842
513.45	418.90961
513.928	426.9659
514.406	409.93583
514.884	414.99106
515.361	374.82873
515.839	358.77244
516.316	389.88006
516.793	422.99286
517.27	347.78858
517.747	434.03949
518.224	377.81221
518.701	393.82085
519.178	378.8769
519.654	353.78595
520.131	378.87412
520.607	372.8582
521.083	389.83482
521.56	353.78041
522.036	371.76494
522.512	326.75061
522.987	377.8425
523.463	360.80767
523.939	345.78753
524.414	380.82377
524.89	409.91249
525.365	357.75393
525.84	338.76206
526.315	363.8246
526.79	348.7338
527.265	390.83967
527.74	338.77233
528.215	413.9275
528.689	349.72831
529.164	409.83381
529.638	387.92981
530.112	341.76207
530.587	371.7584
531.061	379.86338
531.534	357.81984
532.008	326.74911
532.482	348.74475
532.956	342.81907
533.429	349.78959
533.903	342.70752
534.376	383.80387
534.849	315.68535
535.322	384.84982
535.795	307.70673
536.268	355.80708
536.741	273.62094
537.213	314.68594
537.686	312.71953
538.158	325.69809
538.631	306.69443
539.103	345.73977
539.575	311.6124
540.047	358.74726
540.519	306.6871
540.991	334.76104
541.463	331.75375
541.934	266.57789
542.406	306.68569
542.877	252.53932
543.348	259.57979
543.82	306.70541
544.291	302.65833
544.762	326.73231
545.233	359.83827
545.703	344.71772
546.174	328.72046
546.645	305.69567
547.115	380.85988
547.585	345.7353
548.056	365.81906
548.526	385.84475
548.996	360.80402
549.466	412.92127
549.935	402.88816
550.405	415.84258
550.875	444.96412
551.344	412.90797
551.814	437.92529
552.283	402.80109
552.752	437.92407
553.221	436.87329
553.69	480.95698
554.159	487.08937
554.628	525.06605
555.096	486.11367
555.565	471.97634
556.033	446.95857
556.502	466.03396
556.97	369.75329
557.438	362.79479
557.906	352.77966
558.374	325.7038
558.842	307.69487
559.31	299.63782
559.777	270.62343
560.245	242.5356
560.712	258.56671
561.18	275.58306
561.647	246.52374
562.114	277.61369
562.581	264.60957
563.048	246.54399
563.514	242.56922
563.981	234.51573
564.448	218.46918
564.914	202.44801
565.381	233.50437
565.847	246.54604
566.313	227.51214
566.779	285.61772
567.245	194.43277
567.711	257.58904
568.176	191.41222
568.642	229.54566
569.108	211.49602
569.573	226.50394
570.038	226.45686
570.504	215.46541
570.969	199.46818
571.434	222.46298
571.899	258.58195
572.363	240.51608
572.828	244.52039
573.293	283.61626
573.757	266.57371
574.222	279.5918
574.686	192.41571
575.15	244.55217
575.614	213.46778
576.078	208.46131
576.542	243.51972
577.006	218.46494
577.469	205.46742
577.933	235.50218
578.396	235.52477
578.86	229.50905
579.323	238.54013
579.786	197.40418
580.249	215.46561
580.712	207.47445
581.175	189.44378
581.637	163.35571
582.1	198.40522
582.563	209.42531
583.025	236.53907
583.487	248.48133
583.95	255.52223
584.412	195.38741
584.874	203.46864
585.336	255.56895
585.797	155.32218
586.259	230.50989
586.721	186.41819
587.182	233.50739
587.643	182.38867
588.105	173.38297
588.566	125.2502
589.027	218.49354
589.488	178.38211
589.949	183.41844
590.41	159.30203
590.87	188.39574
591.331	170.34886
591.791	201.43827
592.252	129.28068
592.712	167.37354
593.172	184.39158
593.632	173.35061
594.092	188.39295
594.552	142.28666
595.011	165.36008
595.471	183.38597
595.931	159.33403
596.39	175.39918
596.849	206.44926
597.308	134.27001
597.768	188.45372
598.227	128.29038
598.685	158.33976
599.144	151.33734
599.603	252.55307
600.062	201.40455
600.52	161.34181
600.978	192.42937
601.437	161.34733
601.895	118.23657
602.353	119.24911
602.811	202.42502
603.269	169.37755
603.727	202.45323
604.184	190.40611
604.642	164.37477
605.099	219.48095
605.557	186.42401
606.014	155.31758
606.471	183.43087
606.928	143.29299
607.385	240.54666
607.842	316.66984
608.299	294.63083
608.755	269.59373
609.212	292.60463
609.668	259.53402
610.125	251.55493
610.581	261.55918
611.037	220.46289
611.493	187.41189
611.949	179.40303
612.405	231.44672
612.861	139.3063
613.316	180.40934
613.772	160.34317
614.227	104.23095
614.683	202.40572
615.138	176.39067
615.593	172.38258
616.048	198.42815
616.503	147.33464
616.958	140.32931
617.412	153.34364
617.867	168.35877
618.321	224.44368
618.776	174.36369
619.23	180.39755
619.684	181.39081
620.138	135.29224
620.592	146.33377
621.046	111.24624
621.5	178.41003
621.954	134.28728
622.407	167.35269
622.861	170.39364
623.314	145.31388
623.768	123.2749
624.221	105.2015
624.674	103.22792
625.127	108.24123
625.58	54.11757
626.033	24.05121
626.485	118.27399
626.938	96.21832
627.39	135.30259
627.843	117.25836
628.295	42.09416
628.747	137.31288
629.199	123.26911
629.651	79.177
630.103	92.20558
630.555	110.23084
631.006	103.23353
631.458	85.19702
631.909	97.21428
632.361	79.18093
632.812	62.14134
633.263	62.1312
633.714	114.24176
634.165	55.1291
634.616	7.01641
635.067	13.02823
635.518	44.10285
635.968	87.1718
636.419	6.01298
636.869	2.00464
637.319	161.36932
637.769	15.03333
638.219	83.19383
638.669	8.01889
639.119	19.04508
639.569	6.0144
640.019	-14.03203
640.468	18.04016
640.918	19.04467
641.367	54.12086
641.816	9.01979
642.265	-16.03667
642.714	32.07307
643.163	-9.0206
643.612	-2.00483
644.061	17.036
644.51	-3.00687
644.958	45.09949
645.406	60.14163
645.855	107.25907
646.303	58.1342
646.751	-4.00918
647.199	9.02031
647.647	-32.07404
648.095	-3.00691
648.543	69.1431
648.99	53.1262
649.438	35.08032
649.885	15.03647
650.333	63.12376
650.78	41.09875
651.227	15.03661
651.674	3.00694
652.121	57.13806
652.568	21.05127
653.015	49.12291
653.461	46.10867
653.908	50.11527
654.354	41.09778
654.801	71.16886
655.247	8.01753
655.693	6.01548
656.139	92.22154
656.585	53.1276
657.031	28.06681
657.477	24.05319
657.922	65.15114
658.368	75.18528
658.813	47.1095
659.259	36.08682
659.704	54.12663
660.149	37.08732
660.594	22.0528
661.039	9.02074
661.484	39.09318
661.929	20.04699
662.373	40.10187
662.818	34.08466
663.262	50.12109
663.707	31.07854
664.151	-3.00735
664.595	51.12525
665.039	17.04244
665.483	72.18485
665.927	24.0565
666.371	42.10022
666.814	16.03879
667.258	22.0531
667.701	22.04839
668.145	72.17901
668.588	25.06208
669.031	41.09852
669.474	11.02689
669.917	65.14461
670.36	44.10991
670.803	40.09763
671.245	81.17609
671.688	12.02942
672.13	72.16646
672.573	47.11934
673.015	51.12349
673.457	60.13429
673.899	51.12437
674.341	31.0756
674.783	37.0904
675.225	62.1546
675.666	27.06665
676.108	-31.06894
676.549	35.0836
676.991	73.16464
677.432	106.22313
677.873	9.02136
678.314	35.08484
678.755	11.0275
679.196	72.17002
679.637	103.25239
680.078	36.08603
680.518	49.11546
680.959	-4.00968
681.399	-3.00758
681.839	55.13562
682.28	50.12576
682.72	46.10884
683.16	48.12146
683.6	15.03488
684.039	28.05995
684.479	51.12691
684.919	25.06019
685.358	35.08928
685.798	52.13896
686.237	40.09807
686.676	48.11132
687.115	61.14558
687.554	54.13102
687.993	61.13791
688.432	51.1191
688.871	26.06094
689.309	8.0197
689.748	61.1316
690.186	59.14312
690.625	53.12751
691.063	85.20782
691.501	73.18318
691.939	62.15812
692.377	78.19407
692.815	23.05657
693.253	58.14067
693.69	27.06137
694.128	39.09733
694.565	54.13102
695.003	19.04894
695.44	87.20922
695.877	54.12964
696.314	43.09523
696.751	17.03948
697.188	23.0539
697.625	49.11331
698.061	57.14035
698.498	82.20052
698.934	39.09571
699.371	40.09658
699.807	65.15667
700.243	14.03432
700.679	56.12941
701.115	27.06394
701.551	74.17569
701.987	73.16759
702.422	18.04405
702.858	105.25356
703.294	-39.0905
703.729	64.15802
704.164	30.07328
704.599	58.13169
705.035	41.09439
705.47	31.07638
705.904	59.14151
706.339	61.14368
706.774	59.14167
707.209	81.19176
707.643	66.16062
708.078	58.14252
708.512	17.0435
708.946	29.07046
709.38	75.18077
709.814	107.25027
710.248	80.1981
710.682	58.1412
711.116	74.18257
711.549	89.23267
711.983	41.09744
712.416	101.24077
712.85	64.16201
713.283	64.15306
713.716	75.18765
714.149	66.15827
714.582	60.13866
715.015	84.21029
715.448	111.28053
715.881	71.15481
716.313	37.08719
716.746	68.16319
717.178	113.27422
717.61	93.23554
718.043	90.2249
718.475	72.17561
718.907	83.20827
719.339	91.21176
719.77	111.26562
720.202	107.27177
720.634	76.18833
721.065	108.25997
721.497	146.35874
721.928	101.25115
722.359	133.32614
722.79	118.28651
723.221	97.24357
723.652	109.27852
724.083	162.36945
724.514	79.18297
724.945	105.24925
725.375	149.35205
725.806	89.21962
726.236	120.30365
726.666	98.2359
727.096	174.4277
727.526	132.33604
727.956	151.3486
728.386	181.44416
728.816	193.49278
729.246	115.28137
729.675	141.34575
730.105	171.41916
730.534	157.36779
730.964	176.43836
731.393	209.50469
731.822	127.31971
732.251	191.48097
732.68	152.35322
733.109	226.55488
733.537	154.37252
733.966	225.54824
734.395	229.52171
734.823	151.34068
735.251	195.46519
735.68	198.48668
736.108	219.54693
736.536	227.53342
736.964	167.38723
737.392	276.67185
737.82	143.3367
738.247	258.60803
738.675	203.47088
739.102	272.67126
739.53	222.55391
739.957	224.56255
740.384	258.6144
740.811	299.73068
741.238	267.6318
741.665	304.68374
742.092	267.62005
742.519	317.76658
742.945	332.76686
743.372	308.73935
743.798	339.83855
744.225	355.81655
744.651	332.80118
745.077	332.79604
745.503	377.88443
745.929	394.9017
746.355	341.78717
746.781	361.85582
747.207	358.80714
747.632	421.97951
748.058	398.9335
748.483	424.93206
748.908	416.97875
749.334	431.00498
749.759	472.05251
750.184	414.93451
750.609	455.03647
751.033	438.9515
751.458	520.06621
751.883	489.10867
752.307	550.20498
752.732	531.24923
753.156	550.25904
753.58	596.27954
754.005	590.35828
754.429	597.28196
754.853	612.39272
755.277	594.26593
755.7	639.42637
756.124	649.45527
756.548	696.48615
756.971	676.482
757.394	649.50699
757.818	712.63806
758.241	739.66536
758.664	751.70136
759.087	677.3615
759.51	755.64665
759.933	751.57913
760.356	732.64857
760.778	856.858
761.201	834.75957
761.623	892.84751
762.046	863.72654
762.468	883.79834
762.89	832.74615
763.312	864.79346
763.734	934.90445
764.156	916.93436
764.578	895.73124
765	987.03235
765.421	1002.19525
765.843	964.14018
766.264	927.86156
766.686	961.01495
767.107	983.01054
767.528	984.11519
767.949	929.98959
768.37	1002.06835
768.791	1024.04888
769.212	997.1363
769.632	1041.00785
770.053	1050.31008
770.473	1061.11964
770.894	1059.14775
771.314	1021.9791
771.734	1045.0127
772.154	1020.18984
772.575	1072.00134
772.994	1140.07123
773.414	1119.15763
773.834	1058.14232
774.254	1127.26104
774.673	1119.19256
775.093	1010.06353
775.512	1041.15041
775.931	1158.38762
776.351	1119.25935
776.77	1064.17208
777.189	1045.04631
777.607	1062.21773
778.026	1087.19963
778.445	987.05594
778.864	1068.23028
779.282	1044.08513
779.701	997.10152
780.119	1036.1824
780.537	1013.12227
780.955	1018.14911
781.373	1008.06037
781.791	971.80253
782.209	920.7445
782.627	955.12149
783.045	933.80142
783.462	915.97894
783.88	940.08083
784.297	925.99547
784.715	925.03361
785.132	868.79217
785.549	856.86114
785.966	885.89614
786.383	860.81604
786.8	833.63111
787.217	807.65086
787.633	817.79621
788.05	774.56007
788.466	801.62823
788.883	807.79052
789.299	766.60541
789.715	758.63123
790.131	762.67069
790.547	717.56306
790.963	671.4917
791.379	670.50885
791.795	625.26082
792.21	646.35842
792.626	622.3165
793.041	667.47483
793.457	627.38918
793.872	632.32253
794.287	660.44264
794.702	567.25975
795.117	641.45202
795.532	540.24453
795.947	515.13316
796.362	526.12953
796.776	490.03582
797.191	545.23434
797.605	480.05934
798.02	477.0858
798.434	494.00641
798.848	496.13617
799.262	463.07931
799.676	441.99564
800.09	416.9486
800.504	419.95832
800.918	435.9488
801.331	413.00541
801.745	354.76316
802.158	440.03143
802.572	325.74098
802.985	356.81705
803.398	360.81729
803.811	318.77146
804.224	304.72142
804.637	308.70549
805.05	331.73606
805.462	332.78694
805.875	295.74387
806.288	270.62665
806.7	271.65857
807.112	302.67339
807.525	263.6245
807.937	255.61389
808.349	257.61659
808.761	206.48964
809.173	245.57773
809.584	209.49553
809.996	222.53577
810.408	236.59693
810.819	219.51081
811.231	265.67754
811.642	313.73977
812.053	315.73208
812.464	345.78848
812.875	342.8393
813.286	277.68372
813.697	189.42031
814.108	238.55937
814.519	163.35496
814.929	166.41029
815.34	165.39272
815.75	194.48301
816.16	163.39822
816.571	224.56901
816.981	156.35764
817.391	160.38236
817.801	128.31556
818.211	134.31397
818.62	151.36257
819.03	149.36144
819.44	112.28824
819.849	152.37927
820.259	110.27647
820.668	107.26287
821.077	89.22308
821.486	109.26282
821.895	111.26947
822.304	94.24679
822.713	99.23337
823.122	82.2032
823.531	61.14408
823.939	107.25985
824.348	77.187
824.756	104.25857
825.164	108.26734
825.573	144.35814
825.981	55.13477
826.389	131.3261
826.797	91.2299
827.205	89.20711
827.612	52.12801
828.02	108.25543
828.428	81.20493
828.835	71.18599
829.243	85.20138
829.65	47.11747
830.057	58.13993
830.464	61.14848
830.871	43.10243
831.278	64.15487
831.685	80.17957
832.092	89.218
832.499	40.08883
832.905	44.11142
833.312	31.0714
833.718	29.07225
834.124	38.08691
834.531	79.1983
834.937	40.10269
835.343	57.13817
835.749	77.1789
836.155	77.20178
836.561	-4.0099
836.966	44.10752
837.372	62.15856
837.777	20.05025
838.183	40.09023
838.588	52.13008
838.993	40.09665
839.399	56.13948
839.804	30.07432
840.209	44.113
840.613	3.00682
841.018	57.14457
841.423	23.05931
841.828	13.03309
842.232	58.14247
842.637	28.06671
843.041	17.04408
843.445	13.03301
843.849	5.01256
844.253	42.09995
844.657	11.02817
845.061	16.03664
845.465	52.12773
845.869	34.07988
846.272	30.07434
846.676	-53.12813
847.079	56.14377
847.483	60.14836
847.886	51.12381
848.289	33.08864
848.692	-8.02037
849.095	38.09192
849.498	51.12751
849.901	21.04871
850.304	-12.02887
850.707	-9.02311
851.109	25.0628
851.512	56.13943
851.914	50.12935
852.316	8.02046
852.718	43.11429
853.121	40.09952
853.523	70.16824
853.925	29.07659
854.326	29.07358
854.728	2.00521
855.13	15.03903
855.531	60.14596
855.933	30.07265
856.334	15.03775
856.736	74.17026
857.137	70.1644
857.538	53.13514
857.939	45.11328
858.34	25.0614
858.741	29.07618
859.142	20.04827
859.542	18.04782
859.943	37.09355
860.343	29.0734
860.744	30.07344
861.144	3.0074
861.544	31.07661
861.945	35.09003
862.345	44.1078
862.745	-1.0025
863.145	10.02389
863.544	51.12931
863.944	45.10818
864.344	36.08905
864.743	53.13055
865.143	57.14759
865.542	30.07087
865.941	11.02737
866.34	36.08593
866.74	28.07525
867.139	-14.03411
867.537	29.07428
867.936	22.05346
868.335	-13.03338
868.734	39.10032
869.132	49.11448
869.531	-40.09669
869.929	22.05163
870.327	81.19612
870.726	7.01744
871.124	-4.00939
871.522	3.00767
871.92	38.09448
872.318	12.0294
872.715	13.03196
873.113	30.0738
873.511	-18.04464
873.908	-28.07191
874.306	15.03795
874.703	13.03269
875.1	31.07874
875.497	26.06289
875.894	44.10975
876.291	-5.01225
876.688	-10.02611
877.085	-1.00242
877.482	33.08316
877.878	46.1122
878.275	5.0128
878.671	5.01104
879.068	9.02191
879.464	32.0784
879.86	32.07703
880.256	1.00248
880.652	34.08769
881.048	8.01995
881.444	1.00239
881.84	40.10248
882.236	40.10057
882.631	19.04683
883.027	16.0386
883.422	24.06222
883.817	-3.00775
884.213	25.06475
884.608	33.08284
885.003	56.1373
885.398	27.06836
885.793	50.12621
886.188	34.08604
886.582	27.0694
886.977	44.10539
887.371	-43.10891
887.766	2.00505
888.16	23.05792
888.554	-27.0666
888.949	28.07017
889.343	62.15128
889.737	-14.03799
890.131	36.09097
890.525	71.18257
890.918	24.06103
891.312	-39.09454
891.706	7.01843
892.099	24.06112
892.492	6.01306
892.886	41.10221
893.279	42.10847
893.672	22.05662
894.065	34.0853
894.458	-6.01515
894.851	19.04621
895.244	10.02592
895.637	50.12054
896.029	26.06462
896.422	38.09324
896.814	25.06327
897.206	18.04354
897.599	63.15409
897.991	27.06616
898.383	-23.055
898.775	16.03661
899.167	16.03825
899.559	31.07804
899.951	-2.00481
900.342	69.17538
900.734	13.033
901.125	44.11653
901.517	-25.06203
901.908	7.01681
902.299	56.13953
902.69	16.03825
903.082	-23.05571
903.473	1.00245
903.863	-3.00767
904.254	-6.01409
904.645	7.0173
905.036	4.00988
905.426	48.11035
905.817	46.11383
906.207	27.06565
906.597	11.02614
906.987	-27.06984
907.378	8.02033
907.768	-4.01069
908.158	-19.04704
908.547	53.13893
908.937	10.02554
909.327	-17.04173
909.717	54.13562
910.106	40.09782
910.495	14.03497
910.885	40.10187
911.274	31.0781
911.663	-22.05617
912.052	28.06885
912.441	46.1181
912.83	27.06323
913.219	-15.03936
913.608	-32.07851
913.997	-1.00256
914.385	38.09175
914.774	3.00738
915.162	36.08725
915.55	0
915.939	-14.03588
916.327	-28.06979
916.715	54.13989
917.103	60.147
917.491	15.03737
917.878	50.12399
918.266	-6.01561
918.654	22.05642
919.041	10.02627
919.429	-23.05487
919.816	45.11426
920.203	-13.032
920.591	-19.04745
920.978	26.06389
921.365	2.00529
921.752	31.07415
922.139	-11.02423
922.525	89.21792
922.912	23.05623
923.299	80.20107
923.685	-4.01048
924.072	-27.06325
924.458	6.01504
924.844	24.06054
925.231	-22.05243
925.617	42.10888
926.003	6.01542
926.389	-50.12796
926.774	-11.02822
927.16	22.05504
927.546	36.09249
927.931	30.0757
928.317	35.08122
928.702	37.08725
929.088	10.02436
929.473	13.03339
929.858	0
930.243	10.02432
930.628	18.0447
931.013	-5.01256
931.398	-20.04598
931.783	-15.03935
932.167	1.00245
932.552	11.02741
932.937	1.0025
933.321	28.07126
933.705	-32.08181
934.09	-18.04503
934.474	24.05755
934.858	-37.09646
935.242	9.02108
935.626	18.04653
936.009	-32.08653
936.393	19.04828
936.777	-34.08756
937.16	45.11764
937.544	-7.01651
937.927	-9.02306
938.311	27.06599
938.694	-25.06616
939.077	-36.08856
939.46	13.0318
939.843	1.00211
940.226	4.0104
940.609	29.06815
940.991	25.06437
941.374	-3.00741
941.757	52.1291
942.139	-16.0365
942.522	0
942.904	5.01207
943.286	-7.01789
943.668	23.06019
944.05	30.07486
944.432	57.14241
944.814	46.11478
945.196	12.03008
945.578	33.08053
945.959	-4.00952
946.341	65.15673
946.722	2.00471
947.104	9.02159
947.485	27.06422
947.866	15.03838
948.247	20.05097
948.628	-3.0074
949.009	30.0775
949.39	-28.07025
949.771	31.07265
950.152	19.04718
950.532	16.04017
950.913	39.09567
951.293	9.02465
951.674	0
952.054	-6.01504
952.434	-3.0075
952.814	-35.08312
953.194	2.00519
953.574	3.00738
953.954	22.05292
954.334	-25.06316
954.714	-17.04227
955.093	-16.03921
955.473	-8.02026
955.853	-21.05456
956.232	-14.03831
956.611	4.00959
956.99	-24.06034
957.37	4.01024
957.749	5.01204
958.128	-39.09941
958.506	47.12241
958.885	9.02289
959.264	38.09468
959.643	38.08789
960.021	-35.08779
960.4	-3.00689
960.778	-11.02705
961.156	-12.03063
961.535	-3.00707
961.913	14.03314
962.291	21.05469
962.669	-61.15516
963.047	12.03089
963.424	19.04872
963.802	-5.01241
964.18	-3.00761
964.557	40.09306
964.935	9.02136
965.312	15.0396
965.69	36.09035
966.067	25.06121
966.444	16.03955
966.821	-4.0103
967.198	-40.09742
967.575	-33.08164
967.952	-2.00469
968.329	18.04408
968.705	34.07453
969.082	44.11426
969.458	-15.03667
969.835	-20.04876
970.211	14.03631
970.587	4.01002
970.963	19.04887
971.339	-19.05021
971.715	-19.04807
972.091	30.0744
972.467	-2.00502
972.843	39.09818
973.219	0
973.594	-19.05046
973.97	21.05027
974.345	17.04127
974.721	28.06799
975.096	31.07582
975.471	-23.0542
975.846	38.09213
976.221	10.02592
976.596	8.01951
976.971	1.00246
977.346	23.05373
977.72	-23.05863
978.095	-51.13292
978.469	12.02875
978.844	39.09716
979.218	52.12669
979.593	-23.05519
979.967	34.08367
980.341	4.00939
980.715	4.0101
981.089	0
981.463	18.04194
981.837	-7.01742
982.21	-21.04829
982.584	4.00982
982.957	-5.01266
983.331	-6.01433
983.704	56.13862
984.078	-30.07489
984.451	-60.14928
984.824	28.06967
985.197	23.05619
985.57	17.04281
985.943	22.0539
986.316	42.1029
986.688	-6.0146
987.061	-9.0215
987.434	-1.00261
987.806	15.03631
988.179	3.00727
988.551	21.05358
988.923	6.01473
989.295	17.0428
989.667	51.12483
990.039	2.00502
990.411	-29.0681
990.783	13.02974
991.155	20.04931
991.527	17.04122
991.898	-18.04537
992.27	10.02517
992.641	17.04275
993.012	13.03088
993.384	7.01693
993.755	7.01801
994.126	5.01212
994.497	54.13411
994.868	43.09888
995.239	23.05615
995.61	18.04597
995.98	25.06165
996.351	22.05541
996.722	6.01422
997.092	-26.06266
997.462	38.09102
997.833	-59.14146
998.203	52.12555
998.573	22.05504
998.943	-1.00239
999.313	-16.03851
999.683	-9.02186
1000.053	31.07154
1000.423	-24.05878
1000.792	17.0447
1001.162	6.01492
1001.531	4.00996
1001.901	49.1218
1002.27	12.02733
1002.639	29.07436
1003.009	41.09819
1003.378	2.00513
1003.747	19.04536
1004.116	-41.1005
1004.485	-15.036
1004.853	-32.0819
1005.222	37.09378
1005.591	32.07639
1005.959	46.10723
1006.328	24.05502
1006.696	-16.03898
1007.064	15.03821
1007.433	-17.04257
1007.801	-31.0761
1008.169	39.09937
1008.537	9.01996
1008.905	14.03316
1009.273	35.08675
1009.64	27.06552
1010.008	50.11972
1010.375	-25.05971
1010.743	51.11779
1011.11	36.08616
1011.478	-19.04726
1011.845	48.11273
1012.212	10.02316
1012.579	49.1202
1012.946	31.07427
1013.313	-17.04048
1013.68	28.06303
1014.047	44.1072
1014.414	-11.02647
1014.78	12.02994
1015.147	12.029
1015.513	1.00244
1015.88	51.12954
1016.246	13.0322
1016.612	51.11718
1016.978	12.02978
1017.344	5.01245
1017.71	-26.06299
1018.076	32.07536
1018.442	-28.07264
1018.808	-8.02027
1019.174	15.0381
1019.539	30.06836
1019.905	-21.0502
1020.27	13.03247
1020.636	53.12625
1021.001	50.12081
1021.366	-11.02659
1021.731	31.07985
1022.096	-35.08918
1022.461	-19.04502
1022.826	28.0674
1023.191	10.02633
1023.556	-8.01902
1023.92	49.11945
1024.285	8.01957
1024.649	-19.04687
1025.014	27.06663
1025.378	6.0153
1025.742	2.00502
1026.107	-4.00915
1026.471	-1.00234
1026.835	-11.02733
1027.199	20.04887
1027.562	40.09413
1027.926	-10.02453
1028.29	66.16873
1028.654	36.08372
1029.017	-5.01232
1029.381	28.06865
1029.744	20.05158
1030.107	-1.00236
1030.471	33.07918
1030.834	17.03892
1031.197	9.02157
1031.56	1.00237
1031.923	1.0026
1032.286	-38.08939
1032.648	4.00969
1033.011	38.08918
1033.374	-35.08276
1033.736	41.10886
1034.099	55.13527
1034.461	15.03875
1034.823	-3.00757
1035.185	-5.01274
1035.548	33.08086
1035.91	32.07764
1036.272	22.05072
1036.634	20.04865
1036.995	-37.0878
1037.357	2.00491
1037.719	-16.03911
1038.08	-19.04512
1038.442	21.05018
1038.803	40.09698
1039.165	1.00253
1039.526	16.03876
1039.887	-7.017
1040.248	-17.04313
1040.609	-2.00495
1040.97	17.04241
1041.331	-2.00507
1041.692	23.05458
1042.053	23.05255
1042.413	13.03038
1042.774	9.02198
1043.134	20.0473
1043.495	21.05285
1043.855	-6.01466
1044.215	-48.12008
1044.576	-8.01959
1044.936	-40.09192
1045.296	-13.03264
1045.656	-17.04221
1046.016	32.0775
1046.375	27.06663
1046.735	40.09255
1047.095	-5.01191
1047.454	-28.05985
1047.814	-15.03605
1048.173	-20.04774
1048.533	6.01395
1048.892	-14.03457
1049.251	2.00503
1049.61	1.00249
1049.969	-29.06889
1050.328	7.01537
1050.687	-2.00493
1051.046	23.05611
1051.405	17.04254
1051.763	-9.02108
1052.122	32.08115
1052.48	-38.09406
1052.839	7.01667
1053.197	-42.0998
1053.555	2.00449
1053.914	8.01974
1054.272	25.06017
1054.63	11.02741
1054.988	-30.07235
1055.345	-7.01544
1055.703	-5.01202
1056.061	4.01036
1056.419	-33.08662
1056.776	13.03143
1057.134	40.0935
1057.491	6.01509
1057.848	32.07985
1058.206	-12.02869
1058.563	23.0516
1058.92	1.00232
1059.277	-10.02467
1059.634	61.14419
1059.991	-15.03577
1060.348	13.03028
1060.704	-1.00242
1061.061	-46.10567
1061.418	-1.00247
1061.774	18.04483
1062.131	-49.13149
1062.487	-36.08547
1062.843	18.04516
1063.199	38.09413
1063.555	-34.0802
1063.911	17.04338
1064.267	-14.02956
1064.623	0
1064.979	-24.05645
1065.335	-14.03316
1065.691	-58.13993
1066.046	-53.11836
1066.402	-15.03496
1066.757	-21.05307
1067.112	-17.04147
1067.468	-25.06042
1067.823	11.02669
1068.178	-26.06346
1068.533	-15.03654
1068.888	19.04585
1069.243	-38.09534
1069.598	38.0931
1069.952	13.03011
1070.307	23.05778
1070.662	26.06273
1071.016	-11.0254
1071.371	1.00231
1071.725	19.04548
1072.079	-14.03373
1072.434	-1.00246
1072.788	37.08976
1073.142	-10.02475
1073.496	67.16277
1073.85	-38.08935
1074.203	-46.11199
1074.557	42.11191
1074.911	34.08069
1075.265	-15.03526
1075.618	30.07347
1075.971	19.04564
1076.325	-6.01548
1076.678	51.11976
1077.031	23.05306
1077.385	20.04486
1077.738	46.10626
1078.091	28.06556
1078.444	14.03291
1078.796	-19.04721
1079.149	-13.0325
1079.502	-7.01694
1079.855	-20.0478
1080.207	13.03199
1080.56	34.08875
1080.912	22.05396
1081.264	12.02917
1081.617	47.11632
1081.969	11.02825
1082.321	56.13796
1082.673	38.08907
1083.025	-1.00238
1083.377	-278.6373
1083.728	33.07734
1084.08	72.18038
1084.432	-26.06424
1084.783	-31.07293
1085.135	19.04804
1085.486	18.04219
1085.838	-27.06753
1086.189	13.0319
1086.54	-6.01436
1086.891	-11.0284
1087.242	9.02204
1087.593	5.01207
1087.944	56.12885
1088.295	-24.05487
1088.646	38.09237
1088.996	25.06126
1089.347	8.01977
1089.698	20.04853
1090.048	-27.07059
1090.398	0
1090.749	-22.05308
1091.099	-3.00766
1091.449	24.05967
1091.799	46.11624
1092.149	10.02517
1092.499	-20.04889
1092.849	-9.0231
1093.199	20.04974
1093.548	6.01451
1093.898	48.12125
1094.248	-19.04892
1094.597	-11.02873
1094.947	20.05345
1095.296	56.13882
1095.645	-1.00261
1095.994	48.11651
1096.343	22.05551
1096.692	28.07463
1097.041	13.03558
1097.39	1.00252
1097.739	-25.06509
1098.088	0
1098.437	-3.00798
1098.785	27.07324
1099.134	44.11638
1099.482	32.08763
1099.83	-26.06821
1100.179	2.00527
1100.527	56.14921
1100.875	15.03992
1101.223	-33.08806
1101.571	24.06678
1101.919	-14.03731
1102.267	0
1102.615	14.045
1102.962	11.03535
1103.31	17.05465
1103.658	4.01287
