Data from N2 R4 sample 12_Subt2__1__19-31-25-957.txt Node

Date: Wed Aug 27 19:31:25 PDT 2025
User: uwsun
Spectrometer: HDX01956
Trigger mode: 0
Integration Time (sec): 5.000000E-1
Scans to average: 1
Nonlinearity correction enabled: true
Boxcar width: 0
Storing dark spectrum: false
XAxis mode: Wavelengths
Number of Pixels in Spectrum: 2068
>>>>>Begin Spectral Data<<<<<
194.03	509.30955
194.578	535.56744
195.127	506.45937
195.676	514.49066
196.225	555.30627
196.773	617.50839
197.321	835.90392
197.87	1159.19135
198.418	1221.28094
198.966	1174.24724
199.513	1130.07887
200.061	1119.09499
200.609	1197.32815
201.156	1132.77641
201.704	1192.15077
202.251	1183.29218
202.798	1212.29128
203.345	1239.17537
203.892	1198.17588
204.438	1142.9467
204.985	1205.02979
205.532	1262.38838
206.078	1258.13498
206.624	1260.17967
207.17	1192.88618
207.716	1182.05708
208.262	1206.58766
208.808	1230.19487
209.354	1216.09324
209.899	1255.2116
210.445	1219.14233
210.99	1220.038
211.535	1235.96299
212.08	1233.96314
212.625	1267.21089
213.17	1216.15535
213.715	1236.92052
214.259	1278.06017
214.804	1241.17776
215.348	1218.91106
215.892	1219.02359
216.436	1266.9937
216.98	1282.90267
217.524	1196.00966
218.068	1221.16815
218.612	1215.15523
219.155	1201.00118
219.698	1083.84429
220.242	1091.93474
220.785	1120.86008
221.328	1100.99761
221.871	1080.99588
222.414	1083.95127
222.956	1049.89852
223.499	1155.90429
224.041	1069.81841
224.583	1112.68567
225.126	1068.7258
225.668	1074.95914
226.21	1077.04085
226.751	1098.74762
227.293	1063.78878
227.835	1011.82773
228.376	1062.76822
228.918	1061.98067
229.459	1059.99639
230	1019.82353
230.541	1057.76708
231.082	1088.92493
231.622	1032.75102
232.163	1145.03582
232.704	1093.99339
233.244	1130.09544
233.784	1082.93013
234.324	1089.77324
234.864	1068.77046
235.404	1071.859
235.944	1080.86825
236.484	1113.01844
237.023	1172.9927
237.563	1078.80871
238.102	1088.84638
238.641	1158.13585
239.18	1068.8406
239.719	1134.05925
240.258	1028.66556
240.797	1077.8596
241.335	1027.86426
241.874	1155.49197
242.412	1103.92884
242.95	1173.04616
243.488	1179.9098
244.026	1139.85813
244.564	1182.65926
245.102	1093.74805
245.64	1135.96113
246.177	1144.82535
246.715	1160.99549
247.252	1104.80228
247.789	1115.39589
248.326	1159.01318
248.863	1146.70047
249.4	1098.74166
249.936	1149.59674
250.473	1130.85519
251.009	1189.96601
251.546	1168.76059
252.082	1173.72241
252.618	1169.82899
253.154	1163.02228
253.69	1154.80591
254.226	1159.94359
254.761	1129.75179
255.297	1212.82519
255.832	1123.87582
256.367	1175.91181
256.903	1229.85263
257.438	1172.92233
257.972	1220.82856
258.507	1225.95587
259.042	1241.80417
259.576	1229.82507
260.111	1195.90446
260.645	1293.86081
261.179	1246.00263
261.713	1251.89052
262.247	1213.93989
262.781	1306.79793
263.315	1273.14842
263.849	1229.15886
264.382	1312.0066
264.915	1330.08099
265.449	1249.14747
265.982	1297.92105
266.515	1232.02461
267.048	1247.81073
267.58	1207.74465
268.113	1301.88982
268.646	1283.17705
269.178	1253.88794
269.71	1226.76085
270.243	1273.92173
270.775	1295.27413
271.307	1207.00027
271.838	1234.97423
272.37	1322.1986
272.902	1343.02611
273.433	1275.80063
273.965	1270.06788
274.496	1273.15074
275.027	1261.12119
275.558	1250.05777
276.089	1267.14745
276.62	1271.19821
277.15	1291.12509
277.681	1287.78348
278.211	1368.23224
278.741	1337.93305
279.272	1315.98444
279.802	1323.20687
280.332	1361.13539
280.861	1291.04804
281.391	1302.96642
281.921	1312.07981
282.45	1343.23313
282.98	1349.35589
283.509	1315.88222
284.038	1354.99712
284.567	1359.03587
285.096	1413.22274
285.625	1366.99669
286.153	1408.12699
286.682	1386.02041
287.21	1351.11837
287.739	1323.01229
288.267	1434.24122
288.795	1469.52789
289.323	1398.10423
289.851	1450.12247
290.378	1401.97174
290.906	1489.31125
291.433	1459.30884
291.961	1419.00788
292.488	1453.31626
293.015	1492.18199
293.542	1449.33073
294.069	1413.23545
294.596	1425.18163
295.122	1475.20878
295.649	1495.97659
296.175	1407.11476
296.702	1490.20424
297.228	1504.17434
297.754	1512.97361
298.28	1501.02344
298.806	1562.25926
299.332	1542.96098
299.857	1542.02351
300.383	1530.38992
300.908	1511.27946
301.433	1585.30351
301.958	1580.11984
302.483	1548.32001
303.008	1600.28094
303.533	1559.47833
304.058	1568.08288
304.582	1574.18221
305.107	1571.48912
305.631	1533.98205
306.155	1583.09691
306.679	1566.13375
307.203	1683.16294
307.727	1653.22165
308.251	1675.36358
308.775	1699.27569
309.298	1754.28737
309.822	1691.42831
310.345	1716.18169
310.868	1785.31705
311.391	1772.3175
311.914	1770.44778
312.437	1727.9882
312.96	1761.15137
313.482	1789.1972
314.005	1859.49126
314.527	1834.59594
315.049	1853.46369
315.571	1835.00582
316.093	1936.36878
316.615	1872.24342
317.137	1905.91588
317.659	1975.33126
318.18	1964.33371
318.702	1979.13615
319.223	1994.73854
319.744	2059.98552
320.265	2015.26267
320.786	2031.36353
321.307	2042.38976
321.828	2155.99623
322.348	2096.12841
322.869	2212.21107
323.389	2210.10636
323.909	2218.96523
324.43	2229.23362
324.95	2191.93874
325.47	2303.29734
325.989	2224.00279
326.509	2331.9161
327.029	2504.94196
327.548	2379.89448
328.067	2462.12001
328.587	2396.17756
329.106	2382.79895
329.625	2404.38829
330.144	2501.94225
330.662	2561.85798
331.181	2508.82885
331.7	2580.91162
332.218	2649.51073
332.736	2694.75897
333.255	2705.78426
333.773	2743.8601
334.291	2818.05282
334.808	2853.574
335.326	2830.43101
335.844	2918.5565
336.361	2891.87491
336.879	2887.55888
337.396	2993.60839
337.913	2996.33975
338.43	3107.31381
338.947	3059.34838
339.464	3151.09428
339.981	3164.43028
340.497	3228.4984
341.014	3304.49077
341.53	3305.11329
342.046	3270.43902
342.562	3341.43248
343.078	3374.09538
343.594	3509.15072
344.11	3542.10775
344.626	3484.35259
345.141	3537.83811
345.657	3574.73678
346.172	3605.94192
346.687	3692.77931
347.202	3641.57016
347.717	3733.73778
348.232	3720.92746
348.747	3875.5432
349.261	3831.2421
349.776	3869.54459
350.29	3960.79042
350.805	4010.58916
351.319	3969.26611
351.833	3994.27887
352.347	3986.34923
352.861	4060.25348
353.374	4215.07986
353.888	4167.31283
354.401	4171.05542
354.915	4139.96887
355.428	4298.25307
355.941	4386.94128
356.454	4377.70438
356.967	4429.00764
357.48	4306.84715
357.993	4338.14267
358.505	4452.00536
359.018	4629.87374
359.53	4690.79463
360.042	4636.5169
360.554	4516.77723
361.066	4650.81186
361.578	4635.40392
362.09	4710.66581
362.602	4748.38667
363.113	4821.46785
363.625	4913.41574
364.136	5047.28087
364.647	5007.39274
365.158	4909.33726
365.669	5181.39324
366.18	5109.34316
366.691	5115.15253
367.201	5039.37182
367.712	5187.22836
368.222	5352.20102
368.733	5473.08204
369.243	5513.07397
369.753	5578.10544
370.263	5796.26156
370.773	5659.26823
371.282	5640.10482
371.792	5963.23231
372.301	6097.31473
372.811	6252.44727
373.32	6237.43293
373.829	6363.51074
374.338	6687.03028
374.847	6678.00642
375.356	7075.64336
375.865	7272.61261
376.373	7661.43557
376.882	7863.63022
377.39	7961.29495
377.898	8187.10459
378.407	8486.63989
378.915	8767.78415
379.423	9329.93377
379.93	9525.3583
380.438	9919.93515
380.946	10436.83432
381.453	10892.29494
381.96	11305.61904
382.468	11849.32427
382.975	12777.27623
383.482	13268.16792
383.989	13595.12602
384.495	13972.31644
385.002	14509.80233
385.509	15305.01141
386.015	16414.74673
386.521	17188.59584
387.028	18069.16419
387.534	18609.59963
388.04	19208.56513
388.546	19678.2263
389.051	20472.56231
389.557	22063.87203
390.063	23945.66888
390.568	25112.55717
391.073	25447.95383
391.578	26589.88635
392.084	27384.50498
392.589	28211.68699
393.093	30517.33822
393.598	32947.01989
394.103	35960.72078
394.607	39233.6168
395.112	42093.65193
395.616	44622.15227
396.12	47015.69258
396.624	45891.05668
397.128	45041.38363
397.632	42674.3298
398.136	41053.8128
398.639	39575.50194
399.143	37072.18751
399.646	33425.07685
400.15	30257.92651
400.653	26744.30161
401.156	22069.35973
401.659	15501.4617
402.162	4304.81735
402.664	865.43837
403.167	0
403.67	0
404.172	0
404.674	0
405.176	0
405.678	0
406.18	0
406.682	0
407.184	0
407.686	0
408.187	0
408.688	0
409.19	0
409.691	0
410.192	0
410.693	0
411.194	0
411.694	11.28237
412.195	3122.18734
412.696	8274.79556
413.196	11824.3934
413.696	13768.63585
414.196	13509.3687
414.696	14514.78924
415.196	16680.3865
415.696	20882.81744
416.196	28662.6172
416.695	36400.56296
417.195	40282.64143
417.694	41360.26869
418.194	42711.87066
418.693	44201.96737
419.192	45008.95072
419.691	45305.8869
420.19	45830.68337
420.688	46191.2227
421.187	46668.04785
421.685	48102.17801
422.184	47760.20543
422.682	41467.9196
423.18	35668.06483
423.678	31574.61329
424.176	29513.14126
424.674	27533.83267
425.172	26258.88413
425.669	24728.46391
426.167	23093.94245
426.664	20721.99311
427.161	19349.30663
427.659	17761.97757
428.156	16613.5907
428.652	15731.88692
429.149	15006.44126
429.646	14590.81597
430.143	13862.03454
430.639	12897.08435
431.135	12176.84639
431.632	11623.28488
432.128	10746.16319
432.624	10146.97547
433.12	9889.73954
433.616	9514.24295
434.111	9131.42532
434.607	8714.07809
435.103	8614.17818
435.598	8334.13367
436.093	7973.21208
436.588	7717.07796
437.083	7345.78619
437.578	6836.48531
438.073	6577.78657
438.568	6478.63922
439.062	6237.50885
439.557	5976.19876
440.051	5899.14793
440.546	5530.99434
441.04	5430.01531
441.534	5293.14696
442.028	5266.04662
442.522	5052.07153
443.015	5015.00197
443.509	4837.18885
444.002	4858.2327
444.496	4769.06945
444.989	4807.33154
445.482	4652.48824
445.975	4619.18383
446.468	4537.09129
446.961	4650.22168
447.454	4431.35292
447.947	4351.54924
448.439	4132.67309
448.931	4183.50294
449.424	4056.96027
449.916	4124.79013
450.408	4031.62666
450.9	3904.0195
451.392	3891.12537
451.884	3710.90963
452.375	3865.37296
452.867	3685.90378
453.358	3635.05738
453.849	3551.87681
454.341	3543.08218
454.832	3499.9974
455.323	3373.51684
455.814	3381.276
456.304	3387.30785
456.795	3237.31274
457.285	3202.28589
457.776	3255.41817
458.266	3246.63189
458.756	3139.74134
459.247	3044.82738
459.737	2971.89147
460.226	2944.64005
460.716	2927.01209
461.206	2880.97449
461.695	2946.29608
462.185	2861.98812
462.674	2745.97268
463.163	2782.8989
463.653	2694.67805
464.142	2699.37945
464.63	2546.38748
465.119	2631.30016
465.608	2508.25321
466.096	2528.09806
466.585	2460.30752
467.073	2445.40387
467.561	2349.48766
468.05	2404.39649
468.538	2431.60993
469.026	2179.52054
469.513	2340.16978
470.001	2211.45697
470.489	2264.5597
470.976	2204.47083
471.463	2119.85216
471.951	2095.82311
472.438	1995.69734
472.925	1991.71908
473.412	1849.69692
473.899	1905.59055
474.385	1792.78372
474.872	1855.72225
475.359	1856.89756
475.845	1802.39117
476.331	1652.40018
476.817	1713.8846
477.303	1588.61625
477.789	1528.74154
478.275	1566.93367
478.761	1517.70355
479.247	1441.47906
479.732	1432.83265
480.218	1525.08175
480.703	1424.86957
481.188	1543.54926
481.673	1401.59939
482.158	1311.45576
482.643	1255.75541
483.128	1310.6106
483.612	1327.66697
484.097	1254.69793
484.581	1258.65353
485.066	1162.63613
485.55	1188.4392
486.034	1161.43183
486.518	1174.63959
487.002	1104.66454
487.486	1193.76161
487.969	1060.60068
488.453	1066.67136
488.936	992.39257
489.42	1034.36848
489.903	1058.70669
490.386	1056.94383
490.869	958.29346
491.352	975.55943
491.835	903.16651
492.318	948.3864
492.8	880.15095
493.283	885.51504
493.765	856.45077
494.247	861.353
494.73	833.23657
495.212	799.34038
495.694	776.23625
496.175	725.22056
496.657	822.32174
497.139	694.76009
497.62	798.33979
498.102	750.33601
498.583	723.30211
499.064	664.03318
499.545	699.13708
500.026	626.01773
500.507	675.13432
500.988	655.1812
501.469	673.24783
501.949	633.15544
502.43	641.13172
502.91	551.82495
503.39	592.10037
503.87	613.06978
504.35	618.072
504.83	606.97707
505.31	595.08264
505.79	633.14028
506.269	613.05853
506.749	592.01919
507.228	494.88435
507.707	568.94587
508.187	492.88123
508.666	553.05351
509.145	539.97863
509.623	516.93661
510.102	520.97511
510.581	587.07563
511.059	488.96072
511.538	467.95291
512.016	513.94277
512.494	496.94753
512.972	520.9578
513.45	487.88508
513.928	465.88292
514.406	552.04676
514.884	528.05873
515.361	512.9459
515.839	504.87579
516.316	442.83168
516.793	536.06341
517.27	488.92457
517.747	517.0622
518.224	475.86283
518.701	424.73399
519.178	471.93707
519.654	463.86756
520.131	484.95822
520.607	503.97185
521.083	481.85996
521.56	478.90518
522.036	485.82336
522.512	411.80627
522.987	474.88795
523.463	538.0142
523.939	394.76069
524.414	503.90303
524.89	480.90097
525.365	517.92102
525.84	485.92046
526.315	386.74381
526.79	436.77607
527.265	407.73777
527.74	423.8353
528.215	451.84841
528.689	468.82226
529.164	426.73981
529.638	417.86711
530.112	407.77994
530.587	364.61804
531.061	369.7225
531.534	416.81781
532.008	436.84744
532.482	376.69356
532.956	384.80899
533.429	444.86751
533.903	338.58943
534.376	411.74275
534.849	393.73346
535.322	413.80369
535.795	405.80613
536.268	435.84771
536.741	420.8175
537.213	450.833
537.686	475.94415
538.158	367.67169
538.631	389.76816
539.103	372.69375
539.575	397.65278
540.047	419.74792
540.519	434.8347
540.991	347.69648
541.463	448.88072
541.934	399.74651
542.406	439.86486
542.877	475.87467
543.348	398.78058
543.82	406.80417
544.291	447.83923
544.762	399.78494
545.233	408.83158
545.703	500.89695
546.174	426.78698
546.645	586.12868
547.115	529.00526
547.585	512.92226
548.056	561.05894
548.526	527.96608
548.996	549.00889
549.466	633.17761
549.935	630.13399
550.405	614.01106
550.875	705.26054
551.344	667.19614
551.814	640.08737
552.283	648.04002
552.752	712.2296
553.221	734.17514
553.69	779.2421
554.159	709.2801
554.628	722.14996
555.096	711.33285
555.565	742.22586
556.033	618.08449
556.502	591.09496
556.97	526.87058
557.438	521.98301
557.906	572.04993
558.374	471.88429
558.842	441.86594
559.31	395.71674
559.777	396.80345
560.245	448.87159
560.712	371.70373
561.18	404.73849
561.647	419.78006
562.114	371.71336
562.581	406.82562
563.048	354.68378
563.514	297.61429
563.981	426.80985
564.448	364.69298
564.914	352.68155
565.381	424.80526
565.847	316.61829
566.313	335.65717
566.779	406.7628
567.245	384.76665
567.711	298.59965
568.176	283.54047
568.642	391.84888
569.108	373.77182
569.573	337.66609
570.038	358.62795
570.504	350.65693
570.969	429.9008
571.434	410.74795
571.899	375.75233
572.363	368.68867
572.828	405.7465
573.293	392.74484
573.757	385.73528
574.222	412.74589
574.686	394.7326
575.15	406.80041
575.614	430.8083
576.078	419.80643
576.542	393.73455
577.006	433.79612
577.469	383.76412
577.933	399.74466
578.396	409.81409
578.86	373.72169
579.323	417.83427
579.786	399.70264
580.249	434.83269
580.712	404.81893
581.175	427.87881
581.637	357.67684
582.1	399.71774
582.563	357.62504
583.025	445.90101
583.487	356.59824
583.95	379.67616
584.412	416.71133
584.874	336.6758
585.336	419.82352
585.797	350.62263
586.259	446.85861
586.721	443.8789
587.182	384.73853
587.643	387.7237
588.105	422.82491
588.566	378.65573
589.027	340.67786
589.488	351.66709
589.949	427.85348
590.41	385.62599
590.87	397.7446
591.331	427.75197
591.791	393.7553
592.252	394.76142
592.712	422.84721
593.172	414.7832
593.632	410.74151
594.092	403.74281
594.552	343.60907
595.011	373.72722
595.471	392.72634
595.931	402.74561
596.39	401.79854
596.849	428.82951
597.308	394.70492
597.768	419.89803
598.227	324.65196
598.685	426.79487
599.144	368.71935
599.603	411.80055
600.062	375.67525
600.52	395.72952
600.978	456.90744
601.437	323.62076
601.895	379.66811
602.353	432.80207
602.811	364.6795
603.269	468.92785
603.727	353.71474
604.184	370.70304
604.642	362.75024
605.099	440.84258
605.557	381.78979
606.014	419.75837
606.471	434.91552
606.928	489.87563
607.385	571.11952
607.842	647.16377
608.299	608.08479
608.755	561.07241
609.212	463.8235
609.668	566.03055
610.125	523.00059
610.581	549.01294
611.037	486.89426
611.493	395.77378
611.949	372.76545
612.405	405.69419
612.861	375.7419
613.316	394.80451
613.772	358.68819
614.227	379.76351
614.683	375.67975
615.138	420.83852
615.593	354.71299
616.048	412.80078
616.503	393.82413
616.958	361.78209
617.412	343.70848
617.867	354.68017
618.321	382.68239
618.776	354.67591
619.23	334.68695
619.684	311.59856
620.138	267.52476
620.592	315.67224
621.046	306.62085
621.5	329.70181
621.954	374.72484
622.407	365.71805
622.861	310.66458
623.314	308.61634
623.768	249.51548
624.221	313.55174
624.674	254.52265
625.127	280.5899
625.58	238.4862
626.033	217.43152
626.485	279.60033
626.938	280.60002
627.39	259.54266
627.843	193.40724
628.295	242.50918
628.747	201.43213
629.199	269.56287
629.651	246.52055
630.103	208.43745
630.555	255.50567
631.006	218.46938
631.458	164.35979
631.909	184.38595
632.361	217.47034
632.812	149.32241
633.263	134.27349
633.714	162.32583
634.165	120.27223
634.616	108.24491
635.067	149.3104
635.518	160.36032
635.968	161.30568
636.419	195.40315
636.869	159.35814
637.319	113.24702
637.769	152.32784
638.219	141.32046
638.669	135.31055
639.119	111.2582
639.569	114.26565
640.019	121.26853
640.468	121.26036
640.918	71.16463
641.367	164.36237
641.816	85.1829
642.265	91.20288
642.714	100.2264
643.163	123.27706
643.612	125.29763
644.061	150.31589
644.51	120.26725
644.958	111.24685
645.406	56.13183
645.855	104.24892
646.303	93.20991
646.751	119.26882
647.199	102.22641
647.647	110.24914
648.095	120.2719
648.543	109.21959
648.99	115.26887
649.438	75.17087
649.885	55.13402
650.333	113.21978
650.78	124.29508
651.227	79.18868
651.674	83.18887
652.121	103.24638
652.568	79.18998
653.015	135.33435
653.461	119.2791
653.908	72.1642
654.354	71.166
654.801	76.17912
655.247	53.11449
655.693	63.1603
656.139	61.14575
656.585	80.18928
657.031	79.18442
657.477	69.14751
657.922	46.10559
658.368	104.25309
658.813	91.20892
659.259	100.2398
659.704	116.26956
660.149	131.30592
660.594	85.1992
661.039	76.17263
661.484	80.18899
661.929	50.1167
662.373	63.15649
662.818	68.16802
663.262	120.28644
663.707	52.13098
664.151	69.16757
664.595	43.10415
665.039	51.12742
665.483	77.19398
665.927	79.18521
666.371	58.13606
666.814	58.13887
667.258	32.07636
667.701	75.16215
668.145	79.19502
668.588	64.1579
669.031	81.19102
669.474	85.20596
669.917	58.12869
670.36	76.18868
670.803	100.23761
671.245	43.09205
671.688	15.0364
672.13	51.1161
672.573	115.29022
673.015	73.17509
673.457	73.16046
673.899	82.19873
674.341	48.11655
674.783	90.2209
675.225	60.14656
675.666	93.22696
676.108	49.1087
676.549	62.14749
676.991	116.26145
677.432	86.17585
677.873	123.28882
678.314	83.20021
678.755	70.17175
679.196	44.10318
679.637	121.29275
680.078	69.16133
680.518	50.11638
680.959	120.29246
681.399	103.25594
681.839	103.25351
682.28	56.14055
682.72	80.18561
683.16	85.21321
683.6	127.28771
684.039	42.08853
684.479	93.23059
684.919	86.20426
685.358	87.22215
685.798	68.17992
686.237	81.19738
686.676	77.17826
687.115	98.23169
687.554	73.17609
687.993	90.2026
688.432	154.36097
688.871	73.16974
689.309	52.12432
689.748	67.14423
690.186	93.22374
690.625	134.32072
691.063	99.2397
691.501	66.16409
691.939	76.19211
692.377	104.25593
692.815	66.16289
693.253	69.16726
693.69	115.25967
694.128	137.33843
694.565	133.32069
695.003	112.28472
695.44	40.09457
695.877	47.11144
696.314	124.27158
696.751	58.13313
697.188	79.1842
697.625	124.28781
698.061	32.07825
698.498	72.17469
698.934	94.22995
699.371	85.20534
699.807	122.292
700.243	143.34975
700.679	62.1418
701.115	111.26054
701.551	71.17016
701.987	56.12694
702.422	100.24089
702.858	98.23679
703.294	64.14708
703.729	57.14226
704.164	109.266
704.599	105.23748
705.035	124.28804
705.47	39.0962
705.904	146.34904
706.339	152.35196
706.774	47.11363
707.209	43.10255
707.643	119.2878
708.078	79.19523
708.512	81.20639
708.946	117.28126
709.38	65.15501
709.814	109.25224
710.248	43.1058
710.682	87.21136
711.116	84.2074
711.549	83.21698
711.983	47.11165
712.416	80.19045
712.85	79.1973
713.283	93.2228
713.716	98.24454
714.149	84.20274
714.582	79.1786
715.015	75.18901
715.448	58.14719
715.881	57.12513
716.313	101.24012
716.746	41.09938
717.178	18.04425
717.61	41.10458
718.043	109.27371
718.475	63.15495
718.907	66.16594
719.339	100.2322
719.77	79.19092
720.202	67.16963
720.634	80.19846
721.065	95.22655
721.497	84.20747
721.928	80.19933
722.359	77.19099
722.79	80.19432
723.221	47.11887
723.652	28.07211
724.083	87.20085
724.514	87.20365
724.945	20.04754
725.375	84.20235
725.806	99.25047
726.236	104.26597
726.666	60.14465
727.096	104.25743
727.526	114.294
727.956	118.2754
728.386	65.15981
728.816	72.18472
729.246	92.22765
729.675	104.26082
730.105	68.16771
730.534	75.17694
730.964	103.25948
731.393	54.13391
731.822	87.22386
732.251	84.21422
732.68	104.24949
733.109	73.18212
733.537	62.15252
733.966	30.07573
734.395	59.13822
734.823	68.15577
735.251	3.00734
735.68	119.2986
736.108	92.23462
736.536	82.19491
736.964	70.16536
737.392	47.11798
737.82	42.10202
738.247	65.15703
738.675	50.11935
739.102	43.1093
739.53	109.28037
739.957	110.28388
740.384	54.13284
740.811	60.15329
741.238	40.0984
741.665	85.20068
742.092	124.2961
742.519	43.10906
742.945	102.24683
743.372	44.11003
743.798	42.10839
744.225	53.12852
744.651	56.14302
745.077	59.14826
745.503	86.20858
745.929	17.04147
746.355	77.1898
746.781	117.29295
747.207	54.13141
747.632	90.22457
748.058	113.28334
748.483	65.15197
748.908	44.11122
749.334	67.16715
749.759	72.17233
750.184	52.12683
750.609	73.18001
751.033	74.17563
751.458	87.19733
751.883	43.10755
752.307	67.16009
752.732	29.07421
753.156	50.1249
753.58	64.15219
754.005	105.26688
754.429	13.03112
754.853	70.17581
755.277	67.16113
755.7	89.22381
756.124	55.13876
756.548	88.21247
756.971	20.04916
757.394	-3.00776
757.818	60.15565
758.241	82.20942
758.664	33.08462
759.087	116.26434
759.51	64.15964
759.933	72.17659
760.356	43.10976
760.778	5.01242
761.201	22.05416
761.623	81.19789
762.046	85.20286
762.468	28.06755
762.89	59.145
763.312	43.10533
763.734	9.022
764.156	40.09992
764.578	14.03244
765	36.08813
765.421	40.1038
765.843	13.03397
766.264	58.1422
766.686	101.25635
767.107	80.19519
767.528	40.10302
767.949	-17.04388
768.37	53.13184
768.791	58.14173
769.212	43.11042
769.632	74.17732
770.053	78.20755
770.473	89.22059
770.894	25.06291
771.314	81.19242
771.734	9.02138
772.154	45.11587
772.575	48.11221
772.994	14.03262
773.414	92.22263
773.834	84.21309
774.254	64.15964
774.673	57.14019
775.093	4.01019
775.512	24.06028
775.931	40.10255
776.351	53.13218
776.77	39.0974
777.189	27.0652
777.607	33.08554
778.026	102.25553
778.445	79.20314
778.864	43.1108
779.282	68.16561
779.701	20.05065
780.119	32.08221
780.537	28.0707
780.955	76.19464
781.373	27.06729
781.791	30.06853
782.209	44.10148
782.627	27.07186
783.045	22.05129
783.462	68.17671
783.88	71.18473
784.297	51.12958
784.715	113.29571
785.132	73.17848
785.549	3.00755
785.966	60.15161
786.383	105.26062
786.8	65.15191
787.217	70.16773
787.633	58.14703
788.05	82.19424
788.466	64.14955
788.883	70.18197
789.299	45.10974
789.715	57.14009
790.131	71.17707
790.547	34.08518
790.963	42.10454
791.379	57.14493
791.795	76.17494
792.21	1.00235
792.626	41.0986
793.041	79.19666
793.457	49.12176
793.872	35.08337
794.287	62.15178
794.702	43.10623
795.117	46.11532
795.532	60.15237
795.947	29.06969
796.362	80.18943
796.776	66.15295
797.191	36.08947
797.605	55.13302
798.02	30.07383
798.434	42.09416
798.848	59.14687
799.262	42.1053
799.676	47.11457
800.09	42.10488
800.504	90.21927
800.918	54.12633
801.331	26.06764
801.745	112.26037
802.158	20.05005
802.572	37.08976
802.985	45.10855
803.398	34.08231
803.811	43.10937
804.224	52.12895
804.637	45.10834
805.05	-2.0047
805.462	26.06401
805.875	34.08963
806.288	43.10599
806.7	21.05307
807.112	0
807.525	73.17894
807.937	75.1884
808.349	43.10852
808.761	103.25491
809.173	51.12571
809.584	73.17961
809.996	10.02484
810.408	66.17263
810.819	58.13824
811.231	135.35376
811.642	210.49646
812.053	280.63853
812.464	346.75871
812.875	296.71136
813.286	141.35125
813.697	117.26138
814.108	82.19828
814.519	83.18604
814.929	107.271
815.34	75.18255
815.75	62.15879
816.16	56.13877
816.571	23.05982
816.981	56.13362
817.391	105.25528
817.801	23.05813
818.211	23.05424
818.62	17.0413
819.03	47.11517
819.44	39.1014
819.849	59.14874
820.259	56.14362
820.668	56.13974
821.077	37.09328
821.486	42.10167
821.895	37.09097
822.304	2.00531
822.713	93.22161
823.122	32.08077
823.531	69.16512
823.939	59.14522
824.348	91.22207
824.756	64.16057
825.164	101.25243
825.573	62.15538
825.981	54.1347
826.389	23.05763
826.797	54.13592
827.205	39.09161
827.612	40.09876
828.02	104.24768
828.428	45.11499
828.835	101.26754
829.243	65.1537
829.65	40.10003
830.057	83.20021
830.464	45.10998
830.871	78.18655
831.278	90.22017
831.685	15.03382
832.092	71.17327
832.499	122.26957
832.905	33.08334
833.312	-5.01151
833.718	65.16163
834.124	26.05949
834.531	42.10594
834.937	101.25898
835.343	29.07019
835.749	79.18405
836.155	43.11383
836.561	69.17096
836.966	-7.01709
837.372	42.10775
837.777	-2.00501
838.183	7.01581
838.588	88.22022
838.993	60.14651
839.399	72.17751
839.804	15.03746
840.209	53.13666
840.613	28.06321
841.018	22.05583
841.423	99.25385
841.828	52.1329
842.232	50.12241
842.637	74.17407
843.041	50.12922
843.445	92.23156
843.849	39.09723
844.253	46.10976
844.657	43.10891
845.061	56.12704
845.465	35.08618
845.869	0
846.272	86.2135
846.676	17.04129
847.079	57.1457
847.483	125.30981
847.886	18.04321
848.289	78.20975
848.692	39.09878
849.095	68.164
849.498	35.08726
849.901	44.10213
850.304	11.02643
850.707	41.10476
851.109	18.04496
851.512	46.1137
851.914	28.07174
852.316	41.10358
852.718	-11.02861
853.121	39.09624
853.523	9.02121
853.925	45.11844
854.326	57.14431
854.728	36.09301
855.13	36.09439
855.531	38.09189
855.933	40.09563
856.334	41.10347
856.736	66.14991
857.137	49.11578
857.538	32.08132
857.939	45.11194
858.34	67.16131
858.741	27.07042
859.142	30.07213
859.542	58.15366
859.943	28.06984
860.343	40.10035
860.744	8.01958
861.144	69.16864
861.544	25.06153
861.945	14.0357
862.345	53.13011
862.745	63.15752
863.145	71.16802
863.544	8.02037
863.944	14.033
864.344	51.1265
864.743	65.15998
865.143	58.14917
865.542	51.11849
865.941	27.06734
866.34	31.07413
866.74	46.12354
867.139	71.17294
867.537	19.04811
867.936	24.05801
868.335	14.0356
868.734	-8.0205
869.132	52.12017
869.531	20.04825
869.929	28.06581
870.327	19.04621
870.726	25.06142
871.124	20.04694
871.522	28.07153
871.92	-7.01718
872.318	41.10065
872.715	31.07627
873.113	68.16629
873.511	66.16445
873.908	35.09016
874.306	46.1152
874.703	37.09241
875.1	11.02805
875.497	80.19264
875.894	74.18478
876.291	49.1202
876.688	8.02072
877.085	45.10768
877.482	24.06058
877.878	5.01215
878.275	67.17174
878.671	16.03565
879.068	-2.00479
879.464	41.09852
879.86	53.12605
880.256	65.15951
880.652	68.17366
881.048	19.04668
881.444	75.17886
881.84	76.19382
882.236	11.02766
882.631	19.04647
883.027	26.06268
883.422	24.06168
883.817	0
884.213	21.0543
884.608	46.11441
885.003	37.08996
885.398	15.038
885.793	30.07575
886.188	48.12129
886.582	10.02549
886.977	48.11309
887.371	45.11434
887.766	73.18542
888.16	20.04945
888.554	13.03187
888.949	9.02252
889.343	11.02661
889.737	44.11778
890.131	33.08385
890.525	32.08178
890.918	51.12857
891.312	9.02147
891.706	47.12367
892.099	68.17397
892.492	40.08624
892.886	55.13442
893.279	48.12349
893.672	19.04886
894.065	59.14767
894.458	47.11823
894.851	58.14146
895.244	30.07678
895.637	18.04359
896.029	24.05884
896.422	49.1198
896.814	10.02503
897.206	66.16001
897.599	68.16635
897.991	40.09785
898.383	-27.06459
898.775	20.04539
899.167	6.01422
899.559	-6.01524
899.951	33.07791
900.342	45.11385
900.734	32.08135
901.125	46.12011
901.517	36.08892
901.908	41.09867
902.299	42.10343
902.69	24.05683
903.082	15.03639
903.473	13.03143
903.863	22.0564
904.254	73.17128
904.645	3.00741
905.036	39.09649
905.426	-21.04783
905.817	33.08191
906.207	31.07472
906.597	23.05462
906.987	74.19137
907.378	11.02795
907.768	13.03431
908.158	41.0998
908.547	28.07306
908.937	51.13073
909.327	50.12168
909.717	56.14196
910.106	14.0341
910.495	58.14283
910.885	32.08098
911.274	15.03759
911.663	-18.04561
912.052	16.0393
912.441	46.11769
912.83	31.07151
913.219	8.02079
913.608	44.10708
913.997	44.1119
914.385	10.02403
914.774	26.06351
915.162	45.10842
915.55	39.09375
915.939	60.15226
916.327	86.21452
916.715	30.07748
917.103	-3.00731
917.491	37.09144
917.878	6.01481
918.266	16.04182
918.654	71.18193
919.041	41.10861
919.429	50.11949
919.816	18.04558
920.203	38.09313
920.591	12.02982
920.978	59.14409
921.365	34.08936
921.752	38.09158
922.139	32.06932
922.525	26.06311
922.912	8.01957
923.299	16.04014
923.685	32.08458
924.072	26.05913
924.458	43.10693
924.844	28.07025
925.231	3.00704
925.617	47.1214
926.003	21.0534
926.389	0
926.774	56.14302
927.16	16.03956
927.546	19.04896
927.931	41.1021
928.317	-18.04196
928.702	-12.02819
929.088	-1.0024
929.473	-15.03809
929.858	16.03943
930.243	47.11406
930.628	-46.11316
931.013	9.02227
931.398	56.12833
931.783	22.05752
932.167	35.08611
932.552	-21.05224
932.937	-11.02719
933.321	28.07116
933.705	7.01759
934.09	67.16679
934.474	72.17088
934.858	43.11122
935.242	38.08942
935.626	0
936.009	20.0532
936.393	21.05364
936.777	22.05684
937.16	36.09403
937.544	32.07477
937.927	37.09414
938.311	12.02921
938.694	12.03154
939.077	26.06327
939.46	43.10451
939.843	29.06111
940.226	-25.06455
940.609	24.05593
940.991	41.10513
941.374	17.04166
941.757	66.16212
942.139	60.13656
942.522	28.06548
942.904	48.11633
943.286	25.06345
943.668	14.03637
944.05	74.18478
944.432	61.15202
944.814	1.00245
945.196	32.0791
945.578	47.11406
945.959	22.05159
946.341	5.0121
946.722	33.07761
947.104	39.09283
947.485	21.04879
947.866	40.10205
948.247	10.02557
948.628	65.15756
949.009	34.08808
949.39	33.0823
949.771	47.10816
950.152	-16.03972
950.532	36.09016
950.913	6.01439
951.293	21.05757
951.674	-6.01455
952.054	-14.03472
952.434	0
952.814	-13.03113
953.194	30.07828
953.574	35.08669
953.954	65.15602
954.334	44.11015
954.714	-2.00494
955.093	67.16381
955.473	0
955.853	40.10334
956.232	-35.09567
956.611	-21.0501
956.99	57.14396
957.37	55.1397
957.749	79.18933
958.128	29.07371
958.506	6.01569
958.885	25.06345
959.264	4.00992
959.643	12.02732
960.021	26.06464
960.4	-4.009
960.778	70.17143
961.156	18.04535
961.535	28.06568
961.913	14.033
962.291	75.19386
962.669	-29.07454
963.047	-18.04628
963.424	-3.00768
963.802	41.10162
964.18	16.04013
964.557	-11.02511
964.935	62.14578
965.312	11.02894
965.69	55.13712
966.067	47.11534
966.444	60.14841
966.821	28.07224
967.198	-15.03637
967.575	55.13397
967.952	19.04475
968.329	-28.06834
968.705	29.06216
969.082	7.01813
969.458	-45.11096
969.835	33.08071
970.211	45.11612
970.587	20.05
970.963	18.04618
971.339	32.08384
971.715	10.02483
972.091	9.02215
972.467	51.12751
972.843	9.02236
973.219	15.03569
973.594	20.05295
973.97	-19.04498
974.345	25.05976
974.721	59.14264
975.096	-16.03891
975.471	54.12856
975.846	7.0168
976.221	17.04353
976.596	-20.04836
976.971	-2.00493
977.346	19.04428
977.72	54.13835
978.095	9.02323
978.469	61.14614
978.844	-3.00753
979.218	46.11203
979.593	32.07703
979.967	-30.07353
980.341	34.07845
980.715	-11.0279
981.089	-12.03029
981.463	35.08113
981.837	35.08627
982.21	27.06233
982.584	10.02448
982.957	23.05821
983.331	28.06676
983.704	23.05665
984.078	12.02958
984.451	13.03222
984.824	25.0619
985.197	61.14959
985.57	28.07027
985.943	38.09351
986.316	3.0073
986.688	100.24053
987.061	25.05884
987.434	18.047
987.806	40.09778
988.179	11.02591
988.551	-8.02014
988.923	12.02966
989.295	97.24182
989.667	49.11922
990.039	73.18126
990.411	-3.00691
990.783	17.03909
991.155	-1.00243
991.527	42.10198
991.898	59.14826
992.27	80.20078
992.641	4.00995
993.012	-39.0909
993.384	33.07942
993.755	16.04056
994.126	46.11111
994.497	26.06478
994.868	54.12435
995.239	46.1114
995.61	32.08126
995.98	6.01471
996.351	63.15786
996.722	43.1016
997.092	19.0458
997.462	39.09297
997.833	94.22464
998.203	40.09672
998.573	23.05753
998.943	-36.08577
999.313	7.01692
999.683	53.12886
1000.053	53.12294
1000.423	43.10376
1000.792	-5.01308
1001.162	25.06291
1001.531	32.07817
1001.901	12.03005
1002.27	14.03145
1002.639	19.04872
1003.009	-36.08679
1003.378	58.14854
1003.747	29.06839
1004.116	54.13072
1004.485	-22.05352
1004.853	17.04312
1005.222	31.07815
1005.591	-2.00476
1005.959	53.12158
1006.328	82.19033
1006.696	-29.07046
1007.064	25.06289
1007.433	-36.08973
1007.801	54.1321
1008.169	68.17244
1008.537	-11.02462
1008.905	28.06648
1009.273	26.06368
1009.64	85.20604
1010.008	7.01653
1010.375	51.12167
1010.743	-9.0203
1011.11	25.05941
1011.478	11.0274
1011.845	54.12781
1012.212	40.09211
1012.579	27.06697
1012.946	-19.04536
1013.313	-5.01189
1013.68	33.07458
1014.047	7.01697
1014.414	31.07398
1014.78	60.15075
1015.147	5.01209
1015.513	-30.07323
1015.88	52.1328
1016.246	51.12404
1016.612	58.13308
1016.978	-22.0539
1017.344	-6.01479
1017.71	-5.01222
1018.076	41.09635
1018.442	-11.02804
1018.808	47.11917
1019.174	24.06049
1019.539	-17.03825
1019.905	23.05519
1020.27	12.02983
1020.636	44.10483
1021.001	-12.02875
1021.366	-2.00485
1021.731	48.12353
1022.096	59.15033
1022.461	76.17982
1022.826	19.04519
1023.191	13.03424
1023.556	27.06387
1023.92	60.14672
1024.285	-12.02919
1024.649	50.12295
1025.014	-11.02746
1025.378	-1.00254
1025.742	54.13523
1026.107	15.03419
1026.471	-5.01163
1026.835	51.12774
1027.199	18.04425
1027.562	24.05674
1027.926	-2.00489
1028.29	4.0101
1028.654	32.07413
1029.017	46.11324
1029.381	7.01696
1029.744	24.06123
1030.107	36.08504
1030.471	45.10814
1030.834	73.16826
1031.197	-1.0024
1031.56	17.04017
1031.923	22.05756
1032.286	16.0377
1032.648	-39.09276
1033.011	-15.03485
1033.374	25.05765
1033.736	11.02927
1034.099	20.04885
1034.461	67.17024
1034.823	10.0251
1035.185	31.07801
1035.548	-5.01231
1035.91	-34.08104
1036.272	38.08691
1036.634	-4.00975
1036.995	23.05432
1037.357	60.14798
1037.719	47.11384
1038.08	-18.04277
1038.442	-5.01196
1038.803	25.06019
1039.165	79.20058
1039.526	29.07056
1039.887	37.08878
1040.248	17.04241
1040.609	25.06133
1040.97	6.01467
1041.331	71.17963
1041.692	55.13207
1042.053	-3.00687
1042.413	4.0093
1042.774	22.05356
1043.134	-2.00473
1043.495	52.13088
1043.855	-68.16598
1044.215	-15.03753
1044.576	26.06332
1044.936	48.11062
1045.296	46.11478
1045.656	53.13088
1046.016	60.14563
1046.375	26.06337
1046.735	51.11709
1047.095	68.16182
1047.454	41.0867
1047.814	26.06294
1048.173	21.04939
1048.533	13.03
1048.892	6.01461
1049.251	13.03237
1049.61	30.07494
1049.969	-3.0071
1050.328	-17.03701
1050.687	1.00246
1051.046	54.13156
1051.405	-24.06047
1051.763	25.05834
1052.122	32.0808
1052.48	37.0906
1052.839	2.0048
1053.197	12.02838
1053.555	58.13014
1053.914	34.08348
1054.272	55.13252
1054.63	35.0863
1054.988	-10.02422
1055.345	17.03721
1055.703	65.15548
1056.061	58.14859
1056.419	53.13851
1056.776	15.03639
1057.134	27.06298
1057.491	20.05027
1057.848	-4.01
1058.206	57.13478
1058.563	11.02474
1058.92	69.15892
1059.277	34.08358
1059.634	75.17707
1059.991	22.05246
1060.348	-4.00916
1060.704	15.03644
1061.061	20.04622
1061.418	34.08364
1061.774	-6.01488
1062.131	43.11603
1062.487	14.03312
1062.843	27.06697
1063.199	48.11951
1063.555	24.05663
1063.911	19.04773
1064.267	22.0459
1064.623	40.09822
1064.979	57.1339
1065.335	8.01902
1065.691	42.10068
1066.046	40.08957
1066.402	4.00926
1066.757	29.07319
1067.112	16.03932
1067.468	22.05304
1067.823	81.19494
1068.178	94.22781
1068.533	0
1068.888	2.00475
1069.243	13.03222
1069.598	40.09712
1069.952	28.06507
1070.307	17.04238
1070.662	43.10384
1071.016	11.02516
1071.371	-25.05781
1071.725	16.03806
1072.079	12.02861
1072.434	12.02957
1072.788	-17.0409
1073.142	6.01478
1073.496	45.10892
1073.85	9.02111
1074.203	10.02438
1074.557	9.02393
1074.911	15.03552
1075.265	54.12628
1075.618	-24.05891
1075.971	66.15736
1076.325	14.03584
1076.678	54.12628
1077.031	13.03028
1077.385	10.02199
1077.738	24.05447
1078.091	35.0817
1078.444	-26.06078
1078.796	33.08224
1079.149	-16.03979
1079.502	54.12999
1079.855	-9.02106
1080.207	-20.04922
1080.56	-1.00264
1080.912	-9.02189
1081.264	23.05588
1081.617	24.0595
1081.969	-5.01276
1082.321	10.02459
1082.673	-40.09328
1083.025	-1.00237
1083.377	269.61085
1083.728	51.11943
1084.08	35.08773
1084.432	33.08056
1084.783	16.03778
1085.135	28.07113
1085.486	35.08148
1085.838	-3.00746
1086.189	-20.04914
1086.54	-8.01907
1086.891	40.10277
1087.242	7.01713
1087.593	7.01703
1087.944	4.00912
1088.295	4.00911
1088.646	54.13156
1088.996	-7.01717
1089.347	-15.03715
1089.698	-32.07723
1090.048	15.03915
1090.398	21.04935
1090.749	-19.0458
1091.099	-16.04068
1091.449	32.08051
1091.799	56.13989
1092.149	15.03737
1092.499	-3.00735
1092.849	-2.00514
1093.199	42.10435
1093.548	23.0564
1093.898	36.09097
1094.248	29.07473
1094.597	18.04695
1094.947	-21.05604
1095.296	-6.01498
1095.645	-1.00259
1095.994	-29.07061
1096.343	38.09554
1096.692	18.0478
1097.041	-13.03571
1097.39	21.05292
1097.739	-12.03137
1098.088	-5.01323
1098.437	38.10125
1098.785	17.04575
1099.134	-13.03422
1099.482	10.02744
1099.83	1.00262
1100.179	-7.01846
1100.527	63.16811
1100.875	43.11451
1101.223	33.08742
1101.571	-6.01656
1101.919	1.00265
1102.267	44.12463
1102.615	1.00322
1102.962	3.00966
1103.31	8.02575
1103.658	5.01608
