Data from N2 R4 sample 1_Subt2__4__19-17-27-976.txt Node

Date: Wed Aug 27 19:17:27 PDT 2025
User: uwsun
Spectrometer: HDX01956
Trigger mode: 0
Integration Time (sec): 5.000000E-1
Scans to average: 1
Nonlinearity correction enabled: true
Boxcar width: 0
Storing dark spectrum: false
XAxis mode: Wavelengths
Number of Pixels in Spectrum: 2068
>>>>>Begin Spectral Data<<<<<
194.03	371.02092
194.578	384.19314
195.127	354.08829
195.676	371.1414
196.225	356.92238
196.773	413.10139
197.321	562.46129
197.87	730.71548
198.418	842.95947
198.966	833.96395
199.513	720.67095
200.061	830.91641
200.609	802.90874
201.156	770.53636
201.704	821.89001
202.251	775.86665
202.798	807.92394
203.345	826.83913
203.892	777.7745
204.438	845.81041
204.985	804.72881
205.532	842.99166
206.078	836.8545
206.624	844.88076
207.17	825.7227
207.716	865.90654
208.262	757.34538
208.808	830.85717
209.354	882.92903
209.899	879.96722
210.445	839.87539
210.99	795.73979
211.535	854.79393
212.08	855.78933
212.625	848.89512
213.17	792.79318
213.715	815.64995
214.259	828.71791
214.804	880.93516
215.348	826.69319
215.892	808.73964
216.436	839.7218
216.98	821.62576
217.524	800.69958
218.068	792.77867
218.612	855.92839
219.155	790.67468
219.698	769.64536
220.242	760.69841
220.785	744.57572
221.328	829.85
221.871	755.70143
222.414	768.73531
222.956	721.59035
223.499	702.44912
224.041	785.66443
224.583	685.33776
225.126	772.54606
225.668	747.66283
226.21	730.67148
226.751	732.47126
227.293	717.48905
227.835	731.6178
228.376	765.60296
228.918	728.66956
229.459	764.73747
230	674.45962
230.541	804.67178
231.082	751.66209
231.622	770.62728
232.163	675.51548
232.704	771.73962
233.244	706.57767
233.784	752.65083
234.324	709.42922
234.864	706.4626
235.404	727.55475
235.944	721.5459
236.484	747.669
237.023	780.66855
237.563	783.6306
238.102	669.42628
238.641	731.67143
239.18	723.54952
239.719	813.83366
240.258	774.55864
240.797	749.64114
241.335	797.74197
241.874	749.30706
242.412	762.64826
242.95	775.6903
243.488	809.66913
244.026	775.60249
244.564	786.43137
245.102	828.67821
245.64	812.75125
246.177	787.57142
246.715	800.70252
247.252	707.46957
247.789	727.19736
248.326	815.77459
248.863	776.53403
249.4	752.51845
249.936	816.51316
250.473	820.7081
251.009	783.62916
251.546	848.68047
252.082	804.55015
252.618	813.63315
253.154	802.72598
253.69	797.61715
254.226	718.53185
254.761	794.60263
255.297	816.61321
255.832	738.5698
256.367	822.74256
256.903	785.55293
257.438	753.5764
257.972	875.73767
258.507	841.73909
259.042	775.48521
259.576	784.52454
260.111	825.68924
260.645	812.54613
261.179	794.6495
261.713	819.62633
262.247	798.64678
262.781	804.48716
263.315	819.77803
263.849	847.88629
264.382	834.685
264.915	900.8757
265.449	861.88111
265.982	827.66512
266.515	875.88195
267.048	802.48936
267.58	801.53955
268.113	846.62423
268.646	873.91055
269.178	885.76571
269.71	813.54616
270.243	898.78547
270.775	939.08936
271.307	816.7351
271.838	896.84012
272.37	835.81892
272.902	879.75697
273.433	882.69102
273.965	849.82601
274.496	845.8446
275.027	856.8918
275.558	881.88433
276.089	878.92995
276.62	864.93405
277.15	916.97311
277.681	872.66057
278.211	920.96989
278.741	860.68445
279.272	893.79157
279.802	971.10369
280.332	918.90647
280.861	947.97763
281.391	936.84559
281.921	873.82381
282.45	949.06816
282.98	952.15616
283.509	953.8594
284.038	908.80119
284.567	921.84356
285.096	949.97744
285.625	889.74502
286.153	945.92386
286.682	933.87706
287.21	900.89393
287.739	940.92882
288.267	888.89481
288.795	957.18713
289.323	927.88718
289.851	933.87448
290.378	991.92999
290.906	993.09855
291.433	966.07468
291.961	1058.04314
292.488	940.00497
293.015	973.97015
293.542	988.16908
294.069	1045.20282
294.596	976.06841
295.122	1003.04598
295.649	1000.85785
296.175	1052.17268
296.702	996.05961
297.228	1039.12908
297.754	1075.01633
298.28	1080.06589
298.806	1037.08686
299.332	1080.02722
299.857	1050.99146
300.383	1031.19788
300.908	1061.21711
301.433	1055.15804
301.958	1136.20143
302.483	1133.38226
303.008	1024.11006
303.533	1124.46367
304.058	1087.11276
304.582	1175.31653
305.107	1139.49083
305.631	1061.01728
306.155	1176.2651
306.679	1178.27328
307.203	1167.22471
307.727	1170.30934
308.251	1121.26957
308.775	1164.27718
309.298	1132.27681
309.822	1177.43925
310.345	1178.27004
310.868	1170.28572
311.391	1248.44643
311.914	1293.6325
312.437	1185.16357
312.96	1213.31374
313.482	1229.35447
314.005	1314.66627
314.527	1271.69468
315.049	1272.57513
315.571	1299.28711
316.093	1350.62453
316.615	1312.49046
317.137	1310.21657
317.659	1324.49029
318.18	1346.52441
318.702	1385.53265
319.223	1394.16691
319.744	1362.38181
320.265	1408.64233
320.786	1409.72852
321.307	1465.81045
321.828	1482.48661
322.348	1449.56174
322.869	1472.66488
323.389	1513.79724
323.909	1560.64944
324.43	1506.68149
324.95	1535.61018
325.47	1572.88816
325.989	1553.69584
326.509	1652.63281
327.029	1655.68296
327.548	1649.645
328.067	1708.97207
328.587	1673.94786
329.106	1724.81061
329.625	1746.25562
330.144	1685.72146
330.662	1727.82563
331.181	1784.84867
331.7	1763.83293
332.218	1868.66138
332.736	1856.88056
333.255	1902.96648
333.773	1800.889
334.291	1932.1682
334.808	1891.74553
335.326	1963.84856
335.844	1983.0087
336.361	2038.37873
336.879	2126.13148
337.396	2086.17607
337.913	2207.14253
338.43	2166.92037
338.947	2156.18229
339.464	2175.80255
339.981	2152.14418
340.497	2220.33533
341.014	2210.30835
341.53	2210.95279
342.046	2335.34803
342.562	2279.36306
343.078	2323.16934
343.594	2425.28814
344.11	2370.18556
344.626	2378.47655
345.141	2425.99061
345.657	2441.90426
346.172	2509.34175
346.687	2486.09742
347.202	2597.05413
347.717	2632.26179
348.232	2627.55923
348.747	2647.1252
349.261	2594.87312
349.776	2682.24616
350.29	2745.52371
350.805	2822.53665
351.319	2707.15539
351.833	2739.09781
352.347	2800.21896
352.861	2833.2188
353.374	2839.0476
353.888	2817.22479
354.401	2912.13621
354.915	2957.10662
355.428	2998.49841
355.941	3018.12725
356.454	3045.85065
356.967	2967.16593
357.48	3010.99562
357.993	3085.3885
358.505	3097.4079
359.018	3161.40623
359.53	3240.16789
360.042	3284.79359
360.554	3211.19273
361.066	3215.36518
361.578	3207.70406
362.09	3248.17672
362.602	3212.70286
363.113	3318.98683
363.625	3365.76673
364.136	3428.66154
364.647	3448.94521
365.158	3495.96528
365.669	3469.15746
366.18	3459.98633
366.691	3505.60735
367.201	3459.04157
367.712	3646.80866
368.222	3613.71013
368.733	3647.43184
369.243	3736.52146
369.753	3792.63794
370.263	3984.91055
370.773	3907.16993
371.282	3947.77925
371.792	4107.52562
372.301	4201.80768
372.811	4315.17917
373.32	4265.02906
373.829	4355.38715
374.338	4674.89285
374.847	4689.04135
375.356	4830.07849
375.865	5066.33542
376.373	5203.5239
376.882	5381.09018
377.39	5476.7249
377.898	5587.83639
378.407	5895.2003
378.915	5974.79113
379.423	6387.1077
379.93	6507.88306
380.438	6855.2049
380.946	7280.13076
381.453	7514.3649
381.96	7652.35556
382.468	8316.10156
382.975	8878.11373
383.482	9174.84509
383.989	9315.07624
384.495	9526.82714
385.002	10052.08592
385.509	10653.21139
386.015	11378.35908
386.521	11983.43227
387.028	12445.77125
387.534	12578.67042
388.04	13052.26069
388.546	13481.93539
389.051	14150.08624
389.557	15287.23357
390.063	16565.95188
390.568	17321.48095
391.073	17739.86026
391.578	18355.41328
392.084	18875.82577
392.589	19327.96079
393.093	20936.85288
393.598	22766.44336
394.103	24861.2553
394.607	27393.69708
395.112	29440.42933
395.616	31271.02395
396.12	33687.82303
396.624	37421.86355
397.128	40454.8303
397.632	45440.45717
398.136	49580.43655
398.639	52192.72992
399.143	56999.65644
399.646	58369.75152
400.15	58613.02828
400.653	57879.39077
401.156	57173.58385
401.659	56177.40201
402.162	53821.55638
402.664	47275.14456
403.167	32260.27245
403.67	3851.94142
404.172	0
404.674	0
405.176	0
405.678	0
406.18	0
406.682	0
407.184	0
407.686	12367.42319
408.187	34596.90747
408.688	44563.94194
409.19	48906.19284
409.691	51236.67962
410.192	52883.26968
410.693	53713.23343
411.194	54189.54801
411.694	54767.79104
412.195	55625.98899
412.696	55971.27715
413.196	55815.15953
413.696	55802.1488
414.196	55740.09561
414.696	56340.4775
415.196	57067.59327
415.696	58258.21704
416.196	59666.45207
416.695	60284.20726
417.195	53042.55911
417.694	50218.99813
418.194	47480.59665
418.693	44198.57848
419.192	42989.57296
419.691	41981.27446
420.19	40830.93391
420.688	40151.31775
421.187	38522.23657
421.685	35930.8168
422.184	32820.21784
422.682	28285.95081
423.18	24278.99526
423.678	21687.69356
424.176	19993.37384
424.674	18699.21713
425.172	18125.0205
425.669	17050.89316
426.167	15900.49685
426.664	14454.66397
427.161	13215.49979
427.659	12377.98692
428.156	11545.9909
428.652	10731.98992
429.149	10363.68004
429.646	9917.27938
430.143	9461.56358
430.639	8926.22607
431.135	8367.24993
431.632	7939.59507
432.128	7445.1919
432.624	7110.38827
433.12	6782.81195
433.616	6639.68734
434.111	6419.12462
434.607	6150.17857
435.103	6075.64639
435.598	5706.58276
436.093	5359.37558
436.588	5149.24708
437.083	4956.53157
437.578	4786.51055
438.073	4638.36613
438.568	4435.30132
439.062	4250.66143
439.557	4116.24038
440.051	4068.17467
440.546	3848.337
441.04	3857.604
441.534	3666.94853
442.028	3663.61998
442.522	3570.72072
443.015	3488.32686
443.509	3463.94865
444.002	3305.9543
444.496	3302.32357
444.989	3256.9426
445.482	3264.05704
445.975	3185.62454
446.468	3223.42014
446.961	3158.24675
447.454	3103.69777
447.947	3006.83215
448.439	3043.98263
448.931	2799.57545
449.424	2850.17998
449.916	2853.98535
450.408	2800.61512
450.9	2815.92852
451.392	2755.19444
451.884	2685.7324
452.375	2591.08777
452.867	2613.58165
453.358	2491.68122
453.849	2539.43539
454.341	2473.58354
454.832	2439.4681
455.323	2478.04513
455.814	2408.70908
456.304	2382.73587
456.795	2419.76947
457.285	2371.56985
457.776	2317.614
458.266	2288.90139
458.756	2294.97009
459.247	2224.89548
459.737	2181.94212
460.226	2101.61956
460.716	2132.85664
461.206	2101.88233
461.695	2025.02883
462.185	1951.75541
462.674	1992.65562
463.163	2022.57092
463.653	1937.34768
464.142	1930.82104
464.63	1880.80818
465.119	1793.58508
465.608	1818.62734
466.096	1773.42326
466.585	1830.62884
467.073	1755.68197
467.561	1683.64879
468.05	1698.55673
468.538	1693.73603
469.026	1591.53825
469.513	1550.14846
470.001	1674.58881
470.489	1667.69661
470.976	1525.36767
471.463	1564.68742
471.951	1461.55782
472.438	1505.4636
472.925	1413.40919
473.412	1443.5091
473.899	1380.26818
474.385	1384.4797
474.872	1334.26709
475.359	1345.44942
475.845	1306.98423
476.331	1271.04479
476.817	1203.21857
477.303	1202.12056
477.789	1192.19877
478.275	1176.25755
478.761	1191.22473
479.247	1105.90206
479.732	1149.2483
480.218	1080.21868
480.703	1063.09433
481.188	966.64044
481.673	1027.87463
482.158	1014.76579
482.643	987.04414
483.128	1042.92455
483.612	960.82667
484.097	948.90595
484.581	899.69924
485.066	947.90263
485.55	814.50494
486.034	923.6471
486.518	812.59031
487.002	868.82096
487.486	875.80058
487.969	864.77116
488.453	810.72382
488.936	820.56517
489.42	807.51985
489.903	789.68092
490.386	797.09372
490.869	746.38518
491.352	730.51709
491.835	749.32081
492.318	764.49758
492.8	765.38495
493.283	686.52287
493.765	698.50715
494.247	647.32857
494.73	655.26093
495.212	647.35366
495.694	642.33222
496.175	633.3366
496.657	614.28708
497.139	581.90417
497.62	572.23111
498.102	654.45538
498.583	589.32817
499.064	508.01902
499.545	569.16765
500.026	556.12937
500.507	533.12566
500.988	527.18771
501.469	539.22716
501.949	507.12673
502.43	570.2289
502.91	515.97979
503.39	486.10699
503.87	496.06912
504.35	470.00864
504.83	473.95858
505.31	476.05531
505.79	459.01819
506.269	522.10166
506.749	429.91033
507.228	472.01904
507.707	469.95004
508.187	496.07278
508.666	419.94599
509.145	415.90366
509.623	453.99266
510.102	439.98304
510.581	421.92799
511.059	500.15313
511.538	451.06364
512.016	483.07019
512.494	497.11543
512.972	398.87455
513.45	404.88176
513.928	431.97625
514.406	462.04375
514.884	398.95568
515.361	419.91972
515.839	472.99348
516.316	421.94624
516.793	400.94514
517.27	418.93622
517.747	456.08771
518.224	404.86533
518.701	448.92431
519.178	417.95988
519.654	380.84132
520.131	372.86128
520.607	398.91342
521.083	407.87006
521.56	354.78246
522.036	384.78943
522.512	366.83596
522.987	390.86921
523.463	396.88185
523.939	394.89047
524.414	370.80381
524.89	433.96123
525.365	360.75977
525.84	367.82253
526.315	362.82249
526.79	371.77834
527.265	369.79805
527.74	373.84628
528.215	453.00694
528.689	364.75708
529.164	419.85225
529.638	372.89632
530.112	363.80754
530.587	405.82152
531.061	347.7956
531.534	374.85594
532.008	363.82794
532.482	259.56496
532.956	336.80563
533.429	358.80846
533.903	313.65174
534.376	369.77688
534.849	328.71166
535.322	354.78834
535.795	327.74975
536.268	340.77533
536.741	290.65733
537.213	345.7487
537.686	302.69786
538.158	335.71802
538.631	313.70931
539.103	329.7079
539.575	313.61604
540.047	370.77025
540.519	320.71647
540.991	325.74188
541.463	328.74737
541.934	314.67519
542.406	303.67939
542.877	298.63141
543.348	209.47269
543.82	344.78698
544.291	299.6522
544.762	366.81539
545.233	345.8078
545.703	315.66145
546.174	413.8909
546.645	355.80153
547.115	422.94674
547.585	335.71554
548.056	375.83976
548.526	414.90282
548.996	449.98431
549.466	387.86984
549.935	440.96438
550.405	434.87733
550.875	450.9759
551.344	450.9838
551.814	449.9482
552.283	453.89202
552.752	483.00918
553.221	458.91269
553.69	464.92852
554.159	480.07523
554.628	526.06784
555.096	521.18564
555.565	529.08054
556.033	499.05834
556.502	460.02189
556.97	367.74955
557.438	382.83517
557.906	371.81849
558.374	305.66332
558.842	312.70546
559.31	311.66169
559.777	248.57514
560.245	241.53349
560.712	247.54381
561.18	271.57508
561.647	268.56785
562.114	304.66971
562.581	269.6205
563.048	266.58576
563.514	264.61829
563.981	272.5947
564.448	206.4445
564.914	216.47766
565.381	226.48995
565.847	263.5817
566.313	278.62065
566.779	267.58093
567.245	212.47116
567.711	271.61938
568.176	209.44933
568.642	207.49533
569.108	244.56989
569.573	245.54416
570.038	193.39311
570.504	238.51266
570.969	165.39076
571.434	176.3708
571.899	259.58409
572.363	247.53033
572.828	218.46757
573.293	243.53366
573.757	266.57371
574.222	281.59578
574.686	244.52242
575.15	253.57149
575.614	205.45097
576.078	220.48671
576.542	226.48514
577.006	272.5733
577.469	210.47833
577.933	235.50218
578.396	164.3716
578.86	237.52595
579.323	249.56383
579.786	217.4432
580.249	196.42619
580.712	240.54644
581.175	233.54239
581.637	222.4784
582.1	168.34616
582.563	231.46772
583.025	183.42248
583.487	241.46852
583.95	223.46
584.412	198.3931
584.874	239.54779
585.336	197.44482
585.797	190.39184
586.259	263.57903
586.721	215.48051
587.182	257.5568
587.643	176.37635
588.105	165.36587
588.566	191.37645
589.027	216.48921
589.488	180.38623
589.949	231.52308
590.41	209.39217
590.87	110.23552
591.331	231.46751
591.791	200.43618
592.252	192.41216
592.712	146.32799
593.172	171.36494
593.632	183.37002
594.092	195.40695
594.552	147.29641
595.011	154.33686
595.471	214.44828
595.931	128.27074
596.39	240.54025
596.849	181.39683
597.308	147.29532
597.768	206.49547
598.227	200.44708
598.685	134.28964
599.144	218.48027
599.603	186.4139
600.062	122.25002
600.52	185.39071
600.978	145.32741
601.437	182.39086
601.895	113.22681
602.353	130.27148
602.811	202.42502
603.269	205.45456
603.727	190.42735
604.184	179.38351
604.642	148.3393
605.099	240.52474
605.557	185.42182
606.014	184.37452
606.471	195.45805
606.928	184.3735
607.385	291.65598
607.842	356.74803
608.299	363.76727
608.755	250.55399
609.212	335.68699
609.668	258.53208
610.125	253.55912
610.581	288.61342
611.037	256.53436
611.493	180.39705
611.949	179.40303
612.405	251.48308
612.861	174.3806
613.316	197.44646
613.772	157.33695
614.227	134.29571
614.683	194.39037
615.138	147.32827
615.593	170.37829
616.048	191.41364
616.503	143.32579
616.958	189.44032
617.412	178.39774
617.867	152.32573
618.321	217.43052
618.776	165.34556
619.23	160.35486
619.684	216.46288
620.138	154.33201
620.592	155.3537
621.046	127.28079
621.5	182.41891
621.954	141.30183
622.407	162.34251
622.861	157.36447
623.314	138.29918
623.768	174.38478
624.221	136.25903
624.674	160.34983
625.127	91.20397
625.58	92.19869
626.033	89.18722
626.485	80.18715
626.938	97.22055
627.39	125.28075
627.843	99.21943
628.295	102.22585
628.747	100.23008
629.199	123.26911
629.651	100.22308
630.103	81.18141
630.555	104.21853
631.006	77.1755
631.458	101.23336
631.909	92.20345
632.361	39.09004
632.812	104.23508
633.263	55.11657
633.714	106.22519
634.165	42.09883
634.616	31.07234
635.067	33.07134
635.518	73.16967
635.968	116.2275
636.419	38.08164
636.869	18.04165
637.319	131.30231
637.769	34.07525
638.219	93.21676
638.669	16.03772
639.119	39.09219
639.569	63.14961
640.019	76.17074
640.468	54.11957
640.918	69.16063
641.367	94.20866
641.816	50.109
642.265	27.06134
642.714	45.10248
643.163	84.18871
643.612	51.12186
644.061	49.10303
644.51	59.13344
644.958	104.2271
645.406	75.17652
645.855	171.40903
646.303	86.19787
646.751	125.27937
647.199	63.14063
647.647	95.21425
648.095	81.18342
648.543	159.32312
648.99	135.31638
649.438	117.26408
649.885	119.28368
650.333	133.25696
650.78	168.39486
651.227	161.38217
651.674	118.26683
652.121	125.29889
652.568	147.35042
653.015	210.5114
653.461	94.21999
653.908	162.36512
654.354	134.31385
654.801	141.33082
655.247	140.2982
655.693	86.21886
656.139	157.37339
656.585	152.35907
657.031	174.40354
657.477	114.24789
657.922	148.33848
658.368	151.3678
658.813	156.35563
659.259	118.28016
659.704	103.23921
660.149	136.31479
660.594	96.22714
661.039	113.25495
661.484	98.23151
661.929	70.16286
662.373	117.2939
662.818	101.24841
663.262	91.21868
663.707	97.24287
664.151	125.29889
664.595	140.33814
665.039	85.20959
665.483	133.3378
665.927	97.2251
666.371	96.2267
666.814	130.30841
667.258	55.13192
667.701	126.27106
668.145	96.23763
668.588	76.18695
669.031	92.21893
669.474	88.21207
669.917	53.11821
670.36	105.25939
670.803	133.31899
671.245	131.28176
671.688	78.18889
672.13	114.26135
672.573	86.21685
673.015	106.25399
673.457	74.16515
673.899	114.27472
674.341	68.16468
674.783	114.27452
675.225	92.22815
675.666	77.18833
676.108	74.16098
676.549	79.1871
676.991	113.25276
677.432	147.30664
677.873	90.21022
678.314	125.29786
678.755	100.24599
679.196	143.33302
679.637	118.28834
680.078	95.22447
680.518	54.12712
680.959	6.0145
681.399	70.17454
681.839	79.19394
682.28	108.2688
682.72	96.22494
683.16	112.28018
683.6	98.22413
684.039	14.03007
684.479	86.21265
684.919	106.25128
685.358	66.16743
685.798	153.40201
686.237	100.24244
686.676	77.17756
687.115	78.18555
687.554	86.20741
687.993	96.21549
688.432	72.16745
688.871	101.23327
689.309	74.18002
689.748	73.15708
690.186	108.25957
690.625	79.18912
691.063	104.25337
691.501	103.25706
691.939	115.29054
692.377	128.31556
692.815	80.19469
693.253	125.29935
693.69	105.23487
694.128	95.23468
694.565	110.26408
695.003	106.2689
695.44	115.27509
695.877	93.22161
696.314	119.25936
696.751	110.25076
697.188	81.18767
697.625	80.18385
698.061	85.20821
698.498	98.23893
698.934	73.17802
699.371	81.19405
699.807	121.28855
700.243	58.14104
700.679	114.26041
701.115	56.13188
701.551	90.21302
701.987	156.35218
702.422	161.3835
702.858	127.30541
703.294	85.1924
703.729	126.30754
704.164	83.20074
704.599	128.28649
705.035	58.13308
705.47	86.20976
705.904	114.27056
706.339	143.33145
706.774	116.27552
707.209	117.27505
707.643	141.33831
708.078	95.23184
708.512	88.22236
708.946	141.33534
709.38	135.32169
709.814	182.41941
710.248	167.40693
710.682	189.4488
711.116	197.47499
711.549	192.49307
711.983	159.36926
712.416	171.40215
712.85	185.45817
713.283	140.32995
713.716	143.35338
714.149	181.4245
714.582	182.41037
715.015	189.46413
715.448	227.56176
715.881	184.39158
716.313	143.33
716.746	182.42727
717.178	150.36147
717.61	207.51359
718.043	227.55311
718.475	194.46236
718.907	184.45328
719.339	212.48152
719.77	260.6044
720.202	212.52839
720.634	264.63158
721.065	219.51603
721.497	269.64587
721.928	251.60701
722.359	215.51917
722.79	255.60317
723.221	252.61504
723.652	276.68438
724.083	283.62959
724.514	245.54868
724.945	275.6313
725.375	273.62947
725.806	267.63717
726.236	284.69752
726.666	307.70955
727.096	313.74949
727.526	324.79661
727.956	358.79229
728.386	321.76718
728.816	352.87341
729.246	316.74411
729.675	278.6643
730.105	354.8381
730.534	343.77412
730.964	399.95317
731.393	373.87266
731.822	370.89049
732.251	410.99158
732.68	372.8267
733.109	453.06299
733.537	389.89902
733.966	398.93823
734.395	425.92975
734.823	457.96636
735.251	437.99385
735.68	496.14934
736.108	493.16736
736.536	495.10002
736.964	466.01422
737.392	495.15313
737.82	476.04567
738.247	546.21228
738.675	481.05203
739.102	523.22848
739.53	552.2919
739.957	568.33509
740.384	569.27152
740.811	574.32823
741.238	586.29852
741.665	589.2452
742.092	659.40919
742.519	650.47034
742.945	673.44661
743.372	702.55583
743.798	650.51317
744.225	671.44354
744.651	687.5437
745.077	730.61458
745.503	739.60834
745.929	785.65286
746.355	709.51427
746.781	812.75424
747.207	759.56867
747.632	801.72125
748.058	774.67922
748.483	865.72337
748.908	851.82953
749.334	965.01359
749.759	889.81303
750.184	883.79997
750.609	889.84907
751.033	900.76124
751.458	927.72837
751.883	958.96666
752.307	1100.13152
752.732	1037.19831
753.156	1024.12041
753.58	1081.07923
754.005	1052.19779
754.429	1138.16041
754.853	1149.33056
755.277	1126.12414
755.7	1153.30059
756.124	1140.29816
756.548	1181.25797
756.971	1227.37875
757.394	1172.43908
757.818	1199.48928
758.241	1258.53408
758.664	1307.62633
759.087	1339.28841
759.51	1307.51863
759.933	1307.4146
760.356	1437.77104
760.778	1487.79715
761.201	1453.6535
761.623	1383.55296
762.046	1413.47208
762.468	1428.55238
762.89	1439.61997
763.312	1430.59765
763.734	1519.69164
764.156	1511.77911
764.578	1475.46478
765	1554.79985
765.421	1553.011
765.843	1622.11342
766.264	1562.68538
766.686	1538.82126
767.107	1683.90927
767.528	1608.99988
767.949	1629.96742
768.37	1632.90257
768.791	1670.8542
769.212	1572.95682
769.632	1615.69756
770.053	1653.18137
770.473	1649.85608
770.894	1664.91911
771.314	1593.67492
771.734	1654.73267
772.154	1674.095
772.575	1670.67077
772.994	1579.55869
773.414	1748.8768
773.834	1595.84149
774.254	1663.93315
774.673	1635.8228
775.093	1562.80014
775.512	1619.91973
775.931	1621.00026
776.351	1631.91484
776.77	1640.91985
777.189	1621.75303
777.607	1566.91129
778.026	1527.78502
778.445	1481.75207
778.864	1547.89345
779.282	1575.7671
779.701	1551.87837
780.119	1464.79851
780.537	1530.84553
780.955	1480.81296
781.373	1446.66769
781.791	1456.38345
782.209	1462.41316
782.627	1411.84072
783.045	1452.46094
783.462	1402.71814
783.88	1419.83091
784.297	1421.74142
784.715	1348.70327
785.132	1317.44758
785.549	1362.64417
785.966	1319.56233
786.383	1327.51719
786.8	1252.21143
787.217	1235.28343
787.633	1254.50418
788.05	1216.20424
788.466	1193.2099
788.883	1177.41011
789.299	1157.21621
789.715	1230.3795
790.131	1111.25644
790.547	1049.12551
790.963	1069.17985
791.379	1062.19921
791.795	1006.85423
792.21	1046.00646
792.626	977.90898
793.041	1017.08393
793.457	966.99021
793.872	978.89158
794.287	989.01101
794.702	894.85248
795.117	912.95275
795.532	846.83162
795.947	885.79753
796.362	812.6375
796.776	804.58426
797.191	827.76649
797.605	801.65039
798.02	765.64102
798.434	760.45607
798.848	753.63675
799.262	741.63381
799.676	763.6072
800.09	625.3629
800.504	675.4621
800.918	665.37787
801.331	608.42698
801.745	586.19854
802.158	633.42865
802.572	558.21019
802.985	578.26534
803.398	572.2406
803.811	566.30659
804.224	541.22278
804.637	509.11666
805.05	487.04587
805.462	555.2565
805.875	472.14994
806.288	367.83537
806.7	468.09291
807.112	453.97843
807.525	429.98592
807.937	422.98358
808.349	396.92482
808.761	362.83447
809.173	416.94821
809.584	343.7921
809.996	389.90901
810.408	345.85557
810.819	387.87269
811.231	390.97506
811.642	417.96562
812.053	471.05871
812.464	489.08306
812.875	428.03131
813.286	358.87042
813.697	300.65175
814.108	289.67246
814.519	311.65593
814.929	261.6338
815.34	288.66921
815.75	268.65823
816.16	282.6736
816.571	318.79425
816.981	212.48055
817.391	255.59827
817.801	220.53315
818.211	210.48471
818.62	206.48945
819.03	220.52653
819.44	227.57243
819.849	217.53505
820.259	180.44669
820.668	168.40806
821.077	194.47703
821.486	204.48302
821.895	154.37083
822.304	142.36976
822.713	144.33648
823.122	136.33368
823.531	154.35716
823.939	128.30963
824.348	140.33597
824.756	115.28534
825.164	121.2988
825.573	127.31684
825.981	107.25966
826.389	139.34552
826.797	172.42824
827.205	135.31129
827.612	109.2655
828.02	84.19959
828.428	111.27933
828.835	125.32444
829.243	107.25243
829.65	54.13479
830.057	76.18273
830.464	82.19881
830.871	124.29077
831.278	82.19776
831.685	116.25845
832.092	94.23004
832.499	66.14577
832.905	97.24331
833.312	60.13739
833.718	93.22898
834.124	38.08691
834.531	101.25252
834.937	76.19389
835.343	79.1907
835.749	35.08199
836.155	85.22244
836.561	11.02715
836.966	44.10752
837.372	75.19137
837.777	54.13484
838.183	58.13035
838.588	77.19175
838.993	35.08465
839.399	121.29781
839.804	46.11362
840.209	63.16126
840.613	49.11028
841.018	45.11438
841.423	37.09517
841.828	50.12643
842.232	46.11324
842.637	36.08564
843.041	11.02855
843.445	47.11862
843.849	63.15655
844.253	56.13291
844.657	14.03583
845.061	47.10695
845.465	48.11799
845.869	27.06352
846.272	59.14543
846.676	-26.06254
847.079	14.03621
847.483	12.02993
847.886	57.13822
848.289	36.09665
848.692	54.13601
849.095	65.15643
849.498	62.15471
849.901	49.11304
850.304	40.0953
850.707	38.09677
851.109	40.10021
851.512	41.10236
851.914	49.12679
852.316	49.12441
852.718	75.19827
853.121	68.16832
853.523	108.2577
853.925	20.0529
854.326	32.08115
854.728	29.07517
855.13	-9.02351
855.531	82.19866
855.933	51.12302
856.334	44.11015
856.736	44.10184
857.137	49.11555
857.538	58.14776
857.939	34.08576
858.34	26.06384
858.741	34.08923
859.142	9.02177
859.542	-29.07764
859.943	48.12112
860.343	34.08598
860.744	-4.00985
861.144	54.132
861.544	17.04212
861.945	39.10025
862.345	30.07369
862.745	16.03991
863.145	33.07849
863.544	32.08141
863.944	66.15803
864.344	22.05456
864.743	-2.00498
865.143	54.13989
865.542	16.0379
865.941	17.04226
866.34	0
866.74	35.09395
867.139	26.06287
867.537	20.05131
867.936	2.00488
868.335	9.02302
868.734	13.03359
869.132	-11.026
869.531	-2.0048
869.929	28.06563
870.327	37.09033
870.726	22.05468
871.124	-3.00704
871.522	25.0637
871.92	6.015
872.318	-23.05671
872.715	29.07109
873.113	18.04438
873.511	-54.13479
873.908	-52.13411
874.306	19.04804
874.703	4.01008
875.1	4.01021
875.497	-19.04635
875.894	-6.0151
876.291	-45.11109
876.688	-9.0235
877.085	33.07936
877.482	26.06561
877.878	5.01229
878.275	-22.05658
878.671	-15.03326
879.068	29.07035
879.464	57.139
879.86	34.08181
880.256	23.05686
880.652	10.0259
881.048	46.11391
881.444	-15.03594
881.84	32.0821
882.236	-8.02029
882.631	-3.00742
883.027	11.02656
883.422	23.05964
883.817	17.04376
884.213	17.04409
884.608	41.10277
885.003	63.15426
885.398	-32.08187
885.793	22.05581
886.188	37.09358
886.582	45.11531
886.977	33.07921
887.371	-20.05045
887.766	6.01515
888.16	43.1079
888.554	-25.06165
888.949	21.0527
889.343	22.05408
889.737	4.01082
890.131	5.0127
890.525	32.08284
890.918	25.06357
891.312	9.02162
891.706	-2.00527
892.099	10.02553
892.492	4.00871
892.886	37.09231
893.279	-6.01562
893.672	12.03094
894.065	45.11267
894.458	18.04526
894.851	-10.02445
895.244	16.04144
895.637	24.05814
896.029	38.09424
896.422	-29.07204
896.814	64.16085
897.206	10.02423
897.599	56.13715
897.991	9.02213
898.383	36.08511
898.775	-18.04147
899.167	16.03825
899.559	14.03535
899.951	15.03592
900.342	-4.0103
900.734	-10.02549
901.125	46.12179
901.517	-3.00741
901.908	58.13792
902.299	39.09747
902.69	23.05491
903.082	11.02647
903.473	-5.01228
903.863	-17.04359
904.254	4.00937
904.645	-14.03473
905.036	-4.00989
905.426	19.04393
905.817	9.02242
906.207	29.07048
906.597	2.00476
906.987	-4.01031
907.378	-4.01019
907.768	15.03996
908.158	23.05651
908.547	36.09464
908.937	-4.01024
909.327	3.00734
909.717	19.04802
910.106	44.10752
910.495	17.04244
910.885	27.06892
911.274	15.0379
911.663	50.12603
912.052	-3.00742
912.441	18.04644
912.83	27.06323
913.219	31.08071
913.608	-9.02199
913.997	-3.00768
914.385	31.07495
914.774	2.00492
915.162	27.06555
915.55	-12.02915
915.939	-11.02818
916.327	-40.09992
916.715	34.08839
917.103	8.01979
917.491	48.11886
917.878	52.12891
918.266	-1.0026
918.654	53.13519
919.041	-21.05546
919.429	-14.03334
919.816	4.01023
920.203	16.03917
920.591	-4.00996
920.978	20.0492
921.365	-29.07713
921.752	-13.03136
922.139	7.01536
922.525	55.13552
922.912	-3.00737
923.299	52.13135
923.685	-12.03148
924.072	-4.00933
924.458	2.00502
924.844	60.15037
925.231	34.08016
925.617	5.01304
926.003	32.08187
926.389	-1.00254
926.774	-5.01281
927.16	21.05254
927.546	-23.0597
927.931	56.14065
928.317	5.01167
928.702	15.03552
929.088	32.07764
929.473	21.05387
929.858	11.02739
930.243	12.02917
930.628	20.04965
931.013	-14.03523
931.398	-2.00458
931.783	-13.03409
932.167	-2.00491
932.552	-7.0175
932.937	-7.0175
933.321	33.08391
933.705	-25.06384
934.09	-19.04754
934.474	39.09326
934.858	-36.09384
935.242	-21.04947
935.626	10.02589
936.009	16.04293
936.393	-19.0486
936.777	-21.05396
937.16	-17.04491
937.544	-17.04018
937.927	-21.05392
938.311	23.05625
938.694	-29.07679
939.077	9.02196
939.46	-12.02949
939.843	6.01266
940.226	23.05962
940.609	62.14476
940.991	-4.01035
941.374	-9.02227
941.757	36.08963
942.139	1.00227
942.522	16.03775
942.904	-18.04366
943.286	10.02548
943.668	57.1483
944.05	15.03753
944.432	40.10025
944.814	61.1518
945.196	35.08738
945.578	15.03673
945.959	48.11313
946.341	20.04864
946.722	21.04927
947.104	-13.03132
947.485	50.11839
947.866	23.05877
948.247	50.12675
948.628	37.09056
949.009	25.06464
949.39	8.01994
949.771	35.08196
950.152	-18.045
950.532	-13.03281
950.913	54.1321
951.293	7.01918
951.674	12.02927
952.054	-12.03012
952.434	33.08191
952.814	-33.07834
953.194	0
953.574	12.02949
953.954	39.09351
954.334	-6.01511
954.714	10.02474
955.093	-21.05152
955.473	-3.00759
955.853	11.02842
956.232	-9.02461
956.611	10.02394
956.99	-49.12375
957.37	6.01536
957.749	24.05757
958.128	-17.04316
958.506	-1.00263
958.885	-9.02296
959.264	26.06492
959.643	-5.01166
960.021	-27.06763
960.4	-11.02531
960.778	10.0245
961.156	-27.06909
961.535	4.00942
961.913	52.12218
962.291	-2.00523
962.669	-59.15002
963.047	41.10502
963.424	-34.08799
963.802	9.02227
964.18	-7.01777
964.557	50.1161
964.935	18.04265
965.312	-1.00265
965.69	5.01262
966.067	23.05634
966.444	20.0494
966.821	4.01028
967.198	-16.03879
967.575	-22.05432
967.952	-18.04236
968.329	3.00737
968.705	54.11787
969.082	51.13228
969.458	17.04132
969.835	-37.0905
970.211	16.04148
970.587	1.00251
970.963	9.02319
971.339	-18.04756
971.715	12.03019
972.091	25.06205
972.467	6.01503
972.843	0
973.219	26.06211
973.594	-13.03449
973.97	41.09778
974.345	10.02431
974.721	26.06315
975.096	9.0221
975.471	-67.15923
975.846	11.0268
976.221	14.03627
976.596	20.04867
976.971	-8.01975
977.346	23.05373
977.72	5.01268
978.095	-28.07269
978.469	4.0096
978.844	-3.00753
979.218	26.06365
979.593	-11.02633
979.967	6.01484
980.341	8.01877
980.715	20.05038
981.089	-8.02034
981.463	14.03265
981.837	-8.01991
982.21	-33.07607
982.584	29.07088
982.957	-13.03296
983.331	39.09233
983.704	10.02496
984.078	-14.03485
984.451	-37.09167
984.824	30.07461
985.197	41.09983
985.57	15.03779
985.943	-7.01724
986.316	22.0541
986.688	19.04602
987.061	33.07821
987.434	-24.06292
987.806	7.01697
988.179	39.09386
988.551	47.11938
988.923	-7.01723
989.295	47.11768
989.667	34.08348
990.039	6.01504
990.411	-3.00701
990.783	-12.02759
991.155	47.1153
991.527	14.03397
991.898	-12.03021
992.27	20.05025
992.641	6.01512
993.012	7.01665
993.384	33.07942
993.755	13.0334
994.126	-11.02675
994.497	30.07483
994.868	-6.01393
995.239	7.01714
995.61	17.04342
995.98	8.01979
996.351	33.08296
996.722	-25.0596
997.092	-25.06024
997.462	16.03849
997.833	8.01894
998.203	5.01218
998.573	-30.07575
998.943	-4.00958
999.313	-13.03128
999.683	-19.04623
1000.053	1.00232
1000.423	-2.00488
1000.792	36.09435
1001.162	43.10623
1001.531	-8.01997
1001.901	-13.03268
1002.27	20.04548
1002.639	19.04881
1003.009	-12.02903
1003.378	-6.01541
1003.747	18.04298
1004.116	-19.04639
1004.485	-47.1135
1004.853	4.01017
1005.222	22.05591
1005.591	60.14246
1005.959	45.10492
1006.328	15.03445
1006.696	-50.12259
1007.064	5.01276
1007.433	-21.05262
1007.801	-5.01222
1008.169	44.11202
1008.537	-13.02896
1008.905	-7.01665
1009.273	13.03235
1009.64	0
1010.008	42.10072
1010.375	-38.09099
1010.743	28.06496
1011.11	6.01444
1011.478	-44.10995
1011.845	45.10575
1012.212	37.08525
1012.579	-8.01983
1012.946	29.0695
1013.313	-25.05962
1013.68	-9.02041
1014.047	-14.03448
1014.414	4.0096
1014.78	12.02994
1015.147	6.01451
1015.513	4.00975
1015.88	24.06125
1016.246	-16.03984
1016.612	35.08068
1016.978	8.01987
1017.344	-34.08524
1017.71	-6.01448
1018.076	30.07068
1018.442	25.06426
1018.808	69.17245
1019.174	15.0381
1019.539	39.08871
1019.905	-39.09354
1020.27	-9.02257
1020.636	-48.11655
1021.001	24.05827
1021.366	-64.15627
1021.731	28.07216
1022.096	-30.07637
1022.461	-14.03314
1022.826	15.0362
1023.191	-30.07951
1023.556	7.0166
1023.92	-25.06178
1024.285	-16.03932
1024.649	4.00983
1025.014	-16.03979
1025.378	2.0051
1025.742	-6.01507
1026.107	25.05687
1026.471	-46.10842
1026.835	1.00248
1027.199	-9.02211
1027.562	13.03075
1027.926	-14.03436
1028.29	7.01808
1028.654	6.01404
1029.017	-18.04448
1029.381	45.10998
1029.744	46.1181
1030.107	-41.09748
1030.471	-7.01692
1030.834	-15.03456
1031.197	-3.00721
1031.56	-30.07158
1031.923	-24.06269
1032.286	-60.14174
1032.648	1.00242
1033.011	-2.00473
1033.374	-7.01646
1033.736	1.00267
1034.099	35.0864
1034.461	5.01294
1034.823	7.01762
1035.185	44.11118
1035.548	-2.00493
1035.91	30.07282
1036.272	-21.04883
1036.634	-11.02691
1036.995	-46.10934
1037.357	10.02454
1037.719	9.0219
1038.08	-54.1291
1038.442	-9.02163
1038.803	-9.02202
1039.165	-53.13552
1039.526	-29.07085
1039.887	20.04833
1040.248	-8.02027
1040.609	0
1040.97	45.1117
1041.331	7.01773
1041.692	-23.05506
1042.053	4.00917
1042.413	30.06988
1042.774	18.04389
1043.134	-44.10535
1043.495	-30.07619
1043.855	23.0559
1044.215	4.00991
1044.576	-19.04663
1044.936	-47.10816
1045.296	-2.00501
1045.656	10.02471
1046.016	19.04613
1046.375	39.09603
1046.735	48.11088
1047.095	1.00238
1047.454	8.01697
1047.814	-49.11851
1048.173	-16.03816
1048.533	26.0602
1048.892	12.02949
1049.251	3.00754
1049.61	-15.03753
1049.969	-68.16275
1050.328	-56.12462
1050.687	38.09306
1051.046	-18.04425
1051.405	17.04254
1051.763	1.00234
1052.122	51.12889
1052.48	-13.03203
1052.839	34.08057
1053.197	-64.15271
1053.555	-10.02251
1053.914	-4.00989
1054.272	-16.03881
1054.63	-3.0075
1054.988	-42.10152
1055.345	27.05912
1055.703	-1.0024
1056.061	-25.06509
1056.419	-23.06027
1056.776	-43.10505
1057.134	8.01882
1057.491	-19.048
1057.848	28.06992
1058.206	-49.11797
1058.563	9.02025
1058.92	13.03012
1059.277	-31.07678
1059.634	-9.02156
1059.991	-36.0862
1060.348	-8.01871
1060.704	-22.05346
1061.061	-37.08484
1061.418	-9.02227
1061.774	12.02992
1062.131	-35.0937
1062.487	18.04229
1062.843	-18.04545
1063.199	28.06949
1063.555	15.03504
1063.911	27.06877
1064.267	48.09997
1064.623	17.04184
1064.979	5.01169
1065.335	-38.09043
1065.691	-21.05031
1066.046	-15.03323
1066.402	25.05781
1066.757	-6.01512
1067.112	-57.14009
1067.468	-27.06528
1067.823	3.00729
1068.178	-10.02434
1068.533	-44.10776
1068.888	34.08181
1069.243	-10.02496
1069.598	27.06628
1069.952	-20.04662
1070.307	3.00756
1070.662	-8.01942
1071.016	-6.01384
1071.371	-27.06258
1071.725	-24.05792
1072.079	-33.07978
1072.434	-6.01479
1072.788	76.18301
1073.142	39.09567
1073.496	71.17236
1073.85	-30.07043
1074.203	-42.10217
1074.557	-13.03495
1074.911	27.06417
1075.265	-7.01643
1075.618	23.0564
1075.971	16.03846
1076.325	7.01802
1076.678	17.04018
1077.031	-32.07463
1077.385	-25.05659
1077.738	75.17225
1078.091	15.03521
1078.444	3.00707
1078.796	-14.03476
1079.149	-4.00998
1079.502	-1.00242
1079.855	64.15049
1080.207	-4.00987
1080.56	41.10689
1080.912	21.05152
1081.264	-7.01708
1081.617	60.14814
1081.969	37.09458
1082.321	27.06687
1082.673	31.07276
1083.025	-44.10563
1083.377	-75.16492
1083.728	15.03528
1084.08	38.09578
1084.432	24.05876
1084.783	-30.07057
1085.135	3.00761
1085.486	47.10954
1085.838	16.03971
1086.189	12.02945
1086.54	-6.01436
1086.891	22.05648
1087.242	-14.03443
1087.593	-28.06801
1087.944	-3.00698
1088.295	-4.00911
1088.646	-1.00245
1088.996	15.03682
1089.347	-12.02977
1089.698	15.03643
1090.048	-5.01302
1090.398	-7.01642
1090.749	0
1091.099	24.06099
1091.449	-34.08542
1091.799	41.10369
1092.149	9.02266
1092.499	-21.05134
1092.849	-23.05918
1093.199	-16.04005
1093.548	-2.00484
1093.898	42.10621
1094.248	-55.14251
1094.597	-34.08914
1094.947	-5.01342
1095.296	26.06481
1095.645	14.03638
1095.994	23.05609
1096.343	-29.07384
1096.692	-19.05104
1097.041	-18.04951
1097.39	15.03773
1097.739	-17.0442
1098.088	10.02684
1098.437	4.01063
1098.785	33.08942
1099.134	-15.04007
1099.482	-8.02205
1099.83	-30.07876
1100.179	10.0263
1100.527	28.07495
1100.875	-22.05891
1101.223	-19.05058
1101.571	-10.02797
1101.919	-35.09361
1102.267	-14.03966
1102.615	6.0193
1102.962	1.00322
1103.31	6.01931
1103.658	-1.00322
