Data from N1 R0 sample 5_Subt2__5__11-55-39-263.txt Node

Date: Tue Sep 16 11:55:39 PDT 2025
User: uwsun
Spectrometer: HDX01956
Trigger mode: 0
Integration Time (sec): 5.000000E-1
Scans to average: 1
Nonlinearity correction enabled: true
Boxcar width: 0
Storing dark spectrum: false
XAxis mode: Wavelengths
Number of Pixels in Spectrum: 2068
>>>>>Begin Spectral Data<<<<<
194.03	-4.01162
194.578	6.01949
195.127	-1.00321
195.676	9.02893
196.225	13.03464
196.773	7.01954
197.321	2.0056
197.87	20.05222
198.418	78.20311
198.966	66.17603
199.513	94.24108
200.061	53.13681
200.609	39.10459
201.156	63.1404
201.704	16.04118
202.251	56.15089
202.798	48.12636
203.345	101.25225
203.892	78.19948
204.438	76.18266
204.985	22.05354
205.532	40.10693
206.078	45.1119
206.624	90.22831
207.17	114.26941
207.716	60.14966
208.262	23.04702
208.808	62.15828
209.354	90.22514
209.899	43.11015
210.445	88.2226
210.99	37.09224
211.535	71.17003
212.08	65.1534
212.625	65.16463
213.17	94.24175
213.715	107.24693
214.259	76.18009
214.804	62.1542
215.348	80.18767
215.892	71.17495
216.436	16.03745
216.98	96.21283
217.524	79.19142
218.068	98.24931
218.612	122.31146
219.155	79.18912
219.698	87.20906
220.242	74.18445
220.785	96.22749
221.328	37.09294
221.871	106.27137
222.414	44.11039
222.956	-17.04175
223.499	53.11992
224.041	34.07904
224.583	12.0259
225.126	23.05151
225.668	58.14252
226.21	108.27407
226.751	59.13333
227.293	24.05531
227.835	33.08218
228.376	53.12202
228.918	15.03799
229.459	44.11122
230	81.19605
230.541	39.09108
231.082	92.22514
231.622	35.08042
232.163	49.11958
232.704	84.21158
233.244	51.12797
233.784	9.02222
234.324	100.22631
234.864	47.10764
235.404	75.17776
235.944	49.11676
236.484	70.17606
237.023	67.15929
237.563	108.25167
238.102	51.12209
238.641	27.06882
239.18	20.04785
239.719	49.12402
240.258	98.22097
240.797	96.23021
241.335	61.14964
241.874	105.20578
242.412	124.30108
242.95	59.14425
243.488	13.02979
244.026	75.17611
244.564	73.15201
245.102	99.22555
245.64	56.13506
246.177	24.05431
246.715	43.10474
247.252	22.05084
247.789	30.05692
248.326	66.16068
248.863	67.14925
249.4	93.21188
249.936	120.25204
250.473	121.28623
251.009	50.11601
251.546	104.23344
252.082	-9.01996
252.618	72.16275
253.154	60.14601
253.69	62.14066
254.226	106.25448
254.761	79.17882
255.297	28.06233
255.832	48.11576
256.367	76.18003
256.903	121.26943
257.438	52.12341
257.972	37.08382
258.507	80.18488
259.042	110.24
259.576	66.14809
260.111	70.16222
260.645	71.15508
261.179	77.18201
261.713	81.18305
262.247	43.09963
262.781	54.11572
263.315	37.091
263.849	56.14176
264.382	63.14631
264.915	102.24245
265.449	23.05713
265.982	93.21248
266.515	101.24859
267.048	71.15238
267.58	48.10513
268.113	95.20679
268.646	29.07206
269.178	71.16032
269.71	95.21171
270.243	131.3034
270.775	116.29791
271.307	27.06525
271.838	51.12195
272.37	62.15342
272.902	32.07377
273.433	109.24281
273.965	51.12543
274.496	69.17239
275.027	80.20063
275.558	69.17014
276.089	95.23855
276.62	54.13752
277.15	62.15392
277.681	61.13301
278.211	61.15025
278.741	117.26063
279.272	39.09086
279.802	77.19287
280.332	93.22102
280.861	45.10908
281.391	76.17452
281.921	78.18783
282.45	58.1453
282.98	86.22525
283.509	118.26933
284.038	108.24829
284.567	112.26171
285.096	124.30097
285.625	54.12325
286.153	140.33405
286.682	95.21993
287.21	18.04369
287.739	103.2444
288.267	122.29745
288.795	45.11892
289.323	78.18512
289.851	94.22283
290.378	9.02055
290.906	80.19759
291.433	93.23311
291.961	100.23018
292.488	81.20237
293.015	121.28645
293.542	127.32667
294.069	127.315
294.596	57.14097
295.122	113.27216
295.649	51.11351
296.175	116.27965
296.702	102.25091
297.228	97.23477
297.754	93.21111
298.28	114.26376
298.806	52.12721
299.332	102.23027
299.857	90.20666
300.383	85.21528
300.908	76.18895
301.433	115.28305
301.958	97.22412
302.483	71.17777
303.008	123.30664
303.533	58.15129
304.058	109.25525
304.582	86.20529
305.107	14.03713
305.631	79.1813
306.155	93.21872
306.679	81.1928
307.203	90.21113
307.727	91.21768
308.251	116.28724
308.775	128.31242
309.298	113.27391
309.822	59.15012
310.345	93.2245
310.868	98.2384
311.391	148.36379
311.914	72.18252
312.437	116.2669
312.96	92.21902
313.482	59.14086
314.005	66.16671
314.527	35.09243
315.049	110.27984
315.571	108.24551
316.093	90.22498
316.615	63.1534
317.137	109.23999
317.659	97.23698
318.18	76.18336
318.702	145.34034
319.223	53.11066
319.744	142.3207
320.265	110.26999
320.786	151.37712
321.307	94.2343
321.828	157.35422
322.348	126.29811
322.869	106.25496
323.389	399.74208
323.909	129.29627
324.43	120.28831
324.95	100.23165
325.47	134.33339
325.989	164.38862
326.509	120.27146
327.029	135.3103
327.548	97.22278
328.067	123.3005
328.587	161.40325
329.106	94.21472
329.625	140.36443
330.144	182.42192
330.662	145.34194
331.181	130.30889
331.7	115.26972
332.218	129.28271
332.736	142.33402
333.255	160.37738
333.773	124.29497
334.291	179.44607
334.808	115.26243
335.326	129.29235
335.844	178.41837
336.361	174.44685
336.879	166.39138
337.396	226.5446
337.913	134.31225
338.43	154.34908
338.947	141.33882
339.464	170.36808
339.981	149.35478
340.497	149.36726
341.014	128.31428
341.53	132.30067
342.046	227.56115
342.562	173.43034
343.078	187.43926
343.594	204.48209
344.11	195.46537
344.626	204.5114
345.141	229.51918
345.657	186.42093
346.172	207.49646
346.687	174.39986
347.202	242.54698
347.717	237.55865
348.232	196.48568
348.747	240.54843
349.261	208.45574
349.776	210.49665
350.29	187.46702
350.805	193.47483
351.319	188.43652
351.833	249.56658
352.347	227.53155
352.861	228.53065
353.374	213.48173
353.888	217.52677
354.401	203.46061
354.915	233.52267
355.428	245.60253
355.941	176.4106
356.454	230.50755
356.967	200.46475
357.48	211.47604
357.993	280.6747
358.505	216.5209
359.018	287.68856
359.53	280.67062
360.042	293.64318
360.554	301.71994
361.066	216.52129
361.578	274.59628
362.09	244.57347
362.602	245.54122
363.113	248.57696
363.625	288.64165
364.136	261.5657
364.647	322.74347
365.158	251.57691
365.669	266.62468
366.18	291.67044
366.691	290.62305
367.201	315.73526
367.712	328.73075
368.222	306.6888
368.733	294.62702
369.243	315.68768
369.753	284.64216
370.263	369.85924
370.773	263.62907
371.282	343.79399
371.792	336.75631
372.301	275.65148
372.811	330.83937
373.32	355.74445
373.829	288.66472
374.338	342.73729
374.847	394.87231
375.356	354.80628
375.865	412.84508
376.373	414.89938
376.882	400.96923
377.39	406.93624
377.898	386.90995
378.407	440.94893
378.915	501.02556
379.423	477.04238
379.93	520.12622
380.438	497.11726
380.946	547.17848
381.453	568.25753
381.96	600.31301
382.468	615.3201
382.975	696.53293
383.482	689.38185
383.989	730.67882
384.495	806.64546
385.002	796.45255
385.509	851.76057
386.015	932.59616
386.521	909.7592
387.028	1002.89105
387.534	991.75058
388.04	1062.10846
388.546	1004.83117
389.051	1150.01165
389.557	1184.17421
390.063	1234.17049
390.568	1277.39171
391.073	1294.19287
391.578	1454.65467
392.084	1488.46445
392.589	1523.34134
393.093	1761.88654
393.598	1875.8197
394.103	1995.03957
394.607	2195.21324
395.112	2337.38758
395.616	2518.40053
396.12	2705.13497
396.624	2986.32958
397.128	3258.45543
397.632	3638.24104
398.136	3822.04629
398.639	4147.05648
399.143	4668.17878
399.646	5320.47872
400.15	5842.08825
400.653	6531.75595
401.156	7449.79293
401.659	8593.99135
402.162	10792.44405
402.664	14764.29599
403.167	23300.3803
403.67	55268.03433
404.172	62695.20931
404.674	63858.43483
405.176	63738.15102
405.678	63977.72923
406.18	64011.81569
406.682	63863.44694
407.184	63926.60148
407.686	63841.39382
408.187	47375.91534
408.688	29257.17263
409.19	21273.69859
409.691	17546.54874
410.192	14534.83883
410.693	12889.15081
411.194	11835.32506
411.694	11149.78888
412.195	10151.13841
412.696	9292.04342
413.196	8735.89368
413.696	8592.93239
414.196	8690.88698
414.696	8315.73877
415.196	7721.05443
415.696	6708.64138
416.196	5350.37562
416.695	4332.97125
417.195	3894.3005
417.694	3817.46459
418.194	3428.67419
418.693	3301.13889
419.192	3116.33918
419.691	3017.26076
420.19	3073.45129
420.688	3028.56843
421.187	2742.59675
421.685	2564.19709
422.184	2299.17731
422.682	2023.69538
423.18	1726.70256
423.678	1598.56891
424.176	1519.48806
424.674	1322.20939
425.172	1304.33936
425.669	1237.37324
426.167	1207.18401
426.664	1047.92083
427.161	970.84126
427.659	910.86302
428.156	885.57425
428.652	763.68515
429.149	766.62235
429.646	731.42234
430.143	727.53197
430.639	686.44074
431.135	643.44416
431.632	629.28749
432.128	527.16155
432.624	596.39716
433.12	554.15038
433.616	546.08934
434.111	476.04743
434.607	455.01348
435.103	465.90144
435.598	480.92096
436.093	456.98807
436.588	398.84327
437.083	411.86415
437.578	380.83185
438.073	396.93569
438.568	345.80906
439.062	359.72788
439.557	316.70664
440.051	269.58379
440.546	288.62914
441.04	306.70429
441.534	268.65141
442.028	330.758
442.522	258.5988
443.015	233.48538
443.509	273.63974
444.002	298.699
444.496	212.44861
444.989	287.6686
445.482	274.653
445.975	264.58891
446.468	256.53555
446.961	309.64083
447.454	225.49038
447.947	243.56165
448.439	294.69124
448.931	303.66513
449.424	285.69648
449.916	263.61848
450.408	229.5082
450.9	222.5236
451.392	205.50696
451.884	188.42251
452.375	187.45225
452.867	257.55656
453.358	197.44046
453.849	196.4093
454.341	166.36817
454.832	170.36052
455.323	252.60564
455.814	170.38127
456.304	179.40534
456.795	204.45357
457.285	192.41251
457.776	192.42689
458.266	163.37945
458.756	124.2894
459.247	189.44101
459.737	209.49151
460.226	204.45263
460.716	181.42268
461.206	139.32741
461.695	156.37806
462.185	177.41074
462.674	199.44273
463.163	233.50523
463.653	210.43426
464.142	156.3708
464.63	184.43466
465.119	178.4043
465.608	199.45355
466.096	152.32404
466.585	178.39692
467.073	112.26119
467.561	128.30249
468.05	160.36076
468.538	133.3196
469.026	109.25555
469.513	121.2524
470.001	181.40553
470.489	141.3294
470.976	169.38612
471.463	156.38019
471.951	119.29138
472.438	114.26439
472.925	145.33515
473.412	141.33573
473.899	184.41097
474.385	125.30129
474.872	137.31402
475.359	164.39416
475.845	149.30293
476.331	119.25022
476.817	113.27133
477.303	147.33518
477.789	82.19386
478.275	116.28377
478.761	112.26243
479.247	73.16221
479.732	133.32614
480.218	155.39758
480.703	73.17868
481.188	119.25441
481.673	66.15131
482.158	151.32016
482.643	112.2822
483.128	135.30968
483.612	146.34142
484.097	79.18912
484.581	107.24476
485.066	147.3531
485.55	124.27055
486.034	110.23593
486.518	151.35442
487.002	33.08032
487.486	55.13312
487.969	73.17629
488.453	88.21687
488.936	78.17472
489.42	123.26831
489.903	30.07472
490.386	23.04796
490.869	170.36383
491.352	101.24021
491.835	100.2028
492.318	100.22253
492.8	147.29873
493.283	134.33606
493.765	80.19469
494.247	108.24839
494.73	177.38184
495.212	75.17666
495.694	133.30839
496.175	124.29361
496.657	165.38168
497.139	181.30138
497.62	172.40379
498.102	156.38019
498.583	160.38396
499.064	168.36577
499.545	164.36525
500.026	245.53284
500.507	199.44438
500.988	303.72112
501.469	201.48592
501.949	286.674
502.43	303.69474
502.91	403.79169
503.39	337.78938
503.87	421.92333
504.35	457.98242
504.83	419.84565
505.31	481.06044
505.79	491.05765
506.269	569.16713
506.749	623.25678
507.228	721.47208
507.707	699.3503
508.187	827.67732
508.666	850.78943
509.145	903.75423
509.623	1003.9054
510.102	1140.17991
510.581	1254.32613
511.059	1354.59021
511.538	1432.77381
512.016	1594.68885
512.494	1675.77444
512.972	1788.85993
513.45	1961.87496
513.928	2138.17206
514.406	2196.24841
514.884	2456.65782
515.361	2547.25783
515.839	2693.07562
516.316	2864.40415
516.793	3050.65902
517.27	3177.32868
517.747	3239.77859
518.224	3313.03151
518.701	3370.76277
519.178	3566.54446
519.654	3565.14651
520.131	3571.46602
520.607	3555.36604
521.083	3407.90258
521.56	3428.15209
522.036	3338.68419
522.512	3293.49802
522.987	3261.33605
523.463	3078.24753
523.939	3003.55033
524.414	2851.04536
524.89	2751.28304
525.365	2678.96807
525.84	2497.27184
526.315	2327.25142
526.79	2156.83201
527.265	2151.94153
527.74	2024.09435
528.215	1870.81455
528.689	1747.48995
529.164	1735.40385
529.638	1574.88326
530.112	1572.60038
530.587	1452.18502
531.061	1364.47606
531.534	1314.40056
532.008	1269.3732
532.482	1200.12359
532.956	1119.30044
533.429	1094.15001
533.903	1063.83632
534.376	979.74728
534.849	875.67879
535.322	904.77658
535.795	856.74764
536.268	801.66147
536.741	779.58633
537.213	791.54803
537.686	708.51702
538.158	716.40997
538.631	682.45246
539.103	669.32129
539.575	580.05395
540.047	526.03186
540.519	595.27163
540.991	551.21554
541.463	511.11964
541.934	522.06598
542.406	454.00603
542.877	465.96261
543.348	480.06376
543.82	464.0389
544.291	468.00262
544.762	486.05962
545.233	420.99468
545.703	379.78845
546.174	369.80351
546.645	403.91173
547.115	366.83225
547.585	416.8891
548.056	392.90505
548.526	318.71815
548.996	300.68441
549.466	291.67658
549.935	329.74647
550.405	335.69537
550.875	309.69939
551.344	286.65274
551.814	271.59589
552.283	306.63532
552.752	313.69892
553.221	316.66311
553.69	366.77853
554.159	296.70596
554.628	279.60678
555.096	324.78601
555.565	232.4963
556.033	339.76697
556.502	263.61101
556.97	266.56879
557.438	263.59408
557.906	238.5432
558.374	281.62488
558.842	282.64802
559.31	291.62264
559.777	247.58358
560.245	240.53183
560.712	219.48662
561.18	235.50305
561.647	228.48943
562.114	269.59224
562.581	284.67033
563.048	276.60625
563.514	323.77255
563.981	243.53747
564.448	287.62046
564.914	241.54061
565.381	273.59878
565.847	292.65002
566.313	227.51005
566.779	284.61148
567.245	239.53458
567.711	207.48206
568.176	251.54264
568.642	267.64715
569.108	272.64251
569.573	260.57855
570.038	215.43592
570.504	297.64043
570.969	263.62715
571.434	286.60731
571.899	247.56499
572.363	289.63387
572.828	352.76373
573.293	261.57535
573.757	306.67722
574.222	277.595
574.686	325.70981
575.15	317.72683
575.614	386.85567
576.078	273.61515
576.542	289.62986
577.006	317.68091
577.469	295.69399
577.933	336.72529
578.396	279.63433
578.86	277.62544
579.323	300.69103
579.786	301.62229
580.249	308.69245
580.712	269.62865
581.175	263.62402
581.637	284.62014
582.1	183.38987
582.563	249.50948
583.025	233.54901
583.487	283.55673
583.95	181.37941
584.412	319.63525
584.874	252.59297
585.336	204.47123
585.797	223.47034
586.259	224.50816
586.721	198.45282
587.182	216.48344
587.643	243.53321
588.105	198.45592
588.566	212.42935
589.027	230.54605
589.488	226.5029
589.949	205.48473
590.41	221.42431
590.87	202.45062
591.331	242.51097
591.791	184.41674
592.252	198.44991
592.712	173.40606
593.172	140.31438
593.632	275.58663
594.092	165.36099
594.552	159.33874
595.011	156.35131
595.471	199.43997
595.931	192.42335
596.39	150.35448
596.849	111.25647
597.308	145.30448
597.768	173.43737
598.227	167.39351
598.685	111.25105
599.144	188.43307
599.603	104.24149
600.062	119.24878
600.52	154.34241
600.978	111.26003
601.437	184.40894
601.895	149.31468
602.353	118.25691
602.811	140.31167
603.269	97.22928
603.727	99.23609
604.184	121.27311
604.642	85.20797
605.099	145.33369
605.557	100.24135
606.014	81.17437
606.471	94.2343
606.928	151.3305
607.385	147.36234
607.842	97.22126
608.299	138.31802
608.755	112.26868
609.212	96.21318
609.668	97.21778
610.125	75.18023
610.581	111.25779
611.037	99.22044
611.493	86.19977
611.949	83.20134
612.405	88.17896
612.861	85.1946
613.316	119.28182
613.772	68.15565
614.227	121.28745
614.683	72.15256
615.138	87.20293
615.593	67.1553
616.048	107.2426
616.503	55.13347
616.958	79.1968
617.412	66.15646
617.867	74.16529
618.321	110.22492
618.776	99.21642
619.23	94.21853
619.684	81.17991
620.138	67.15296
620.592	23.05607
621.046	84.19736
621.5	41.09882
621.954	40.08875
622.407	89.19546
622.861	75.18112
623.314	45.10203
623.768	104.24311
624.221	96.18748
624.674	86.19732
625.127	48.11163
625.58	57.12782
626.033	95.20583
626.485	48.11475
626.938	84.19859
627.39	74.17217
627.843	58.13345
628.295	85.19452
628.747	62.14737
629.199	73.16538
629.651	82.18671
630.103	73.16659
630.555	100.20846
631.006	65.15048
631.458	58.13606
631.909	26.05846
632.361	80.18319
632.812	78.17932
633.263	56.12136
633.714	21.04472
634.165	17.04091
634.616	12.02851
635.067	80.17484
635.518	65.15328
635.968	54.10596
636.419	98.21174
636.869	42.09937
637.319	80.18422
637.769	80.17854
638.219	79.18485
638.669	49.11618
639.119	37.08847
639.569	20.04811
640.019	84.19234
640.468	77.17138
640.918	20.04756
641.367	40.08957
641.816	36.08011
642.265	96.2215
642.714	16.03686
643.163	89.20375
643.612	84.20404
644.061	28.06013
644.51	81.18424
644.958	54.11902
645.406	52.12389
645.855	48.1162
646.303	81.18559
646.751	107.24437
647.199	59.13322
647.647	80.18429
648.095	22.05034
648.543	50.10135
648.99	61.14586
649.438	44.1016
649.885	90.22205
650.333	94.18061
650.78	43.10376
651.227	80.1941
651.674	23.05268
652.121	81.19701
652.568	83.20149
653.015	38.09386
653.461	6.01434
653.908	15.03459
654.354	59.13978
654.801	59.13773
655.247	31.06725
655.693	28.07276
656.139	61.14475
656.585	50.11899
657.031	75.17494
657.477	61.13278
657.922	-2.00458
658.368	85.20666
658.813	-11.02523
659.259	59.14232
659.704	70.16485
660.149	38.08754
660.594	57.13463
661.039	30.06845
661.484	104.24282
661.929	83.192
662.373	23.05773
662.818	66.162
663.262	46.1109
663.707	65.16416
664.151	84.20258
664.595	-10.02436
665.039	30.07437
665.483	49.12406
665.927	41.09597
666.371	10.02363
666.814	36.08537
667.258	106.25177
667.701	67.14187
668.145	82.20186
668.588	78.19138
669.031	55.12869
669.474	75.17824
669.917	40.0875
670.36	100.24608
670.803	75.17954
671.245	13.02672
671.688	44.10664
672.13	61.13718
672.573	85.21206
673.015	89.212
673.457	37.08044
673.899	73.17489
674.341	10.02414
674.783	10.02403
675.225	48.11755
675.666	119.28607
676.108	84.17947
676.549	44.10205
676.991	62.1351
677.432	40.07926
677.873	22.05023
678.314	73.17195
678.755	98.23813
679.196	90.20293
679.637	-26.06273
680.078	92.21185
680.518	62.14111
680.959	73.17188
681.399	52.12778
681.839	66.15863
682.28	50.12345
682.72	6.01376
683.16	64.15819
683.6	42.09509
684.039	53.10869
684.479	70.17105
684.919	100.23156
685.358	39.09652
685.798	41.10605
686.237	50.11835
686.676	46.10338
687.115	57.13317
687.554	83.19596
687.993	95.2067
688.432	37.08403
688.871	55.1251
689.309	89.21029
689.748	51.1053
690.186	29.06754
690.625	57.13269
691.063	36.08541
691.501	78.19031
691.939	77.1914
692.377	57.13682
692.815	110.26388
693.253	70.16447
693.69	74.15981
694.128	36.08689
694.565	52.12203
695.003	101.25353
695.44	116.26892
695.877	66.15349
696.314	-4.00844
696.751	64.14325
697.188	62.14214
697.625	38.08439
698.061	35.08324
698.498	16.03768
698.934	21.04997
699.371	18.04223
699.807	54.12608
700.243	57.13598
700.679	58.12773
701.115	70.16093
701.551	36.08296
701.987	25.05428
702.422	72.16943
702.858	68.16002
703.294	113.25328
703.729	73.17482
704.164	36.08521
704.599	109.23797
705.035	65.14383
705.47	24.0579
705.904	9.02078
706.339	57.12918
706.774	56.12952
707.209	30.06936
707.643	83.19505
708.078	5.01212
708.512	8.01998
708.946	78.18147
709.38	69.16145
709.814	68.15145
710.248	60.14481
710.682	98.23061
711.116	60.14426
711.549	10.02539
711.983	28.06417
712.416	83.19345
712.85	26.06384
713.283	39.09111
713.716	64.1561
714.149	-23.05331
714.582	53.11752
715.015	2.00488
715.448	63.15632
715.881	107.2236
716.313	31.07171
716.746	96.22229
717.178	63.14915
717.61	68.17017
718.043	40.09756
718.475	46.11022
718.907	57.14009
719.339	34.07632
719.77	60.14158
720.202	1.00249
720.634	62.14986
721.065	20.04672
721.497	62.1493
721.928	15.03636
722.359	56.13439
722.79	48.11335
723.221	33.08092
723.652	36.09032
724.083	30.0667
724.514	86.1932
724.945	19.04407
725.375	53.12207
725.806	33.08029
726.236	54.13577
726.666	63.14579
727.096	16.03876
727.526	64.16218
727.956	53.11929
728.386	55.13252
728.816	93.23286
729.246	76.18398
729.675	4.00968
730.105	43.10353
730.534	37.08498
730.964	36.08849
731.393	40.09647
731.822	53.13323
732.251	59.14709
732.68	55.12485
733.109	52.12617
733.537	89.21281
733.966	82.20045
734.395	60.13612
734.823	19.04148
735.251	27.06402
735.68	49.11864
736.108	16.03952
736.536	51.11718
736.964	25.05717
737.392	29.07146
737.82	43.10085
738.247	62.14459
738.675	60.13794
739.102	38.09331
739.53	69.17414
739.957	64.16264
740.384	45.10633
740.811	5.0123
741.238	73.17535
741.665	90.2065
742.092	-29.06634
742.519	9.02214
742.945	79.18789
743.372	45.11006
743.798	8.02026
744.225	27.0629
744.651	6.01485
745.077	32.07857
745.503	41.09718
745.929	91.21501
746.355	20.04794
746.781	7.01699
747.207	32.07498
747.632	76.18481
748.058	82.20209
748.483	58.13051
748.908	38.0932
749.334	76.18322
749.759	30.07054
750.184	27.06427
750.609	46.11056
751.033	26.05966
751.458	68.14774
751.883	32.07741
752.307	39.09022
752.732	83.2076
753.156	54.13023
753.58	37.08559
754.005	46.11316
754.429	94.21706
754.853	77.18742
755.277	68.15796
755.7	57.13858
756.124	29.07104
756.548	-11.02576
756.971	68.16207
757.394	4.0101
757.818	68.17171
758.241	61.15191
758.664	34.08447
759.087	53.11723
759.51	-1.00244
759.933	53.12581
760.356	64.16189
760.778	47.11329
761.201	45.10645
761.623	43.1001
762.046	43.09824
762.468	71.16548
762.89	35.08372
763.312	53.12717
763.734	55.12985
764.156	45.109
764.578	63.13976
765	59.14054
765.421	37.09294
765.843	67.17132
766.264	15.03491
766.686	13.03174
767.107	39.09269
767.528	36.09107
767.949	-1.00251
768.37	71.17198
768.791	13.03065
769.212	-8.01999
769.632	43.09884
770.053	32.0821
770.473	16.0379
770.894	9.02177
771.314	71.16254
771.734	1.0023
772.154	12.03013
772.575	66.14772
772.994	35.07748
773.414	45.10435
773.834	22.05378
774.254	45.10727
774.673	75.17879
775.093	32.07828
775.512	56.13516
775.931	56.13882
776.351	86.20858
776.77	64.15341
777.189	81.1867
777.607	30.07516
778.026	64.1554
778.445	45.11198
778.864	8.01992
779.282	5.0117
779.701	30.07372
780.119	3.0075
780.537	38.09244
780.955	47.11585
781.373	38.09171
781.791	46.10211
782.209	2.00442
782.627	12.03111
783.045	9.02005
783.462	25.0626
783.88	36.09139
784.297	40.0984
784.715	69.17339
785.132	18.04241
785.549	31.07574
785.966	20.04934
786.383	49.11824
786.8	43.09714
787.217	101.23327
787.633	48.11816
788.05	13.02953
788.466	36.08147
788.883	67.16782
789.299	13.0302
789.715	82.19371
790.131	88.21159
790.547	30.07301
790.963	41.09897
791.379	46.11345
791.795	19.0418
792.21	71.15921
792.626	20.04591
793.041	70.1669
793.457	63.14984
793.872	-35.08042
794.287	64.15066
794.702	-2.00475
795.117	30.07317
795.532	23.05688
795.947	33.07607
796.362	-9.0206
796.776	40.08894
797.191	30.07178
797.605	13.03026
798.02	23.05451
798.434	91.19413
798.848	89.2146
799.262	16.03882
799.676	47.11127
800.09	34.08135
800.504	25.05877
800.918	3.00672
801.331	17.0425
801.745	50.11034
802.158	7.01695
802.572	27.06372
802.985	42.09741
803.398	32.07386
803.811	7.01721
804.224	3.0072
804.637	36.08369
805.05	38.08456
805.462	37.0877
805.875	5.01275
806.288	30.07093
806.7	-40.098
807.112	19.04239
807.525	27.06367
807.937	1.00243
808.349	13.03152
808.761	46.11018
809.173	63.14816
809.584	62.14703
809.996	28.06656
810.408	32.08147
810.819	-4.00921
811.231	41.107
811.642	66.15887
812.053	71.16743
812.464	13.02998
812.875	37.09248
813.286	55.13866
813.697	29.06388
814.108	71.16607
814.519	102.21887
814.929	56.13771
815.34	-25.0588
815.75	43.10708
816.16	-1.0024
816.571	37.09304
816.981	19.04297
817.391	36.08329
817.801	54.13033
818.211	38.08736
818.62	18.04239
819.03	56.13204
819.44	-10.02511
819.849	-18.04392
820.259	10.02466
820.668	42.10053
821.077	23.05613
821.486	30.069
821.895	8.01894
822.304	24.06181
822.713	22.05019
823.122	52.12508
823.531	-21.0479
823.939	43.10184
824.348	25.05852
824.756	53.12741
825.164	58.14004
825.573	45.10937
825.981	77.18222
826.389	54.13068
826.797	86.21085
827.205	45.10041
827.612	51.12069
828.02	20.04524
828.428	16.03959
828.835	31.07996
829.243	35.07993
829.65	8.01954
830.057	10.02345
830.464	67.15917
830.871	66.15252
831.278	60.13965
831.685	50.10655
832.092	17.03995
832.499	97.2027
832.905	-13.03193
833.312	-2.00434
833.718	86.20709
834.124	67.14708
834.531	37.08928
834.937	55.13687
835.343	20.04631
835.749	23.05109
836.155	49.12424
836.561	27.06444
836.966	36.08468
837.372	35.0858
837.777	10.02433
838.183	44.09331
838.588	51.12307
838.993	44.10342
839.399	37.0879
839.804	14.03321
840.209	52.12957
840.613	39.0832
841.018	3.00735
841.423	40.09945
841.828	33.08131
842.232	-13.03082
842.637	69.1579
843.041	12.03011
843.445	37.08901
843.849	21.05066
844.253	52.11835
844.657	67.16357
845.061	85.18738
845.465	37.08634
845.869	62.13803
846.272	-14.03346
846.676	8.01841
847.079	51.12636
847.483	57.13645
847.886	55.12733
848.289	75.1958
848.692	36.08754
849.095	39.08986
849.498	54.12979
849.901	52.11326
850.304	8.01851
850.707	11.02715
851.109	25.06092
851.512	42.09991
851.914	-6.01487
852.316	44.10884
852.718	56.14352
853.121	20.04752
853.523	19.04259
853.925	-6.01546
854.326	27.06589
854.728	44.10987
855.13	45.11353
855.531	15.03482
855.933	29.06647
856.334	77.18588
856.736	83.17891
857.137	55.12394
857.538	31.07608
857.939	101.24197
858.34	37.08597
858.741	24.06069
859.142	5.01158
859.542	56.14392
859.943	32.07682
860.343	21.05079
860.744	66.1544
861.144	68.1607
861.544	43.10113
861.945	13.03214
862.345	45.10542
862.745	62.14936
863.145	8.01814
863.544	38.09317
863.944	46.1044
864.344	5.01189
864.743	40.09556
865.143	63.1574
865.542	-32.07139
865.941	44.10547
866.34	20.04565
866.74	57.14815
867.139	62.14459
867.537	-20.0492
867.936	75.17356
868.335	43.10537
868.734	23.05713
869.132	33.07278
869.531	51.11695
869.929	24.05303
870.327	22.05096
870.726	42.09983
871.124	27.06027
871.522	13.03203
871.92	42.09987
872.318	-1.00236
872.715	8.0189
873.113	-28.0662
873.511	37.08864
873.908	40.09934
874.306	20.04864
874.703	68.16151
875.1	-5.01227
875.497	-27.06286
875.894	72.17253
876.291	49.116
876.688	36.08999
877.085	28.0643
877.482	14.03396
877.878	71.16607
878.275	19.04695
878.671	9.01867
879.068	106.24291
879.464	29.06759
879.86	22.05021
880.256	24.05626
880.652	-3.00742
881.048	13.03085
881.444	-10.02275
881.84	-10.02473
882.236	40.09691
882.631	72.17029
883.027	21.04889
883.422	30.07372
883.817	-3.0074
884.213	39.09677
884.608	53.12799
885.003	-3.00696
885.398	7.01703
885.793	18.04356
886.188	-21.05083
886.582	30.07369
886.977	60.13529
887.371	13.03164
887.766	-12.02927
888.16	3.00714
888.554	50.11793
888.949	71.17081
889.343	27.06328
889.737	12.03146
890.131	32.07758
890.525	60.14879
890.918	-13.03184
891.312	45.10223
891.706	45.11381
892.099	56.13664
892.492	74.15028
892.886	56.13116
893.279	26.06393
893.672	78.19187
894.065	58.13977
894.458	31.07449
894.851	56.13065
895.244	4.00992
895.637	71.16418
896.029	70.16504
896.422	22.05123
896.814	37.08837
897.206	54.12524
897.599	87.20509
897.991	53.12392
898.383	35.07977
898.775	51.11158
899.167	21.04802
899.559	39.09432
899.951	38.08519
900.342	21.05117
900.734	66.16128
901.125	57.14308
901.517	40.09479
901.908	18.04098
902.299	64.15055
902.69	69.15714
903.082	59.13697
903.473	56.13085
903.863	12.02952
904.254	72.16155
904.645	37.08746
905.036	80.18913
905.426	30.06487
905.817	9.02123
906.207	-58.13382
906.597	91.20464
906.987	16.03987
907.378	6.01483
907.768	45.11547
908.158	30.07035
908.547	43.10895
908.937	21.0515
909.327	48.11168
909.717	14.03384
910.106	-1.00232
910.495	70.1653
910.885	86.20897
911.274	54.12949
911.663	26.06318
912.052	37.08681
912.441	60.14798
912.83	68.14755
913.219	55.13816
913.608	72.1695
913.997	15.03682
914.385	50.11458
914.774	22.05159
915.162	102.23375
915.55	34.07851
915.939	41.10069
916.327	42.10006
916.715	51.12733
917.103	16.03736
917.491	19.04526
917.878	68.15958
918.266	44.10963
918.654	39.09705
919.041	9.02317
919.429	44.09962
919.816	-3.00738
920.203	29.06855
920.591	44.10527
920.978	24.05672
921.365	17.0435
921.752	-35.08
922.139	74.15241
922.525	59.13637
922.912	40.09343
923.299	40.09596
923.685	-34.08601
924.072	-12.02609
924.458	41.09834
924.844	34.08119
925.231	19.04217
925.617	50.12399
926.003	38.09341
926.389	22.05366
926.774	12.02936
927.16	25.05983
927.546	38.09534
927.931	42.10018
928.317	39.0854
928.702	46.10376
929.088	56.12998
929.473	92.22573
929.858	50.11844
930.243	75.17391
930.628	47.11118
931.013	21.05041
931.398	5.01089
931.783	2.00506
932.167	44.10467
932.552	33.07948
932.937	38.09022
933.321	34.08311
933.705	7.0169
934.09	22.05256
934.474	50.11251
934.858	7.01769
935.242	16.0356
935.626	21.05237
936.009	37.09637
936.393	91.22472
936.777	70.17327
937.16	61.15417
937.544	13.02902
937.927	48.11808
938.311	76.1757
938.694	81.20639
939.077	60.13744
939.46	34.07845
939.843	51.09834
940.226	-1.00248
940.609	92.20303
940.991	-3.00737
941.374	22.05229
941.757	49.1156
942.139	64.13757
942.522	40.09005
942.904	13.0302
943.286	38.09275
943.668	86.21591
944.05	56.1325
944.432	24.05692
944.814	37.08675
945.196	70.16472
945.578	56.12993
945.959	7.01566
946.341	22.05102
946.722	51.1138
947.104	42.09644
947.485	22.0493
947.866	24.05902
948.247	58.14215
948.628	33.07582
949.009	15.03725
949.39	61.14452
949.771	34.0739
950.152	46.10867
950.532	66.16038
950.913	17.0395
951.293	55.14501
951.674	31.0722
952.054	37.09019
952.434	39.09343
952.814	33.07449
953.194	17.04254
953.574	80.18701
953.954	-3.00682
954.334	48.11624
954.714	44.10366
955.093	50.11793
955.473	51.12414
955.853	31.07768
956.232	32.08498
956.611	-6.01374
956.99	28.06829
957.37	16.0392
957.749	-1.00227
958.128	19.04664
958.506	2.00506
958.885	16.03892
959.264	32.07668
959.643	108.23374
960.021	42.10099
960.4	40.08661
960.778	43.1001
961.156	-9.02183
961.535	45.09924
961.913	77.17259
962.291	50.12535
962.669	16.03949
963.047	48.11873
963.424	104.25687
963.802	60.1418
964.18	9.02167
964.557	63.13743
964.935	63.14232
965.312	59.1489
965.69	14.03356
966.067	-6.01399
966.444	6.01401
966.821	24.05997
967.198	39.08968
967.575	14.033
967.952	62.13894
968.329	87.20309
968.705	97.19739
969.082	89.22172
969.458	53.12377
969.835	58.13516
970.211	63.15723
970.587	70.16722
970.963	25.06142
971.339	31.07877
971.715	65.1559
972.091	30.07109
972.467	28.06627
972.843	61.14709
973.219	72.16294
973.594	12.0305
973.97	17.03785
974.345	61.14032
974.721	37.08464
975.096	47.11015
975.471	6.01368
975.846	21.04821
976.221	27.06638
976.596	54.12633
976.971	61.14547
977.346	51.11238
977.72	-24.0593
978.095	-9.02262
978.469	68.15402
978.844	44.10567
979.218	37.08671
979.593	30.06872
979.967	-51.11901
980.341	62.13682
980.715	43.10462
981.089	28.06755
981.463	42.0923
981.837	28.06684
982.21	39.08432
982.584	50.11638
982.957	32.07761
983.331	56.12436
983.704	70.16677
984.078	32.0758
984.451	13.03069
984.824	35.08263
985.197	21.04833
985.57	32.07601
985.943	-16.03762
986.316	3.007
986.688	72.1652
987.061	64.14366
987.434	99.25011
987.806	-25.05802
988.179	11.02491
988.551	22.05366
988.923	10.02365
989.295	38.09081
989.667	38.08869
990.039	82.19701
990.411	-23.05045
990.783	8.01747
991.155	-11.02578
991.527	46.10635
991.898	34.08209
992.27	45.10818
992.641	16.03851
993.012	-1.00221
993.384	21.04794
993.755	29.07188
994.126	55.12789
994.497	10.02374
994.868	50.10817
995.239	32.0743
995.61	-3.00734
995.98	29.06767
996.351	4.00967
996.722	41.09228
997.092	19.0436
997.462	16.0365
997.833	12.02714
998.203	-21.04864
998.573	27.06515
998.943	42.09493
999.313	13.03026
999.683	30.06952
1000.053	-45.09825
1000.423	0
1000.792	-34.08509
1001.162	-11.02607
1001.531	75.17694
1001.901	-7.01683
1002.27	-19.04013
1002.639	-8.0197
1003.009	23.05246
1003.378	36.08898
1003.747	23.05185
1004.116	26.0597
1004.485	51.11652
1004.853	26.06261
1005.222	-23.05535
1005.591	63.14208
1005.959	34.07371
1006.328	57.1227
1006.696	-12.02792
1007.064	-2.00483
1007.433	16.03828
1007.801	29.06719
1008.169	42.10083
1008.537	50.1052
1008.905	40.08997
1009.273	45.10575
1009.64	73.1684
1010.008	46.1047
1010.375	56.12741
1010.743	47.1
1011.11	57.13165
1011.478	75.17865
1011.845	39.08724
1012.212	74.16105
1012.579	84.19682
1012.946	82.18293
1013.313	36.08131
1013.68	47.1
1014.047	-5.01152
1014.414	29.06562
1014.78	48.11506
1015.147	49.11186
1015.513	9.02093
1015.88	49.11945
1016.246	6.01411
1016.612	43.09304
1016.978	60.14169
1017.344	75.17735
1017.71	56.12957
1018.076	54.12007
1018.442	34.08469
1018.808	48.11646
1019.174	-12.02904
1019.539	17.03581
1019.905	16.03655
1020.27	10.02379
1020.636	41.09273
1021.001	39.08986
1021.366	-18.04216
1021.731	82.20476
1022.096	4.00988
1022.461	65.14707
1022.826	55.12602
1023.191	35.08877
1023.556	42.09354
1023.92	14.03285
1024.285	9.02094
1024.649	27.0632
1025.014	4.00946
1025.378	45.10953
1025.742	17.04034
1026.107	66.14107
1026.471	30.06659
1026.835	34.08107
1027.199	18.04185
1027.562	27.05945
1027.926	44.10241
1028.29	40.09753
1028.654	35.07661
1029.017	87.20413
1029.381	31.0714
1029.744	15.03704
1030.107	59.13306
1030.471	56.1289
1030.834	5.01074
1031.197	64.14678
1031.56	37.08307
1031.923	9.02261
1032.286	57.12755
1032.648	43.09686
1033.011	66.14638
1033.374	26.05788
1033.736	9.02301
1034.099	0
1034.461	27.06641
1034.823	24.05792
1035.185	-21.05089
1035.548	45.10554
1035.91	16.0368
1036.272	47.10266
1036.634	84.19528
1036.995	15.03359
1037.357	27.06357
1037.719	25.05861
1038.08	98.22233
1038.442	34.0772
1038.803	37.08362
1039.165	10.02427
1039.526	1.00234
1039.887	87.19725
1040.248	31.07489
1040.609	55.12849
1040.97	14.03287
1041.331	106.25709
1041.692	88.19867
1042.053	68.14579
1042.413	20.0444
1042.774	93.21522
1043.134	0
1043.495	22.05332
1043.855	79.18463
1044.215	57.13452
1044.576	66.15167
1044.936	42.09125
1045.296	52.12432
1045.656	15.03506
1046.016	22.05072
1046.375	45.10455
1046.735	91.19893
1047.095	100.22124
1047.454	48.09503
1047.814	53.12192
1048.173	21.04742
1048.533	62.13499
1048.892	12.02791
1049.251	34.08141
1049.61	3.00715
1049.969	43.09654
1050.328	47.09673
1050.687	0
1051.046	30.06985
1051.405	-2.00476
1051.763	45.10003
1052.122	-1.00241
1052.48	32.07568
1052.839	102.23102
1053.197	11.02488
1053.555	21.04472
1053.914	98.22638
1054.272	-47.10812
1054.63	49.1151
1054.988	57.13065
1055.345	38.0765
1055.703	55.12672
1056.061	54.13518
1056.419	57.14431
1056.776	12.02751
1057.134	-41.09039
1057.491	54.12969
1057.848	33.07846
1058.206	-31.06948
1058.563	14.02944
1058.92	29.06361
1059.277	65.15311
1059.634	39.08634
1059.991	102.23178
1060.348	42.09098
1060.704	84.19497
1061.061	53.11473
1061.418	-4.0094
1061.774	27.06417
1062.131	63.1629
1062.487	-12.02693
1062.843	51.12176
1063.199	36.08613
1063.555	18.04047
1063.911	-33.08065
1064.267	39.07567
1064.623	3.00713
1064.979	28.06104
1065.335	29.0658
1065.691	-14.03193
1066.046	33.0689
1066.402	-13.02827
1066.757	54.13082
1067.112	54.12608
1067.468	31.07128
1067.823	-3.00681
1068.178	-1.00232
1068.533	42.09749
1068.888	49.11114
1069.243	2.00477
1069.598	35.08096
1069.952	88.19184
1070.307	43.10278
1070.662	64.1469
1071.016	34.07396
1071.371	54.11762
1071.725	45.10182
1072.079	39.09011
1072.434	60.13987
1072.788	-7.01586
1073.142	70.16447
1073.496	6.01367
1073.85	47.10366
1074.203	18.04209
1074.557	52.13508
1074.911	92.20609
1075.265	57.12597
1075.618	28.06579
1075.971	26.05925
1076.325	15.03718
1076.678	38.08309
1077.031	-26.05557
1077.385	71.14699
1077.738	11.02374
1078.091	47.10296
1078.444	38.08309
1078.796	73.17202
1079.149	40.09577
1079.502	37.0844
1079.855	66.14656
1080.207	25.059
1080.56	19.04785
1080.912	64.14826
1081.264	61.14083
1081.617	-4.00947
1081.969	27.06614
1082.321	4.00939
1082.673	21.04678
1083.025	22.04975
1083.377	238.51244
1083.728	57.12576
1084.08	7.01676
1084.432	38.0874
1084.783	10.02202
1085.135	33.08002
1085.486	24.05299
1085.838	58.13718
1086.189	49.11497
1086.54	38.08642
1086.891	46.11416
1087.242	69.16335
1087.593	5.01154
1087.944	78.16881
1088.295	48.10349
1088.646	81.19072
1088.996	48.11146
1089.347	14.03288
1089.698	19.04373
1090.048	24.05982
1090.398	26.05728
1090.749	56.12648
1091.099	33.08104
1091.449	40.09618
1091.799	20.04827
1092.149	22.05252
1092.499	37.08664
1092.849	24.059
1093.199	56.13306
1093.548	44.10249
1093.898	0
1094.248	21.05155
1094.597	31.07745
1094.947	26.06736
1095.296	68.16139
1095.645	28.06999
1095.994	37.08515
1096.343	60.14525
1096.692	37.09561
1097.041	59.15681
1097.39	40.09577
1097.739	22.05525
1098.088	5.01292
1098.437	37.09544
1098.785	13.03374
1099.134	10.02531
1099.482	31.08308
1099.83	37.09394
1100.179	51.13082
1100.527	-20.05122
1100.875	61.15658
1101.223	60.15463
1101.571	-2.00537
1101.919	22.05705
1102.267	33.09121
1102.615	-4.01286
1102.962	-2.00642
1103.31	0
1103.658	-3.00962
