Data from N1 R0 sample 5_Subt2__3__11-55-37-277.txt Node

Date: Tue Sep 16 11:55:37 PDT 2025
User: uwsun
Spectrometer: HDX01956
Trigger mode: 0
Integration Time (sec): 5.000000E-1
Scans to average: 1
Nonlinearity correction enabled: true
Boxcar width: 0
Storing dark spectrum: false
XAxis mode: Wavelengths
Number of Pixels in Spectrum: 2068
>>>>>Begin Spectral Data<<<<<
194.03	-9.02616
194.578	0
195.127	1.00321
195.676	11.03535
196.225	19.05058
196.773	1.00279
197.321	36.10024
197.87	14.03659
198.418	64.16706
198.966	89.23646
199.513	41.10612
200.061	60.15469
200.609	60.16034
201.156	44.09844
201.704	51.13045
202.251	55.14822
202.798	39.10282
203.345	87.21784
203.892	43.11065
204.438	26.06308
204.985	41.09942
205.532	23.06166
206.078	39.09709
206.624	96.24327
207.17	126.29708
207.716	82.20372
208.262	94.18906
208.808	80.20359
209.354	104.25951
209.899	53.13552
210.445	69.17513
210.99	73.1808
211.535	77.18419
212.08	60.14174
212.625	54.13704
213.17	91.23416
213.715	82.19018
214.259	83.19642
214.804	25.0626
215.348	108.25196
215.892	86.21132
216.436	19.04444
216.98	32.07189
217.524	52.12664
218.068	96.24431
218.612	137.34883
219.155	62.1489
219.698	82.19724
220.242	56.14004
220.785	87.20652
221.328	64.15999
221.871	128.32643
222.414	68.16986
222.956	7.01711
223.499	65.14671
224.041	5.01169
224.583	54.11552
225.126	41.09148
225.668	76.18613
226.21	82.20905
226.751	53.11992
227.293	66.15082
227.835	80.19752
228.376	24.05557
228.918	48.12086
229.459	85.21329
230	103.24826
230.541	55.12804
231.082	70.172
231.622	26.05985
232.163	34.08321
232.704	119.29785
233.244	62.15527
233.784	47.11521
234.324	101.22853
234.864	47.10764
235.404	56.13321
235.944	59.14032
236.484	86.21568
237.023	53.12634
237.563	58.13649
238.102	97.23017
238.641	65.16457
239.18	31.07401
239.719	56.14156
240.258	50.11385
240.797	66.15917
241.335	60.14721
241.874	121.23624
242.412	92.22472
242.95	80.19483
243.488	32.07304
244.026	89.20841
244.564	95.19685
245.102	95.21661
245.64	57.13744
246.177	53.11924
246.715	113.27164
247.252	90.20517
247.789	114.21185
248.326	58.14141
248.863	28.06288
249.4	76.17375
249.936	119.25
250.473	120.28392
251.009	32.07451
251.546	111.2488
252.082	43.09432
252.618	90.20268
253.154	55.13397
253.69	64.14513
254.226	85.20488
254.761	79.17882
255.297	70.15448
255.832	85.20356
256.367	59.14022
256.903	106.23676
257.438	98.23052
257.972	42.09505
258.507	25.05841
259.042	64.141
259.576	103.22935
260.111	40.09325
260.645	62.13568
261.179	87.20524
261.713	107.24052
262.247	69.15904
262.781	130.27401
263.315	43.10564
263.849	65.16428
264.382	89.20564
264.915	89.21208
265.449	43.10642
265.982	101.23039
266.515	106.26065
267.048	95.20284
267.58	51.11163
268.113	63.13807
268.646	65.16046
269.178	54.12236
269.71	124.27467
270.243	135.31241
270.775	124.31801
271.307	96.22898
271.838	76.18086
272.37	90.22156
272.902	65.14887
273.433	97.21661
273.965	71.17398
274.496	42.10545
275.027	89.22284
275.558	110.26919
276.089	46.11653
276.62	58.1476
277.15	101.24896
277.681	71.15448
278.211	59.14538
278.741	69.15523
279.272	106.24369
279.802	51.12834
280.332	67.16002
280.861	84.20212
281.391	58.13366
281.921	78.18783
282.45	46.11549
282.98	60.15784
283.509	106.24252
284.038	193.43615
284.567	128.29815
285.096	104.25337
285.625	58.13228
286.153	90.21681
286.682	98.22674
287.21	61.14686
287.739	101.23975
288.267	79.19415
288.795	76.1998
289.323	55.13111
289.851	123.28995
290.378	54.12221
290.906	136.33244
291.433	87.21831
291.961	103.23694
292.488	69.17277
293.015	74.17678
293.542	174.44389
294.069	86.2149
294.596	75.18487
295.122	113.27216
295.649	78.17264
296.175	107.25839
296.702	95.23399
297.228	78.18946
297.754	55.12581
298.28	145.33342
298.806	50.12236
299.332	107.24131
299.857	64.14773
300.383	81.2053
300.908	66.16439
301.433	124.30469
301.958	65.15114
302.483	61.15301
303.008	120.29932
303.533	86.22325
304.058	67.15819
304.582	95.22638
305.107	56.14747
305.631	97.2218
306.155	100.23486
306.679	91.21618
307.203	112.2616
307.727	134.3179
308.251	121.29935
308.775	136.33145
309.298	107.25966
309.822	81.2053
310.345	149.35587
310.868	126.3049
311.391	106.26258
311.914	81.20501
312.437	117.26914
312.96	111.26329
313.482	49.11721
314.005	76.19163
314.527	76.19933
315.049	124.31467
315.571	58.13318
316.093	103.25687
316.615	53.12929
317.137	92.20328
317.659	138.33457
318.18	83.19998
318.702	159.37218
319.223	52.10859
319.744	132.29873
320.265	135.32982
320.786	145.36253
321.307	90.22449
321.828	121.27501
322.348	92.2191
322.869	130.31126
323.389	337.63643
323.909	124.28508
324.43	95.22933
324.95	128.29486
325.47	160.39619
325.989	116.27742
326.509	107.24269
327.029	128.29462
327.548	150.34084
328.067	135.32908
328.587	166.4154
329.106	128.29038
329.625	137.3568
330.144	163.3793
330.662	149.3511
331.181	161.38026
331.7	92.21675
332.218	169.36724
332.736	176.41125
333.255	128.30378
333.773	135.32046
334.291	164.4098
334.808	181.40753
335.326	120.27246
335.844	195.4568
336.361	209.53344
336.879	189.44361
337.396	212.51222
337.913	177.40895
338.43	170.3841
338.947	162.38773
339.464	164.35554
339.981	152.36171
340.497	164.40312
341.014	173.42123
341.53	155.35142
342.046	216.53504
342.562	206.50934
343.078	175.41204
343.594	199.47073
344.11	229.54294
344.626	171.43123
345.141	221.50186
345.657	195.44049
346.172	201.48262
346.687	177.40651
347.202	248.55985
347.717	207.49078
348.232	222.54748
348.747	236.53972
349.261	229.49953
349.776	215.50798
350.29	231.57229
350.805	225.55028
351.319	189.43876
351.833	211.48381
352.347	225.52707
352.861	243.56388
353.374	225.50763
353.888	279.66937
354.401	226.5104
354.915	248.5546
355.428	249.61191
355.941	240.55284
356.454	222.49072
356.967	178.41543
357.48	245.5489
357.993	248.60122
358.505	220.53014
359.018	316.75393
359.53	272.65245
360.042	273.6018
360.554	286.68603
361.066	251.60174
361.578	346.74143
362.09	227.53529
362.602	297.64894
363.113	298.68642
363.625	290.64583
364.136	262.56775
364.647	282.65631
365.158	255.58563
365.669	229.54168
366.18	295.67911
366.691	303.64916
367.201	338.78537
367.712	331.73697
368.222	340.75999
368.733	264.56671
369.243	311.67953
369.753	291.65705
370.263	343.8028
370.773	277.66078
371.282	332.77021
371.792	349.78348
372.301	283.66939
372.811	330.83937
373.32	376.78483
373.829	318.72956
374.338	400.85158
374.847	314.7068
375.356	328.75099
375.865	406.8339
376.373	416.90333
376.882	380.92424
377.39	431.98893
377.898	386.90995
378.407	414.89784
378.915	489.00366
379.423	436.96286
379.93	585.24969
380.438	470.06229
380.946	564.21075
381.453	562.24578
381.96	623.35681
382.468	631.34983
382.975	707.5536
383.482	663.33759
383.989	738.69453
384.495	787.61353
385.002	799.45693
385.509	842.74543
386.015	919.5793
386.521	890.73017
387.028	1023.92088
387.534	981.73737
388.04	1039.0737
388.546	1027.86238
389.051	1110.96295
389.557	1182.1716
390.063	1285.23073
390.568	1295.41486
391.073	1324.22596
391.578	1422.61678
392.084	1468.44437
392.589	1523.34134
393.093	1728.85756
393.598	1800.76528
394.103	2046.07255
394.607	2169.19904
395.112	2315.37706
395.616	2418.36477
396.12	2686.13272
396.624	2972.32961
397.128	3254.45591
397.632	3618.24718
398.136	3814.04942
398.639	4140.05976
399.143	4609.21049
399.646	5275.5036
400.15	5823.09675
400.653	6557.75171
401.156	7299.74054
401.659	8626.03091
402.162	10698.0843
402.664	14904.84441
403.167	23663.634
403.67	56096.26093
404.172	62795.08314
404.674	63858.43483
405.176	63738.15102
405.678	63977.72923
406.18	64011.81569
406.682	63863.44694
407.184	63926.60148
407.686	63841.39382
408.187	46909.09335
408.688	29071.03891
409.19	21166.14718
409.691	17410.90016
410.192	14666.00741
410.693	12972.73368
411.194	11910.73055
411.694	11105.60212
412.195	10145.12137
412.696	9152.77205
413.196	8669.78379
413.696	8591.93113
414.196	8542.66939
414.696	8224.65732
415.196	7848.13143
415.696	6738.63983
416.196	5353.37399
416.695	4398.93729
417.195	3943.28133
417.694	3797.47362
418.194	3445.66866
418.693	3253.14788
419.192	3225.32813
419.691	3092.25636
420.19	3016.45191
420.688	2969.56596
421.187	2745.5966
421.685	2602.20521
422.184	2321.18657
422.682	1919.64043
423.18	1685.66857
423.678	1563.53677
424.176	1485.45475
424.674	1489.37815
425.172	1321.35974
425.669	1237.37324
426.167	1149.1092
426.664	1051.92626
427.161	972.84417
427.659	888.82695
428.156	932.63798
428.652	798.74966
429.149	816.70954
429.646	731.42234
430.143	693.47112
430.639	633.34478
431.135	631.42066
431.632	644.31378
432.128	596.29492
432.624	580.36385
433.12	552.14673
433.616	510.02587
434.111	498.09088
434.607	465.03366
435.103	440.85806
435.598	504.96142
436.093	452.98024
436.588	447.93694
437.083	419.87942
437.578	428.92741
438.073	383.90726
438.568	397.92151
439.062	348.70736
439.557	320.715
440.051	299.64474
440.546	310.67405
441.04	292.67395
441.534	291.70425
442.028	327.75156
442.522	226.52786
443.015	253.5247
443.509	288.67291
444.002	248.58741
444.496	261.54637
444.989	258.60448
445.482	208.50199
445.975	273.60785
446.468	237.49789
446.961	279.5825
447.454	265.57266
447.947	227.52634
448.439	270.63779
448.931	257.56962
449.424	270.66167
449.916	262.61625
450.408	212.47214
450.9	170.40501
451.392	227.55909
451.884	240.53361
452.375	164.39835
452.867	200.4384
453.358	204.45545
453.849	177.37119
454.341	231.50538
454.832	186.39308
455.323	262.62847
455.814	164.36827
456.304	197.44446
456.795	216.47905
457.285	170.36698
457.776	208.46093
458.266	187.43326
458.756	120.28029
459.247	195.45447
459.737	211.49602
460.226	220.4865
460.716	158.37064
461.206	157.36851
461.695	169.40857
462.185	191.442
462.674	187.41707
463.163	235.50935
463.653	204.42242
464.142	184.43499
464.63	171.40497
465.119	162.36915
465.608	167.38308
466.096	167.35486
466.585	172.38401
467.073	86.20159
467.561	147.34611
468.05	149.33672
468.538	128.30788
469.026	98.23025
469.513	126.26254
470.001	135.30533
470.489	167.38815
470.976	173.39494
471.463	153.37309
471.951	155.37698
472.438	86.20056
472.925	146.3374
473.412	104.24939
473.899	146.32866
474.385	119.28715
474.872	126.28944
475.359	143.34506
475.845	127.2595
476.331	84.17799
476.817	146.34837
477.303	141.32189
477.789	121.2839
478.275	101.24776
478.761	138.3217
479.247	181.39315
479.732	114.28053
480.218	148.38009
480.703	113.27453
481.188	168.35535
481.673	95.21653
482.158	124.26447
482.643	138.34609
483.128	104.24005
483.612	157.36635
484.097	101.24077
484.581	122.27823
485.066	127.30622
485.55	151.32757
486.034	124.26515
486.518	158.37035
487.002	51.12372
487.486	52.12593
487.969	96.23082
488.453	54.13391
488.936	105.2339
489.42	135.29374
489.903	94.2314
490.386	25.0521
490.869	162.34731
491.352	81.19339
491.835	92.18692
492.318	111.24644
492.8	130.26521
493.283	103.25976
493.765	139.33452
494.247	124.28428
494.73	138.3002
495.212	55.13006
495.694	185.42454
496.175	172.40348
496.657	159.36824
497.139	121.20481
497.62	181.42417
498.102	176.42733
498.583	96.23318
499.064	178.38672
499.545	231.5073
500.026	221.4831
500.507	229.5082
500.988	284.67838
501.469	228.54838
501.949	284.66955
502.43	306.70119
502.91	427.8341
503.39	319.74986
503.87	405.89124
504.35	358.78601
504.83	408.82553
505.31	464.02653
505.79	477.03051
506.269	548.1293
506.749	571.16543
507.228	712.45664
507.707	732.40301
508.187	825.67402
508.666	885.8489
509.145	924.78614
509.623	1024.93547
510.102	1121.15326
510.581	1299.38315
511.059	1328.55615
511.538	1410.74528
512.016	1557.65206
512.494	1757.84681
512.972	1869.92348
513.45	1988.89165
513.928	2131.16801
514.406	2328.31445
514.884	2413.63743
515.361	2556.26012
515.839	2790.08293
516.316	2904.40701
516.793	3039.65863
517.27	3129.33316
517.747	3295.77517
518.224	3402.00999
518.701	3455.73677
519.178	3571.54326
519.654	3521.15928
520.131	3662.44125
520.607	3571.36179
521.083	3497.87575
521.56	3562.11516
522.036	3418.65971
522.512	3369.48684
522.987	3307.32889
523.463	3153.24058
523.939	3051.55136
524.414	2982.04094
524.89	2747.28254
525.365	2566.95488
525.84	2472.26416
526.315	2451.29939
526.79	2286.88121
527.265	2177.95353
527.74	2014.08772
528.215	1978.88553
528.689	1832.5448
529.164	1684.3698
529.638	1609.92206
530.112	1554.583
530.587	1482.21078
531.061	1385.50107
531.534	1391.49293
532.008	1277.38353
532.482	1218.14556
532.956	1133.32198
533.429	1184.27837
533.903	1058.83008
534.376	1000.77523
534.849	906.72542
535.322	896.76414
535.795	870.77064
536.268	863.76553
536.741	807.63299
537.213	750.48187
537.686	735.56578
538.158	778.50999
538.631	682.45246
539.103	628.25208
539.575	562.02584
540.047	596.15018
540.519	623.32351
540.991	601.31216
541.463	546.18765
541.934	452.93926
542.406	521.13871
542.877	472.97557
543.348	524.15082
543.82	427.96522
544.291	454.97744
544.762	429.94839
545.233	415.98379
545.703	369.76936
546.174	334.73271
546.645	348.79613
547.115	367.83436
547.585	374.80662
548.056	393.90718
548.526	411.91051
548.996	304.69297
549.466	323.74622
549.935	361.81374
550.405	347.71835
550.875	292.66321
551.344	250.57472
551.814	345.74679
552.283	360.73842
552.752	326.72599
553.221	284.60017
553.69	360.76677
554.159	309.73512
554.628	310.66975
555.096	292.71265
555.565	288.60862
556.033	331.75009
556.502	276.63956
556.97	309.65457
557.438	259.58552
557.906	253.57569
558.374	262.58493
558.842	266.61321
559.31	256.55191
559.777	306.71468
560.245	215.47892
560.712	227.50355
561.18	272.57758
561.647	239.51183
562.114	278.6109
562.581	268.63453
563.048	292.63923
563.514	302.72522
563.981	263.57928
564.448	285.6164
564.914	259.57883
565.381	293.63993
565.847	273.61012
566.313	265.59078
566.779	255.55246
567.245	225.50472
567.711	242.55967
568.176	250.54059
568.642	271.65635
569.108	246.58403
569.573	249.55534
570.038	281.56114
570.504	290.62627
570.969	252.60218
571.434	316.66662
571.899	274.62334
572.363	317.69117
572.828	364.78774
573.293	284.62303
573.757	330.72668
574.222	312.66512
574.686	353.76639
575.15	304.69884
575.614	351.78376
576.078	287.64484
576.542	289.62986
577.006	314.6749
577.469	327.76446
577.933	324.70119
578.396	326.73411
578.86	328.73287
579.323	319.732
579.786	296.61264
580.249	373.82737
580.712	246.5775
581.175	294.69339
581.637	279.60987
582.1	278.58002
582.563	284.57648
583.025	249.58488
583.487	284.55857
583.95	237.49064
584.412	266.53624
584.874	272.63753
585.336	256.58522
585.797	275.57338
586.259	206.46903
586.721	216.4922
587.182	216.48344
587.643	196.43434
588.105	214.49118
588.566	238.47913
589.027	203.48446
589.488	197.44101
589.949	217.51191
590.41	217.41703
590.87	244.53957
591.331	253.53291
591.791	155.35313
592.252	189.43024
592.712	213.49603
593.172	214.47323
593.632	214.46255
594.092	171.37365
594.552	183.38784
595.011	111.25228
595.471	173.38457
595.931	193.42546
596.39	162.38195
596.849	150.34388
597.308	65.1389
597.768	159.40298
598.227	148.35003
598.685	133.29946
599.144	152.35266
599.603	129.29805
600.062	98.20584
600.52	152.3381
600.978	152.35322
601.437	152.34006
601.895	150.31672
602.353	136.29497
602.811	148.32893
603.269	128.30074
603.727	132.31279
604.184	112.25326
604.642	101.24639
605.099	145.33369
605.557	103.24845
606.014	130.2769
606.471	106.26363
606.928	145.31777
607.385	120.29726
607.842	95.21679
608.299	124.28656
608.755	133.31778
609.212	73.16288
609.668	111.24849
610.125	130.30912
610.581	118.27367
611.037	78.17444
611.493	86.19977
611.949	73.17742
612.405	122.24617
612.861	72.16526
613.316	97.2307
613.772	134.30264
614.227	158.37266
614.683	76.1609
615.138	80.18686
615.593	59.13697
616.048	76.1734
616.503	46.11182
616.958	109.27006
617.412	118.27692
617.867	83.18504
618.321	72.14849
618.776	78.17127
619.23	33.07764
619.684	86.19082
620.138	91.20674
620.592	53.12847
621.046	141.32759
621.5	23.05563
621.954	46.10194
622.407	64.1413
622.861	74.17874
623.314	64.14454
623.768	91.21326
624.221	50.09871
624.674	67.15431
625.127	33.07697
625.58	56.1256
626.033	65.14173
626.485	74.17603
626.938	105.24723
627.39	83.19276
627.843	79.181
628.295	70.16067
628.747	91.2151
629.199	39.08896
629.651	68.15527
630.103	58.13276
630.555	76.15928
631.006	12.02807
631.458	64.14996
631.909	-10.02265
632.361	29.06709
632.812	21.04883
633.263	89.19151
633.714	19.04048
634.165	75.17851
634.616	41.09688
635.067	102.22189
635.518	53.12528
635.968	95.1846
636.419	91.19691
636.869	71.16704
637.319	70.16151
637.769	68.15214
638.219	44.10366
638.669	33.07849
639.119	16.03841
639.569	60.14322
640.019	96.21929
640.468	81.18014
640.918	61.14391
641.367	27.06062
641.816	53.11752
642.265	116.26658
642.714	14.03226
643.163	73.16766
643.612	69.16807
644.061	58.12376
644.51	63.14382
644.958	74.16242
645.406	26.06225
645.855	11.02681
646.303	55.12667
646.751	92.21075
647.199	57.12876
647.647	48.11128
648.095	69.15638
648.543	88.17683
648.99	86.20466
649.438	45.10389
649.885	49.1218
650.333	53.10284
650.78	80.19169
651.227	52.12683
651.674	53.12065
652.121	63.15374
652.568	51.12455
653.015	23.05696
653.461	38.09029
653.908	33.07582
654.354	101.23735
654.801	43.10069
655.247	52.1123
655.693	54.1397
656.139	40.0953
656.585	56.13311
657.031	85.19788
657.477	87.18833
657.922	15.03423
658.368	2.00494
658.813	28.06373
659.259	87.20875
659.704	109.25475
660.149	6.01391
660.594	32.07595
661.039	50.11362
661.484	17.04037
661.929	47.1095
662.373	14.0352
662.818	21.05197
663.262	39.09415
663.707	74.18659
664.151	50.12136
664.595	51.12283
665.039	50.1235
665.483	33.08379
665.927	58.13531
666.371	57.13348
666.814	58.13696
667.258	79.18861
667.701	76.16061
668.145	68.16783
668.588	93.22755
669.031	45.1055
669.474	43.10282
669.917	44.09616
670.36	45.11186
670.803	66.15827
671.245	-4.00825
671.688	66.15929
672.13	83.18581
672.573	22.05551
673.015	50.11999
673.457	58.12553
673.899	96.22898
674.341	44.10555
674.783	49.11685
675.225	47.11513
675.666	87.21041
676.108	49.10548
676.549	51.11812
676.991	48.10491
677.432	74.14547
677.873	20.04569
678.314	65.15334
678.755	93.22619
679.196	45.1024
679.637	-5.01202
680.078	106.2434
680.518	-1.00231
680.959	70.16492
681.399	33.08137
681.839	46.11098
682.28	63.15518
682.72	36.08204
683.16	75.18501
683.6	92.20617
684.039	58.11881
684.479	101.24537
684.919	47.10998
685.358	11.02736
685.798	50.12913
686.237	60.14174
686.676	-8.01818
687.115	90.2089
687.554	77.18201
687.993	77.16818
688.432	79.17788
688.871	93.20991
689.309	80.18935
689.748	81.16611
690.186	50.11596
690.625	52.12117
691.063	25.05944
691.501	79.19272
691.939	79.1963
692.377	52.12493
692.815	106.25448
693.253	49.1156
693.69	49.10639
694.128	21.05083
694.565	13.03074
695.003	80.20157
695.44	82.19138
695.877	48.11203
696.314	57.11869
696.751	56.12555
697.188	92.20965
697.625	53.11733
698.061	35.08324
698.498	61.1424
698.934	60.14169
699.371	41.09575
699.807	50.11683
700.243	74.17596
700.679	38.08403
701.115	69.15866
701.551	25.05774
701.987	5.0109
702.422	88.20643
702.858	64.15072
703.294	97.21814
703.729	55.13217
704.164	23.05458
704.599	64.14106
705.035	63.13947
705.47	53.12717
705.904	8.01847
706.339	68.15377
706.774	76.17507
707.209	62.14243
707.643	33.07831
708.078	54.12969
708.512	-23.05778
708.946	47.11002
709.38	66.15452
709.814	81.17991
710.248	96.23012
710.682	87.20517
711.116	85.2034
711.549	33.08343
711.983	49.11182
712.416	71.16587
712.85	67.16326
713.283	49.11425
713.716	-1.00247
714.149	37.08474
714.582	90.19803
715.015	39.09454
715.448	66.16367
715.881	67.14125
716.313	82.18777
716.746	62.14453
717.178	57.1351
717.61	79.1973
718.043	46.11207
718.475	57.1363
718.907	95.23184
719.339	58.12955
719.77	58.13691
720.202	16.03974
720.634	93.22348
721.065	19.04439
721.497	55.13262
721.928	25.06049
722.359	55.13202
722.79	34.08051
723.221	34.08336
723.652	34.08533
724.083	48.10633
724.514	82.18437
724.945	49.11299
725.375	64.14708
725.806	7.01711
726.236	55.13826
726.666	51.11831
727.096	53.12751
727.526	97.24436
727.956	51.11483
728.386	47.11341
728.816	88.22054
729.246	46.11199
729.675	39.09375
730.105	51.1226
730.534	0
730.964	27.06648
731.393	73.17495
731.822	89.22228
732.251	55.13722
732.68	76.17179
733.109	20.04882
733.537	37.08935
733.966	61.1497
734.395	44.10014
734.823	-19.04182
735.251	26.06166
735.68	60.14498
736.108	4.0099
736.536	37.08525
736.964	24.05489
737.392	35.08615
737.82	49.11479
738.247	59.13768
738.675	38.08775
739.102	-13.03222
739.53	61.15417
739.957	55.13999
740.384	23.05458
740.811	-39.09673
741.238	61.14686
741.665	81.18618
742.092	-43.09864
742.519	-4.00987
742.945	73.17382
743.372	56.13669
743.798	36.09071
744.225	-1.00234
744.651	46.11299
745.077	28.0688
745.503	23.0547
745.929	47.112
746.355	2.00481
746.781	-2.00486
747.207	7.01648
747.632	62.15116
748.058	84.20694
748.483	50.1127
748.908	59.14414
749.334	58.1403
749.759	106.24555
750.184	53.12552
750.609	60.14383
751.033	42.09606
751.458	71.15416
751.883	58.13961
752.307	25.05799
752.732	71.17797
753.156	38.09192
753.58	44.10164
754.005	8.01982
754.429	83.19208
754.853	65.15857
755.277	85.19678
755.7	40.09756
756.124	42.10263
756.548	50.11569
756.971	47.11247
757.394	27.06792
757.818	44.11158
758.241	83.20587
758.664	30.07459
759.087	52.11504
759.51	33.07993
759.933	63.14926
760.356	45.11422
760.778	62.14902
761.201	38.09001
761.623	7.01641
762.046	52.11859
762.468	71.16548
762.89	47.11217
763.312	72.17213
763.734	34.0806
764.156	31.07529
764.578	59.13099
765	71.16873
765.421	42.10541
765.843	62.15867
766.264	27.06268
766.686	46.11161
767.107	27.06431
767.528	63.1586
767.949	38.09458
768.37	62.15043
768.791	23.05411
769.212	18.04477
769.632	65.14875
770.053	20.05142
770.473	29.06852
770.894	-4.0097
771.314	38.08757
771.734	63.14295
772.154	40.09992
772.575	32.07212
772.994	38.08407
773.414	46.10664
773.834	35.08535
774.254	10.024
774.673	72.17174
775.093	104.251
775.512	36.08722
775.931	45.11178
776.351	15.03687
776.77	46.11064
777.189	52.12055
777.607	0
778.026	42.1024
778.445	28.06989
778.864	20.04969
779.282	17.0397
779.701	30.07372
780.119	37.09194
780.537	26.06339
780.955	46.11341
781.373	49.11802
781.791	87.19147
782.209	52.11379
782.627	32.08267
783.045	4.00892
783.462	46.11474
783.88	36.09139
784.297	8.0198
784.715	37.09351
785.132	14.03301
785.549	25.06115
785.966	25.06162
786.383	62.14924
786.8	33.0747
787.217	101.23327
787.633	44.1084
788.05	44.09933
788.466	24.05445
788.883	14.0354
789.299	-13.03036
789.715	55.13061
790.131	60.14503
790.547	27.06574
790.963	57.13718
791.379	18.04462
791.795	13.02863
792.21	23.05208
792.626	23.05276
793.041	36.08639
793.457	24.05751
793.872	15.03412
794.287	31.07345
794.702	-25.05962
795.117	51.1239
795.532	54.13279
795.947	0
796.362	-1.00228
796.776	19.04243
797.191	26.06225
797.605	43.09951
798.02	10.02376
798.434	57.12249
798.848	43.10459
799.262	13.03156
799.676	58.13702
800.09	26.0623
800.504	43.10073
800.918	18.04019
801.331	-28.07058
801.745	2.00446
802.158	2.00485
802.572	66.15458
802.985	31.07205
803.398	17.03936
803.811	2.00492
804.224	-1.0024
804.637	14.03269
805.05	31.06908
805.462	39.0924
805.875	10.02548
806.288	31.07328
806.7	28.06773
807.112	41.09107
807.525	-5.01186
807.937	-17.04138
808.349	10.02426
808.761	67.15984
809.173	70.1644
809.584	42.09999
809.996	10.02385
810.408	31.07893
810.819	6.01379
811.231	52.13546
811.642	67.16125
812.053	71.16743
812.464	-23.05342
812.875	10.02512
813.286	47.11866
813.697	83.18075
814.108	16.03783
814.519	94.20205
814.929	47.11577
815.34	47.10898
815.75	50.12436
816.16	33.0787
816.571	28.07053
816.981	1.00227
817.391	0
817.801	29.07032
818.211	41.0942
818.62	31.07282
819.03	82.19236
819.44	-22.05535
819.849	20.04845
820.259	41.10054
820.668	13.03129
821.077	16.0391
821.486	23.05297
821.895	30.07071
822.304	27.0695
822.713	10.02287
823.122	46.11077
823.531	-21.0479
823.939	93.21812
824.348	67.15554
824.756	30.07243
825.164	51.1233
825.573	-6.01472
825.981	49.11658
826.389	50.12109
826.797	133.32324
827.205	37.08269
827.612	33.07837
828.02	-23.05249
828.428	28.06913
828.835	39.10046
829.243	32.07313
829.65	31.0754
830.057	39.09093
830.464	66.15682
830.871	114.26093
831.278	39.09115
831.685	44.09388
832.092	41.0959
832.499	32.06783
832.905	46.11174
833.312	19.04102
833.718	56.13562
834.124	84.18374
834.531	30.07249
834.937	31.07748
835.343	39.08997
835.749	10.02227
836.155	40.10158
836.561	31.07393
836.966	62.1451
837.372	11.02708
837.777	27.06547
838.183	41.08701
838.588	50.12068
838.993	77.17982
839.399	47.11144
839.804	1.00238
840.209	55.13697
840.613	33.07049
841.018	37.09013
841.423	44.10931
841.828	38.09355
842.232	-20.04749
842.637	83.18941
843.041	47.11717
843.445	41.09856
843.849	62.14839
844.253	55.1251
844.657	27.06641
845.061	57.12639
845.465	52.12098
845.869	65.14461
846.272	24.05694
846.676	-9.02079
847.079	40.0993
847.483	63.15064
847.886	51.11816
848.289	39.10244
848.692	11.02687
849.095	-1.00232
849.498	79.18897
849.901	17.0373
850.304	19.04387
850.707	38.09334
851.109	87.20954
851.512	22.05254
851.914	-4.00991
852.316	46.11374
852.718	70.17896
853.121	50.11812
853.523	-24.05427
853.925	55.14024
854.326	37.09013
854.728	71.17643
855.13	41.10351
855.531	25.05792
855.933	24.05507
856.334	12.02932
856.736	30.0654
857.137	70.15726
857.538	6.01479
857.939	71.17107
858.34	51.11816
858.741	64.16068
859.142	13.03006
859.542	57.14647
859.943	31.07444
860.343	34.08203
860.744	86.2004
861.144	39.09269
861.544	49.1151
861.945	61.14947
862.345	18.04239
862.745	62.14936
863.145	3.00681
863.544	38.09317
863.944	65.14695
864.344	-5.01191
864.743	78.18498
865.143	80.19926
865.542	-29.06465
865.941	47.1126
866.34	-7.01606
866.74	29.07574
867.139	60.13998
867.537	21.05127
867.936	44.10245
868.335	65.15863
868.734	52.12848
869.132	15.03321
869.531	27.06221
869.929	22.04863
870.327	46.10605
870.726	73.17248
871.124	12.02687
871.522	24.05902
871.92	80.18884
872.318	11.02585
872.715	41.09624
873.113	19.04451
873.511	33.07912
873.908	24.05978
874.306	80.19235
874.703	9.02162
875.1	9.02202
875.497	11.02542
875.894	64.15359
876.291	53.12537
876.688	8.0201
877.085	43.09844
877.482	6.01457
877.878	68.15914
878.275	53.13016
878.671	12.02488
879.068	54.12504
879.464	28.06527
879.86	32.07289
880.256	28.06558
880.652	42.10309
881.048	-11.02622
881.444	18.04072
881.84	52.12711
882.236	23.0559
882.631	93.21906
883.027	21.04889
883.422	22.05414
883.817	47.11487
884.213	38.0943
884.608	39.09443
885.003	-6.01392
885.398	36.08712
885.793	18.04356
886.188	-9.02173
886.582	32.07857
886.977	68.15308
887.371	4.00975
887.766	3.0073
888.16	-9.02145
888.554	42.09922
888.949	56.13511
889.343	43.10046
889.737	9.02361
890.131	36.08722
890.525	93.22924
890.918	44.10664
891.312	35.07968
891.706	25.06345
892.099	51.12455
892.492	40.08186
892.886	72.16811
893.279	7.01727
893.672	55.13587
894.065	43.10392
894.458	25.06014
894.851	30.07035
895.244	20.04947
895.637	56.12988
896.029	61.14408
896.422	31.07205
896.814	25.05985
897.206	60.13899
897.599	87.20509
897.991	58.13547
898.383	31.07071
898.775	69.15039
899.167	56.12715
899.559	55.13262
899.951	54.12066
900.342	21.05117
900.734	30.0738
901.125	27.06814
901.517	36.08537
901.908	32.07266
902.299	40.09453
902.69	105.23738
903.082	79.18268
903.473	67.15622
903.863	18.04423
904.254	42.09482
904.645	43.10152
905.036	59.14005
905.426	44.09486
905.817	46.10774
906.207	-21.0481
906.597	91.20464
906.987	29.07209
907.378	104.25233
907.768	18.04641
908.158	15.03528
908.547	37.09385
908.937	-39.0967
909.327	23.05378
909.717	6.01452
910.106	8.0185
910.495	49.11618
910.885	69.1682
911.274	-5.01212
911.663	36.08731
912.052	30.07049
912.441	41.10147
912.83	11.02416
913.219	32.08072
913.608	31.07356
913.997	-8.01972
914.385	60.13722
914.774	18.04224
915.162	78.17961
915.55	59.13556
915.939	67.16375
916.327	-13.0313
916.715	51.12733
917.103	23.05363
917.491	52.12308
917.878	66.15495
918.266	18.04506
918.654	87.21461
919.041	41.10495
919.429	51.1153
919.816	72.17469
920.203	40.09435
920.591	48.11475
920.978	51.1199
921.365	31.07913
921.752	12.02717
922.139	46.09534
922.525	43.09971
922.912	65.15108
923.299	22.05296
923.685	-38.09619
924.072	23.04964
924.458	47.1126
924.844	14.03356
925.231	35.07742
925.617	33.08209
926.003	18.04441
926.389	14.0342
926.774	6.01469
927.16	40.09545
927.546	62.15488
927.931	-7.01685
928.317	39.0854
928.702	72.16155
929.088	74.17115
929.473	6.01496
929.858	62.14652
930.243	61.14184
930.628	40.09475
931.013	23.05519
931.398	49.10571
931.783	15.0379
932.167	76.17968
932.552	45.10814
932.937	36.08551
933.321	73.17715
933.705	-21.05098
934.09	37.08814
934.474	16.03625
934.858	37.09301
935.242	33.07318
935.626	37.09201
936.009	19.04964
936.393	45.11206
936.777	65.16105
937.16	66.16666
937.544	30.06673
937.927	14.03466
938.311	67.15517
938.694	43.1103
939.077	65.14875
939.46	7.01624
939.843	4.0078
940.226	-15.03729
940.609	75.1661
940.991	37.09026
941.374	31.07356
941.757	70.16447
942.139	70.15027
942.522	76.16982
942.904	56.129
943.286	58.14104
943.668	51.12885
944.05	50.11844
944.432	26.06164
944.814	43.10069
945.196	12.02856
945.578	36.08386
945.959	23.05128
946.341	38.08785
946.722	61.13583
947.104	77.17557
947.485	65.14437
947.866	36.08833
948.247	56.1373
948.628	3.00693
949.009	-15.03745
949.39	26.06202
949.771	9.01967
950.152	9.02141
950.532	52.12669
950.913	36.08333
951.293	41.10835
951.674	59.13665
952.054	86.20772
952.434	43.10294
952.814	38.08568
953.194	-6.01507
953.574	60.14081
953.954	14.0317
954.334	26.06323
954.714	4.0095
955.093	41.09688
955.473	63.153
955.853	18.04521
956.232	16.0426
956.611	35.07948
956.99	41.09976
957.37	17.04164
957.749	51.11446
958.128	74.17981
958.506	43.10794
958.885	22.05346
959.264	41.09808
959.643	84.18273
960.021	79.18861
960.4	83.17806
960.778	63.14608
961.156	-8.0194
961.535	11.02443
961.913	72.16155
962.291	48.12038
962.669	76.1855
963.047	43.10646
963.424	89.22043
963.802	46.10901
964.18	23.05523
964.557	64.13958
964.935	41.09303
965.312	39.09878
965.69	24.05742
966.067	27.06253
966.444	3.00701
966.821	39.09719
967.198	17.03926
967.575	39.09147
967.952	28.06319
968.329	29.06847
968.705	72.14735
969.082	64.16016
969.458	-4.00945
969.835	47.10976
970.211	65.16216
970.587	48.11515
970.963	21.05163
971.339	40.10147
971.715	36.08682
972.091	35.08286
972.467	-2.00476
972.843	20.0486
973.219	90.20293
973.594	19.04822
973.97	-19.04262
974.345	21.04869
974.721	23.05276
975.096	70.16331
975.471	70.15751
975.846	59.13442
976.221	8.01974
976.596	52.1217
976.971	68.16195
977.346	36.07958
977.72	14.03435
978.095	-9.02262
978.469	14.03206
978.844	65.15548
979.218	41.09601
979.593	74.16802
979.967	-14.03243
980.341	17.03787
980.715	87.20994
981.089	45.10822
981.463	28.06171
981.837	29.06921
982.21	4.00871
982.584	62.14396
982.957	15.0365
983.331	53.11777
983.704	111.26237
984.078	34.08051
984.451	15.0354
984.824	40.09435
985.197	0
985.57	-4.00957
985.943	15.03506
986.316	56.12936
986.688	47.10838
987.061	89.19875
987.434	114.28724
987.806	26.05973
988.179	22.04971
988.551	21.05123
988.923	-15.03565
989.295	51.12158
989.667	78.18061
990.039	72.17331
990.411	-1.00218
990.783	56.12104
991.155	-2.00468
991.527	70.16106
991.898	58.1394
992.27	80.19104
992.641	46.1101
993.012	22.04835
993.384	20.04567
993.755	38.09403
994.126	81.18737
994.497	16.03794
994.868	37.08027
995.239	59.13627
995.61	24.05841
995.98	-11.02587
996.351	2.00484
996.722	34.07663
997.092	7.0161
997.462	47.10656
997.833	46.1033
998.203	21.04823
998.573	44.10583
998.943	90.20144
999.313	57.13154
999.683	41.09481
1000.053	-6.01299
1000.423	21.04875
1000.792	-5.01245
1001.162	-15.03558
1001.531	68.16064
1001.901	-1.0024
1002.27	-20.04225
1002.639	7.01719
1003.009	11.02515
1003.378	36.08898
1003.747	32.07201
1004.116	17.03911
1004.485	44.10067
1004.853	13.03138
1005.222	-19.04569
1005.591	16.03643
1005.959	37.08016
1006.328	52.11206
1006.696	-1.00232
1007.064	-16.03872
1007.433	51.1212
1007.801	25.05797
1008.169	25.06021
1008.537	57.11975
1008.905	48.10779
1009.273	68.15908
1009.64	11.02569
1010.008	11.02521
1010.375	62.14088
1010.743	75.1586
1011.11	109.24914
1011.478	50.11967
1011.845	51.1138
1012.212	63.13743
1012.579	41.09688
1012.946	-22.05013
1013.313	48.10814
1013.68	26.05557
1014.047	32.07319
1014.414	36.08134
1014.78	44.10555
1015.147	16.03677
1015.513	33.07637
1015.88	47.11461
1016.246	27.06325
1016.612	75.16118
1016.978	46.10892
1017.344	82.19364
1017.71	34.07901
1018.076	28.06259
1018.442	69.17077
1018.808	81.19531
1019.174	41.09823
1019.539	50.10455
1019.905	39.08867
1020.27	17.04039
1020.636	13.02957
1021.001	91.20749
1021.366	54.12469
1021.731	113.28058
1022.096	37.09087
1022.461	78.17602
1022.826	100.22705
1023.191	24.06099
1023.556	13.02913
1023.92	7.01645
1024.285	-11.0257
1024.649	63.14643
1025.014	17.04009
1025.378	58.14083
1025.742	35.08276
1026.107	67.14318
1026.471	52.1149
1026.835	13.03112
1027.199	38.08799
1027.562	15.03311
1027.926	62.14379
1028.29	30.07328
1028.654	59.12848
1029.017	93.21795
1029.381	36.08283
1029.744	50.12268
1030.107	100.22364
1030.471	58.13345
1030.834	-1.00215
1031.197	79.18064
1031.56	-32.07286
1031.923	25.06262
1032.286	73.16282
1032.648	24.05427
1033.011	64.14201
1033.374	55.12171
1033.736	4.01023
1034.099	28.06571
1034.461	41.10058
1034.823	94.22387
1035.185	15.0361
1035.548	52.12179
1035.91	7.01613
1036.272	59.12854
1036.634	44.1031
1036.995	17.03806
1037.357	13.03069
1037.719	27.06328
1038.08	103.23343
1038.442	14.03192
1038.803	25.05664
1039.165	25.06051
1039.526	71.16365
1039.887	7.01613
1040.248	43.10364
1040.609	-6.01419
1040.97	3.00706
1041.331	57.13952
1041.692	63.14295
1042.053	36.07771
1042.413	0
1042.774	72.16732
1043.134	45.10091
1043.495	29.07019
1043.855	75.17542
1044.215	20.04754
1044.576	19.04407
1044.936	90.19354
1045.296	43.10298
1045.656	12.02806
1046.016	44.101
1046.375	47.10916
1046.735	48.10588
1047.095	51.11398
1047.454	19.03787
1047.814	42.09683
1048.173	23.05191
1048.533	12.0264
1048.892	6.01397
1049.251	2.00482
1049.61	-2.00477
1049.969	21.04736
1050.328	59.1211
1050.687	3.007
1051.046	11.02571
1051.405	19.04508
1051.763	66.14608
1052.122	7.01685
1052.48	64.15043
1052.839	89.20211
1053.197	43.09662
1053.555	20.0426
1053.914	25.05859
1054.272	-7.01597
1054.63	-1.00237
1054.988	64.14649
1055.345	55.11029
1055.703	48.11075
1056.061	67.16734
1056.419	65.16434
1056.776	17.03893
1057.134	-49.1082
1057.491	27.06518
1057.848	5.01195
1058.206	-15.03351
1058.563	40.08364
1058.92	73.15863
1059.277	24.05698
1059.634	18.04002
1059.991	80.1826
1060.348	15.03268
1060.704	83.19269
1061.061	38.08252
1061.418	5.01173
1061.774	42.09953
1062.131	32.08319
1062.487	1.00224
1062.843	23.05521
1063.199	50.11931
1063.555	27.06059
1063.911	16.03875
1064.267	33.06412
1064.623	19.04502
1064.979	-16.03521
1065.335	8.01823
1065.691	21.04755
1066.046	24.05021
1066.402	29.06251
1066.757	77.18574
1067.112	18.04232
1067.468	8.01848
1067.823	-17.03868
1068.178	18.04156
1068.533	37.08597
1068.888	95.21346
1069.243	53.12528
1069.598	14.03252
1069.952	45.099
1070.307	25.05996
1070.662	71.16274
1071.016	53.11483
1071.371	81.17542
1071.725	63.14202
1072.079	47.10842
1072.434	32.07501
1072.788	30.06745
1073.142	82.19221
1073.496	37.08379
1073.85	13.02887
1074.203	66.15289
1074.557	79.20427
1074.911	82.18406
1075.265	43.09531
1075.618	89.20662
1075.971	-18.04138
1076.325	27.06677
1076.678	19.04171
1077.031	8.01697
1077.385	35.07304
1077.738	13.02805
1078.091	40.08776
1078.444	17.03734
1078.796	56.13239
1079.149	50.11949
1079.502	44.10023
1079.855	62.1378
1080.207	46.10812
1080.56	19.04785
1080.912	10.02341
1081.264	55.12713
1081.617	56.13106
1081.969	21.0515
1082.321	27.0631
1082.673	38.08435
1083.025	-5.01137
1083.377	286.60943
1083.728	13.02895
1084.08	19.0454
1084.432	37.08512
1084.783	8.01763
1085.135	47.11367
1085.486	15.03318
1085.838	37.08786
1086.189	51.11962
1086.54	56.12689
1086.891	57.14117
1087.242	63.14932
1087.593	-33.07676
1087.944	54.11747
1088.295	54.11627
1088.646	69.16284
1088.996	14.03273
1089.347	9.02116
1089.698	38.08712
1090.048	11.02748
1090.398	36.07915
1090.749	45.10186
1091.099	48.11755
1091.449	64.15318
1091.799	38.0914
1092.149	16.03824
1092.499	48.11216
1092.849	33.08098
1093.199	22.05262
1093.548	116.26636
1093.898	47.1123
1094.248	21.05155
1094.597	26.06502
1094.947	47.12132
1095.296	74.17542
1095.645	29.07248
1095.994	57.13065
1096.343	61.14764
1096.692	68.17476
1097.041	45.11988
1097.39	11.02648
1097.739	24.06026
1098.088	20.05154
1098.437	48.12358
1098.785	11.02856
1099.134	17.04298
1099.482	47.12562
1099.83	21.05347
1100.179	79.20165
1100.527	-16.04095
1100.875	49.12604
1101.223	56.14442
1101.571	-14.03769
1101.919	33.08542
1102.267	46.12688
1102.615	12.0385
1102.962	5.01603
1103.31	11.0353
1103.658	0
