Data from N1 R0 sample 2_Subt2__5__12-30-03-731.txt Node

Date: Tue Sep 16 12:30:03 PDT 2025
User: uwsun
Spectrometer: HDX01956
Trigger mode: 0
Integration Time (sec): 5.000000E-1
Scans to average: 1
Nonlinearity correction enabled: true
Boxcar width: 0
Storing dark spectrum: false
XAxis mode: Wavelengths
Number of Pixels in Spectrum: 2068
>>>>>Begin Spectral Data<<<<<
194.03	-3.00871
194.578	0
195.127	-2.00641
195.676	-3.00966
196.225	2.00534
196.773	23.06405
197.321	13.03633
197.87	23.06003
198.418	52.13601
198.966	56.1496
199.513	46.11896
200.061	51.13169
200.609	92.24456
201.156	47.10509
201.704	53.13552
202.251	52.1402
202.798	47.12375
203.345	61.15345
203.892	50.1285
204.438	64.15417
204.985	54.13063
205.532	33.08832
206.078	29.07232
206.624	98.24825
207.17	93.22068
207.716	50.12495
208.262	57.11562
208.808	65.16586
209.354	75.18813
209.899	52.13299
210.445	48.12228
210.99	53.13175
211.535	92.21944
212.08	51.12069
212.625	69.17463
213.17	132.33722
213.715	104.24015
214.259	99.23355
214.804	32.08002
215.348	90.21071
215.892	112.27388
216.436	69.15981
216.98	92.20413
217.524	91.22
218.068	75.19157
218.612	134.34137
219.155	61.14653
219.698	63.15208
220.242	43.10778
220.785	106.2507
221.328	67.1674
221.871	108.2764
222.414	67.1674
222.956	15.03662
223.499	53.11992
224.041	35.08135
224.583	107.22628
225.126	93.20528
225.668	75.18371
226.21	72.18388
226.751	90.2021
227.293	46.10554
227.835	55.13642
228.376	29.06709
228.918	36.09084
229.459	63.15871
230	120.28831
230.541	53.12343
231.082	77.18896
231.622	22.05068
232.163	34.08321
232.704	121.30274
233.244	49.123
233.784	2.00494
234.324	89.20187
234.864	21.04835
235.404	44.10491
235.944	70.16613
236.484	91.22801
237.023	88.20837
237.563	68.15971
238.102	81.1928
238.641	42.10677
239.18	86.20316
239.719	93.23353
240.258	36.0822
240.797	36.08731
241.335	38.09362
241.874	108.21151
242.412	106.25825
242.95	76.18523
243.488	39.08889
244.026	96.2245
244.564	98.20293
245.102	130.29432
245.64	70.16837
246.177	62.13923
246.715	98.23626
247.252	27.06233
247.789	63.11856
248.326	43.10513
248.863	70.15584
249.4	118.26748
249.936	121.25409
250.473	136.32078
251.009	82.18905
251.546	127.28372
252.082	38.08344
252.618	44.10002
253.154	78.18918
253.69	72.16301
254.226	114.27327
254.761	107.24082
255.297	47.10422
255.832	96.22942
256.367	77.18236
256.903	88.19729
257.438	77.18187
257.972	83.18627
258.507	69.15981
259.042	70.15402
259.576	116.2576
260.111	65.15078
260.645	71.15508
261.179	111.26064
261.713	79.1786
262.247	60.13855
262.781	78.16629
263.315	73.17835
263.849	88.22149
264.382	77.17833
264.915	88.20974
265.449	50.12359
265.982	116.2638
266.515	108.26547
267.048	66.1418
267.58	30.06596
268.113	77.16825
268.646	29.07206
269.178	40.09089
269.71	161.35388
270.243	106.24671
270.775	95.24487
271.307	67.1607
271.838	57.13614
272.37	53.13136
272.902	82.18716
273.433	109.24281
273.965	78.19088
274.496	53.1328
275.027	105.26214
275.558	109.26679
276.089	75.18901
276.62	30.07672
277.15	76.1882
277.681	78.16946
278.211	86.21085
278.741	78.17516
279.272	104.23919
279.802	50.12585
280.332	58.13877
280.861	47.11389
281.391	59.13594
281.921	19.04626
282.45	46.11549
282.98	90.23556
283.509	107.24476
284.038	100.23027
284.567	110.25713
285.096	76.18613
285.625	48.10969
286.153	92.22154
286.682	77.1789
287.21	14.03401
287.739	66.15773
288.267	104.25441
288.795	36.09528
289.323	51.12167
289.851	101.2391
290.378	47.10652
290.906	89.21946
291.433	85.21337
291.961	110.25269
292.488	80.19991
293.015	81.19324
293.542	139.35679
294.069	92.22965
294.596	65.16052
295.122	151.36106
295.649	47.1047
296.175	118.28436
296.702	100.24608
297.228	106.25612
297.754	101.2289
298.28	117.27054
298.806	85.20666
299.332	92.20812
299.857	71.16365
300.383	102.25756
300.908	93.2305
301.433	122.29989
301.958	97.22412
302.483	69.17283
303.008	106.26507
303.533	86.22325
304.058	68.16052
304.582	70.16761
305.107	38.10037
305.631	76.17452
306.155	90.21179
306.679	97.23017
307.203	117.27301
307.727	57.13723
308.251	115.28482
308.775	130.31719
309.298	103.25014
309.822	48.12237
310.345	115.27645
310.868	136.32848
311.391	134.33023
311.914	102.25719
312.437	123.28261
312.96	102.24236
313.482	74.17617
314.005	65.16422
314.527	74.19415
315.049	105.26735
315.571	107.24329
316.093	103.25687
316.615	75.18221
317.137	110.24214
317.659	122.29667
318.18	89.21419
318.702	97.22981
319.223	103.21266
319.744	128.28991
320.265	98.24107
320.786	133.33325
321.307	122.30254
321.828	127.28829
322.348	106.25177
322.869	126.30192
323.389	346.65198
323.909	149.34084
324.43	82.19843
324.95	95.22028
325.47	131.3261
325.989	132.31472
326.509	124.28028
327.029	130.29911
327.548	132.30104
328.067	121.29572
328.587	164.41055
329.106	58.13345
329.625	116.3032
330.144	132.30904
330.662	136.32127
331.181	150.35503
331.7	113.26513
332.218	103.22697
332.736	144.33859
333.255	160.37738
333.773	137.32508
334.291	189.47013
334.808	141.32007
335.326	130.29456
335.844	177.4161
336.361	181.46426
336.879	134.3179
337.396	171.41636
337.913	146.33941
338.43	179.40369
338.947	174.41549
339.464	175.3785
339.981	138.32928
340.497	155.38163
341.014	150.3668
341.53	136.30953
342.046	221.54692
342.562	149.37226
343.078	164.38697
343.594	179.42506
344.11	233.552
344.626	186.4678
345.141	173.39669
345.657	220.49442
346.172	183.44091
346.687	179.41094
347.202	202.4603
347.717	246.57885
348.232	212.52378
348.747	215.49378
349.261	213.4662
349.776	250.58666
350.29	237.58651
350.805	263.63866
351.319	192.44546
351.833	220.50354
352.347	226.52931
352.861	222.51729
353.374	218.49254
353.888	249.60081
354.401	215.48665
354.915	251.56096
355.428	273.6679
355.941	179.41735
356.454	222.49072
356.967	207.48035
357.48	215.48467
357.993	259.62659
358.505	213.51396
359.018	275.66128
359.53	265.63651
360.042	230.51159
360.554	278.66786
361.066	241.57887
361.578	265.5778
362.09	245.57571
362.602	242.53493
363.113	279.6451
363.625	252.56563
364.136	249.54108
364.647	293.68042
365.158	256.58781
365.669	256.60238
366.18	264.61151
366.691	246.53353
367.201	233.55264
367.712	322.71828
368.222	303.68246
368.733	286.61102
369.243	321.69989
369.753	295.66553
370.263	347.81153
370.773	227.5467
371.282	314.73105
371.792	336.75631
372.301	288.68056
372.811	330.83937
373.32	351.73671
373.829	327.74885
374.338	307.66681
374.847	361.80476
375.356	323.74029
375.865	405.83203
376.373	402.87554
376.882	449.07568
377.39	398.91926
377.898	359.85076
378.407	394.85812
378.915	440.91473
379.423	407.90428
379.93	561.20455
380.438	458.03764
380.946	525.13634
381.453	543.20835
381.96	569.25321
382.468	587.2675
382.975	673.48935
383.482	651.31696
383.989	677.57328
384.495	699.4613
385.002	687.28778
385.509	765.61283
386.015	825.45289
386.521	862.68678
387.028	888.72218
387.534	840.54151
388.04	1015.03691
388.546	948.75321
389.051	995.81152
389.557	1128.1
390.063	1122.03019
390.568	1213.30707
391.073	1229.11852
391.578	1301.46536
392.084	1465.44133
392.589	1443.26903
393.093	1608.74461
393.598	1699.68489
394.103	1819.91089
394.607	2041.12169
395.112	2160.29278
395.616	2322.32384
396.12	2497.09804
396.624	2716.31011
397.128	2972.46822
397.632	3345.31437
398.136	3530.14603
398.639	3782.2092
399.143	4211.40827
399.646	4861.7374
400.15	5246.39114
400.653	5966.92006
401.156	6712.67732
401.659	7830.32164
402.162	9535.56639
402.664	12969.58186
403.167	18419.54826
403.67	37082.37927
404.172	60647.34887
404.674	63858.43483
405.176	63738.15102
405.678	63977.72923
406.18	64011.81569
406.682	63863.44694
407.184	63926.60148
407.686	63841.39382
408.187	52300.09556
408.688	31030.25895
409.19	21614.63096
409.691	17418.99809
410.192	14646.83521
410.693	12705.90667
411.194	11459.41944
411.694	10826.48168
412.195	9832.29504
412.696	8993.48722
413.196	8425.41634
413.696	8207.51521
414.196	8311.37295
414.696	8015.49715
415.196	7476.94144
415.696	6695.6422
416.196	5451.32134
416.695	4410.93103
417.195	3701.36803
417.694	3604.55488
418.194	3276.71871
418.693	3218.15375
419.192	3096.34054
419.691	2979.26183
420.19	2940.44988
420.688	2836.55283
421.187	2674.59881
421.685	2580.20062
422.184	2303.17902
422.682	1965.66573
423.18	1732.70742
423.678	1543.51794
424.176	1393.35972
424.674	1325.21263
425.172	1314.35138
425.669	1203.3266
426.167	1164.12883
426.664	1015.87691
427.161	916.76137
427.659	867.7921
428.156	914.61381
428.652	794.74235
429.149	748.5904
429.646	738.4336
430.143	732.54083
430.639	636.35028
431.135	663.48303
431.632	556.1566
432.128	543.19287
432.624	565.33241
433.12	504.05802
433.616	543.0841
434.111	501.09677
434.607	456.01551
435.103	492.94763
435.598	522.99142
436.093	436.94877
436.588	431.9066
437.083	347.73988
437.578	476.01891
438.073	376.89189
438.568	380.88502
439.062	366.74089
439.557	365.80795
440.051	296.63868
440.546	307.66795
441.04	359.8175
441.534	319.76793
442.028	317.73003
442.522	303.69696
443.015	278.57332
443.509	325.75383
444.002	307.71884
444.496	229.48278
444.989	263.61559
445.482	258.61676
445.975	292.64759
446.468	246.51577
446.961	254.53325
447.454	228.49661
447.947	250.57702
448.439	236.56115
448.931	246.54649
449.424	250.61493
449.916	304.70917
450.408	245.5419
450.9	200.47373
451.392	193.47833
451.884	222.49543
452.375	197.47553
452.867	172.37925
453.358	212.47253
453.849	208.43321
454.341	250.54475
454.832	212.44547
455.323	260.62391
455.814	163.3661
456.304	192.43362
456.795	179.40005
457.285	197.4228
457.776	193.42903
458.266	160.37269
458.756	132.30759
459.247	178.41624
459.737	240.56099
460.226	229.50545
460.716	197.45859
461.206	173.40479
461.695	150.36393
462.185	200.46199
462.674	170.38049
463.163	206.44926
463.653	218.44999
464.142	181.42815
464.63	136.32426
465.119	158.36033
465.608	184.42064
466.096	169.35895
466.585	178.39692
467.073	115.26803
467.561	164.38486
468.05	169.38036
468.538	187.44474
469.026	144.33529
469.513	139.28879
470.001	175.39257
470.489	183.42399
470.976	151.34624
471.463	154.37546
471.951	125.30573
472.438	148.34093
472.925	150.34636
473.412	136.32414
473.899	126.2848
474.385	99.23979
474.872	140.3207
475.359	141.34036
475.845	109.22363
476.331	93.19667
476.817	119.28541
477.303	150.34181
477.789	87.20548
478.275	124.30289
478.761	69.16303
479.247	128.28117
479.732	117.28776
480.218	157.40257
480.703	86.20999
481.188	144.30619
481.673	143.32276
482.158	75.16166
482.643	114.28714
483.128	152.34749
483.612	143.3346
484.097	82.19619
484.581	116.26487
485.066	142.34142
485.55	118.25779
486.034	112.24012
486.518	135.31786
487.002	40.09723
487.486	75.18084
487.969	75.18105
488.453	57.14128
488.936	68.15264
489.42	60.13263
489.903	89.2193
490.386	-1.0021
490.869	131.28273
491.352	56.13434
491.835	31.06386
492.318	43.09682
492.8	112.22942
493.283	95.23992
493.765	31.07613
494.247	117.26861
494.73	103.22573
495.212	53.12537
495.694	84.19667
496.175	95.2262
496.657	137.31868
497.139	69.11844
497.62	81.19354
498.102	81.20017
498.583	20.04927
499.064	94.20787
499.545	97.21903
500.026	111.24829
500.507	49.11281
500.988	101.24969
501.469	63.15626
501.949	85.20813
502.43	114.27129
502.91	150.31227
503.39	87.21374
503.87	111.25932
504.35	113.26088
504.83	110.23776
505.31	120.28502
505.79	27.06404
506.269	73.16672
506.749	120.27035
507.228	114.26502
507.707	183.39767
508.187	154.36055
508.666	138.33608
509.145	183.41675
509.623	161.36873
510.102	202.47421
510.581	229.5335
511.059	199.48688
511.538	211.52752
512.016	255.58704
512.494	215.5001
512.972	269.61704
513.45	274.61122
513.928	333.76626
514.406	379.87209
514.884	382.92632
515.361	384.86009
515.839	431.91817
516.316	427.96404
516.793	454.05892
517.27	476.04918
517.747	477.12811
518.224	551.14084
518.701	542.07433
519.178	582.3121
519.654	610.28544
520.131	579.29124
520.607	564.24192
521.083	587.1835
521.56	585.23295
522.036	600.15404
522.512	655.43321
522.987	619.32813
523.463	584.2392
523.939	664.45934
524.414	565.15787
524.89	574.23013
525.365	470.97187
525.84	512.12066
526.315	468.04228
526.79	472.97426
527.265	476.00617
527.74	418.94392
528.215	376.82101
528.689	403.81896
529.164	318.64372
529.638	329.7914
530.112	331.73606
530.587	297.60328
531.061	301.6943
531.534	305.6996
532.008	291.67605
532.482	296.64771
532.956	180.44832
533.429	270.63408
533.903	225.47581
534.376	272.57456
534.849	237.52508
535.322	209.47827
535.795	143.33932
536.268	226.52931
536.741	149.34713
537.213	187.41862
537.686	198.47135
538.158	189.41874
538.631	127.30333
539.103	141.31331
539.575	149.30086
540.047	174.3703
540.519	192.44669
540.991	144.34518
541.463	132.31279
541.934	165.36481
542.406	144.3403
542.877	151.33455
543.348	167.39488
543.82	163.38826
544.291	173.39494
544.762	120.28238
545.233	157.39068
545.703	129.28331
546.174	101.23243
546.645	158.37527
547.115	187.44063
547.585	141.31929
548.056	192.46093
548.526	204.47142
548.996	120.2837
549.466	160.38163
549.935	216.50133
550.405	198.42357
550.875	171.39792
551.344	174.40609
551.814	201.44848
552.283	255.53546
552.752	228.51807
553.221	198.42632
553.69	290.62708
554.159	261.62667
554.628	291.63126
555.096	235.57964
555.565	275.58281
556.033	317.72041
556.502	296.68318
556.97	331.6978
557.438	291.65356
557.906	365.81165
558.374	414.89517
558.842	351.79541
559.31	409.85275
559.777	442.00254
560.245	408.87238
560.712	441.93457
561.18	428.87789
561.647	484.98154
562.114	516.07516
562.581	562.2525
563.048	588.20481
563.514	613.38235
563.981	611.24552
564.448	612.22918
564.914	674.37507
565.381	680.36158
565.847	713.44651
566.313	719.45007
566.779	708.38373
567.245	734.47189
567.711	825.68391
568.176	775.48592
568.642	848.82659
569.108	873.81818
569.573	881.70574
570.038	925.57187
570.504	954.76608
570.969	925.92144
571.434	1044.85069
571.899	997.93343
572.363	1031.90656
572.828	1091.99373
573.293	1048.92796
573.757	1098.02586
574.222	1084.92378
574.686	1149.07028
575.15	1179.23143
575.614	1195.20049
576.078	1119.08165
576.542	1175.07863
577.006	1183.06692
577.469	1135.2271
577.933	1088.96978
578.396	1172.17894
578.86	1170.15699
579.323	1110.13871
579.786	1190.97361
580.249	1194.19372
580.712	1052.07504
581.175	1053.11137
581.637	1113.00213
582.1	1072.8436
582.563	1086.80339
583.025	1095.14142
583.487	1108.76061
583.95	970.67919
584.412	1055.74355
584.874	991.99203
585.336	999.93915
585.797	1021.77662
586.259	937.81519
586.721	911.78154
587.182	1022.90538
587.643	904.70579
588.105	876.74087
588.566	830.44306
589.027	899.85498
589.488	862.66294
589.949	847.74994
590.41	817.34381
590.87	830.60877
591.331	886.60574
591.791	829.62862
592.252	782.56395
592.712	756.56909
593.172	748.46755
593.632	758.44594
594.092	711.37418
594.552	746.38518
595.011	657.32547
595.471	685.35864
595.931	706.38699
596.39	660.40251
596.849	628.29907
597.308	611.14957
597.768	635.46923
598.227	581.25613
598.685	612.24049
599.144	628.31705
599.603	538.13946
600.062	563.05961
600.52	575.16458
600.978	529.13525
601.437	538.10567
601.895	542.04428
602.353	485.97346
602.811	522.06791
603.269	505.0967
603.727	488.07433
604.184	533.09957
604.642	479.08333
605.099	467.00327
605.557	458.02797
606.014	463.91472
606.471	420.98431
606.928	465.95012
607.385	484.11617
607.842	412.87979
608.299	436.94474
608.755	461.02984
609.212	454.9329
609.668	387.81692
610.125	419.94059
610.581	401.87762
611.037	401.83682
611.493	350.77039
611.949	384.87847
612.405	417.78444
612.861	371.80032
613.316	366.82518
613.772	355.76548
614.227	403.90505
614.683	378.74731
615.138	371.81677
615.593	324.71257
616.048	356.76615
616.503	300.69434
616.958	318.75754
617.412	340.76312
617.867	270.57859
618.321	313.61053
618.776	294.61613
619.23	203.46174
619.684	293.62204
620.138	261.57246
620.592	257.59896
621.046	295.66445
621.5	279.64202
621.954	228.48606
622.407	286.60201
622.861	234.54804
623.314	204.44754
623.768	250.56759
624.221	261.48975
624.674	242.53783
625.127	220.49422
625.58	226.48911
626.033	234.49191
626.485	173.40368
626.938	218.50197
627.39	180.41
627.843	220.48975
628.295	195.43635
628.747	285.64823
629.199	271.58913
629.651	187.41672
630.103	188.41904
630.555	192.39205
631.006	182.41154
631.458	158.36338
631.909	181.39399
632.361	124.28142
632.812	165.37272
633.263	207.4341
633.714	140.29041
634.165	123.29006
634.616	140.32443
635.067	168.36033
635.518	163.37705
635.968	149.2858
636.419	209.44081
636.869	190.43663
637.319	149.33837
637.769	141.3107
638.219	193.44148
638.669	90.2117
639.119	99.23392
639.569	110.26006
640.019	154.34766
640.468	125.27545
640.918	114.26617
641.367	105.23196
641.816	145.31536
642.265	197.44537
642.714	91.20649
643.163	145.32821
643.612	152.36449
644.061	142.29746
644.51	145.32554
644.958	133.28828
645.406	121.28446
645.855	111.26552
646.303	129.29271
646.751	130.29552
647.199	123.27411
647.647	99.22719
648.095	152.33866
648.543	130.2587
648.99	161.3776
649.438	76.17438
649.885	149.36361
650.333	126.24022
650.78	131.31084
651.227	101.24409
651.674	126.28259
652.121	127.30622
652.568	151.36188
653.015	77.18882
653.461	113.26461
653.908	112.25326
654.354	136.31741
654.801	101.23382
655.247	134.2843
655.693	108.27678
656.139	137.32031
656.585	131.30688
657.031	121.27968
657.477	139.29755
657.922	97.21769
658.368	104.25195
658.813	104.23306
659.259	126.30007
659.704	180.41481
660.149	73.16699
660.594	109.25485
661.039	54.12261
661.484	103.24054
661.929	139.31796
662.373	65.16193
662.818	79.19344
663.262	68.16325
663.707	120.30008
664.151	122.29211
664.595	77.18454
665.039	85.20859
665.483	104.26073
665.927	124.28553
666.371	131.30231
666.814	71.16724
667.258	180.42142
667.701	139.28969
668.145	122.29811
668.588	164.39596
669.031	91.21143
669.474	130.30567
669.917	160.3411
670.36	124.30379
670.803	137.32408
671.245	49.0999
671.688	111.26562
672.13	124.27525
672.573	94.23413
673.015	109.25864
673.457	110.23542
673.899	118.28027
674.341	104.24663
674.783	89.21061
675.225	99.24016
675.666	119.28607
676.108	122.2585
676.549	43.09975
676.991	86.18645
677.432	104.203
677.873	88.19826
678.314	82.19281
678.755	116.28092
679.196	98.22061
679.637	84.19844
680.078	93.21411
680.518	115.25893
680.959	84.19736
681.399	93.22679
681.839	76.18232
682.28	143.34702
682.72	84.18956
683.16	119.29116
683.6	130.28905
684.039	139.27951
684.479	96.23345
684.919	115.2655
685.358	48.1186
685.798	68.17507
686.237	90.21137
686.676	92.20481
687.115	154.35291
687.554	145.33821
687.993	160.34332
688.432	91.20439
688.871	94.21213
689.309	138.32296
689.748	156.31449
690.186	83.19124
690.625	99.22856
691.063	72.16963
691.501	165.39604
691.939	196.4766
692.377	106.25206
692.815	160.38016
693.253	78.18298
693.69	94.20214
694.128	84.2009
694.565	140.32289
695.003	151.37562
695.44	93.21659
695.877	105.24231
696.314	130.2663
696.751	152.33403
697.188	168.37694
697.625	106.23206
698.061	67.15837
698.498	93.21573
698.934	110.25724
699.371	142.32502
699.807	93.21548
700.243	128.3012
700.679	125.2714
701.115	130.29528
701.551	79.1805
701.987	94.20109
702.422	153.35435
702.858	86.20166
703.294	188.41487
703.729	120.2848
704.164	110.25663
704.599	152.32883
705.035	179.38665
705.47	69.16505
705.904	103.23334
706.339	99.22245
706.774	122.27846
707.209	97.22126
707.643	113.26399
708.078	116.2753
708.512	81.19966
708.946	82.19063
709.38	123.28476
709.814	123.27081
710.248	128.30495
710.682	124.29031
711.116	169.39791
711.549	60.15096
711.983	98.22142
712.416	155.35613
712.85	90.21836
713.283	163.37151
713.716	110.26599
714.149	83.18834
714.582	122.26664
715.015	67.16155
715.448	97.23918
715.881	100.20929
716.313	120.27268
716.746	97.22456
717.178	88.20732
717.61	86.21452
718.043	79.19128
718.475	82.19514
718.907	132.3199
719.339	96.21274
719.77	133.30937
720.202	64.15755
720.634	102.24469
721.065	106.2434
721.497	95.22733
721.928	87.20803
722.359	65.15572
722.79	78.18312
723.221	84.20404
723.652	60.14988
724.083	95.20837
724.514	136.30239
724.945	53.12212
725.375	93.21248
725.806	63.15243
726.236	98.24445
726.666	104.23871
727.096	109.25944
727.526	83.20962
727.956	94.20978
728.386	68.16344
728.816	71.17848
729.246	124.29746
729.675	35.0842
730.105	73.17475
730.534	94.21342
730.964	84.20465
731.393	113.26875
731.822	98.24436
732.251	71.17662
732.68	92.20727
733.109	64.15493
733.537	60.14426
733.966	126.30548
734.395	82.1852
734.823	40.08694
735.251	98.22917
735.68	71.1712
736.108	45.11055
736.536	56.12854
736.964	38.08666
737.392	43.10568
737.82	39.09154
738.247	86.19961
738.675	36.08316
739.102	71.17327
739.53	92.23123
739.957	100.25251
740.384	27.06402
740.811	4.00984
741.238	89.21314
741.665	72.16579
742.092	-20.04567
742.519	85.20619
742.945	68.16207
743.372	88.21351
743.798	81.20245
744.225	60.13888
744.651	54.13244
745.077	65.15863
745.503	58.13702
745.929	109.25665
746.355	42.10026
746.781	57.13708
747.207	79.1834
747.632	79.192
748.058	126.308
748.483	56.12606
748.908	37.09077
749.334	87.2093
749.759	143.32882
750.184	87.20469
750.609	73.17455
751.033	77.17486
751.458	89.1925
751.883	60.14437
752.307	27.06261
752.732	75.18786
753.156	53.12784
753.58	57.13133
754.005	48.11803
754.429	95.21932
754.853	102.24711
755.277	82.18995
755.7	88.21271
756.124	7.01722
756.548	9.02099
756.971	118.27854
757.394	53.13271
757.818	64.16172
758.241	55.13712
758.664	46.11403
759.087	102.2233
759.51	30.07271
759.933	62.14692
760.356	74.18686
760.778	69.16562
761.201	40.09471
761.623	18.04211
762.046	53.12085
762.468	110.25441
762.89	45.10744
763.312	142.33493
763.734	45.10645
764.156	57.13775
764.578	81.17901
765	53.12639
765.421	42.10541
765.843	49.12569
766.264	60.13838
766.686	27.06574
767.107	32.07615
767.528	86.2156
767.949	62.15364
768.37	70.16958
768.791	113.26119
769.212	45.11137
769.632	68.15552
770.053	-8.02067
770.473	33.07791
770.894	19.04587
771.314	56.12859
771.734	48.10925
772.154	62.15426
772.575	91.20263
772.994	18.03999
773.414	17.03964
773.834	65.15762
774.254	55.13086
774.673	103.24422
775.093	86.20827
775.512	53.12799
775.931	70.17308
776.351	65.15827
776.77	47.11303
777.189	57.13201
777.607	39.09755
778.026	54.13136
778.445	55.13662
778.864	32.07933
779.282	41.0953
779.701	16.03942
780.119	24.05978
780.537	43.10451
780.955	58.14268
781.373	18.04361
781.791	121.26439
782.209	46.10079
782.627	13.0337
783.045	31.06874
783.462	64.15912
783.88	57.14416
784.297	72.17607
784.715	34.08598
785.132	26.06116
785.549	26.06358
785.966	35.08611
786.383	74.17772
786.8	72.16168
787.217	90.20832
787.633	25.0618
788.05	25.05666
788.466	38.08596
788.883	88.21958
789.299	9.02093
789.715	70.16575
790.131	-14.03431
790.547	45.1092
790.963	75.17988
791.379	62.15246
791.795	77.16733
792.21	55.12374
792.626	21.04819
793.041	25.06012
793.457	31.07418
793.872	46.10398
794.287	70.16459
794.702	68.15927
795.117	40.09738
795.532	74.1813
795.947	33.07607
796.362	-7.01601
796.776	81.17857
797.191	69.16385
797.605	10.02329
798.02	17.04034
798.434	81.17317
798.848	108.25948
799.262	55.13247
799.676	41.09718
800.09	72.17101
800.504	11.02593
800.918	-7.01571
801.331	26.0649
801.745	27.05987
802.158	44.10579
802.572	93.21667
802.985	47.1089
803.398	30.06927
803.811	22.05394
804.224	45.10711
804.637	36.08369
805.05	49.10879
805.462	53.12523
805.875	26.06605
806.288	-13.03099
806.7	7.017
807.112	15.0335
807.525	-10.02375
807.937	16.0387
808.349	69.16556
808.761	75.17865
809.173	86.20135
809.584	19.04543
809.996	47.11131
810.408	22.05611
810.819	4.0092
811.231	68.17665
811.642	60.14459
812.053	101.23679
812.464	30.06894
812.875	44.10983
813.286	71.17848
813.697	55.12049
814.108	53.1244
814.519	108.23144
814.929	86.2103
815.34	16.03733
815.75	84.20762
816.16	-12.02886
816.571	49.12296
816.981	24.05423
817.391	51.11765
817.801	38.09199
818.211	52.11921
818.62	83.19299
819.03	28.06638
819.44	35.08716
819.849	1.00243
820.259	23.05659
820.668	49.11712
821.077	35.08522
821.486	19.0438
821.895	25.05898
822.304	-7.01813
822.713	66.14924
823.122	28.06766
823.531	7.01588
823.939	52.12294
824.348	84.19435
824.756	36.08682
825.164	37.08969
825.573	16.0391
825.981	38.0906
826.389	55.13307
826.797	72.17698
827.205	88.19461
827.612	2.00478
828.02	-4.00909
828.428	18.04452
828.835	41.10557
829.243	22.05038
829.65	59.14275
830.057	41.09556
830.464	89.21053
830.871	67.1548
831.278	46.10736
831.685	50.10655
832.092	17.03995
832.499	68.14301
832.905	51.12376
833.312	-8.01737
833.718	74.1786
834.124	99.21587
834.531	27.06528
834.937	65.16146
835.343	14.03246
835.749	22.04888
836.155	38.09654
836.561	44.10467
836.966	23.05424
837.372	4.00986
837.777	40.09676
838.183	25.05324
838.588	49.11829
838.993	47.11041
839.399	45.10674
839.804	-9.02145
840.209	42.10484
840.613	-27.05842
841.018	34.08287
841.423	36.08957
841.828	28.06906
842.232	22.05181
842.637	95.21626
843.041	42.1048
843.445	48.11524
843.849	39.09375
844.253	56.12735
844.657	49.12003
845.061	112.24551
845.465	2.0047
845.869	56.12482
846.272	10.02379
846.676	2.00461
847.079	80.19716
847.483	3.00726
847.886	41.09518
848.289	27.07107
848.692	43.10443
849.095	27.06236
849.498	53.12741
849.901	-3.00661
850.304	48.11018
850.707	47.11525
851.109	62.15003
851.512	53.12581
851.914	30.07385
852.316	50.12354
852.718	52.13336
853.121	53.12513
853.523	9.02021
853.925	40.10226
854.326	38.09255
854.728	40.09996
855.13	49.12353
855.531	63.14487
855.933	21.04821
856.334	52.12612
856.736	66.14278
857.137	74.16611
857.538	33.08095
857.939	70.16869
858.34	14.03268
858.741	37.09334
859.142	28.06455
859.542	53.13628
859.943	57.13619
860.343	35.08443
860.744	79.18434
861.144	48.11388
861.544	41.09646
861.945	26.06412
862.345	49.1147
862.745	38.09196
863.145	38.08565
863.544	37.09073
863.944	53.12012
864.344	26.06159
864.743	70.16626
865.143	103.25547
865.542	1.00222
865.941	44.10547
866.34	31.0706
866.74	28.07314
867.139	105.2428
867.537	-9.02209
867.936	57.13238
868.335	30.07369
868.734	55.13582
869.132	-12.02671
869.531	33.07594
869.929	75.16395
870.327	75.17191
870.726	9.02153
871.124	8.01793
871.522	6.0148
871.92	50.11871
872.318	29.06791
872.715	28.06589
873.113	43.10026
873.511	21.05046
873.908	-1.0025
874.306	36.08728
874.703	17.04077
875.1	-8.01964
875.497	29.06677
875.894	51.12269
876.291	78.18362
876.688	26.06511
877.085	25.05744
877.482	53.1276
877.878	95.22116
878.275	45.11068
878.671	7.01453
879.068	29.06748
879.464	79.18231
879.86	27.06156
880.256	30.07024
880.652	38.09334
881.048	26.06154
881.444	4.00907
881.84	8.01972
882.236	32.07764
882.631	61.14458
883.027	33.07664
883.422	16.03942
883.817	37.0906
884.213	50.12381
884.608	89.21346
885.003	7.0162
885.398	9.02189
885.793	32.07723
886.188	15.03606
886.582	40.09807
886.977	53.11968
887.371	46.11127
887.766	-1.00243
888.16	28.06627
888.554	10.02377
888.949	42.1016
889.343	35.0819
889.737	9.02361
890.131	32.07758
890.525	44.10943
890.918	39.09461
891.312	29.0661
891.706	58.14635
892.099	58.14146
892.492	45.09199
892.886	10.02363
893.279	14.0345
893.672	31.07692
894.065	61.14692
894.458	59.14102
894.851	54.12603
895.244	28.06916
895.637	87.20053
896.029	54.12772
896.422	-6.01405
896.814	51.12148
897.206	50.11605
897.599	83.19581
897.991	73.17001
898.383	38.08656
898.775	124.26711
899.167	51.11591
899.559	26.06304
899.951	55.12287
900.342	34.08265
900.734	49.12011
901.125	23.05809
901.517	26.06178
901.908	44.09966
902.299	45.10624
902.69	93.21077
903.082	59.13697
903.473	86.19977
903.863	28.06868
904.254	100.22308
904.645	8.01902
905.036	61.14475
905.426	51.10979
905.817	14.033
906.207	-8.01827
906.597	68.15364
906.987	72.17757
907.378	64.15645
907.768	67.17126
908.158	16.03762
908.547	57.14406
908.937	-26.06431
909.327	56.13008
909.717	30.0723
910.106	9.0208
910.495	27.06429
910.885	65.15857
911.274	21.05067
911.663	26.06318
912.052	45.10542
912.441	57.14066
912.83	19.04166
913.219	72.18031
913.608	56.13224
913.997	60.14607
914.385	72.16427
914.774	39.09115
915.162	43.09971
915.55	44.1014
915.939	34.08361
916.327	5.012
916.715	56.13969
917.103	41.09526
917.491	40.0949
917.878	58.13638
918.266	8.02006
918.654	54.13401
919.041	46.11764
919.429	26.05908
919.816	46.11215
920.203	54.12702
920.591	38.09102
920.978	65.15239
921.365	25.06388
921.752	15.03394
922.139	79.16252
922.525	3.00701
922.912	64.14878
923.299	24.05775
923.685	-32.08092
924.072	-12.02609
924.458	28.06732
924.844	58.13787
925.231	29.06423
925.617	31.07714
926.003	22.05424
926.389	39.09482
926.774	21.05129
927.16	59.14027
927.546	43.10778
927.931	14.03357
928.317	17.0374
928.702	74.16597
929.088	58.13457
929.473	30.07445
929.858	35.08315
930.243	76.17619
930.628	42.09945
931.013	66.15706
931.398	4.00871
931.783	26.06556
932.167	77.18201
932.552	24.0579
932.937	59.13951
933.321	50.12186
933.705	-37.09009
934.09	43.10231
934.474	29.06554
934.858	12.0303
935.242	-22.04934
935.626	30.0747
936.009	45.11704
936.393	73.18087
936.777	32.07976
937.16	96.24111
937.544	61.13481
937.927	29.07159
938.311	66.15289
938.694	54.13825
939.077	60.13744
939.46	35.08074
939.843	29.05622
940.226	32.07886
940.609	88.19436
940.991	21.05138
941.374	54.12757
941.757	11.02614
942.139	78.16715
942.522	42.09451
942.904	57.13128
943.286	33.08062
943.668	71.17874
944.05	49.11609
944.432	31.07342
944.814	32.0751
945.196	-9.0215
945.578	59.13681
945.959	6.01342
946.341	28.06486
946.722	58.12923
947.104	54.1237
947.485	81.17931
947.866	66.16104
948.247	43.10568
948.628	-9.02085
949.009	21.05209
949.39	51.12106
949.771	18.03926
950.152	69.16228
950.532	66.16038
950.913	57.13139
951.293	37.09785
951.674	56.12977
952.054	94.2267
952.434	23.05527
952.814	6.01362
953.194	24.05997
953.574	82.19161
953.954	12.02718
954.334	49.11864
954.714	70.16408
955.093	103.24044
955.473	27.06601
955.853	83.20602
956.232	27.07176
956.611	25.05689
956.99	53.12867
957.37	22.05384
957.749	5.01133
958.128	45.10994
958.506	36.09048
958.885	10.02435
959.264	60.143
959.643	76.16561
960.021	40.09621
960.4	44.09519
960.778	57.13233
961.156	-8.0194
961.535	16.0355
961.913	101.22527
962.291	18.04539
962.669	18.04441
963.047	53.13098
963.424	88.21799
963.802	49.11605
964.18	33.07909
964.557	31.06808
964.935	52.11773
965.312	44.11134
965.69	42.10014
966.067	-6.01399
966.444	-7.01639
966.821	64.15877
967.198	24.05535
967.575	35.08215
967.952	37.08334
968.329	90.20997
968.705	100.20336
969.082	44.11051
969.458	52.12146
969.835	49.11439
970.211	89.22107
970.587	98.23285
970.963	36.08826
971.339	42.10651
971.715	16.03873
972.091	64.15066
972.467	19.04505
972.843	55.13277
973.219	47.10691
973.594	37.09361
973.97	21.04672
974.345	70.16074
974.721	23.05276
975.096	52.12175
975.471	45.10178
975.846	39.08921
976.221	36.08836
976.596	52.1217
976.971	94.22275
977.346	57.12545
977.72	41.10009
978.095	64.15877
978.469	93.20957
978.844	76.18142
979.218	105.2428
979.593	36.08237
979.967	-3.00693
980.341	4.00893
980.715	67.16229
981.089	18.04351
981.463	57.12487
981.837	47.11178
982.21	40.08646
982.584	30.0701
982.957	40.09687
983.331	4.00898
983.704	45.10773
984.078	26.06166
984.451	-14.03323
984.824	32.0756
985.197	-25.05806
985.57	-17.04076
985.943	10.02339
986.316	38.0881
986.688	40.09237
987.061	64.14366
987.434	105.26499
987.806	21.04829
988.179	-23.05244
988.551	55.13332
988.923	31.07302
989.295	68.16157
989.667	79.18289
990.039	77.18517
990.411	-18.03944
990.783	50.10821
991.155	11.02567
991.527	69.15879
991.898	31.07489
992.27	27.06513
992.641	31.07441
993.012	36.07888
993.384	16.03656
993.755	61.15031
994.126	120.27544
994.497	27.06389
994.868	26.05654
995.239	41.09503
995.61	21.05113
995.98	-10.02351
996.351	67.16009
996.722	75.16762
997.092	43.09821
997.462	69.15574
997.833	41.09216
998.203	20.04594
998.573	25.06035
998.943	84.18824
999.313	72.16566
999.683	15.03486
1000.053	10.02158
1000.423	28.06491
1000.792	31.07667
1001.162	2.00473
1001.531	55.13026
1001.901	32.07639
1002.27	17.03562
1002.639	24.05876
1003.009	39.08867
1003.378	36.08898
1003.747	40.08986
1004.116	52.11878
1004.485	38.08705
1004.853	-14.03397
1005.222	-12.02882
1005.591	64.14431
1005.959	62.13361
1006.328	14.03042
1006.696	27.06233
1007.064	-19.046
1007.433	58.13765
1007.801	27.06258
1008.169	12.02897
1008.537	62.13011
1008.905	34.07657
1009.273	47.11041
1009.64	66.15246
1010.008	10.02293
1010.375	76.17221
1010.743	37.0789
1011.11	88.20199
1011.478	65.15513
1011.845	81.17961
1012.212	74.16105
1012.579	60.14125
1012.946	45.10116
1013.313	41.0925
1013.68	52.11052
1014.047	40.09134
1014.414	27.06112
1014.78	30.07216
1015.147	46.10508
1015.513	47.10846
1015.88	70.16997
1016.246	15.03522
1016.612	100.21374
1016.978	75.17659
1017.344	67.15868
1017.71	81.18648
1018.076	41.09141
1018.442	99.24367
1018.808	30.07303
1019.174	29.06964
1019.539	6.01267
1019.905	17.03883
1020.27	48.11335
1020.636	40.09049
1021.001	80.18282
1021.366	19.04418
1021.731	109.27085
1022.096	40.09818
1022.461	7.01603
1022.826	51.11695
1023.191	40.10136
1023.556	4.00898
1023.92	36.08412
1024.285	34.07873
1024.649	11.02583
1025.014	39.09158
1025.378	23.05621
1025.742	-3.00715
1026.107	83.17675
1026.471	90.19728
1026.835	41.09763
1027.199	20.04648
1027.562	6.01327
1027.926	21.0491
1028.29	49.11927
1028.654	62.13493
1029.017	67.15782
1029.381	33.07597
1029.744	37.091
1030.107	78.17523
1030.471	58.13345
1030.834	47.10005
1031.197	69.15809
1031.56	75.16707
1031.923	26.06511
1032.286	67.14962
1032.648	27.06102
1033.011	78.17256
1033.374	53.11733
1033.736	2.00512
1034.099	46.10757
1034.461	17.04189
1034.823	46.11056
1035.185	0
1035.548	70.16338
1035.91	27.06196
1036.272	39.08533
1036.634	76.17696
1036.995	36.08028
1037.357	51.11952
1037.719	68.15808
1038.08	74.1687
1038.442	40.09071
1038.803	15.03405
1039.165	18.04362
1039.526	57.13175
1039.887	37.08474
1040.248	52.12512
1040.609	46.10766
1040.97	98.22629
1041.331	54.13225
1041.692	76.172
1042.053	86.18366
1042.413	26.05764
1042.774	104.24015
1043.134	33.07418
1043.495	11.02671
1043.855	72.16851
1044.215	-4.00955
1044.576	15.03482
1044.936	70.15118
1045.296	35.08395
1045.656	17.03972
1046.016	54.1237
1046.375	41.09533
1046.735	92.20107
1047.095	2.00452
1047.454	82.16105
1047.814	81.18529
1048.173	59.13219
1048.533	63.13714
1048.892	-5.01167
1049.251	2.00482
1049.61	47.1111
1049.969	-13.02952
1050.328	77.15741
1050.687	35.08113
1051.046	5.0117
1051.405	74.17373
1051.763	47.10444
1052.122	19.04562
1052.48	50.11784
1052.839	88.19988
1053.197	36.08101
1053.555	27.05742
1053.914	30.07024
1054.272	-8.01826
1054.63	48.11278
1054.988	79.18028
1055.345	5.01014
1055.703	86.19692
1056.061	46.11532
1056.419	56.14181
1056.776	-4.0092
1057.134	-1.00219
1057.491	37.08915
1057.848	40.09497
1058.206	3.00668
1058.563	36.07535
1058.92	76.16505
1059.277	41.09703
1059.634	20.04445
1059.991	101.22955
1060.348	44.09527
1060.704	89.20637
1061.061	28.06094
1061.418	52.12084
1061.774	75.17659
1062.131	40.10384
1062.487	16.03569
1062.843	65.15477
1063.199	25.05994
1063.555	54.12051
1063.911	-10.02434
1064.267	35.06798
1064.623	32.07562
1064.979	-4.00878
1065.335	48.1085
1065.691	10.0227
1066.046	50.104
1066.402	18.03889
1066.757	58.14041
1067.112	9.0212
1067.468	54.1236
1067.823	24.05416
1068.178	19.04387
1068.533	73.1684
1068.888	42.0954
1069.243	34.08066
1069.598	13.0302
1069.952	64.14023
1070.307	38.09092
1070.662	70.16048
1071.016	45.09766
1071.371	24.05261
1071.725	16.03642
1072.079	29.06714
1072.434	37.08664
1072.788	22.04955
1073.142	42.09922
1073.496	27.06127
1073.85	20.04436
1074.203	58.13457
1074.557	81.20937
1074.911	63.14197
1075.265	14.03122
1075.618	80.18605
1075.971	45.10215
1076.325	69.16933
1076.678	9.0198
1077.031	-19.04055
1077.385	76.15716
1077.738	4.00865
1078.091	45.09862
1078.444	65.14131
1078.796	49.116
1079.149	56.13368
1079.502	52.11826
1079.855	62.1378
1080.207	69.16145
1080.56	58.14504
1080.912	52.12074
1081.264	72.16586
1081.617	51.11948
1081.969	32.07831
1082.321	73.16907
1082.673	62.13694
1083.025	26.05875
1083.377	55.12308
1083.728	28.06215
1084.08	15.03587
1084.432	-1.00232
1084.783	16.03519
1085.135	55.13282
1085.486	-11.02446
1085.838	81.19072
1086.189	53.12426
1086.54	28.06381
1086.891	43.10677
1087.242	96.22608
1087.593	18.04145
1087.944	120.25738
1088.295	39.08424
1088.646	86.20229
1088.996	26.06063
1089.347	55.12814
1089.698	35.08029
1090.048	37.09201
1090.398	54.11827
1090.749	-9.0206
1091.099	54.1321
1091.449	59.14135
1091.799	53.12712
1092.149	-26.06263
1092.499	43.10058
1092.849	40.09803
1093.199	32.07639
1093.548	48.11172
1093.898	9.02166
1094.248	-8.01974
1094.597	48.11956
1094.947	41.10594
1095.296	63.14966
1095.645	33.08242
1095.994	44.10112
1096.343	64.15482
1096.692	57.14677
1097.041	68.18046
1097.39	41.09815
1097.739	36.09019
1098.088	49.12565
1098.437	35.09031
1098.785	26.06733
1099.134	-4.01015
1099.482	28.07507
1099.83	27.06868
1100.179	85.21673
1100.527	-10.02557
1100.875	36.09281
1101.223	72.18517
1101.571	1.00269
1101.919	21.05447
1102.267	54.14876
1102.615	1.00321
1102.962	1.00321
1103.31	13.0417
1103.658	1.00321
