Data from N1 R0 sample 5_Subt2__1__11-55-35-262.txt Node

Date: Tue Sep 16 11:55:35 PDT 2025
User: uwsun
Spectrometer: HDX01956
Trigger mode: 0
Integration Time (sec): 5.000000E-1
Scans to average: 1
Nonlinearity correction enabled: true
Boxcar width: 0
Storing dark spectrum: false
XAxis mode: Wavelengths
Number of Pixels in Spectrum: 2068
>>>>>Begin Spectral Data<<<<<
194.03	-5.01453
194.578	5.01625
195.127	7.02242
195.676	8.02572
196.225	18.04793
196.773	18.05017
197.321	2.0056
197.87	8.02093
198.418	60.15672
198.966	68.1813
199.513	56.14457
200.061	66.16998
200.609	71.18939
201.156	53.11836
201.704	-1.00258
202.251	59.15889
202.798	27.07133
203.345	146.36166
203.892	33.08506
204.438	2.00487
204.985	86.20678
205.532	21.05632
206.078	39.09709
206.624	55.14039
207.17	89.21135
207.716	74.18411
208.262	74.14952
208.808	57.14565
209.354	74.18565
209.899	67.1709
210.445	8.02052
210.99	59.1465
211.535	100.23815
212.08	54.12772
212.625	53.13452
213.17	75.19352
213.715	89.20613
214.259	60.14262
214.804	46.11474
215.348	50.11798
215.892	75.18466
216.436	45.10472
216.98	41.09194
217.524	55.13387
218.068	95.24181
218.612	96.2462
219.155	89.21265
219.698	102.24441
220.242	67.16721
220.785	59.14081
221.328	56.14019
221.871	96.2462
222.414	97.24103
222.956	2.00489
223.499	55.1244
224.041	-4.00937
224.583	3.00649
225.126	29.06487
225.668	71.17404
226.21	78.19899
226.751	72.16228
227.293	58.13276
227.835	14.03498
228.376	57.13112
228.918	47.11836
229.459	34.0861
230	109.26243
230.541	25.05854
231.082	65.15987
231.622	34.07814
232.163	46.11232
232.704	92.23139
233.244	57.14288
233.784	82.1997
234.324	95.21521
234.864	28.06437
235.404	15.03596
235.944	71.16847
236.484	99.2477
237.023	37.08847
237.563	85.19897
238.102	98.2325
238.641	38.09667
239.18	68.1612
239.719	38.09636
240.258	67.15203
240.797	37.08972
241.335	60.14721
241.874	92.18086
242.412	103.25108
242.95	74.18042
243.488	17.03892
244.026	70.16453
244.564	80.16632
245.102	88.20094
245.64	46.11115
246.177	47.10587
246.715	103.24807
247.252	26.06004
247.789	66.12412
248.326	37.09056
248.863	67.14925
249.4	54.124
249.936	135.28261
250.473	95.22586
251.009	46.10681
251.546	53.12021
252.082	36.07908
252.618	77.17387
253.154	68.16524
253.69	67.15184
254.226	95.22855
254.761	63.14307
255.297	27.06012
255.832	50.12054
256.367	90.21261
256.903	114.25421
257.438	82.19349
257.972	47.10626
258.507	26.06073
259.042	51.11267
259.576	87.19436
260.111	61.14161
260.645	74.16153
261.179	90.2122
261.713	93.20965
262.247	45.10422
262.781	82.17466
263.315	17.04197
263.849	79.19916
264.382	76.17605
264.915	89.21208
265.449	36.08921
265.982	85.19452
266.515	79.19523
267.048	102.21745
267.58	92.19962
268.113	106.2302
268.646	52.12867
269.178	57.12908
269.71	116.25738
270.243	172.39511
270.775	166.42258
271.307	57.13697
271.838	99.23455
272.37	34.08456
272.902	82.18716
273.433	120.2667
273.965	45.1108
274.496	62.1551
275.027	94.23515
275.558	104.25479
276.089	79.19895
276.62	50.12742
277.15	71.17598
277.681	64.13946
278.211	63.15512
278.741	53.11963
279.272	79.1826
279.802	73.18298
280.332	47.11269
280.861	55.13307
281.391	70.16093
281.921	69.16644
282.45	69.17252
282.98	78.20457
283.509	90.20658
284.038	75.17356
284.567	78.18348
285.096	84.20541
285.625	77.17493
286.153	130.31079
286.682	57.13296
287.21	23.05577
287.739	96.2281
288.267	93.22797
288.795	81.21277
289.323	80.18979
289.851	86.20418
290.378	40.09078
290.906	70.17321
291.433	89.22324
291.961	113.25942
292.488	88.21958
293.015	93.22136
293.542	154.39425
294.069	128.31742
294.596	59.14586
295.122	133.31911
295.649	56.12451
296.175	50.12204
296.702	113.2774
297.228	69.16788
297.754	60.13711
298.28	157.36015
298.806	31.07613
299.332	108.24352
299.857	69.15911
300.383	106.26746
300.908	117.28871
301.433	150.3668
301.958	96.22185
302.483	36.09071
303.008	109.27243
303.533	82.21302
304.058	97.22768
304.582	115.27298
305.107	57.15008
305.631	79.1813
306.155	84.1979
306.679	86.2045
307.203	106.24788
307.727	131.31096
308.251	92.22881
308.775	117.28616
309.298	99.24061
309.822	55.14004
310.345	120.2882
310.868	140.33789
311.391	114.28198
311.914	78.19752
312.437	114.2624
312.96	97.2307
313.482	42.1006
314.005	26.06614
314.527	79.20709
315.049	150.37889
315.571	101.22992
316.093	133.32988
316.615	107.25839
317.137	119.26146
317.659	117.28478
318.18	105.25193
318.702	129.30373
319.223	91.18839
319.744	83.18971
320.265	132.32267
320.786	138.34546
321.307	98.24409
321.828	113.25724
322.348	115.27267
322.869	132.31593
323.389	133.26374
323.909	118.27161
324.43	127.30472
324.95	133.30607
325.47	110.27488
325.989	123.29377
326.509	141.3176
327.029	158.36149
327.548	136.30991
328.067	109.26699
328.587	171.42753
329.106	125.28375
329.625	123.32111
330.144	152.35447
330.662	141.33276
331.181	191.44848
331.7	114.26743
332.218	159.34625
332.736	166.38864
333.255	166.39108
333.773	93.22255
334.291	196.48692
334.808	175.3945
335.326	132.29897
335.844	163.38423
336.361	192.49152
336.879	166.39138
337.396	225.54229
337.913	152.35294
338.43	223.49838
338.947	168.40163
339.464	166.35973
339.981	162.38477
340.497	148.36487
341.014	129.31668
341.53	99.22701
342.046	209.51836
342.562	222.54728
343.078	206.48209
343.594	136.32563
344.11	232.54973
344.626	188.47266
345.141	201.4583
345.657	174.39474
346.172	226.54006
346.687	189.43302
347.202	252.56842
347.717	199.47255
348.232	205.50714
348.747	202.46513
349.261	216.47247
349.776	255.5978
350.29	224.55566
350.805	229.55965
351.319	213.49212
351.833	242.55144
352.347	211.49563
352.861	208.48601
353.374	231.52052
353.888	272.65344
354.401	217.49098
354.915	230.51626
355.428	267.65395
355.941	241.55503
356.454	257.56392
356.967	193.44911
357.48	210.47388
357.993	217.52914
358.505	178.43235
359.018	239.57865
359.53	257.61824
360.042	294.64524
360.554	275.66103
361.066	241.57887
361.578	285.61877
362.09	305.70829
362.602	318.69173
363.113	314.72096
363.625	291.64793
364.136	255.55341
364.647	273.63649
365.158	266.60955
365.669	292.68225
366.18	268.62028
366.691	218.47563
367.201	295.69129
367.712	316.70577
368.222	331.74125
368.733	291.62103
369.243	305.66726
369.753	290.65492
370.263	335.78531
370.773	297.70576
371.282	390.89434
371.792	376.8394
372.301	286.6761
372.811	338.8585
373.32	362.75795
373.829	349.79569
374.338	382.81645
374.847	319.71732
375.356	361.82105
375.865	439.89496
376.373	419.90927
376.882	431.03601
377.39	423.97213
377.898	386.90995
378.407	432.93328
378.915	541.0976
379.423	453.99684
379.93	577.2347
380.438	451.0232
380.946	563.20886
381.453	573.2673
381.96	641.39074
382.468	693.46281
382.975	711.56109
383.482	692.38692
383.989	711.64129
384.495	786.61184
385.002	785.43641
385.509	857.77062
386.015	931.59487
386.521	911.76223
387.028	973.84921
387.534	935.67543
388.04	1044.0813
388.546	973.78836
389.051	1129.98684
389.557	1255.2643
390.063	1221.15477
390.568	1348.48137
391.073	1372.2773
391.578	1448.64764
392.084	1484.46046
392.589	1509.32907
393.093	1674.80822
393.598	1836.79195
394.103	2029.06178
394.607	2173.20126
395.112	2256.34709
395.616	2466.3828
396.12	2694.1337
396.624	2994.32952
397.128	3279.4528
397.632	3583.25754
398.136	3916.00802
398.639	4047.10213
399.143	4636.19604
399.646	5266.5086
400.15	5818.09901
400.653	6458.7696
401.156	7485.80792
401.659	8635.04221
402.162	10794.45183
402.664	14876.53072
403.167	23648.41435
403.67	56156.1245
404.172	62808.3349
404.674	63858.43483
405.176	63738.15102
405.678	63977.72923
406.18	64011.81569
406.682	63863.44694
407.184	63926.60148
407.686	63841.39382
408.187	46847.2021
408.688	29129.71421
409.19	21209.77622
409.691	17426.08383
410.192	14746.73774
410.693	12932.45157
411.194	11834.31971
411.694	11241.18339
412.195	10219.33457
412.696	9143.7552
413.196	8734.89198
413.696	8416.72468
414.196	8733.95437
414.696	8298.723
415.196	7780.0886
415.696	6687.64275
416.196	5418.33892
416.695	4399.93677
417.195	3949.27893
417.694	3703.51456
418.194	3472.65964
418.693	3276.14371
419.192	3151.33629
419.691	3117.25423
420.19	3013.45189
420.688	2896.56007
421.187	2813.59194
421.685	2497.18049
422.184	2350.19824
422.682	2001.68442
423.18	1743.71625
423.678	1607.57701
424.176	1441.4102
424.674	1379.26964
425.172	1337.37869
425.669	1230.36372
426.167	1162.12623
426.664	1115.00983
427.161	977.85143
427.659	897.84176
428.156	920.6219
428.652	838.82199
429.149	748.5904
429.646	750.45279
430.143	669.42752
430.639	674.41924
431.135	651.45976
431.632	594.22535
432.128	575.25479
432.624	568.33871
433.12	539.12292
433.616	515.03476
434.111	481.05734
434.607	491.08569
435.103	427.83528
435.598	468.90054
436.093	440.95666
436.588	417.87986
437.083	399.84114
437.578	411.89381
438.073	410.96613
438.568	385.89578
439.062	338.6886
439.557	280.6308
440.051	281.60827
440.546	277.60653
441.04	278.64343
441.534	251.61203
442.028	310.71491
442.522	283.65357
443.015	220.45963
443.509	301.70148
444.002	248.58741
444.496	193.4101
444.989	257.60226
445.482	234.56195
445.975	274.60995
446.468	242.50783
446.961	264.55302
447.454	217.47375
447.947	247.57044
448.439	262.61985
448.931	268.59264
449.424	252.61962
449.916	271.6363
450.408	236.52297
450.9	202.47828
451.392	226.55673
451.884	196.43976
452.375	166.40305
452.867	194.42578
453.358	197.44046
453.849	220.45698
454.341	220.48244
454.832	208.43745
455.323	213.5157
455.814	160.35958
456.304	200.45095
456.795	200.44505
457.285	142.30838
457.776	201.44607
458.266	141.32966
458.756	144.33476
459.247	190.44326
459.737	186.43938
460.226	206.45688
460.716	194.45188
461.206	158.37078
461.695	156.37806
462.185	159.37028
462.674	170.38049
463.163	177.38839
463.653	145.30421
464.142	164.38922
464.63	181.42782
465.119	163.37136
465.608	217.49278
466.096	166.35281
466.585	209.46305
467.073	104.24292
467.561	194.45259
468.05	141.31916
468.538	137.32896
469.026	102.23946
469.513	140.2908
470.001	138.31192
470.489	150.34981
470.976	186.4235
471.463	176.42733
471.951	145.35332
472.438	120.27798
472.925	144.33291
473.412	113.27051
473.899	139.31335
474.385	147.35284
474.872	101.23317
475.359	117.28371
475.845	152.30882
476.331	130.27268
476.817	125.29946
477.303	104.23919
477.789	83.19619
478.275	95.2333
478.761	109.25555
479.247	95.21013
479.732	126.30937
480.218	111.28691
480.703	82.20037
481.188	86.18517
481.673	119.26991
482.158	124.26447
482.643	145.36318
483.128	170.38723
483.612	158.36861
484.097	93.22204
484.581	156.35333
485.066	166.3973
485.55	169.36521
486.034	147.31277
486.518	119.28106
487.002	53.12852
487.486	99.23763
487.969	55.13327
488.453	81.19988
488.936	122.27081
489.42	101.22135
489.903	91.22414
490.386	42.0872
490.869	140.30157
491.352	70.16748
491.835	135.27159
492.318	118.2616
492.8	106.21743
493.283	122.30662
493.765	52.12721
494.247	151.3443
494.73	107.2343
495.212	99.2321
495.694	152.35112
496.175	180.42158
496.657	153.35477
497.139	171.28551
497.62	143.33761
498.102	191.46244
498.583	108.26174
499.064	163.35526
499.545	199.43997
500.026	230.50181
500.507	237.52508
500.988	274.65575
501.469	238.57134
501.949	284.66955
502.43	333.75891
502.91	383.75595
503.39	306.72113
503.87	404.88922
504.35	378.82642
504.83	426.85839
505.31	482.06243
505.79	487.04991
506.269	563.15636
506.749	615.24289
507.228	734.49425
507.707	778.47483
508.187	829.68062
508.666	930.9237
509.145	918.77706
509.623	1020.92977
510.102	1162.21036
510.581	1248.31839
511.059	1322.5482
511.538	1398.72954
512.016	1619.71306
512.494	1729.82272
512.972	1885.93541
513.45	1977.88492
513.928	2128.16626
514.406	2316.30897
514.884	2476.66685
515.361	2568.26308
515.839	2806.0836
516.316	3056.40945
516.793	3085.65983
517.27	3271.31651
517.747	3298.77494
518.224	3514.97791
518.701	3537.70911
519.178	3604.53507
519.654	3631.12592
520.131	3653.44385
520.607	3574.36098
521.083	3603.84018
521.56	3518.1281
522.036	3424.65777
522.512	3388.48361
522.987	3326.32564
523.463	3208.23366
523.939	3106.55095
524.414	2976.04135
524.89	2908.29498
525.365	2696.96948
525.84	2547.28593
526.315	2505.31695
526.79	2366.9057
527.265	2226.97482
527.74	2067.12199
528.215	1985.88983
528.689	1825.54049
529.164	1723.39602
529.638	1667.98404
530.112	1543.57225
530.587	1505.23003
531.061	1445.57041
531.534	1368.46588
532.008	1277.38353
532.482	1257.19221
532.956	1194.41375
533.429	1179.27143
533.903	1062.83508
534.376	1015.79496
534.849	1002.86433
535.322	953.8515
535.795	856.74764
536.268	886.80323
536.741	800.62139
537.213	762.50139
537.686	740.57474
538.158	718.41325
538.631	675.43971
539.103	657.3012
539.575	650.1605
540.047	590.14022
540.519	620.31798
540.991	570.25253
541.463	514.12551
541.934	502.0297
542.406	493.08377
542.877	515.05237
543.348	473.04974
543.82	463.03687
544.291	471.0084
544.762	436.96246
545.233	458.07454
545.703	401.83013
546.174	394.85339
546.645	404.91381
547.115	385.87208
547.585	349.75674
548.056	398.9178
548.526	371.82875
548.996	312.71006
549.466	330.76133
549.935	390.87388
550.405	333.69153
550.875	332.74792
551.344	317.71896
551.814	316.68826
552.283	318.65846
552.752	326.72599
553.221	279.59025
553.69	351.74906
554.159	319.75745
554.628	316.68183
555.096	260.63835
555.565	263.55884
556.033	319.72467
556.502	273.63298
556.97	305.64667
557.438	280.63028
557.906	282.6379
558.374	288.63952
558.842	260.6001
559.31	264.56817
559.777	283.66395
560.245	210.46827
560.712	217.48237
561.18	301.63512
561.647	240.51386
562.114	311.67866
562.581	321.7522
563.048	269.59174
563.514	337.80387
563.981	270.59382
564.448	335.71678
564.914	287.6377
565.381	265.58221
565.847	287.63955
566.313	240.53781
566.779	277.5973
567.245	236.5282
567.711	275.63181
568.176	274.58944
568.642	287.69301
569.108	264.62458
569.573	257.57223
570.038	272.5443
570.504	286.61816
570.969	265.63167
571.434	303.64102
571.899	304.68738
572.363	322.70133
572.828	330.71936
573.293	281.61684
573.757	357.78167
574.222	342.72432
574.686	359.77842
575.15	352.8014
575.614	405.89423
576.078	307.68694
576.542	358.7688
577.006	343.73262
577.469	324.7579
577.933	352.75722
578.396	317.71516
578.86	301.6763
579.323	342.78115
579.786	321.66066
580.249	349.77801
580.712	319.73816
581.175	292.68894
581.637	250.54984
582.1	275.57415
582.563	253.51719
583.025	272.63603
583.487	320.62404
583.95	250.51604
584.412	242.49055
584.874	250.58849
585.336	254.58088
585.797	268.55966
586.259	257.5791
586.721	184.42199
587.182	231.51541
587.643	249.54568
588.105	189.43598
588.566	192.39062
589.027	252.59573
589.488	205.45816
589.949	266.62151
590.41	215.41339
590.87	235.52065
591.331	259.54482
591.791	196.44284
592.252	220.49766
592.712	211.49157
593.172	227.50062
593.632	230.49543
594.092	215.46541
594.552	155.33051
595.011	124.28108
595.471	229.50312
595.931	172.38084
596.39	124.29452
596.849	155.35499
597.308	129.27184
597.768	207.52014
598.227	160.37753
598.685	166.37123
599.144	158.36614
599.603	123.28453
600.062	133.27719
600.52	173.38313
600.978	124.28975
601.437	138.30963
601.895	192.40166
602.353	127.27598
602.811	158.35042
603.269	112.26397
603.727	137.32433
604.184	163.36475
604.642	160.38601
605.099	151.34708
605.557	117.28147
606.014	139.29549
606.471	105.26119
606.928	146.3199
607.385	141.34793
607.842	110.25026
608.299	124.28656
608.755	121.28977
609.212	115.25437
609.668	165.36526
610.125	142.33688
610.581	127.29402
611.037	91.20296
611.493	101.23392
611.949	161.38482
612.405	115.23242
612.861	111.25279
613.316	125.29569
613.772	141.31799
614.227	141.33367
614.683	122.25568
615.138	81.18916
615.593	115.26402
616.048	130.29336
616.503	77.18609
616.958	116.28703
617.412	119.27921
617.867	90.20036
618.321	101.20694
618.776	107.23351
619.23	73.17041
619.684	96.21256
620.138	78.17767
620.592	87.20954
621.046	137.31855
621.5	67.1607
621.954	42.09315
622.407	90.19762
622.861	86.20725
623.314	129.28748
623.768	124.28872
624.221	51.10066
624.674	98.22431
625.127	55.12774
625.58	31.06989
626.033	98.21219
626.485	88.20877
626.938	104.24492
627.39	77.17904
627.843	68.15615
628.295	76.17424
628.747	74.17549
629.199	79.17875
629.651	58.1327
630.103	65.14857
630.555	82.17162
631.006	54.12529
631.458	74.17305
631.909	61.13617
632.361	70.16061
632.812	61.14072
633.263	120.25649
633.714	73.1537
634.165	42.1006
634.616	44.1039
635.067	38.08379
635.518	67.15794
635.968	85.16556
636.419	74.1607
636.869	82.19251
637.319	69.15924
637.769	63.14109
638.219	96.22388
638.669	29.06903
639.119	57.13578
639.569	44.10535
640.019	40.0924
640.468	66.14723
640.918	53.12523
641.367	26.05839
641.816	87.19155
642.265	86.19882
642.714	51.11666
643.163	108.24631
643.612	85.20643
644.061	58.12376
644.51	75.1708
644.958	66.1451
645.406	67.15917
645.855	40.09698
646.303	69.15847
646.751	80.1837
647.199	54.12206
647.647	77.17748
648.095	48.10925
648.543	82.165
648.99	95.22568
649.438	64.1472
649.885	75.18555
650.333	83.15989
650.78	31.07498
651.227	108.26066
651.674	87.19669
652.121	50.12232
652.568	81.19671
653.015	41.10121
653.461	19.04531
653.908	52.11902
654.354	106.24885
654.801	38.08907
655.247	42.0909
655.693	56.14482
656.139	63.14943
656.585	51.12134
657.031	69.16114
657.477	97.20953
657.922	44.09982
658.368	61.14898
658.813	69.15574
659.259	33.07999
659.704	135.3139
660.149	22.05084
660.594	33.07831
661.039	103.23153
661.484	80.18767
661.929	102.23506
662.373	36.09016
662.818	36.08885
663.262	69.16562
663.707	57.14416
664.151	72.17404
664.595	64.15377
665.039	89.21825
665.483	70.17657
665.927	83.19269
666.371	87.20253
666.814	6.01431
667.258	72.17213
667.701	122.25523
668.145	102.25017
668.588	115.28022
669.031	51.11943
669.474	48.11467
669.917	57.12423
670.36	138.33721
670.803	100.23825
671.245	-10.02066
671.688	55.13302
672.13	70.15713
672.573	63.1578
673.015	75.17913
673.457	36.07828
673.899	63.15122
674.341	39.09365
674.783	71.1686
675.225	82.19955
675.666	87.21041
676.108	73.15634
676.549	51.11812
676.991	14.03082
677.432	31.06156
677.873	38.08649
678.314	45.10657
678.755	84.20465
679.196	79.17853
679.637	41.09766
680.078	70.1619
680.518	49.11182
680.959	90.21121
681.399	74.18109
681.839	73.17522
682.28	46.11366
682.72	61.1383
683.16	66.16307
683.6	95.21276
684.039	59.12083
684.479	65.15898
684.919	96.22247
685.358	51.12594
685.798	63.16234
686.237	67.15806
686.676	36.08107
687.115	133.30607
687.554	59.13995
687.993	51.11201
688.432	58.13115
688.871	110.24742
689.309	94.22189
689.748	82.16812
690.186	63.14574
690.625	66.15337
691.063	32.07598
691.501	77.18791
691.939	86.21343
692.377	49.11779
692.815	142.33857
693.253	75.17604
693.69	46.09994
694.128	45.10842
694.565	46.10808
695.003	49.12415
695.44	79.18449
695.877	43.10046
696.314	13.02733
696.751	52.11668
697.188	75.17149
697.625	52.11514
698.061	37.08797
698.498	27.06345
698.934	47.11127
699.371	43.10038
699.807	45.10525
700.243	55.13126
700.679	18.03997
701.115	89.20383
701.551	101.22974
701.987	4.00872
702.422	87.20413
702.858	114.26586
703.294	76.17165
703.729	61.14642
704.164	17.04039
704.599	158.34137
705.035	59.13072
705.47	34.08187
705.904	42.09633
706.339	75.16935
706.774	63.1455
707.209	91.20783
707.643	47.11122
708.078	115.27298
708.512	6.01499
708.946	18.04237
709.38	48.11278
709.814	41.09182
710.248	63.15197
710.682	60.14224
711.116	96.22924
711.549	6.01524
711.983	50.11408
712.416	100.23229
712.85	63.15363
713.283	48.11194
713.716	58.14162
714.149	7.01613
714.582	72.15902
715.015	48.11616
715.448	54.13421
715.881	64.13502
716.313	36.0832
716.746	63.14684
717.178	31.07384
717.61	108.26831
718.043	32.07817
718.475	27.06493
718.907	67.16436
719.339	25.05622
719.77	69.16253
720.202	7.01741
720.634	88.21167
721.065	59.13675
721.497	54.13023
721.928	5.01214
722.359	72.17226
722.79	19.04512
723.221	-22.0545
723.652	39.09779
724.083	27.06007
724.514	39.08846
724.945	21.04869
725.375	61.14027
725.806	5.01223
726.236	95.23709
726.666	74.17088
727.096	65.15602
727.526	74.18719
727.956	54.12151
728.386	44.10624
728.816	107.26723
729.246	42.10232
729.675	7.01693
730.105	47.11307
730.534	48.11
730.964	22.05422
731.393	29.07009
731.822	51.12825
732.251	47.11743
732.68	39.08882
733.109	24.05854
733.537	80.19162
733.966	97.23645
734.395	78.17631
734.823	43.0934
735.251	24.05694
735.68	42.10183
736.108	13.03213
736.536	51.11718
736.964	71.16084
737.392	43.10568
737.82	75.1748
738.247	60.13998
738.675	17.03942
739.102	26.06398
739.53	95.23864
739.957	78.19773
740.384	3.00715
740.811	-6.01479
741.238	39.09429
741.665	96.22
742.092	-4.0091
742.519	13.03196
742.945	65.15501
743.372	88.21351
743.798	20.05054
744.225	18.04201
744.651	18.04444
745.077	27.06636
745.503	45.10657
745.929	53.12615
746.355	15.03599
746.781	37.08932
747.207	59.13751
747.632	75.18241
748.058	33.08206
748.483	67.15049
748.908	23.05657
749.334	63.15225
749.759	63.14718
750.184	77.18151
750.609	33.07951
751.033	57.12997
751.458	67.1456
751.883	10.02429
752.307	13.03023
752.732	63.15814
753.156	-1.00244
753.58	54.12449
754.005	42.10339
754.429	57.13259
754.853	34.08342
755.277	66.15337
755.7	91.21984
756.124	28.0686
756.548	16.03727
756.971	88.20893
757.394	8.02019
757.818	10.02551
758.241	38.09503
758.664	27.06717
759.087	26.05783
759.51	19.04614
759.933	40.09519
760.356	42.10666
760.778	40.09654
761.201	62.14618
761.623	14.03278
762.046	44.10051
762.468	93.21582
762.89	60.14284
763.312	92.2191
763.734	67.15782
764.156	22.05352
764.578	42.09358
765	66.157
765.421	18.04537
765.843	49.12569
766.264	53.12241
766.686	26.06332
767.107	13.03105
767.528	90.22547
767.949	21.05243
768.37	111.26684
768.791	-17.04031
769.212	-11.0275
769.632	38.08743
770.053	7.01804
770.473	40.09431
770.894	-27.06574
771.314	70.16029
771.734	48.10925
772.154	38.09496
772.575	46.10338
772.994	-11.02458
773.414	12.02801
773.834	26.06351
774.254	63.14966
774.673	93.22093
775.093	50.12191
775.512	5.01218
775.931	49.12163
776.351	61.14864
776.77	81.19354
777.189	47.10907
777.607	40.10003
778.026	59.14339
778.445	25.06244
778.864	33.08179
779.282	18.04203
779.701	26.06393
780.119	30.07464
780.537	9.02201
780.955	52.12806
781.373	12.0291
781.791	106.23235
782.209	15.03308
782.627	-26.06784
783.045	27.05992
783.462	41.10236
783.88	37.09391
784.297	66.16158
784.715	18.04565
785.132	28.06584
785.549	29.07088
785.966	76.18557
786.383	65.15638
786.8	76.17052
787.217	68.15808
787.633	25.0618
788.05	12.02727
788.466	9.02048
788.883	72.18018
789.299	-16.03739
789.715	78.18441
790.131	49.11869
790.547	31.07543
790.963	28.06776
791.379	48.11834
791.795	29.06366
792.21	45.10145
792.626	41.09371
793.041	4.00966
793.457	4.00962
793.872	4.00912
794.287	35.08286
794.702	24.0567
795.117	47.11427
795.532	78.19095
795.947	12.02778
796.362	47.10634
796.776	58.12848
797.191	22.05272
797.605	26.06037
798.02	-6.0143
798.434	47.10122
798.848	111.26653
799.262	58.13961
799.676	66.15567
800.09	34.08135
800.504	39.09144
800.918	22.04908
801.331	-50.12652
801.745	45.09941
802.158	10.0242
802.572	44.1035
802.985	59.13637
803.398	60.13772
803.811	-15.03703
804.224	17.04068
804.637	50.11592
805.05	11.02462
805.462	-3.00717
805.875	0
806.288	15.03557
806.7	-16.03902
807.112	11.02458
807.525	-16.03805
807.937	13.03146
808.349	23.05567
808.761	46.11018
809.173	26.06159
809.584	18.04305
809.996	-3.00717
810.408	21.05357
810.819	16.0367
811.231	89.23036
811.642	73.17549
812.053	73.17208
812.464	8.01847
812.875	68.169
813.286	51.12866
813.697	-2.00443
814.108	40.09413
814.519	87.18729
814.929	62.15229
815.34	32.07442
815.75	73.1808
816.16	2.0048
816.571	3.00759
816.981	23.05198
817.391	-1.00233
817.801	8.01948
818.211	50.11468
818.62	71.16548
819.03	33.07815
819.44	-14.03517
819.849	-9.02192
820.259	49.11998
820.668	48.11475
821.077	48.11659
821.486	22.05068
821.895	7.01657
822.304	37.09508
822.713	45.10219
823.122	32.07726
823.531	12.02719
823.939	41.09714
824.348	47.10954
824.756	41.09879
825.164	63.15197
825.573	17.04153
825.981	41.0977
826.389	93.2234
826.797	108.26371
827.205	38.08491
827.612	36.08544
828.02	-38.08698
828.428	42.10343
828.835	57.14636
829.243	34.07767
829.65	27.06572
830.057	5.01174
830.464	61.14508
830.871	89.20474
831.278	42.0981
831.685	41.08754
832.092	-9.02126
832.499	26.05519
832.905	34.08277
833.312	-1.00217
833.718	90.21656
834.124	86.18804
834.531	36.08689
834.937	46.11466
835.343	11.02552
835.749	36.07975
836.155	17.04335
836.561	31.07393
836.966	45.10567
837.372	2.00493
837.777	55.13267
838.183	54.11427
838.588	64.15406
838.993	76.17752
839.399	12.02864
839.804	14.03321
840.209	62.1542
840.613	37.07896
841.018	21.05131
841.423	47.1167
841.828	57.13983
842.232	18.04242
842.637	35.08064
843.041	18.04511
843.445	44.10571
843.849	21.05066
844.253	82.1855
844.657	17.04189
845.061	79.17438
845.465	42.09791
845.869	49.10938
846.272	19.04512
846.676	5.01152
847.079	28.06967
847.483	28.0674
847.886	42.09749
848.289	61.15963
848.692	15.03662
849.095	22.05086
849.498	47.11311
849.901	59.12832
850.304	68.15546
850.707	-2.00495
851.109	54.13087
851.512	64.1516
851.914	2.00495
852.316	69.16989
852.718	59.15113
853.121	68.16008
853.523	-16.03612
853.925	-3.00773
854.326	5.01225
854.728	58.14446
855.13	19.04816
855.531	44.10156
855.933	8.01841
856.334	50.12131
856.736	64.13851
857.137	79.17715
857.538	60.14645
857.939	66.15917
858.34	42.09749
858.741	35.08833
859.142	36.08286
859.542	48.12353
859.943	21.05052
860.343	24.05801
860.744	50.11734
861.144	63.14903
861.544	28.06604
861.945	20.04938
862.345	48.11238
862.745	84.20151
863.145	40.09012
863.544	16.03939
863.944	58.13131
864.344	41.09684
864.743	70.16626
865.143	42.10533
865.542	-14.03112
865.941	69.16461
866.34	58.13137
866.74	68.17641
867.139	86.19961
867.537	18.04397
867.936	36.08396
868.335	5.01234
868.734	54.13338
869.132	-15.03341
869.531	58.13281
869.929	62.13591
870.327	31.07168
870.726	28.06674
871.124	33.07357
871.522	30.07369
871.92	85.20045
872.318	5.01176
872.715	5.01182
873.113	33.0771
873.511	-22.0533
873.908	48.11903
874.306	27.06557
874.703	9.02162
875.1	-15.03687
875.497	43.09872
875.894	21.05081
876.291	14.03337
876.688	22.05514
877.085	36.08253
877.482	37.08935
877.878	45.10579
878.275	18.04449
878.671	14.02902
879.068	43.09979
879.464	55.12753
879.86	28.06383
880.256	15.03522
880.652	65.15886
881.048	19.04503
881.444	13.02944
881.84	59.14404
882.236	16.03894
882.631	50.11876
883.027	34.07895
883.422	-13.0322
883.817	24.05891
884.213	43.10662
884.608	47.11363
885.003	3.00695
885.398	20.04854
885.793	33.07963
886.188	-14.03384
886.582	49.11994
886.977	8.01823
887.371	5.01219
887.766	11.02671
888.16	13.03086
888.554	41.09688
888.949	45.10879
889.343	23.05394
889.737	0
890.131	48.11602
890.525	74.18304
890.918	11.02682
891.312	38.08645
891.706	-15.03834
892.099	68.16554
892.492	103.20779
892.886	5.01183
893.279	49.11998
893.672	5.01247
894.065	38.09192
894.458	37.08881
894.851	58.13526
895.244	12.02973
895.637	36.08382
896.029	70.16504
896.422	-8.01874
896.814	28.06699
897.206	68.15727
897.599	85.20045
897.991	44.10306
898.383	41.09334
898.775	78.16968
899.167	23.05257
899.559	40.09672
899.951	24.05396
900.342	4.00978
900.734	64.15645
901.125	58.14557
901.517	18.04284
901.908	20.04552
902.299	25.05925
902.69	66.1504
903.082	51.11859
903.473	90.2089
903.863	50.12213
904.254	59.13274
904.645	31.07336
905.036	87.2054
905.426	73.1564
905.817	34.07982
906.207	-6.0137
906.597	81.18253
906.987	66.16295
907.378	38.09334
907.768	45.11547
908.158	34.07967
908.547	57.14406
908.937	18.04416
909.327	42.09783
909.717	8.01936
910.106	6.01388
910.495	57.13494
910.885	77.18742
911.274	37.08901
911.663	4.00976
912.052	29.06815
912.441	50.12354
912.83	6.01319
913.219	33.08322
913.608	25.05939
913.997	54.13161
914.385	59.13496
914.774	4.00941
915.162	67.15462
915.55	43.09912
915.939	43.10556
916.327	-1.0024
916.715	63.15695
917.103	22.05131
917.491	67.15812
917.878	40.09438
918.266	32.07991
918.654	61.15119
919.041	22.0565
919.429	53.11977
919.816	53.12905
920.203	61.14329
920.591	39.0934
920.978	-9.02141
921.365	14.03584
921.752	5.01134
922.139	55.11376
922.525	54.12494
922.912	46.10732
923.299	41.09834
923.685	-21.053
924.072	-30.06548
924.458	52.12446
924.844	40.09541
925.231	9.02002
925.617	49.12154
926.003	49.1202
926.389	67.16204
926.774	3.00735
927.16	31.0741
927.546	93.23101
927.931	1.0024
928.317	7.01543
928.702	52.11715
929.088	60.13915
929.473	31.07692
929.858	49.11609
930.243	40.09339
930.628	63.14857
931.013	38.09092
931.398	7.01524
931.783	-4.01014
932.167	70.16568
932.552	18.04348
932.937	38.09022
933.321	48.11703
933.705	26.06256
934.09	21.05018
934.474	-11.02506
934.858	1.00253
935.242	15.03339
935.626	-7.01755
936.009	65.16848
936.393	133.3259
936.777	25.06239
937.16	59.14917
937.544	13.02902
937.927	41.10099
938.311	98.22557
938.694	69.17619
939.077	37.08515
939.46	25.05779
939.843	37.07159
940.226	-18.04477
940.609	87.19219
940.991	2.00491
941.374	39.0924
941.757	48.11326
942.139	36.07785
942.522	36.08111
942.904	61.14038
943.286	44.10728
943.668	72.18122
944.05	48.11374
944.432	5.0119
944.814	18.04236
945.196	39.09233
945.578	39.09079
945.959	29.06457
946.341	-7.01633
946.722	77.17089
947.104	38.08733
947.485	35.07822
947.866	44.1078
948.247	56.1373
948.628	18.04148
949.009	-7.01745
949.39	41.09751
949.771	-26.05723
950.152	44.10398
950.532	48.11703
950.913	61.14049
951.293	15.03981
951.674	20.04668
952.054	43.1047
952.434	41.09819
952.814	9.02041
953.194	-8.02011
953.574	73.17088
953.954	-8.01819
954.334	58.1402
954.714	29.06852
955.093	57.13426
955.473	33.08059
955.853	29.07269
956.232	44.11661
956.611	28.06368
956.99	45.10941
957.37	28.06845
957.749	26.05865
958.128	14.0344
958.506	28.07048
958.885	-3.00732
959.264	64.15242
959.643	77.16775
960.021	54.12954
960.4	53.11444
960.778	5.01173
961.156	-10.02426
961.535	-5.01114
961.913	91.20338
962.291	29.07298
962.669	-5.01239
963.047	37.09171
963.424	63.15677
963.802	18.04288
964.18	47.11234
964.557	32.07026
964.935	56.12668
965.312	9.02292
965.69	30.07169
966.067	19.04407
966.444	-14.03283
966.821	57.14159
967.198	22.05076
967.575	20.04708
967.952	72.16102
968.329	25.05907
968.705	117.23701
969.082	83.20699
969.458	54.12608
969.835	52.12132
970.211	50.12508
970.587	54.12939
970.963	34.08339
971.339	43.10902
971.715	25.06042
972.091	60.14136
972.467	20.04741
972.843	41.09924
973.219	78.17631
973.594	19.04822
973.97	34.07544
974.345	45.10385
974.721	13.02988
975.096	69.16101
975.471	60.13529
975.846	23.05278
976.221	37.0908
976.596	87.20221
976.971	57.13604
977.346	12.02666
977.72	20.04902
978.095	1.00251
978.469	53.12041
978.844	53.12707
979.218	32.07507
979.593	37.08464
979.967	13.02995
980.341	37.08208
980.715	31.0756
981.089	60.14388
981.463	63.13784
981.837	65.15406
982.21	24.05205
982.584	34.07939
982.957	40.09687
983.331	58.12875
983.704	75.17851
984.078	12.02854
984.451	3.0071
984.824	18.04264
985.197	21.04833
985.57	6.01432
985.943	-4.00938
986.316	37.0858
986.688	40.09237
987.061	77.17238
987.434	89.22525
987.806	-23.05335
988.179	2.00454
988.551	14.0342
988.923	17.04015
989.295	20.04796
989.667	11.02581
990.039	44.10648
990.411	0
990.783	21.04573
991.155	17.03962
991.527	27.06266
991.898	35.08449
992.27	79.18868
992.641	35.08395
993.012	11.02423
993.384	-2.00459
993.755	57.14055
994.126	60.13938
994.497	16.03794
994.868	42.09102
995.239	46.10652
995.61	23.05598
995.98	30.06999
996.351	48.1151
996.722	37.08334
997.092	26.05958
997.462	15.03423
997.833	61.13656
998.203	18.04137
998.573	44.10583
998.943	63.14179
999.313	61.14066
999.683	38.08792
1000.053	9.01942
1000.423	54.12454
1000.792	-10.02492
1001.162	0
1001.531	62.14664
1001.901	-8.01924
1002.27	10.02099
1002.639	-16.03946
1003.009	50.11343
1003.378	6.01491
1003.747	22.04961
1004.116	26.0597
1004.485	55.12556
1004.853	-1.00242
1005.222	26.06199
1005.591	56.12648
1005.959	34.07371
1006.328	23.04987
1006.696	1.00232
1007.064	-21.05087
1007.433	-5.01201
1007.801	16.03717
1008.169	35.08414
1008.537	37.07807
1008.905	13.0294
1009.273	36.08475
1009.64	59.13648
1010.008	24.05487
1010.375	76.17221
1010.743	18.03854
1011.11	92.211
1011.478	72.1716
1011.845	26.05831
1012.212	81.17602
1012.579	40.09453
1012.946	36.08107
1013.313	41.0925
1013.68	80.16899
1014.047	16.03671
1014.414	42.09478
1014.78	47.11269
1015.147	25.05735
1015.513	4.00931
1015.88	31.07582
1016.246	33.07722
1016.612	57.12297
1016.978	59.13935
1017.344	32.0763
1017.71	20.04661
1018.076	45.10024
1018.442	63.15609
1018.808	45.10924
1019.174	5.01206
1019.539	-26.05528
1019.905	36.0819
1020.27	16.03802
1020.636	20.04543
1021.001	47.10812
1021.366	24.05575
1021.731	53.13304
1022.096	7.01729
1022.461	94.21143
1022.826	50.11468
1023.191	32.08121
1023.556	65.14407
1023.92	17.03987
1024.285	8.01862
1024.649	26.06087
1025.014	10.02361
1025.378	77.1863
1025.742	40.09449
1026.107	80.17048
1026.471	62.13671
1026.835	24.05733
1027.199	49.11322
1027.562	-3.00665
1027.926	34.07929
1028.29	59.14334
1028.654	15.03297
1029.017	56.13219
1029.381	2.00463
1029.744	34.08367
1030.107	89.19949
1030.471	52.11979
1030.834	-25.05405
1031.197	87.19861
1031.56	20.04506
1031.923	9.02261
1032.286	84.18692
1032.648	1.00227
1033.011	90.19861
1033.374	34.07557
1033.736	-4.01025
1034.099	11.0259
1034.461	11.02713
1034.823	14.03385
1035.185	31.07438
1035.548	38.08925
1035.91	3.00692
1036.272	48.10482
1036.634	28.06581
1036.995	23.05143
1037.357	43.10093
1037.719	51.11896
1038.08	103.23343
1038.442	91.20422
1038.803	-1.00228
1039.165	26.06292
1039.526	30.06972
1039.887	1.00231
1040.248	73.17495
1040.609	26.06109
1040.97	43.10038
1041.331	103.24995
1041.692	38.08666
1042.053	25.0541
1042.413	29.06425
1042.774	76.17647
1043.134	40.08979
1043.495	45.10859
1043.855	53.1245
1044.215	0
1044.576	14.03251
1044.936	33.07183
1045.296	57.13614
1045.656	54.12524
1046.016	43.09872
1046.375	23.05367
1046.735	72.15803
1047.095	26.05841
1047.454	77.15141
1047.814	22.05092
1048.173	26.05865
1048.533	14.03079
1048.892	35.08103
1049.251	41.09804
1049.61	11.02618
1049.969	32.07201
1050.328	26.05377
1050.687	-14.03277
1051.046	29.06754
1051.405	2.00476
1051.763	69.15262
1052.122	28.06712
1052.48	-1.00238
1052.839	81.18424
1053.197	19.0429
1053.555	30.06376
1053.914	-16.0378
1054.272	7.01593
1054.63	28.06604
1054.988	39.08972
1055.345	-7.01424
1055.703	77.17663
1056.061	55.13766
1056.419	71.17931
1056.776	-15.03458
1057.134	-27.05935
1057.491	33.07957
1057.848	13.03103
1058.206	-15.03351
1058.563	12.02525
1058.92	62.13505
1059.277	25.05935
1059.634	5.01115
1059.991	61.13976
1060.348	-5.01094
1060.704	78.18126
1061.061	22.04794
1061.418	14.03278
1061.774	9.02146
1062.131	57.14754
1062.487	4.00895
1062.843	54.12885
1063.199	52.12403
1063.555	48.10726
1063.911	38.09165
1064.267	29.0564
1064.623	42.09907
1064.979	3.00657
1065.335	16.0364
1065.691	29.06556
1066.046	34.07097
1066.402	5.01083
1066.757	57.13801
1067.112	49.11452
1067.468	39.08954
1067.823	-28.06386
1068.178	39.08968
1068.533	52.12046
1068.888	44.0999
1069.243	18.04284
1069.598	-7.01633
1069.952	49.1077
1070.307	25.05996
1070.662	76.17403
1071.016	30.06532
1071.371	55.11977
1071.725	65.14647
1072.079	15.03482
1072.434	37.08664
1072.788	13.02933
1073.142	90.21063
1073.496	18.04092
1073.85	17.03773
1074.203	37.0862
1074.557	65.16848
1074.911	77.17302
1075.265	43.09531
1075.618	83.19292
1075.971	20.04563
1076.325	39.09624
1076.678	29.06353
1077.031	-69.14886
1077.385	73.15106
1077.738	26.05593
1078.091	24.05283
1078.444	40.08742
1078.796	79.18594
1079.149	56.13368
1079.502	57.1295
1079.855	26.05822
1080.207	63.14759
1080.56	66.16481
1080.912	58.13452
1081.264	60.13855
1081.617	32.07524
1081.969	29.07101
1082.321	5.01174
1082.673	74.16303
1083.025	56.12575
1083.377	264.56524
1083.728	18.04004
1084.08	1.0024
1084.432	19.04387
1084.783	29.06361
1085.135	17.04135
1085.486	48.10544
1085.838	31.0737
1086.189	44.10334
1086.54	60.13584
1086.891	37.09197
1087.242	109.25605
1087.593	18.04145
1087.944	109.23434
1088.295	36.07781
1088.646	70.16517
1088.996	-8.01878
1089.347	59.13735
1089.698	48.10982
1090.048	-6.01504
1090.398	34.07478
1090.749	3.00685
1091.099	49.11998
1091.449	14.03383
1091.799	11.02659
1092.149	58.13749
1092.499	-3.00708
1092.849	-7.01731
1093.199	25.05976
1093.548	56.13013
1093.898	27.06476
1094.248	8.01969
1094.597	6.01506
1094.947	34.08796
1095.296	58.13792
1095.645	38.09482
1095.994	38.08743
1096.343	45.10924
1096.692	45.11612
1097.041	41.1093
1097.39	41.09815
1097.739	63.15706
1098.088	2.00517
1098.437	47.12102
1098.785	46.11872
1099.134	-20.0509
1099.482	53.14152
1099.83	49.12415
1100.179	40.1028
1100.527	0
1100.875	7.01814
1101.223	44.11371
1101.571	-25.06742
1101.919	56.14437
1102.267	18.04987
1102.615	7.02247
1102.962	6.01924
1103.31	4.01285
1103.658	2.00641
