Data from N1 R0 sample 5_Subt2__3__12-02-00-269.txt Node

Date: Tue Sep 16 12:02:00 PDT 2025
User: uwsun
Spectrometer: HDX01956
Trigger mode: 0
Integration Time (sec): 5.000000E-1
Scans to average: 1
Nonlinearity correction enabled: true
Boxcar width: 0
Storing dark spectrum: false
XAxis mode: Wavelengths
Number of Pixels in Spectrum: 2068
>>>>>Begin Spectral Data<<<<<
194.03	4.01161
194.578	-1.00325
195.127	-2.00641
195.676	2.00643
196.225	15.03996
196.773	18.05017
197.321	16.04469
197.87	31.08079
198.418	59.15414
198.966	69.18394
199.513	59.15224
200.061	28.07259
200.609	62.16563
201.156	29.06508
201.704	82.20861
202.251	55.14822
202.798	69.181
203.345	65.1634
203.892	42.10809
204.438	44.1064
204.985	74.17833
205.532	51.13609
206.078	59.14634
206.624	87.22082
207.17	110.26016
207.716	106.26219
208.262	98.19693
208.808	71.18097
209.354	92.23006
209.899	94.23863
210.445	42.10711
210.99	81.20032
211.535	111.26379
212.08	82.19289
212.625	88.22197
213.17	111.28462
213.715	93.21522
214.259	93.21965
214.804	54.1345
215.348	103.24054
215.892	128.31207
216.436	21.0491
216.98	80.17795
217.524	122.29322
218.068	96.24431
218.612	99.25376
219.155	123.29197
219.698	63.15208
220.242	65.16228
220.785	97.22981
221.328	56.14019
221.871	109.27891
222.414	86.21413
222.956	39.09479
223.499	66.14894
224.041	26.06054
224.583	50.10706
225.126	28.06264
225.668	80.19578
226.21	100.25413
226.751	96.21531
227.293	15.03463
227.835	73.18047
228.376	65.14929
228.918	101.25188
229.459	72.18109
230	54.13136
230.541	64.14873
231.082	91.22274
231.622	16.0369
232.163	50.122
232.704	94.23634
233.244	67.16764
233.784	57.13947
234.324	80.18179
234.864	63.14382
235.404	72.17075
235.944	51.12148
236.484	97.24279
237.023	59.14049
237.563	75.1759
238.102	65.15519
238.641	31.07896
239.18	62.14715
239.719	59.14906
240.258	77.17437
240.797	40.09694
241.335	17.04204
241.874	124.24193
242.412	129.31293
242.95	78.19003
243.488	35.07984
244.026	101.23596
244.564	100.20698
245.102	89.20318
245.64	23.05582
246.177	60.13479
246.715	102.24571
247.252	59.13534
247.789	116.21546
248.326	85.20619
248.863	81.17991
249.4	99.22528
249.936	151.31498
250.473	125.29546
251.009	46.10681
251.546	130.29025
252.082	39.08562
252.618	115.25766
253.154	52.12674
253.69	82.18527
254.226	94.22618
254.761	77.17437
255.297	62.13705
255.832	84.2012
256.367	61.14491
256.903	91.20389
257.438	87.20509
257.972	79.17744
258.507	-6.0141
259.042	88.1929
259.576	110.24458
260.111	74.17135
260.645	101.2192
261.179	47.11174
261.713	76.17193
262.247	63.14539
262.781	82.17466
263.315	71.17353
263.849	66.16677
264.382	81.18745
264.915	101.24012
265.449	30.07442
265.982	36.0832
266.515	103.25342
267.048	28.06065
267.58	17.03748
268.113	86.18756
268.646	70.17264
269.178	32.07283
269.71	126.27899
270.243	146.33713
270.775	109.28028
271.307	46.11077
271.838	84.19959
272.37	67.16564
272.902	90.20509
273.433	82.18368
273.965	41.10103
274.496	65.16252
275.027	84.21051
275.558	97.23795
276.089	80.20143
276.62	47.11984
277.15	81.20039
277.681	56.12224
278.211	72.17698
278.741	91.2038
279.272	60.13921
279.802	98.24454
280.332	89.21167
280.861	55.13307
281.391	65.14959
281.921	97.23274
282.45	50.12544
282.98	97.25358
283.509	110.25147
284.038	102.23478
284.567	109.25485
285.096	100.24381
285.625	94.21282
286.153	104.24987
286.682	78.18119
287.21	71.17062
287.739	42.10083
288.267	59.14554
288.795	64.1686
289.323	74.17576
289.851	140.32893
290.378	64.14454
290.906	103.25332
291.433	103.25771
291.961	102.23469
292.488	53.13309
293.015	119.28182
293.542	129.3317
294.069	111.27612
294.596	79.19459
295.122	112.2698
295.649	76.16828
296.175	69.16782
296.702	149.36334
297.228	58.14141
297.754	67.15289
298.28	88.20466
298.806	124.29927
299.332	171.3806
299.857	109.24934
300.383	68.17275
300.908	113.27905
301.433	131.32147
301.958	107.24673
302.483	51.12816
303.008	143.3552
303.533	94.24368
304.058	76.17912
304.582	116.2753
305.107	91.23822
305.631	100.22852
306.155	93.21872
306.679	94.22318
307.203	128.29803
307.727	85.20356
308.251	112.27754
308.775	167.40464
309.298	98.23822
309.822	81.2053
310.345	136.32563
310.868	113.27412
311.391	131.32302
311.914	103.25966
312.437	126.28933
312.96	135.31873
313.482	33.07918
314.005	98.24613
314.527	71.18637
315.049	129.32707
315.571	105.23883
316.093	192.47107
316.615	82.19895
317.137	170.3695
317.659	149.36049
318.18	77.18574
318.702	154.36083
319.223	129.26479
319.744	126.2855
320.265	163.39614
320.786	142.35522
321.307	139.34363
321.828	129.29271
322.348	92.2191
322.869	113.27144
323.389	212.41263
323.909	136.31191
324.43	128.30706
324.95	115.2656
325.47	166.41059
325.989	152.36102
326.509	149.33507
327.029	133.30583
327.548	149.33864
328.067	161.39055
328.587	173.43237
329.106	128.29038
329.625	171.44275
330.144	179.41522
330.662	181.42384
331.181	176.41447
331.7	103.24214
332.218	138.30186
332.736	206.4785
333.255	153.36136
333.773	181.42583
334.291	216.53464
334.808	176.39668
335.326	127.28794
335.844	229.53287
336.361	206.52607
336.879	230.53551
337.396	232.55842
337.913	215.49299
338.43	198.4448
338.947	203.48204
339.464	175.3785
339.981	168.39856
340.497	200.48833
341.014	184.44709
341.53	178.40168
342.046	241.59422
342.562	193.47833
343.078	253.58662
343.594	200.473
344.11	277.65064
344.626	225.56191
345.141	237.53644
345.657	278.61732
346.172	237.56515
346.687	234.53127
347.202	254.5727
347.717	245.57661
348.232	192.47612
348.747	210.48278
349.261	228.49745
349.776	273.63774
350.29	264.65008
350.805	233.569
351.319	257.58857
351.833	283.63951
352.347	237.55387
352.861	320.73121
353.374	258.57815
353.888	310.73934
354.401	245.55116
354.915	272.60525
355.428	296.72106
355.941	230.53086
356.454	277.60525
356.967	245.56424
357.48	242.54252
357.993	264.63808
358.505	232.55779
359.018	283.67948
359.53	310.73821
360.042	320.69845
360.554	316.75364
361.066	261.62452
361.578	315.67953
362.09	279.65125
362.602	300.65508
363.113	324.74243
363.625	331.73086
364.136	261.5657
364.647	304.70443
365.158	294.66991
365.669	308.71737
366.18	311.71365
366.691	323.68901
367.201	315.73526
367.712	333.74112
368.222	367.81576
368.733	312.66281
369.243	372.8023
369.753	341.76207
370.263	388.90009
370.773	321.75926
371.282	368.84763
371.792	399.8865
372.301	390.9033
372.811	382.96264
373.32	414.85685
373.829	358.81472
374.338	426.9018
374.847	444.97274
375.356	403.90876
375.865	493.99271
376.373	462.99338
376.882	500.18646
377.39	495.11912
377.898	488.12541
378.407	551.15814
378.915	547.10828
379.423	502.09133
379.93	663.39269
380.438	592.30529
380.946	627.32796
381.453	628.3732
381.96	715.52709
382.468	723.5162
382.975	799.72209
383.482	784.53829
383.989	836.88209
384.495	912.81754
385.002	846.52454
385.509	979.96789
386.015	1027.71487
386.521	1094.02347
387.028	1110.03891
387.534	1122.91555
388.04	1230.34794
388.546	1184.06165
389.051	1268.15089
389.557	1310.33105
390.063	1369.32505
390.568	1498.65629
391.073	1526.42884
391.578	1651.86852
392.084	1708.66337
392.589	1741.512
393.093	1954.0376
393.598	2128.97124
394.103	2194.15707
394.607	2492.34062
395.112	2593.48475
395.616	2855.4721
396.12	3005.14256
396.624	3374.28776
397.128	3623.38033
397.632	4077.07139
398.136	4421.76348
398.639	4692.77226
399.143	5331.80605
399.646	5897.18763
400.15	6445.87954
400.653	7333.79829
401.156	8395.53448
401.659	9756.10157
402.162	12089.58976
402.664	16239.57121
403.167	24645.68456
403.67	53397.71259
404.172	62431.45029
404.674	63858.43483
405.176	63738.15102
405.678	63977.72923
406.18	64011.81569
406.682	63863.44694
407.184	63926.60148
407.686	63841.39382
408.187	58984.55515
408.688	36180.52338
409.19	25620.93207
409.691	20745.39848
410.192	17460.81418
410.693	15257.29346
411.194	13896.22458
411.694	12981.86344
412.195	11801.54545
412.696	10564.56288
413.196	10094.23304
413.696	9851.3451
414.196	9893.52948
414.696	9472.46521
415.196	8982.45188
415.696	7982.09433
416.196	6392.92973
416.695	5155.51658
417.195	4499.01905
417.694	4421.1539
418.194	3993.44022
418.693	3800.98806
419.192	3733.20426
419.691	3569.16417
420.19	3460.40248
420.688	3377.54414
421.187	3281.49919
421.685	3006.23686
422.184	2809.30775
422.682	2350.81768
423.18	2040.91867
423.678	1865.7813
424.176	1752.69059
424.674	1679.54197
425.172	1564.62376
425.669	1455.64789
426.167	1432.44632
426.664	1232.15572
427.161	1179.12453
427.659	1067.10615
428.156	1043.7807
428.652	936.99297
429.149	917.87863
429.646	911.69764
430.143	870.77625
430.639	772.59094
431.135	764.67367
431.632	742.48042
432.128	649.39437
432.624	680.56814
433.12	622.27228
433.616	639.24778
434.111	551.19372
434.607	588.27426
435.103	560.05938
435.598	519.98644
436.093	481.03474
436.588	516.06324
437.083	502.03249
437.578	465.99961
438.073	449.04785
438.568	434.99999
439.062	396.79611
439.557	357.79156
440.051	379.80319
440.546	322.69835
441.04	406.91571
441.534	319.76793
442.028	419.94522
442.522	374.84803
443.015	276.56945
443.509	321.74514
444.002	306.71664
444.496	261.54637
444.989	321.74278
445.482	283.67328
445.975	330.72607
446.468	279.58069
446.961	342.70404
447.454	235.51109
447.947	293.67046
448.439	334.77914
448.931	338.73648
449.424	316.76776
449.916	344.79615
450.408	266.58576
450.9	233.54837
451.392	254.62246
451.884	266.58822
452.375	224.53794
452.867	257.55656
453.358	254.56121
453.849	251.51776
454.341	286.61843
454.832	276.57176
455.323	257.61706
455.814	279.61168
456.304	221.49616
456.795	210.46633
457.285	218.46575
457.776	212.4694
458.266	182.42209
458.756	205.47081
459.247	238.54998
459.737	262.60977
460.226	270.59083
460.716	276.63246
461.206	215.49891
461.695	161.38981
462.185	204.47086
462.674	183.40849
463.163	245.52989
463.653	229.47153
464.142	204.4804
464.63	173.40955
465.119	199.45007
465.608	228.5166
466.096	196.41385
466.585	201.44607
467.073	132.30662
467.561	148.3484
468.05	146.33014
468.538	134.32194
469.026	139.32397
469.513	139.28879
470.001	200.44634
470.489	198.45738
470.976	255.57248
471.463	180.43672
471.951	202.48696
472.438	140.32302
472.925	166.38209
473.412	125.29855
473.899	130.2936
474.385	143.3435
474.872	133.30509
475.359	161.38717
475.845	143.29113
476.331	148.30921
476.817	142.33908
477.303	150.34181
477.789	124.29077
478.275	143.34806
478.761	130.30353
479.247	173.37642
479.732	115.28294
480.218	177.45225
480.703	123.29826
481.188	161.34107
481.673	141.31838
482.158	120.25616
482.643	147.36806
483.128	165.37622
483.612	173.40241
484.097	104.24778
484.581	139.31591
485.066	166.3973
485.55	142.30864
486.034	132.28177
486.518	171.3998
487.002	127.30367
487.486	116.27753
487.969	104.24968
488.453	54.13391
488.936	123.27297
489.42	148.32113
489.903	135.32982
490.386	47.09748
490.869	175.37413
491.352	90.2145
491.835	98.19884
492.318	94.20944
492.8	141.28693
493.283	176.43804
493.765	150.36024
494.247	192.43415
494.73	151.32757
495.212	115.26877
495.694	173.39796
496.175	175.41027
496.657	233.53168
497.139	207.34221
497.62	234.54268
498.102	256.61221
498.583	169.40487
499.064	264.56304
499.545	273.59423
500.026	266.57592
500.507	271.59614
500.988	403.9406
501.469	354.83097
501.949	390.90043
502.43	410.91982
502.91	478.92244
503.39	460.04935
503.87	559.18839
504.35	555.16605
504.83	646.23433
505.31	614.31654
505.79	710.45844
506.269	727.43871
506.749	848.62339
507.228	930.80975
507.707	1025.82772
508.187	1166.18271
508.666	1169.28859
509.145	1295.28358
509.623	1417.42505
510.102	1500.62442
510.581	1666.78268
511.059	1792.0747
511.538	1976.34549
512.016	2162.11371
512.494	2308.19512
512.972	2482.24187
513.45	2632.1339
513.928	2965.40957
514.406	3101.46541
514.884	3405.79908
515.361	3664.18888
515.839	3901.83564
516.316	4209.08255
516.793	4385.29537
517.27	4685.74627
517.747	4837.2014
518.224	5136.17412
518.701	5202.85465
519.178	5467.63213
519.654	5517.16962
520.131	5594.47935
520.607	5671.32644
521.083	5594.81922
521.56	5686.05145
522.036	5623.55164
522.512	5559.47349
522.987	5487.32008
523.463	5280.30443
523.939	5255.68488
524.414	4896.26297
524.89	4789.63421
525.365	4646.31591
525.84	4458.87316
526.315	4301.01393
526.79	4023.63873
527.265	3893.864
527.74	3649.29538
528.215	3528.05599
528.689	3332.72587
529.164	3149.64741
529.638	2964.68359
530.112	2833.20252
530.587	2800.69055
531.061	2537.3221
531.534	2453.27064
532.008	2420.31131
532.482	2184.93023
532.956	2124.40978
533.429	2136.20847
533.903	1962.61805
534.376	1843.58543
534.849	1756.67492
535.322	1685.71693
535.795	1622.74668
536.268	1631.76719
536.741	1497.55872
537.213	1361.31015
537.686	1373.52316
538.158	1335.25244
538.631	1287.38342
539.103	1251.1384
539.575	1187.83269
540.047	1170.95306
540.519	1094.08671
540.991	1028.04178
541.463	994.95826
541.934	926.72011
542.406	950.88985
542.877	876.64561
543.348	805.66458
543.82	833.72483
544.291	818.6217
544.762	796.62283
545.233	773.70299
545.703	685.32637
546.174	727.46086
546.645	747.56934
547.115	677.44024
547.585	646.31011
548.056	653.42703
548.526	657.37886
548.996	635.34844
549.466	619.34353
549.935	573.23353
550.405	557.09717
550.875	514.11273
551.344	546.17859
551.814	573.17799
552.283	593.15068
552.752	579.21976
553.221	575.13588
553.69	563.1444
554.159	540.22523
554.628	572.16457
555.096	556.28755
555.565	521.04299
556.033	563.21353
556.502	512.12867
556.97	487.99146
557.438	510.09183
557.906	521.11902
558.374	484.02892
558.842	470.03723
559.31	505.02863
559.777	535.19102
560.245	497.04032
560.712	473.99537
561.18	493.99637
561.647	499.0067
562.114	503.05104
562.581	526.18086
563.048	529.09814
563.514	568.29249
563.981	543.12374
564.448	542.10589
564.914	561.17349
565.381	593.21096
565.847	521.10268
566.313	543.13879
566.779	542.10038
567.245	487.03149
567.711	554.19946
568.176	561.13047
568.642	597.35445
569.108	598.32074
569.573	576.19561
570.038	578.07323
570.504	602.21129
570.969	568.27268
571.434	618.21556
571.899	584.24297
572.363	654.32213
572.828	669.35157
573.293	625.27063
573.757	644.3227
574.222	653.28723
574.686	631.28693
575.15	703.48459
575.614	714.4726
576.078	616.28844
576.542	646.29937
577.006	637.27212
577.469	647.41509
577.933	681.3595
578.396	681.41986
578.86	675.39799
579.323	638.36806
579.786	695.30857
580.249	730.49688
580.712	661.42322
581.175	574.2777
581.637	579.18339
582.1	582.13064
582.563	603.13337
583.025	561.23505
583.487	622.12472
583.95	531.02525
584.412	595.10733
584.874	592.29821
585.336	572.22214
585.797	585.13405
586.259	515.09708
586.721	499.06985
587.182	563.1678
587.643	549.12502
588.105	453.98973
588.566	499.94426
589.027	545.21281
589.488	464.98137
589.949	515.14217
590.41	487.87519
590.87	499.04267
591.331	493.98358
591.791	471.00232
592.252	452.97397
592.712	493.08241
593.172	449.94404
593.632	486.9892
594.092	446.9177
594.552	447.89263
595.011	372.80058
595.471	438.9199
595.931	459.95529
596.39	359.81386
596.849	378.82677
597.308	397.78727
597.768	385.93622
598.227	344.78255
598.685	370.79251
599.144	398.87822
599.603	326.72359
600.062	347.68876
600.52	400.84381
600.978	349.7793
601.437	373.79635
601.895	312.63534
602.353	323.67256
602.811	400.84232
603.269	345.77609
603.727	300.68772
604.184	339.73098
604.642	336.7835
605.099	368.80898
605.557	317.73353
606.014	301.61727
606.471	307.73541
606.928	308.65174
607.385	341.81029
607.842	294.64388
608.299	294.65637
608.755	321.73924
609.212	327.69119
609.668	313.67145
610.125	291.67044
610.581	245.55387
611.037	234.50643
611.493	258.57886
611.949	276.64513
612.405	220.43392
612.861	272.59922
613.316	244.56385
613.772	242.53448
614.227	303.69446
614.683	246.5014
615.138	204.46486
615.593	194.43832
616.048	227.50209
616.503	219.51502
616.958	212.51531
617.412	197.45516
617.867	220.47654
618.321	212.42345
618.776	185.39705
619.23	168.38484
619.684	225.48476
620.138	241.53082
620.592	167.39611
621.046	219.50095
621.5	132.31267
621.954	163.3524
622.407	178.38359
622.861	122.292
623.314	175.38627
623.768	193.44325
624.221	146.28173
624.674	156.3529
625.127	147.33518
625.58	146.32138
626.033	153.32738
626.485	172.40143
626.938	162.3772
627.39	187.42534
627.843	154.34752
628.295	123.27932
628.747	181.42035
629.199	127.28454
629.651	141.31721
630.103	167.37385
630.555	100.20846
631.006	129.29485
631.458	113.26223
631.909	117.25814
632.361	96.21912
632.812	178.40102
633.263	161.34107
633.714	108.22564
634.165	102.24152
634.616	109.25415
635.067	134.28952
635.518	142.32985
635.968	119.22991
636.419	153.32667
636.869	125.29099
637.319	130.29636
637.769	140.30856
638.219	123.28532
638.669	104.24397
639.119	77.18271
639.569	118.27854
640.019	128.2905
640.468	119.26255
640.918	122.2844
641.367	68.15138
641.816	88.19371
642.265	154.35121
642.714	96.21761
643.163	63.14498
643.612	88.21359
644.061	118.2485
644.51	105.23767
644.958	92.20116
645.406	91.21518
645.855	92.22087
646.303	120.27279
646.751	171.38549
647.199	153.33884
647.647	161.36487
648.095	92.20753
648.543	127.2529
648.99	106.25128
649.438	81.18566
649.885	146.35649
650.333	159.3007
650.78	120.28535
651.227	146.34984
651.674	122.27385
652.121	120.28973
652.568	109.26332
653.015	63.15489
653.461	102.23937
653.908	97.22001
654.354	124.29009
654.801	89.20653
655.247	105.22419
655.693	78.20095
656.139	88.20772
656.585	119.27943
657.031	81.18871
657.477	165.35122
657.922	78.17573
658.368	61.14898
658.813	65.14683
659.259	93.22289
659.704	171.39477
660.149	47.10808
660.594	97.22732
661.039	152.33824
661.484	80.18767
661.929	128.29345
662.373	67.16685
662.818	112.27256
663.262	70.16799
663.707	85.2139
664.151	90.21681
664.595	80.19162
665.039	107.26151
665.483	110.27547
665.927	120.27654
666.371	130.30006
666.814	67.15794
667.258	128.30273
667.701	110.23073
668.145	132.32195
668.588	129.31351
669.031	71.16561
669.474	92.21792
669.917	54.11777
670.36	108.26538
670.803	138.32638
671.245	34.06955
671.688	95.22803
672.13	97.21652
672.573	87.21697
673.015	116.27488
673.457	95.20398
673.899	142.33571
674.341	120.2837
674.783	62.14749
675.225	97.23539
675.666	103.24836
676.108	70.15001
676.549	51.11812
676.991	83.18006
677.432	113.2201
677.873	21.04796
678.314	116.27095
678.755	107.25956
679.196	73.16517
679.637	37.0882
680.078	98.22539
680.518	79.17919
680.959	93.21812
681.399	90.21959
681.839	87.20827
682.28	64.15761
682.72	65.14725
683.16	107.26238
683.6	117.26084
684.039	65.13294
684.479	111.26916
684.919	101.23382
685.358	56.13816
685.798	67.17252
686.237	69.16272
686.676	34.0766
687.115	92.21345
687.554	123.28814
687.993	94.20457
688.432	96.2154
688.871	126.28248
689.309	100.23578
689.748	126.25576
690.186	45.10447
690.625	105.24212
691.063	88.20668
691.501	109.26441
691.939	101.24996
692.377	83.19824
692.815	171.40544
693.253	115.26782
693.69	73.15769
694.128	75.17968
694.565	81.18901
695.003	108.27076
695.44	63.14759
695.877	92.21286
696.314	51.10634
696.751	154.33828
697.188	80.18274
697.625	75.16527
698.061	65.1537
698.498	59.13778
698.934	93.21821
699.371	65.15108
699.807	93.21548
700.243	80.19001
700.679	103.22468
701.115	112.25532
701.551	67.15345
701.987	21.04563
702.422	85.19951
702.858	56.13209
703.294	169.37443
703.729	79.18897
704.164	73.17155
704.599	103.22516
705.035	78.17213
705.47	55.13192
705.904	54.12355
706.339	97.21805
706.774	81.18641
707.209	83.18986
707.643	103.2411
708.078	75.17941
708.512	78.19237
708.946	71.16542
709.38	99.23029
709.814	79.17554
710.248	97.23247
710.682	88.20748
711.116	105.2503
711.549	43.10852
711.983	89.20146
712.416	146.33605
712.85	26.06384
713.283	94.21723
713.716	62.15128
714.149	68.15477
714.582	112.2453
715.015	94.2255
715.448	98.24161
715.881	104.21747
716.313	101.23039
716.746	70.16293
717.178	45.1069
717.61	99.24636
718.043	69.16738
718.475	65.15519
718.907	83.203
719.339	48.10743
719.77	94.22034
720.202	87.21326
720.634	81.19509
721.065	66.15277
721.497	117.2788
721.928	31.07492
722.359	79.18876
722.79	60.14136
723.221	57.13915
723.652	39.09779
724.083	106.23196
724.514	107.23934
724.945	57.13123
725.375	45.10381
725.806	52.12607
726.236	94.23464
726.666	40.09299
727.096	69.16549
727.526	99.24931
727.956	99.22071
728.386	46.11102
728.816	62.15611
729.246	65.15768
729.675	-10.02426
730.105	32.0772
730.534	47.10773
730.964	34.08361
731.393	52.12512
731.822	83.20752
732.251	65.16187
732.68	47.10686
733.109	25.06096
733.537	74.17745
733.966	83.20285
734.395	51.11591
734.823	81.17452
735.251	49.11569
735.68	38.0922
736.108	37.09103
736.536	99.22528
736.964	73.16531
737.392	61.14942
737.82	45.1055
738.247	78.18133
738.675	35.08087
739.102	28.06888
739.53	101.25344
739.957	95.24009
740.384	26.06166
740.811	5.0123
741.238	50.12063
741.665	90.2065
742.092	-17.03879
742.519	72.17509
742.945	74.17617
743.372	83.20157
743.798	47.11819
744.225	40.09295
744.651	44.10812
745.077	29.07125
745.503	55.13
745.929	44.10491
746.355	25.05987
746.781	13.03152
747.207	32.07498
747.632	94.22781
748.058	119.29127
748.483	104.23181
748.908	52.12721
749.334	76.18322
749.759	93.21599
750.184	94.22085
750.609	63.15093
751.033	61.13898
751.458	94.20309
751.883	60.14437
752.307	57.13139
752.732	76.19033
753.156	74.17779
753.58	48.11079
754.005	34.08382
754.429	62.14408
754.853	76.18502
755.277	85.19678
755.7	89.21509
756.124	57.1389
756.548	68.15677
756.971	75.17851
757.394	27.06792
757.818	66.16671
758.241	70.17404
758.664	45.11157
759.087	41.09092
759.51	43.10396
759.933	78.18426
760.356	66.16689
760.778	75.17982
761.201	45.10645
761.623	25.05841
762.046	37.08464
762.468	93.21582
762.89	64.15224
763.312	93.22144
763.734	68.16014
764.156	66.15923
764.578	63.13976
765	69.16404
765.421	53.13275
765.843	54.13839
766.264	46.10639
766.686	8.01955
767.107	32.07615
767.528	78.19583
767.949	51.12664
768.37	93.22433
768.791	49.1147
769.212	65.16028
769.632	38.08743
770.053	9.02318
770.473	24.05676
770.894	16.03865
771.314	66.15125
771.734	52.11826
772.154	33.08254
772.575	71.15875
772.994	36.07968
773.414	82.18875
773.834	46.11194
774.254	10.024
774.673	102.24189
775.093	98.23679
775.512	39.09443
775.931	28.06977
776.351	76.18467
776.77	66.15815
777.189	71.16398
777.607	63.15689
778.026	51.12414
778.445	36.08973
778.864	35.08672
779.282	16.03737
779.701	44.10784
780.119	39.09687
780.537	11.02689
780.955	44.10852
781.373	74.17739
781.791	43.09551
782.209	40.08776
782.627	54.13898
783.045	57.12571
783.462	41.10236
783.88	48.12159
784.297	38.09351
784.715	46.11607
785.132	53.12401
785.549	18.04408
785.966	79.19279
786.383	32.07747
786.8	75.16832
787.217	96.22194
787.633	32.07901
788.05	46.10381
788.466	43.09718
788.883	73.18265
789.299	41.09473
789.715	80.18906
790.131	37.08982
790.547	20.04876
790.963	30.07257
791.379	48.11834
791.795	64.13946
792.21	84.18785
792.626	2.00461
793.041	56.13388
793.457	15.036
793.872	31.07029
794.287	49.11569
794.702	20.04728
795.117	26.06346
795.532	56.13765
795.947	39.08979
796.362	10.0228
796.776	34.07569
797.191	79.18724
797.605	17.03954
798.02	16.03797
798.434	100.21291
798.848	95.22881
799.262	-10.02438
799.676	37.08776
800.09	19.04559
800.504	21.04941
800.918	25.05574
801.331	3.00752
801.745	40.08846
802.158	13.03144
802.572	39.09183
802.985	45.1043
803.398	41.09447
803.811	-14.03455
804.224	12.02874
804.637	15.03502
805.05	13.02908
805.462	76.17877
805.875	8.02039
806.288	37.08736
806.7	-1.00243
807.112	30.06679
807.525	-30.07153
807.937	22.05316
808.349	46.11085
808.761	72.1716
809.173	74.17366
809.584	91.2146
809.996	-13.03114
810.408	17.04339
810.819	8.01838
811.231	96.24818
811.642	82.19679
812.053	47.11135
812.464	51.11671
812.875	63.15672
813.286	67.16855
813.697	75.1636
814.108	30.07073
814.519	61.13205
814.929	27.06675
815.34	25.05822
815.75	40.09967
816.16	11.02634
816.571	10.02527
816.981	38.08561
817.391	-12.02803
817.801	30.07273
818.211	56.12828
818.62	103.23855
819.03	38.08991
819.44	23.0574
819.849	14.03396
820.259	13.03204
820.668	18.04328
821.077	81.19553
821.486	16.0369
821.895	25.05898
822.304	13.03354
822.713	17.03883
823.122	43.10361
823.531	9.02041
823.939	68.16027
824.348	41.09567
824.756	25.06042
825.164	37.08969
825.573	25.06099
825.981	56.13306
826.389	42.10187
826.797	67.16485
827.205	75.16631
827.612	40.09486
828.02	46.10351
828.428	2.00496
828.835	25.06455
829.243	65.14755
829.65	59.14275
830.057	48.11172
830.464	25.05987
830.871	27.06288
831.278	19.04458
831.685	33.07058
832.092	55.12829
832.499	85.1781
832.905	29.07067
833.312	26.05605
833.718	77.18574
834.124	31.06857
834.531	36.08689
834.937	43.10724
835.343	29.06703
835.749	-8.01788
836.155	25.06366
836.561	29.06918
836.966	41.09635
837.372	76.18488
837.777	88.21094
838.183	74.15591
838.588	82.19671
838.993	31.07305
839.399	46.10909
839.804	4.00951
840.209	39.0974
840.613	35.07473
841.018	29.07075
841.423	18.04493
841.828	29.07151
842.232	3.00709
842.637	84.19165
843.041	23.05759
843.445	23.05548
843.849	52.1247
844.253	58.13185
844.657	41.10058
845.061	103.22621
845.465	40.09328
845.869	62.13803
846.272	20.04749
846.676	6.01382
847.079	56.13862
847.483	79.18832
847.886	35.08135
848.289	68.17774
848.692	54.13087
849.095	47.10812
849.498	38.09161
849.901	-17.03757
850.304	18.04156
850.707	9.02223
851.109	73.17629
851.512	34.081
851.914	3.00742
852.316	95.23279
852.718	57.14606
853.121	25.05935
853.523	44.09812
853.925	38.09718
854.326	39.09496
854.728	56.13953
855.13	25.0633
855.531	24.05562
855.933	31.07103
856.334	59.14291
856.736	66.14278
857.137	40.09041
857.538	-8.01977
857.939	58.14009
858.34	44.10209
858.741	15.03799
859.142	42.09656
859.542	54.13883
859.943	22.05292
860.343	43.10357
860.744	99.2301
861.144	47.11153
861.544	28.06604
861.945	34.08373
862.345	0
862.745	79.1897
863.145	44.09905
863.544	30.07366
863.944	45.10215
864.344	2.00476
864.743	82.19431
865.143	31.0779
865.542	16.03534
865.941	58.13866
866.34	49.11119
866.74	49.12753
867.139	40.09369
867.537	16.0391
867.936	34.07932
868.335	35.08589
868.734	45.11133
869.132	19.04203
869.531	62.14185
869.929	12.02658
870.327	14.03248
870.726	67.15849
871.124	30.06693
871.522	12.02957
871.92	63.1492
872.318	19.04458
872.715	39.09158
873.113	34.07942
873.511	25.06003
873.908	17.0424
874.306	66.15911
874.703	36.08603
875.1	48.11659
875.497	16.03693
875.894	85.20317
876.291	49.116
876.688	24.06013
877.085	29.06658
877.482	59.14189
877.878	71.16607
878.275	33.08134
878.671	32.06605
879.068	58.1342
879.464	36.08379
879.86	27.06156
880.256	20.04692
880.652	35.08602
881.048	42.0991
881.444	24.05423
881.84	6.01479
882.236	41.09931
882.631	80.18891
883.027	43.09967
883.422	13.03204
883.817	73.17755
884.213	40.09923
884.608	83.1993
885.003	31.0714
885.398	7.01703
885.793	20.04838
886.188	-47.11431
886.582	11.02711
886.977	56.12637
887.371	51.12325
887.766	18.04366
888.16	-12.02862
888.554	47.11092
888.949	89.21338
889.343	72.16725
889.737	15.03931
890.131	0
890.525	106.26065
890.918	29.07048
891.312	49.11123
891.706	24.06093
892.099	44.1076
892.492	67.13628
892.886	37.08698
893.279	6.01481
893.672	30.07445
894.065	54.13023
894.458	0
894.851	74.17203
895.244	21.05194
895.637	58.13446
896.029	70.16504
896.422	2.00468
896.814	13.03119
897.206	48.11146
897.599	66.15622
897.991	61.1424
898.383	64.14502
898.775	63.13749
899.167	42.09563
899.559	26.06304
899.951	0
900.342	28.06814
900.734	68.1661
901.125	46.1157
901.517	45.10653
901.908	52.11759
902.299	35.08279
902.69	91.20632
903.082	115.26402
903.473	86.19977
903.863	20.04913
904.254	111.24706
904.645	29.06865
905.036	44.10475
905.426	47.10126
905.817	7.01652
906.207	-34.07807
906.597	37.08413
906.987	2.005
907.378	50.12254
907.768	54.13835
908.158	89.20629
908.547	48.12151
908.937	-1.00246
909.327	56.13008
909.717	53.12717
910.106	-5.01159
910.495	29.06903
910.885	67.16338
911.274	22.05308
911.663	15.03652
912.052	17.04004
912.441	47.11619
912.83	13.02854
913.219	30.0757
913.608	64.1509
913.997	25.06126
914.385	55.12592
914.774	38.08883
915.162	69.15917
915.55	51.11737
915.939	37.09093
916.327	53.12601
916.715	95.23529
917.103	14.0327
917.491	63.1488
917.878	43.1014
918.266	3.00753
918.654	3.00751
919.041	31.07949
919.429	59.13317
919.816	24.05876
920.203	48.11304
920.591	28.0672
920.978	55.1292
921.365	58.14734
921.752	-37.0846
922.139	46.09534
922.525	58.13409
922.912	28.06556
923.299	14.03375
923.685	-18.0454
924.072	9.01948
924.458	46.11022
924.844	-12.02891
925.231	3.00668
925.617	47.11662
926.003	25.0616
926.389	18.04394
926.774	15.03667
927.16	64.15201
927.546	62.15488
927.931	13.03118
928.317	55.12003
928.702	18.04084
929.088	121.27723
929.473	53.13098
929.858	50.11844
930.243	79.18304
930.628	36.08534
931.013	53.12644
931.398	22.04774
931.783	-1.00253
932.167	110.25834
932.552	12.02902
932.937	33.07843
933.321	48.11703
933.705	12.02895
934.09	19.04541
934.474	77.17231
934.858	45.11296
935.242	27.05995
935.626	28.06974
936.009	28.07304
936.393	92.22715
936.777	42.1045
937.16	64.16166
937.544	4.00895
937.927	33.0814
938.311	58.13457
938.694	83.21141
939.077	-9.0209
939.46	30.06927
939.843	33.06391
940.226	29.07151
940.609	71.15737
940.991	-15.03695
941.374	44.10415
941.757	26.06161
942.139	40.08642
942.522	45.1012
942.904	53.12217
943.286	47.11453
943.668	98.24551
944.05	34.08079
944.432	55.12965
944.814	33.07743
945.196	66.15543
945.578	93.21419
945.959	10.02235
946.341	73.16759
946.722	51.1138
947.104	77.17557
947.485	77.1706
947.866	56.13689
948.247	61.14942
948.628	-8.01853
949.009	30.07429
949.39	-8.01921
949.771	29.0631
950.152	25.0593
950.532	46.1122
950.913	43.09939
951.293	34.08996
951.674	31.0722
952.054	55.13362
952.434	9.02168
952.814	30.06776
953.194	36.08977
953.574	59.13849
953.954	21.04748
954.334	55.13302
954.714	6.01424
955.093	95.22211
955.473	45.10965
955.853	34.08515
956.232	23.06117
956.611	10.02282
956.99	39.09493
957.37	-3.00738
957.749	39.08774
958.128	47.11478
958.506	46.11541
958.885	50.12086
959.264	52.12413
959.643	85.18487
960.021	65.1556
960.4	47.10161
960.778	86.19851
961.156	14.03382
961.535	49.10798
961.913	124.27525
962.291	39.09797
962.669	53.12992
963.047	46.11383
963.424	83.20579
963.802	58.13712
964.18	20.04805
964.557	49.10721
964.935	45.10203
965.312	56.1414
965.69	55.13081
966.067	41.09469
966.444	4.00935
966.821	50.12436
967.198	44.10108
967.575	36.08448
967.952	78.17422
968.329	64.15008
968.705	54.11097
969.082	49.12296
969.458	8.01885
969.835	63.14666
970.211	82.20394
970.587	45.10801
970.963	44.10772
971.339	48.12159
971.715	51.12265
972.091	35.08286
972.467	43.10148
972.843	57.13755
973.219	53.12041
973.594	44.11118
973.97	44.09743
974.345	37.08552
974.721	33.07555
975.096	63.14718
975.471	36.08157
975.846	8.01841
976.221	16.03942
976.596	98.22728
976.971	74.17603
977.346	17.03773
977.72	4.00983
978.095	43.10708
978.469	74.1674
978.844	39.09375
979.218	65.1515
979.593	50.11408
979.967	-12.02779
980.341	76.16723
980.715	28.06832
981.089	36.08672
981.463	72.15723
981.837	79.18673
982.21	38.08217
982.584	70.16228
982.957	47.11367
983.331	30.06698
983.704	35.08395
984.078	6.01428
984.451	-5.01185
984.824	17.04028
985.197	16.03686
985.57	51.12069
985.943	7.01639
986.316	75.1726
986.688	47.10838
987.061	84.18778
987.434	65.16521
987.806	38.08708
988.179	-4.00909
988.551	48.11651
988.923	17.04015
989.295	69.16392
989.667	52.12103
990.039	93.22297
990.411	-9.01968
990.783	53.11463
991.155	8.01868
991.527	18.04185
991.898	43.10364
992.27	31.07472
992.641	9.02169
993.012	10.02203
993.384	10.02288
993.755	42.10385
994.126	86.19874
994.497	50.1178
994.868	55.11886
995.239	60.13855
995.61	51.12349
995.98	30.06999
996.351	60.14355
996.722	90.20053
997.092	33.07552
997.462	61.13791
997.833	19.0429
998.203	26.05966
998.573	51.12251
998.943	68.15289
999.313	77.17699
999.683	54.12454
1000.053	-42.09164
1000.423	5.01164
1000.792	14.03473
1001.162	13.03067
1001.531	61.1443
1001.901	40.09534
1002.27	20.04188
1002.639	-7.01724
1003.009	26.05927
1003.378	66.16224
1003.747	28.06306
1004.116	-9.02081
1004.485	31.07111
1004.853	-8.01939
1005.222	3.00718
1005.591	21.04777
1005.959	14.03048
1006.328	40.08642
1006.696	37.08525
1007.064	24.05764
1007.433	39.0929
1007.801	36.08329
1008.169	10.02415
1008.537	84.17542
1008.905	53.11889
1009.273	38.08942
1009.64	68.15702
1010.008	29.06623
1010.375	53.12065
1010.743	-8.01723
1011.11	93.21325
1011.478	53.12678
1011.845	56.12482
1012.212	96.20795
1012.579	36.08514
1012.946	54.12116
1013.313	36.08131
1013.68	72.15236
1014.047	61.1387
1014.414	-18.04112
1014.78	35.08411
1015.147	60.13667
1015.513	1.00233
1015.88	62.15077
1016.246	33.07722
1016.612	86.18438
1016.978	84.19744
1017.344	18.04303
1017.71	45.10435
1018.076	29.06481
1018.442	90.22188
1018.808	69.16675
1019.174	10.0241
1019.539	-9.01907
1019.905	-12.02757
1020.27	22.05221
1020.636	34.07701
1021.001	64.14673
1021.366	67.15431
1021.731	92.22931
1022.096	46.11278
1022.461	85.19154
1022.826	79.18013
1023.191	31.07868
1023.556	46.10236
1023.92	5.01175
1024.285	82.18807
1024.649	30.07018
1025.014	15.03539
1025.378	50.12159
1025.742	13.03087
1026.107	64.13685
1026.471	18.04006
1026.835	33.0787
1027.199	13.03025
1027.562	55.12038
1027.926	71.16437
1028.29	12.02941
1028.654	28.06138
1029.017	48.11348
1029.381	33.07597
1029.744	52.12754
1030.107	45.10178
1030.471	54.12435
1030.834	46.09794
1031.197	14.03243
1031.56	9.02032
1031.923	27.0676
1032.286	97.21527
1032.648	24.05427
1033.011	85.18778
1033.374	70.15441
1033.736	-10.02565
1034.099	17.03998
1034.461	27.06641
1034.823	60.14383
1035.185	2.00483
1035.548	72.16798
1035.91	-26.0603
1036.272	42.09183
1036.634	69.16088
1036.995	18.04029
1037.357	-5.01185
1037.719	36.08422
1038.08	64.1462
1038.442	44.0997
1038.803	-49.11267
1039.165	29.07014
1039.526	65.15
1039.887	39.08929
1040.248	61.14653
1040.609	33.07743
1040.97	7.01646
1041.331	47.11525
1041.692	38.08666
1042.053	51.10974
1042.413	82.17967
1042.774	44.10281
1043.134	-9.02041
1043.495	56.13485
1043.855	72.16851
1044.215	55.12985
1044.576	35.08093
1044.936	65.14053
1045.296	51.12195
1045.656	28.06527
1046.016	17.03923
1046.375	36.08379
1046.735	58.12767
1047.095	71.15803
1047.454	48.09503
1047.814	33.07622
1048.173	28.06314
1048.533	27.05922
1048.892	3.00699
1049.251	31.07427
1049.61	37.08763
1049.969	46.10321
1050.328	39.08041
1050.687	14.03259
1051.046	-29.06831
1051.405	32.07574
1051.763	51.11323
1052.122	-19.04595
1052.48	44.10382
1052.839	94.21325
1053.197	49.10997
1053.555	4.00855
1053.914	61.14195
1054.272	-23.05266
1054.63	23.0543
1054.988	72.16454
1055.345	26.05249
1055.703	52.11988
1056.061	71.1772
1056.419	75.18928
1056.776	-11.02533
1057.134	-26.05714
1057.491	55.13207
1057.848	44.10439
1058.206	-36.08078
1058.563	11.02315
1058.92	68.14793
1059.277	46.10875
1059.634	27.05992
1059.991	86.19605
1060.348	6.0131
1060.704	94.21775
1061.061	41.08898
1061.418	27.06305
1061.774	46.10892
1062.131	61.15778
1062.487	27.0601
1062.843	75.17824
1063.199	57.13583
1063.555	76.16884
1063.911	36.08685
1064.267	111.21167
1064.623	49.11542
1064.979	13.02843
1065.335	40.09056
1065.691	32.0723
1066.046	60.12452
1066.402	13.02812
1066.757	66.15953
1067.112	57.13301
1067.468	20.04609
1067.823	-42.09606
1068.178	12.02774
1068.533	28.06517
1068.888	39.08864
1069.243	8.01907
1069.598	43.09931
1069.952	96.20892
1070.307	72.17114
1070.662	44.1014
1071.016	65.14047
1071.371	94.20301
1071.725	37.08385
1072.079	74.16979
1072.434	20.04699
1072.788	-17.03859
1073.142	74.17373
1073.496	19.04318
1073.85	56.12327
1074.203	42.09776
1074.557	77.19917
1074.911	81.18186
1075.265	20.04454
1075.618	89.20662
1075.971	49.11114
1076.325	36.08888
1076.678	29.06353
1077.031	-13.02771
1077.385	19.03979
1077.738	57.12181
1078.091	63.13754
1078.444	23.05045
1078.796	42.09957
1079.149	58.1384
1079.502	39.08893
1079.855	24.05376
1080.207	89.20743
1080.56	57.14257
1080.912	12.02808
1081.264	44.10193
1081.617	16.03774
1081.969	21.0515
1082.321	33.07704
1082.673	67.14783
1083.025	9.02041
1083.377	7.01582
1083.728	8.01783
1084.08	46.10934
1084.432	-17.03953
1084.783	-6.01326
1085.135	41.09927
1085.486	31.06834
1085.838	43.10199
1086.189	46.10799
1086.54	70.15816
1086.891	65.16075
1087.242	73.17269
1087.593	-11.02548
1087.944	45.09808
1088.295	35.07567
1088.646	91.21385
1088.996	27.06295
1089.347	17.0399
1089.698	57.13018
1090.048	19.0474
1090.398	60.13124
1090.749	11.02507
1091.099	47.11513
1091.449	70.16735
1091.799	48.11524
1092.149	61.14452
1092.499	12.02824
1092.849	34.08342
1093.199	44.10479
1093.548	100.23036
1093.898	13.03126
1094.248	6.01477
1094.597	28.06999
1094.947	22.05703
1095.296	64.15201
1095.645	28.06999
1095.994	40.092
1096.343	39.09479
1096.692	43.11099
1097.041	53.141
1097.39	55.13131
1097.739	31.07773
1098.088	-11.0285
1098.437	9.02333
1098.785	0
1099.134	-9.02286
1099.482	36.0964
1099.83	42.10655
1100.179	82.2092
1100.527	22.05593
1100.875	29.07486
1101.223	81.20799
1101.571	-12.03229
1101.919	67.1724
1102.267	17.04711
1102.615	-3.00964
1102.962	4.01283
1103.31	5.01606
1103.658	-4.01283
