Data from N1 R0 sample 9_Subt2__2__11-34-28-305.txt Node

Date: Tue Sep 16 11:34:28 PDT 2025
User: uwsun
Spectrometer: HDX01956
Trigger mode: 0
Integration Time (sec): 5.000000E-1
Scans to average: 1
Nonlinearity correction enabled: true
Boxcar width: 0
Storing dark spectrum: false
XAxis mode: Wavelengths
Number of Pixels in Spectrum: 2068
>>>>>Begin Spectral Data<<<<<
194.03	12.03478
194.578	19.06164
195.127	20.06397
195.676	6.01929
196.225	38.10085
196.773	21.0585
197.321	71.19661
197.87	89.22965
198.418	109.28233
198.966	161.4226
199.513	142.36111
200.061	145.36828
200.609	130.34337
201.156	98.21681
201.704	75.19103
202.251	108.28852
202.798	134.34761
203.345	150.37129
203.892	95.24223
204.438	149.35314
204.985	138.32852
205.532	98.25946
206.078	88.21711
206.624	167.41783
207.17	172.4019
207.716	153.37518
208.262	140.2786
208.808	151.37944
209.354	143.35429
209.899	160.4014
210.445	152.3801
210.99	89.21978
211.535	169.39714
212.08	95.2229
212.625	107.26897
213.17	136.3472
213.715	137.31427
214.259	129.30255
214.804	124.30491
215.348	133.30876
215.892	129.31445
216.436	105.24144
216.98	134.29472
217.524	147.35163
218.068	129.32637
218.612	158.4008
219.155	169.3976
219.698	106.2538
220.242	112.27724
220.785	145.34034
221.328	102.25322
221.871	149.37857
222.414	94.2337
222.956	40.0972
223.499	72.16228
224.041	64.1479
224.583	105.22214
225.126	127.27833
225.668	120.29148
226.21	107.27158
226.751	124.27651
227.293	81.18454
227.835	112.2749
228.376	108.24591
228.918	122.30309
229.459	85.21329
230	127.30472
230.541	115.26454
231.082	146.3537
231.622	91.20674
232.163	76.18454
232.704	158.39267
233.244	113.28038
233.784	108.26174
234.324	140.31425
234.864	113.25537
235.404	129.30255
235.944	116.27286
236.484	125.31128
237.023	102.24086
237.563	110.25623
238.102	154.3614
238.641	73.18456
239.18	96.22634
239.719	118.29497
240.258	126.28248
240.797	139.33059
241.335	117.28403
241.874	200.38316
242.412	173.41619
242.95	116.2806
243.488	70.15855
244.026	151.3493
244.564	137.28121
245.102	150.33822
245.64	75.18023
246.177	81.18118
246.715	159.37888
247.252	125.28294
247.789	102.19011
248.326	133.31972
248.863	98.2169
249.4	159.35741
249.936	140.29275
250.473	130.30698
251.009	104.23871
251.546	168.37214
252.082	131.282
252.618	128.28602
253.154	150.35887
253.69	151.33636
254.226	165.39167
254.761	132.29556
255.297	90.19778
255.832	131.31096
256.367	81.19168
256.903	189.4149
257.438	123.28792
257.972	125.2781
258.507	127.29075
259.042	168.36204
259.576	182.39861
260.111	112.25739
260.645	119.25727
261.179	160.3721
261.713	173.38361
262.247	74.1704
262.781	174.3632
263.315	142.34245
263.849	157.39025
264.382	146.3335
264.915	159.37378
265.449	132.32135
265.982	147.3322
266.515	154.37532
267.048	105.2237
267.58	144.30899
268.113	113.24503
268.646	114.27888
269.178	101.22666
269.71	165.36237
270.243	192.43928
270.775	171.43493
271.307	145.3426
271.838	156.36552
272.37	148.36043
272.902	162.36378
273.433	148.32702
273.965	152.36685
274.496	154.37882
275.027	189.46465
275.558	141.34306
276.089	119.29753
276.62	104.26251
277.15	144.35213
277.681	135.28974
278.211	170.41029
278.741	154.34041
279.272	147.33518
279.802	129.32007
280.332	161.3776
280.861	171.40465
281.391	161.36339
281.921	110.26328
282.45	155.38149
282.98	155.40119
283.509	177.39918
284.038	136.31091
284.567	176.40607
285.096	184.44155
285.625	107.24161
286.153	173.41018
286.682	148.33902
287.21	146.34583
287.739	184.42977
288.267	137.33308
288.795	175.45232
289.323	191.4434
289.851	201.46661
290.378	116.2592
290.906	199.48072
291.433	178.4393
291.961	202.45546
292.488	168.4131
293.015	154.36224
293.542	207.52499
294.069	201.49177
294.596	147.35753
295.122	188.44634
295.649	154.33543
296.175	181.43097
296.702	180.43639
297.228	168.40117
297.754	130.29288
298.28	204.46354
298.806	129.31105
299.332	176.39132
299.857	221.49412
300.383	207.51284
300.908	197.47894
301.433	200.48451
301.958	159.36283
302.483	141.34857
303.008	241.58787
303.533	180.45968
304.058	172.39779
304.582	172.40379
305.107	179.46154
305.631	223.49694
306.155	190.43837
306.679	197.45841
307.203	174.40146
307.727	181.4255
308.251	206.50166
308.775	252.6008
309.298	199.47455
309.822	157.39253
310.345	226.53179
310.868	235.55695
311.391	256.61665
311.914	164.40892
312.437	233.52353
312.96	212.49302
313.482	198.4601
314.005	197.48592
314.527	188.48365
315.049	207.51752
315.571	244.53935
316.093	247.59981
316.615	163.38945
317.137	247.52805
317.659	210.50222
318.18	169.40054
318.702	269.61605
319.223	237.47459
319.744	235.52065
320.265	256.61127
320.786	287.69901
321.307	235.57067
321.828	272.59922
322.348	259.59696
322.869	293.67962
323.389	372.6965
323.909	269.60044
324.43	235.55222
324.95	247.55543
325.47	321.77128
325.989	293.67693
326.509	274.60034
327.029	309.68543
327.548	308.67738
328.067	296.69973
328.587	325.78977
329.106	264.58233
329.625	300.75931
330.144	319.71938
330.662	369.83211
331.181	360.81729
331.7	285.64613
332.218	318.66907
332.736	351.79185
333.255	354.80334
333.773	332.75801
334.291	300.73108
334.808	323.70604
335.326	360.77742
335.844	384.8661
336.361	439.0724
336.879	373.84388
337.396	434.00226
337.913	398.87896
338.43	368.79776
338.947	398.90939
339.464	373.77252
339.981	397.89999
340.497	429.00031
341.014	377.8827
341.53	410.88121
342.046	460.08595
342.562	426.00827
343.078	402.90447
343.594	432.97553
344.11	479.07849
344.626	465.10816
345.141	454.98206
345.657	495.04755
346.172	499.12772
346.687	408.89351
347.202	505.07807
347.717	488.09184
348.232	459.08003
348.747	518.11519
349.261	467.96718
349.776	505.12367
350.29	538.25516
350.805	522.20346
351.319	505.0967
351.833	511.09892
352.347	507.11973
352.861	552.20021
353.374	540.13772
353.888	556.26107
354.401	532.12428
354.915	546.14383
355.428	556.28603
355.941	554.19384
356.454	541.1141
356.967	539.16619
357.48	538.13052
357.993	577.30955
358.505	577.29366
359.018	617.38458
359.53	640.42478
360.042	587.20682
360.554	660.46753
361.066	582.30462
361.578	600.21336
362.09	623.35337
362.602	670.34648
363.113	650.38963
363.625	684.39676
364.136	613.22694
364.647	654.40783
365.158	662.39394
365.669	673.45219
366.18	687.4552
366.691	630.25259
367.201	691.49106
367.712	697.43203
368.222	710.46369
368.733	690.3434
369.243	716.42848
369.753	736.50852
370.263	754.61984
370.773	739.60358
371.282	781.64803
371.792	819.65881
372.301	770.64644
372.811	814.88838
373.32	870.61589
373.829	913.84183
374.338	836.60963
374.847	943.84681
375.356	913.84183
375.865	1033.82215
376.373	1016.92313
376.882	1019.17507
377.39	1088.16318
377.898	1079.19531
378.407	1186.1475
378.915	1172.0396
379.423	1193.21537
379.93	1378.44379
380.438	1306.45156
380.946	1375.44158
381.453	1480.65921
381.96	1661.83196
382.468	1681.79355
382.975	1752.015
383.482	1713.64448
383.989	1800.25907
384.495	1926.96164
385.002	2030.60584
385.509	2188.21905
386.015	2323.59981
386.521	2358.06574
387.028	2443.07975
387.534	2532.81271
388.04	2638.42774
388.546	2751.98159
389.051	2996.95642
389.557	3124.21623
390.063	3210.0545
390.568	3333.40823
391.073	3489.88087
391.578	3681.42447
392.084	3849.89095
392.589	4140.43719
393.093	4507.90345
393.598	4805.45401
394.103	5174.48493
394.607	5702.29042
395.112	5994.30862
395.616	6431.07458
396.12	6884.66493
396.624	7652.0256
397.128	8300.60206
397.632	9097.66373
398.136	10198.39109
398.639	11151.87698
399.143	12762.07607
399.646	14219.41435
400.15	15789.64699
400.653	17869.21372
401.156	20267.8326
401.659	23791.61014
402.162	31465.90477
402.664	49061.69552
403.167	62114.24442
403.67	63769.22307
404.172	63919.58413
404.674	63858.43483
405.176	63738.15102
405.678	63977.72923
406.18	64011.81569
406.682	63863.44694
407.184	63926.60148
407.686	63841.39382
408.187	64025.8516
408.688	58413.55093
409.19	45984.27713
409.691	38681.13439
410.192	32974.43732
410.693	29677.45395
411.194	27989.94972
411.694	26262.66385
412.195	24004.82247
412.696	22495.85302
413.196	21967.22701
413.696	22110.77987
414.196	21575.25373
414.696	20472.27332
415.196	18299.24073
415.696	14481.47551
416.196	11504.5033
416.695	10126.1317
417.195	9561.63608
417.694	9152.69303
418.194	8265.20657
418.693	8003.14984
419.192	7906.18815
419.691	7607.9502
420.19	7388.0274
420.688	7177.09627
421.187	6644.11829
421.685	6154.88416
422.184	5508.25898
422.682	4678.17041
423.18	4295.72543
423.678	3856.88802
424.176	3593.97384
424.674	3416.87176
425.172	3163.24446
425.669	2926.50471
426.167	2612.1568
426.664	2406.99774
427.161	2335.03774
427.659	2165.21771
428.156	2078.61575
428.652	1914.22576
429.149	1896.04581
429.646	1797.63858
430.143	1682.81417
430.639	1629.7226
431.135	1532.81718
431.632	1418.39268
432.128	1410.53805
432.624	1353.70155
433.12	1344.30616
433.616	1274.11946
434.111	1204.24743
434.607	1181.23739
435.103	1114.82779
435.598	1082.77703
436.093	972.8728
436.588	911.71273
437.083	870.64313
437.578	928.79474
438.073	836.80381
438.568	886.85466
439.062	811.47364
439.557	788.58832
440.051	748.45582
440.546	727.43871
441.04	750.57046
441.534	740.63603
442.028	771.61198
442.522	693.46728
443.015	613.16748
443.509	631.37251
444.002	593.30832
444.496	593.14849
444.989	652.40713
445.482	654.44215
445.975	666.35996
446.468	593.1463
446.961	655.25186
447.454	555.12298
447.947	551.19321
448.439	584.293
448.931	595.22384
449.424	597.3714
449.916	566.24998
450.408	515.07283
450.9	543.19836
451.392	486.13724
451.884	571.1802
452.375	530.19618
452.867	462.95661
453.358	514.07193
453.849	470.9218
454.341	484.00031
454.832	505.99255
455.323	496.13435
455.814	465.9794
456.304	497.05042
456.795	493.02829
457.285	429.87458
457.776	464.97321
458.266	421.92994
458.756	400.88264
459.247	434.96365
459.737	473.05278
460.226	442.93198
460.716	411.91619
461.206	417.9288
461.695	416.95853
462.185	407.90127
462.674	376.80571
463.163	443.91748
463.653	440.86296
464.142	388.88084
464.63	390.8843
465.119	397.86153
465.608	354.78148
466.096	354.72152
466.585	355.76252
467.073	316.70723
467.561	365.82276
468.05	278.61167
468.538	338.7804
469.026	301.67907
469.513	260.52559
470.001	308.67198
470.489	327.73591
470.976	371.813
471.463	329.77577
471.951	298.70528
472.438	274.61526
472.925	268.60426
473.412	306.70541
473.899	262.57574
474.385	256.60167
474.872	242.54297
475.359	259.61121
475.845	247.49095
476.331	235.48149
476.817	257.60014
477.303	293.64832
477.789	211.48634
478.275	241.57579
478.761	184.42504
479.247	215.46362
479.732	227.54691
480.218	268.67375
480.703	186.44567
481.188	265.5486
481.673	178.39889
482.158	238.49502
482.643	270.66093
483.128	243.54532
483.612	237.5443
484.097	212.49458
484.581	194.43599
485.066	208.49382
485.55	195.41905
486.034	168.35582
486.518	199.4627
487.002	175.4146
487.486	135.32181
487.969	175.41444
488.453	162.39378
488.936	189.41367
489.42	178.38375
489.903	136.3322
490.386	103.21094
490.869	192.40896
491.352	138.32587
491.835	154.30846
492.318	163.35797
492.8	193.38809
493.283	127.3189
493.765	112.27092
494.247	109.25064
494.73	168.36313
495.212	118.27562
495.694	153.35336
496.175	111.26349
496.657	171.39509
497.139	159.26635
497.62	137.32382
498.102	160.38965
498.583	44.10792
499.064	120.26393
499.545	161.35879
500.026	134.29831
500.507	84.19204
500.988	164.40073
501.469	73.18073
501.949	121.29429
502.43	150.35448
502.91	191.39399
503.39	103.25229
503.87	147.34099
504.35	67.1561
504.83	81.17617
505.31	44.10603
505.79	75.17625
506.269	67.1532
506.749	80.18171
507.228	100.23312
507.707	106.23412
508.187	124.29202
508.666	127.30993
509.145	122.28126
509.623	94.21818
510.102	66.15905
510.581	125.29718
511.059	122.30276
511.538	73.18706
512.016	69.16474
512.494	75.17927
512.972	93.22085
513.45	42.09818
513.928	72.1743
514.406	112.27143
514.884	85.21757
515.361	102.24171
515.839	103.23504
516.316	117.28083
516.793	80.20063
517.27	89.21241
517.747	104.2641
518.224	42.09698
518.701	62.13688
519.178	70.17448
519.654	108.25295
520.131	87.21397
520.607	29.07109
521.083	29.06604
521.56	57.13421
522.036	49.10689
522.512	93.2278
522.987	91.21768
523.463	80.18862
523.939	133.32517
524.414	84.19111
524.89	78.18526
525.365	73.16437
525.84	51.12265
526.315	103.24713
526.79	91.20389
527.265	118.26944
527.74	88.21207
528.215	29.06796
528.689	4.00887
529.164	10.02167
529.638	45.11405
530.112	56.13162
530.587	105.22263
531.061	96.23047
531.534	100.23879
532.008	115.27645
532.482	87.19877
532.956	86.21785
533.429	128.30893
533.903	94.20449
534.376	123.26831
534.849	58.13329
535.322	50.11807
535.795	21.051
536.268	77.1856
536.741	61.14458
537.213	67.1537
537.686	64.15627
538.158	124.27845
538.631	102.24478
539.103	91.20431
539.575	72.14795
540.047	72.15663
540.519	115.27161
540.991	105.25356
541.463	42.10125
541.934	47.10647
542.406	79.18905
542.877	145.32166
543.348	120.28633
543.82	91.21975
544.291	111.25657
544.762	108.25474
545.233	165.40999
545.703	125.27475
546.174	130.29743
546.645	137.32671
547.115	180.42472
547.585	143.32369
548.056	203.48631
548.526	227.52217
548.996	141.33199
549.466	142.33986
549.935	190.44326
550.405	163.35134
550.875	212.48932
551.344	227.52425
551.814	234.51854
552.283	226.47761
552.752	248.56123
553.221	252.53628
553.69	316.67949
554.159	276.66079
554.628	321.69188
555.096	254.62431
555.565	321.67345
556.033	413.92027
556.502	277.64175
556.97	349.73284
557.438	363.80319
557.906	348.77658
558.374	388.84362
558.842	391.87883
559.31	435.90172
559.777	445.00875
560.245	398.85285
560.712	458.96699
561.18	476.96576
561.647	462.94163
562.114	469.98912
562.581	527.18287
563.048	551.13829
563.514	614.38432
563.981	577.18516
564.448	623.24814
564.914	609.26056
565.381	670.34462
565.847	680.38984
566.313	718.44838
566.779	709.38536
567.245	743.48688
567.711	795.63362
568.176	733.41947
568.642	818.77323
569.108	825.73639
569.573	795.57054
570.038	859.48535
570.504	856.62295
570.969	866.82234
571.434	942.71352
571.899	954.86882
572.363	953.79622
572.828	1001.87029
573.293	1002.86433
573.757	1019.91804
574.222	1046.87437
574.686	1054.9458
575.15	1089.10565
575.614	1117.09636
576.078	1034.96486
576.542	1092.97404
577.006	1078.93582
577.469	1097.17154
577.933	1170.07349
578.396	1053.0146
578.86	1109.0752
579.323	1134.17257
579.786	1108.87843
580.249	1164.15442
580.712	1079.11502
581.175	1037.08686
581.637	1052.92278
582.1	1066.83617
582.563	986.68172
583.025	1001.00047
583.487	1075.724
583.95	966.67401
584.412	1046.7329
584.874	1023.03982
585.336	923.82375
585.797	915.63615
586.259	977.8748
586.721	909.77846
587.182	872.68548
587.643	919.7278
588.105	867.72656
588.566	881.5114
589.027	918.88618
589.488	867.67061
589.949	825.71282
590.41	840.37296
590.87	862.65818
591.331	864.57452
591.791	764.52367
592.252	784.56723
592.712	730.52382
593.172	731.43989
593.632	822.54399
594.092	699.35482
594.552	763.41083
595.011	702.4018
595.471	733.43774
595.931	711.39518
596.39	671.42251
596.849	603.25425
597.308	626.17351
597.768	666.53157
598.227	597.28637
598.685	613.24224
599.144	581.23095
599.603	562.18415
600.062	559.05309
600.52	579.17162
600.978	514.10657
601.437	522.07659
601.895	548.05434
602.353	499.99832
602.811	529.08054
603.269	481.04981
603.727	511.11964
604.184	458.96232
604.642	484.09354
605.099	457.9858
605.557	476.06451
606.014	424.84533
606.471	502.15545
606.928	501.01352
607.385	468.08264
607.842	424.90306
608.299	482.03222
608.755	415.93772
609.212	499.01316
609.668	400.84195
610.125	425.95288
610.581	414.90358
611.037	359.75616
611.493	304.6756
611.949	342.78901
612.405	400.7556
612.861	298.65292
613.316	364.821
613.772	359.77344
614.227	348.79037
614.683	363.72018
615.138	279.6261
615.593	316.69614
616.048	325.7041
616.503	310.71605
616.958	339.8043
617.412	335.75267
617.867	287.61276
618.321	304.59424
618.776	266.5609
619.23	285.63746
619.684	315.66553
620.138	267.58488
620.592	266.61883
621.046	271.61339
621.5	247.57203
621.954	269.56835
622.407	227.48403
622.861	241.56366
623.314	195.42861
623.768	223.50907
624.221	147.2836
624.674	194.43546
625.127	182.41204
625.58	208.45189
626.033	223.46992
626.485	177.41269
626.938	223.51297
627.39	223.50353
627.843	145.32781
628.295	169.3802
628.747	204.47161
629.199	227.4981
629.651	193.42956
630.103	146.32826
630.555	147.30323
631.006	158.35902
631.458	152.35
631.909	152.3329
632.361	116.26369
632.812	178.40102
633.263	179.3777
633.714	179.36808
634.165	155.36324
634.616	166.3827
635.067	143.30836
635.518	146.33887
635.968	145.27839
636.419	141.30183
636.869	123.28645
637.319	171.38659
637.769	144.31711
638.219	152.35056
638.669	105.24627
639.119	92.21767
639.569	136.3199
640.019	169.38036
640.468	117.25825
640.918	84.19728
641.367	126.27713
641.816	138.30058
642.265	175.39741
642.714	72.16401
643.163	124.28188
643.612	132.31774
644.061	162.33785
644.51	154.34511
644.958	143.30929
645.406	93.21983
645.855	108.25849
646.303	77.17656
646.751	117.26667
647.199	145.32166
647.647	155.35171
648.095	105.23622
648.543	137.27218
648.99	156.36623
649.438	98.22386
649.885	152.37072
650.333	113.21612
650.78	115.27372
651.227	100.24172
651.674	131.29351
652.121	133.32033
652.568	87.21105
653.015	76.1864
653.461	55.13026
653.908	125.28191
654.354	139.32422
654.801	100.23156
655.247	144.30485
655.693	107.27427
656.139	101.23781
656.585	58.13781
657.031	129.2977
657.477	93.20106
657.922	60.13568
658.368	100.24244
658.813	70.15797
659.259	144.34175
659.704	123.28668
660.149	92.20965
660.594	138.32081
661.039	145.32313
661.484	101.23596
661.929	99.22828
662.373	59.14714
662.818	89.21752
663.262	86.20576
663.707	140.34882
664.151	109.26163
664.595	56.13475
665.039	116.28303
665.483	116.29018
665.927	119.27429
666.371	88.20482
666.814	96.22502
667.258	98.23312
667.701	149.30984
668.145	132.32195
668.588	104.25394
669.031	66.1541
669.474	79.1876
669.917	102.22019
670.36	100.24608
670.803	176.41318
671.245	67.13603
671.688	145.34472
672.13	91.20338
672.573	80.19977
673.015	132.31183
673.457	85.1829
673.899	90.21492
674.341	104.24663
674.783	94.22223
675.225	88.21391
675.666	119.28607
676.108	65.13944
676.549	66.1524
676.991	89.19283
677.432	129.2503
677.873	82.18497
678.314	61.14402
678.755	142.3422
679.196	107.24043
679.637	80.18913
680.078	140.31928
680.518	69.15682
680.959	109.25485
681.399	97.23636
681.839	116.27615
682.28	115.28054
682.72	126.2819
683.16	102.25036
683.6	130.28905
684.039	66.13495
684.479	118.28576
684.919	138.31713
685.358	56.13816
685.798	83.21313
686.237	63.14874
686.676	55.12338
687.115	90.2089
687.554	149.34727
687.993	132.28495
688.432	116.2592
688.871	113.25401
689.309	120.28183
689.748	125.25379
690.186	61.14117
690.625	94.21723
691.063	106.24808
691.501	142.34233
691.939	110.27179
692.377	119.28226
692.815	111.26623
693.253	129.29959
693.69	130.27738
694.128	112.26643
694.565	105.24386
695.003	126.31486
695.44	143.32974
695.877	133.30522
696.314	45.09395
696.751	119.26332
697.188	189.42223
697.625	107.2342
698.061	122.2853
698.498	62.1447
698.934	103.2412
699.371	125.28709
699.807	131.30123
700.243	92.21801
700.679	126.27351
701.115	152.34371
701.551	102.23196
701.987	43.093
702.422	122.28429
702.858	160.36975
703.294	207.45498
703.729	114.27087
704.164	87.20389
704.599	124.26986
705.035	138.30071
705.47	91.21676
705.904	119.26871
706.339	131.29242
706.774	144.32721
707.209	118.26802
707.643	193.44379
708.078	100.23806
708.512	97.23839
708.946	76.17689
709.38	110.25532
709.814	94.20822
710.248	151.35816
710.682	158.36745
711.116	184.43196
711.549	84.21044
711.983	103.23248
712.416	150.34499
712.85	111.26825
713.283	107.24663
713.716	142.34129
714.149	75.17046
714.582	185.39893
715.015	98.23491
715.448	104.25611
715.881	149.30846
716.313	113.25714
716.746	106.24496
717.178	90.21195
717.61	143.353
718.043	114.2742
718.475	127.29961
718.907	111.27007
719.339	82.18225
719.77	136.31616
720.202	63.15512
720.634	130.31019
721.065	93.21411
721.497	108.2578
721.928	75.17975
722.359	71.1699
722.79	109.25435
723.221	62.15122
723.652	77.19175
724.083	52.11509
724.514	119.26552
724.945	75.17205
725.375	102.23262
725.806	61.14764
726.236	88.2199
726.666	96.22071
727.096	81.19383
727.526	117.29369
727.956	61.13707
728.386	73.17529
728.816	64.16109
729.246	108.25987
729.675	40.09614
730.105	36.08679
730.534	72.1642
730.964	31.07627
731.393	44.10603
731.822	101.2517
732.251	68.16925
732.68	80.18068
733.109	72.17404
733.537	91.21751
733.966	68.16666
734.395	37.08433
734.823	63.13626
735.251	28.06638
735.68	73.17595
736.108	28.06901
736.536	32.0738
736.964	38.08666
737.392	70.17118
737.82	40.09387
738.247	69.16069
738.675	68.15608
739.102	44.10792
739.53	85.2139
739.957	79.20023
740.384	94.21999
740.811	-7.01726
741.238	63.15162
741.665	116.26476
742.092	-6.01366
742.519	-1.00246
742.945	71.16912
743.372	87.21113
743.798	49.12318
744.225	42.09756
744.651	43.10568
745.077	54.13205
745.503	33.07834
745.929	111.26125
746.355	31.07415
746.781	21.05085
747.207	57.1329
747.632	73.17762
748.058	86.21179
748.483	89.199
748.908	61.14898
749.334	94.22584
749.759	83.19314
750.184	85.20006
750.609	72.1722
751.033	52.11869
751.458	86.18613
751.883	42.10141
752.307	54.12454
752.732	68.17054
753.156	42.10152
753.58	32.0741
754.005	48.11803
754.429	83.19208
754.853	54.132
755.277	81.18767
755.7	51.12414
756.124	61.14853
756.548	57.1317
756.971	80.19023
757.394	16.04033
757.818	45.1141
758.241	88.21807
758.664	41.10173
759.087	83.18244
759.51	38.09196
759.933	46.10934
760.356	103.25873
760.778	63.15139
761.201	73.17175
761.623	36.08392
762.046	19.04362
762.468	71.16548
762.89	93.22
763.312	54.12954
763.734	44.1041
764.156	58.14014
764.578	44.09799
765	58.13818
765.421	4.01011
765.843	46.11806
766.264	18.04186
766.686	28.06817
767.107	29.06905
767.528	47.11866
767.949	25.06237
768.37	66.16001
768.791	33.07749
769.212	-8.01999
769.632	26.05997
770.053	-7.01808
770.473	35.0826
770.894	46.11048
771.314	58.13313
771.734	50.11375
772.154	41.1024
772.575	22.04969
772.994	26.05767
773.414	38.08824
773.834	-17.04186
774.254	13.03118
774.673	54.12925
775.093	50.12191
775.512	0
775.931	52.129
776.351	59.14382
776.77	44.10587
777.189	54.12514
777.607	51.12728
778.026	54.13136
778.445	25.06244
778.864	35.08672
779.282	39.09068
779.701	12.02958
780.119	-14.03511
780.537	31.07551
780.955	37.09137
781.373	35.08452
781.791	69.15243
782.209	49.1073
782.627	24.06209
783.045	39.08634
783.462	35.08748
783.88	41.10399
784.297	41.10084
784.715	31.07843
785.132	5.01181
785.549	26.06358
785.966	42.1032
786.383	37.08949
786.8	103.22982
787.217	72.16725
787.633	43.10595
788.05	15.03406
788.466	9.02048
788.883	74.18512
789.299	7.01628
789.715	120.28139
790.131	32.07776
790.547	35.0851
790.963	27.06535
791.379	41.10121
791.795	54.11792
792.21	64.14372
792.626	30.06872
793.041	24.05773
793.457	32.07656
793.872	-3.00685
794.287	68.15995
794.702	16.03786
795.117	62.15032
795.532	33.08146
795.947	42.09664
796.362	35.07939
796.776	54.11972
797.191	26.06225
797.605	56.12926
798.02	16.03797
798.434	83.17737
798.848	77.18609
799.262	28.06778
799.676	87.20437
800.09	56.13342
800.504	48.11234
800.918	-9.02021
801.331	-42.10613
801.745	26.05767
802.158	8.01937
802.572	59.13838
802.985	64.14778
803.398	6.01392
803.811	-1.00246
804.224	-23.05546
804.637	13.03036
805.05	11.02462
805.462	36.08534
805.875	22.05593
806.288	12.02847
806.7	15.03637
807.112	47.10426
807.525	3.00711
807.937	-5.01214
808.349	10.02426
808.761	67.15984
809.173	69.16209
809.584	52.12356
809.996	53.12537
810.408	67.16951
810.819	34.0777
811.231	70.18178
811.642	87.20859
812.053	69.16278
812.464	2.00462
812.875	-24.06065
813.286	50.12616
813.697	27.0595
814.108	-3.00712
814.519	129.27519
814.929	25.06183
815.34	-8.01875
815.75	27.06743
816.16	-12.02886
816.571	14.03535
816.981	19.04297
817.391	22.05104
817.801	16.03889
818.211	16.03695
818.62	24.05645
819.03	6.01428
819.44	13.0325
819.849	10.02427
820.259	4.00988
820.668	26.06242
821.077	69.16694
821.486	-6.0139
821.895	39.09176
822.304	23.05925
822.713	27.06154
823.122	47.11316
823.531	41.09235
823.939	23.05468
824.348	56.13029
824.756	44.10595
825.164	29.0704
825.573	25.06099
825.981	37.08824
826.389	49.11869
826.797	93.22772
827.205	64.14224
827.612	20.04761
828.02	-26.05937
828.428	33.0814
828.835	12.03106
829.243	62.14083
829.65	43.10435
830.057	-19.04481
830.464	41.09789
830.871	77.17756
831.278	16.03756
831.685	50.10655
832.092	44.10285
832.499	15.03192
832.905	13.03177
833.312	-14.03044
833.718	39.09475
834.124	37.08174
834.531	-12.02922
834.937	65.16146
835.343	11.02552
835.749	33.07315
836.155	29.07379
836.561	22.05256
836.966	16.03778
837.372	0
837.777	45.10875
838.183	68.14345
838.588	33.0799
838.993	54.12668
839.399	52.12318
839.804	28.06625
840.209	80.19832
840.613	23.04924
841.018	7.01715
841.423	38.09451
841.828	35.08621
842.232	14.03302
842.637	52.11941
843.041	14.03511
843.445	60.14372
843.849	23.05546
844.253	81.18327
844.657	32.07863
845.061	122.26686
845.465	36.08402
845.869	51.1138
846.272	21.04985
846.676	-14.03237
847.079	51.12636
847.483	56.13408
847.886	44.10209
848.289	44.11548
848.692	-1.00245
849.095	32.07383
849.498	64.15353
849.901	13.02855
850.304	27.06224
850.707	28.0689
851.109	22.05364
851.512	60.14224
851.914	9.02224
852.316	98.24
852.718	89.22677
853.121	45.10641
853.523	-13.02933
853.925	50.1276
854.326	36.08771
854.728	43.10739
855.13	40.101
855.531	54.1244
855.933	22.0505
856.334	32.0779
856.736	41.08917
857.137	64.14395
857.538	32.07851
857.939	46.11136
858.34	49.11358
858.741	33.08331
859.142	4.00927
859.542	23.05945
859.943	54.1291
860.343	12.02907
860.744	61.14285
861.144	73.17235
861.544	42.0988
861.945	27.06658
862.345	30.07049
862.745	59.14221
863.145	37.08341
863.544	19.04675
863.944	81.18253
864.344	4.00952
864.743	48.11449
865.143	64.15987
865.542	10.02211
865.941	46.11022
866.34	13.02971
866.74	55.143
867.139	38.08904
867.537	-3.00736
867.936	60.13926
868.335	64.15621
868.734	16.03979
869.132	-17.03789
869.531	30.06908
869.929	20.04423
870.327	-12.02799
870.726	43.10219
871.124	59.13083
871.522	64.15621
871.92	47.11165
872.318	54.12583
872.715	3.00709
873.113	-6.01412
873.511	12.02889
873.908	12.02995
874.306	36.08728
874.703	-20.04831
875.1	42.10213
875.497	16.03693
875.894	30.07246
876.291	46.10896
876.688	9.02261
877.085	43.09844
877.482	21.05087
877.878	69.16145
878.275	24.05926
878.671	-42.08814
879.068	72.16613
879.464	34.07917
879.86	15.03429
880.256	55.12814
880.652	30.0738
881.048	29.0686
881.444	-6.01364
881.84	16.03937
882.236	59.14243
882.631	73.17262
883.027	22.05121
883.422	17.04187
883.817	10.02461
884.213	37.09184
884.608	43.10404
885.003	-12.02788
885.398	-21.05136
885.793	21.05079
886.188	-4.00965
886.582	15.03695
886.977	88.19729
887.371	28.06796
887.766	18.04366
888.16	13.03086
888.554	9.0214
888.949	62.14941
889.343	15.03524
889.737	29.07581
890.131	35.08481
890.525	26.06488
890.918	14.03412
891.312	19.04339
891.706	38.09623
892.099	43.10517
892.492	50.1021
892.886	13.0307
893.279	-12.02972
893.672	1.00249
894.065	65.15643
894.458	23.05535
894.851	-5.0118
895.244	43.10591
895.637	71.16418
896.029	40.09486
896.422	-1.00234
896.814	28.06699
897.206	62.14357
897.599	104.24435
897.991	23.05409
898.383	48.10912
898.775	99.2144
899.167	83.18742
899.559	4.00974
899.951	49.1096
900.342	33.08023
900.734	37.0909
901.125	26.06563
901.517	33.07831
901.908	11.02508
902.299	31.07339
902.69	56.12787
903.082	21.04912
903.473	72.16771
903.863	10.02461
904.254	62.1394
904.645	53.12489
905.036	65.15412
905.426	65.1395
905.817	-5.01183
906.207	-1.00228
906.597	15.03426
906.987	15.03738
907.378	48.11768
907.768	36.09252
908.158	61.14217
908.547	31.07871
908.937	-22.05438
909.327	38.08859
909.717	-1.00242
910.106	-20.0465
910.495	13.03104
910.885	51.12474
911.274	25.06028
911.663	28.06801
912.052	49.1147
912.441	36.08918
912.83	19.04166
913.219	42.10575
913.608	24.05703
913.997	35.08561
914.385	56.12818
914.774	56.13044
915.162	73.16826
915.55	31.07163
915.939	22.05422
916.327	23.055
916.715	43.10751
917.103	14.0327
917.491	28.06658
917.878	57.13405
918.266	21.05254
918.654	52.1291
919.041	39.09986
919.429	8.01825
919.816	56.13628
920.203	59.13865
920.591	29.06958
920.978	37.08722
921.365	22.05624
921.752	-1.00227
922.139	44.09123
922.525	-17.03989
922.912	47.10963
923.299	25.06014
923.685	-11.02771
924.072	-9.01956
924.458	26.06254
924.844	28.06694
925.231	4.0089
925.617	30.07467
926.003	11.02717
926.389	20.0488
926.774	40.09734
927.16	54.12851
927.546	3.00757
927.931	18.04313
928.317	17.0374
928.702	3.00683
929.088	75.17343
929.473	64.15784
929.858	43.10199
930.243	28.06553
930.628	6.01431
931.013	-4.00965
931.398	31.06714
931.783	-24.06106
932.167	62.14698
932.552	59.1414
932.937	39.09258
933.321	35.08554
933.705	4.00967
934.09	-5.01201
934.474	5.01135
934.858	12.0303
935.242	14.03117
935.626	26.06478
936.009	73.18895
936.393	55.13672
936.777	20.04996
937.16	47.11908
937.544	-11.02468
937.927	21.05192
938.311	52.12079
938.694	72.18375
939.077	37.08515
939.46	30.06927
939.843	-38.07484
940.226	2.00496
940.609	86.19002
940.991	9.02207
941.374	61.14391
941.757	56.13193
942.139	28.06065
942.522	32.07215
942.904	70.1608
943.286	16.03921
943.668	53.13385
944.05	72.16983
944.432	10.02378
944.814	-4.00945
945.196	-18.04308
945.578	22.05139
945.959	16.03572
946.341	23.05333
946.722	17.0382
947.104	50.11463
947.485	69.15313
947.866	22.05412
948.247	42.10324
948.628	-18.04178
949.009	6.01492
949.39	23.05489
949.771	5.01093
950.152	2.00476
950.532	42.10252
950.913	25.05799
951.293	-3.00799
951.674	4.00937
952.054	42.10229
952.434	41.09819
952.814	-4.0091
953.194	-1.00251
953.574	23.05437
953.954	-14.03188
954.334	67.16168
954.714	-19.04531
955.093	55.1296
955.473	44.10724
955.853	10.02515
956.232	19.05057
956.611	17.03875
956.99	55.13347
957.37	2.00491
957.749	-48.10991
958.128	14.0344
958.506	13.03281
958.885	30.07279
959.264	34.08144
959.643	62.1355
960.021	41.0986
960.4	62.13361
960.778	14.03278
961.156	-3.00727
961.535	22.04875
961.913	68.1527
962.291	43.10794
962.669	15.03703
963.047	24.05963
963.424	43.10739
963.802	37.08783
964.18	-2.00483
964.557	40.08768
964.935	52.11773
965.312	29.07358
965.69	23.05504
966.067	-6.01399
966.444	6.01401
966.821	25.06246
967.198	12.02774
967.575	24.05645
967.952	67.14999
968.329	59.13849
968.705	86.17545
969.082	51.12793
969.458	25.0587
969.835	58.13516
970.211	23.05782
970.587	72.17193
970.963	13.03201
971.339	-4.01023
971.715	9.02182
972.091	23.05458
972.467	2.00476
972.843	60.1447
973.219	40.09111
973.594	11.02796
973.97	17.03785
974.345	61.14032
974.721	0
975.096	68.15871
975.471	35.07932
975.846	20.04593
976.221	9.0222
976.596	84.19536
976.971	39.0934
977.346	22.04877
977.72	32.07825
978.095	12.03005
978.469	22.0503
978.844	21.05066
979.218	18.04234
979.593	33.07555
979.967	-42.09783
980.341	63.139
980.715	46.11186
981.089	44.10583
981.463	49.10752
981.837	55.13061
982.21	32.06929
982.584	49.11407
982.957	39.09447
983.331	18.04029
983.704	40.09585
984.078	22.05221
984.451	14.03305
984.824	-16.03815
985.197	5.01154
985.57	7.01671
985.943	38.08841
986.316	-14.03279
986.688	58.13345
987.061	58.13035
987.434	60.15264
987.806	-9.02082
988.179	10.02265
988.551	49.11891
988.923	22.05191
989.295	23.05512
989.667	65.1509
990.039	90.2159
990.411	12.02613
990.783	28.06088
991.155	18.04194
991.527	32.07419
991.898	26.06287
992.27	63.15093
992.641	74.17617
993.012	-11.02434
993.384	23.05249
993.755	42.10385
994.126	46.10715
994.497	2.00476
994.868	26.05654
995.239	33.07661
995.61	17.04143
995.98	46.10698
996.351	42.10083
996.722	47.10565
997.092	-1.0023
997.462	6.01372
997.833	12.02714
998.203	-21.04864
998.573	53.12726
998.943	63.14179
999.313	11.02562
999.683	41.09481
1000.053	-38.08284
1000.423	1.00233
1000.792	-45.11284
1001.162	-22.05225
1001.531	42.09972
1001.901	36.08587
1002.27	1.0021
1002.639	-17.04193
1003.009	-2.00459
1003.378	9.02236
1003.747	-2.00453
1004.116	0
1004.485	43.0984
1004.853	25.06021
1005.222	-11.02641
1005.591	47.10634
1005.959	27.05862
1006.328	36.07785
1006.696	22.05084
1007.064	16.03849
1007.433	31.07396
1007.801	34.0787
1008.169	-11.02667
1008.537	52.10936
1008.905	58.12998
1009.273	46.10808
1009.64	32.07442
1010.008	51.11596
1010.375	9.02067
1010.743	-1.00215
1011.11	36.08349
1011.478	81.19272
1011.845	22.04938
1012.212	66.14388
1012.579	50.11793
1012.946	26.05867
1013.313	29.06559
1013.68	15.03214
1014.047	9.02068
1014.414	4.0091
1014.78	43.10317
1015.147	29.06647
1015.513	42.09702
1015.88	-12.02958
1016.246	34.07954
1016.612	34.07371
1016.978	73.17195
1017.344	61.14463
1017.71	59.13643
1018.076	33.07369
1018.442	65.16099
1018.808	79.19056
1019.174	0
1019.539	7.01478
1019.905	38.08642
1020.27	9.02141
1020.636	70.15739
1021.001	71.16254
1021.366	56.12926
1021.731	85.21214
1022.096	10.02468
1022.461	25.05703
1022.826	46.10559
1023.191	39.09885
1023.556	20.04475
1023.92	20.04688
1024.285	8.01862
1024.649	-5.01178
1025.014	19.04479
1025.378	59.14323
1025.742	-9.02146
1026.107	26.05605
1026.471	41.0908
1026.835	37.08817
1027.199	1.00233
1027.562	10.0221
1027.926	45.10472
1028.29	16.03918
1028.654	26.05702
1029.017	44.1041
1029.381	18.04156
1029.744	32.07878
1030.107	71.15973
1030.471	68.15615
1030.834	21.04495
1031.197	43.09904
1031.56	16.03608
1031.923	11.02762
1032.286	28.06303
1032.648	11.02494
1033.011	36.08034
1033.374	4.00895
1033.736	17.04339
1034.099	9.0212
1034.461	46.11274
1034.823	-3.00728
1035.185	-21.05089
1035.548	39.09158
1035.91	16.0368
1036.272	45.09833
1036.634	65.15168
1036.995	32.07142
1037.357	11.02598
1037.719	18.04226
1038.08	72.1642
1038.442	18.041
1038.803	-16.03655
1039.165	47.11329
1039.526	10.02333
1039.887	24.05511
1040.248	68.16313
1040.609	-6.01419
1040.97	8.0188
1041.331	53.12982
1041.692	45.10248
1042.053	53.114
1042.413	71.15593
1042.774	52.12132
1043.134	4.00905
1043.495	-7.01706
1043.855	56.13147
1044.215	-28.06717
1044.576	0
1044.936	47.102
1045.296	72.17147
1045.656	13.03039
1046.016	14.03233
1046.375	43.09994
1046.735	37.08181
1047.095	24.05394
1047.454	25.04976
1047.814	34.07851
1048.173	-10.02272
1048.533	12.0264
1048.892	26.0603
1049.251	44.10515
1049.61	2.00477
1049.969	51.11431
1050.328	53.10894
1050.687	-1.00233
1051.046	17.03968
1051.405	15.03562
1051.763	46.10224
1052.122	34.08141
1052.48	28.06627
1052.839	68.15508
1053.197	37.08324
1053.555	6.01282
1053.914	60.13965
1054.272	31.0702
1054.63	3.00711
1054.988	55.12612
1055.345	-1.00203
1055.703	-14.0327
1056.061	35.08792
1056.419	48.12172
1056.776	2.00459
1057.134	-11.0241
1057.491	30.07238
1057.848	37.0879
1058.206	-16.03575
1058.563	30.06287
1058.92	55.11998
1059.277	49.11578
1059.634	33.07315
1059.991	52.11936
1060.348	-19.04169
1060.704	72.16751
1061.061	7.0153
1061.418	17.03978
1061.774	26.0618
1062.131	53.13728
1062.487	-3.00672
1062.843	34.08144
1063.199	53.12639
1063.555	22.04942
1063.911	9.02182
1064.267	64.12344
1064.623	24.05681
1064.979	15.03279
1065.335	71.15973
1065.691	-5.01138
1066.046	25.05229
1066.402	-19.04138
1066.757	15.03661
1067.112	53.12377
1067.468	50.11454
1067.823	-16.0364
1068.178	21.04846
1068.533	10.02336
1068.888	13.0297
1069.243	23.05468
1069.598	2.00466
1069.952	19.04203
1070.307	6.01444
1070.662	33.07622
1071.016	61.13194
1071.371	45.0982
1071.725	21.04775
1072.079	34.07864
1072.434	21.04933
1072.788	4.00904
1073.142	100.23358
1073.496	-12.02744
1073.85	35.07738
1074.203	49.11389
1074.557	15.03921
1074.911	70.15751
1075.265	61.1347
1075.618	42.09841
1075.971	29.06604
1076.325	31.07661
1076.678	9.0198
1077.031	-83.1796
1077.385	56.11632
1077.738	1.00216
1078.091	38.0834
1078.444	-26.05762
1078.796	11.02623
1079.149	56.13368
1079.502	48.10925
1079.855	28.06267
1080.207	40.09413
1080.56	34.08539
1080.912	18.04208
1081.264	26.06044
1081.617	45.10554
1081.969	16.03927
1082.321	-4.00941
1082.673	48.10633
1083.025	19.04299
1083.377	36.08087
1083.728	52.11485
1084.08	-12.02884
1084.432	-30.06994
1084.783	-20.04432
1085.135	40.09687
1085.486	-14.03115
1085.838	47.1114
1086.189	50.11729
1086.54	54.12241
1086.891	65.16075
1087.242	105.24684
1087.593	13.02997
1087.944	53.11532
1088.295	51.10988
1088.646	94.22077
1088.996	31.07222
1089.347	8.01881
1089.698	22.0506
1090.048	48.11912
1090.398	14.03092
1090.749	23.0523
1091.099	62.15145
1091.449	48.11524
1091.799	37.08901
1092.149	56.1328
1092.499	29.06802
1092.849	8.01972
1093.199	67.15886
1093.548	55.12784
1093.898	26.06237
1094.248	2.00493
1094.597	14.03509
1094.947	16.04152
1095.296	60.14262
1095.645	29.07248
1095.994	30.06914
1096.343	-6.01471
1096.692	6.01559
1097.041	43.11459
1097.39	37.08864
1097.739	-29.0735
1098.088	36.09252
1098.437	47.12102
1098.785	-28.07319
1099.134	-6.01523
1099.482	24.06439
1099.83	32.08132
1100.179	37.09514
1100.527	-3.00766
1100.875	37.09537
1101.223	32.08287
1101.571	-27.07283
1101.919	31.08027
1102.267	9.02497
1102.615	1.00321
1102.962	0
1103.31	0
1103.658	-5.01604
