Data from N1 R0 sample 11_Subt2__4__11-37-16-802.txt Node

Date: Tue Sep 16 11:37:16 PDT 2025
User: uwsun
Spectrometer: HDX01956
Trigger mode: 0
Integration Time (sec): 5.000000E-1
Scans to average: 1
Nonlinearity correction enabled: true
Boxcar width: 0
Storing dark spectrum: false
XAxis mode: Wavelengths
Number of Pixels in Spectrum: 2068
>>>>>Begin Spectral Data<<<<<
194.03	-5.01453
194.578	3.00975
195.127	-5.01604
195.676	5.01608
196.225	34.09029
196.773	10.0279
197.321	1.0028
197.87	74.19144
198.418	98.25432
198.966	85.22599
199.513	98.25116
200.061	48.12401
200.609	62.16563
201.156	77.1711
201.704	76.19355
202.251	92.24643
202.798	63.16543
203.345	104.2596
203.892	52.1336
204.438	86.20631
204.985	96.23038
205.532	64.17041
206.078	74.18304
206.624	105.26565
207.17	140.32918
207.716	97.24033
208.262	63.12762
208.808	119.30075
209.354	104.25951
209.899	88.22363
210.445	56.14246
210.99	104.25611
211.535	126.29857
212.08	65.1534
212.625	99.24922
213.17	125.31973
213.715	141.32318
214.259	90.21269
214.804	82.2032
215.348	98.22908
215.892	141.34293
216.436	63.14608
216.98	61.13622
217.524	99.23898
218.068	95.24181
218.612	130.33141
219.155	109.25944
219.698	46.1114
220.242	97.24077
220.785	78.18548
221.328	71.17726
221.871	155.3934
222.414	80.1994
222.956	48.11646
223.499	34.07723
224.041	69.1593
224.583	39.0837
225.126	29.06487
225.668	51.12548
226.21	85.21658
226.751	114.25473
227.293	53.12143
227.835	76.18778
228.376	73.16739
228.918	66.16564
229.459	77.19349
230	93.22458
230.541	32.07483
231.082	98.23956
231.622	27.06214
232.163	50.122
232.704	138.34422
233.244	106.26335
233.784	51.12492
234.324	122.27486
234.864	60.13706
235.404	59.14027
235.944	60.14267
236.484	131.32587
237.023	95.22464
237.563	108.25167
238.102	58.13866
238.641	76.19204
239.18	56.13306
239.719	77.19391
240.258	97.21876
240.797	89.21371
241.335	90.21959
241.874	161.31135
242.412	101.24629
242.95	87.2116
243.488	71.16078
244.026	125.29065
244.564	161.32868
245.102	147.33166
245.64	37.08955
246.177	54.12146
246.715	103.24807
247.252	72.16473
247.789	76.14257
248.326	92.22288
248.863	136.29862
249.4	87.19845
249.936	94.19857
250.473	115.27235
251.009	64.14808
251.546	100.22465
252.082	62.13545
252.618	71.16052
253.154	88.21303
253.69	124.27777
254.226	81.19538
254.761	90.20326
255.297	78.17184
255.832	115.27382
256.367	112.26345
256.903	152.33627
257.438	102.23974
257.972	117.26074
258.507	70.16209
259.042	126.27398
259.576	146.32219
260.111	76.17591
260.645	92.20005
261.179	113.26523
261.713	132.2952
262.247	66.15222
262.781	132.2781
263.315	69.1687
263.849	116.2905
264.382	102.23506
264.915	119.28193
265.449	80.19665
265.982	105.23932
266.515	119.29192
267.048	49.10566
267.58	101.21873
268.113	29.06401
268.646	70.17264
269.178	112.25078
269.71	132.29191
270.243	127.29437
270.775	109.28028
271.307	47.11316
271.838	102.24152
272.37	78.19244
272.902	95.21626
273.433	146.32273
273.965	105.25567
274.496	88.21911
275.027	119.29634
275.558	99.24277
276.089	74.18652
276.62	109.27489
277.15	121.29715
277.681	110.23736
278.211	111.27088
278.741	133.29529
279.272	154.35064
279.802	102.25433
280.332	81.19294
280.861	71.17126
281.391	102.233
281.921	105.25155
282.45	113.28027
282.98	145.37595
283.509	121.27601
284.038	103.23703
284.567	144.33436
285.096	119.2891
285.625	34.07792
286.153	177.41934
286.682	148.33902
287.21	62.14924
287.739	117.27687
288.267	131.31885
288.795	110.28752
289.323	94.2224
289.851	169.39481
290.378	84.18894
290.906	111.2726
291.433	110.27488
291.961	155.35285
292.488	94.2343
293.015	113.26793
293.542	157.40172
294.069	169.41594
294.596	105.25738
295.122	132.31677
295.649	73.16174
296.175	139.33363
296.702	166.40351
297.228	124.29859
297.754	121.27311
298.28	143.32895
298.806	103.24958
299.332	122.2743
299.857	150.34029
300.383	120.30203
300.908	154.37742
301.433	126.30949
301.958	140.3207
302.483	98.24418
303.008	147.36487
303.533	143.36757
304.058	143.33263
304.582	100.23806
305.107	126.32787
305.631	96.21956
306.155	144.33529
306.679	151.35456
307.203	133.30937
307.727	137.32483
308.251	148.36433
308.775	201.48391
309.298	161.38673
309.822	103.26003
310.345	174.41358
310.868	184.44038
311.391	175.42801
311.914	151.37739
312.437	165.37591
312.96	168.39409
313.482	106.2508
314.005	137.34166
314.527	103.2689
315.049	143.36166
315.571	226.50144
316.093	146.36126
316.615	117.28201
317.137	134.29348
317.659	188.4515
318.18	127.30344
318.702	220.5088
319.223	128.26279
319.744	183.40984
320.265	192.46408
320.786	189.46876
321.307	184.45111
321.828	176.39554
322.348	182.42593
322.869	201.47472
323.389	213.41448
323.909	154.35192
324.43	205.48454
324.95	158.36179
325.47	217.5317
325.989	248.5781
326.509	263.57757
327.029	232.52288
327.548	194.43689
328.067	260.61892
328.587	254.62546
329.106	207.46206
329.625	239.6115
330.144	246.56304
330.662	274.62989
331.181	238.5537
331.7	181.41902
332.218	237.50755
332.736	239.55153
333.255	283.65149
333.773	225.5248
334.291	253.62197
334.808	280.61762
335.326	220.48935
335.844	310.70979
336.361	312.7818
336.879	297.68235
337.396	269.64292
337.913	315.70775
338.43	274.60591
338.947	309.71871
339.464	309.64914
339.981	229.53686
340.497	275.66203
341.014	327.77315
341.53	266.58944
342.046	346.83653
342.562	297.72201
343.078	289.6653
343.594	333.76718
344.11	341.79093
344.626	338.82673
345.141	331.73484
345.657	310.68379
346.172	326.76407
346.687	340.75528
347.202	314.69927
347.717	337.77887
348.232	390.93185
348.747	374.83149
349.261	327.69845
349.776	337.77732
350.29	362.8752
350.805	386.9156
351.319	376.84044
351.833	382.84575
352.347	386.87559
352.861	385.86818
353.374	355.77959
353.888	412.9633
354.401	381.83316
354.915	374.81457
355.428	414.98615
355.941	404.90003
356.454	415.88025
356.967	355.79956
357.48	394.85557
357.993	436.01726
358.505	364.85311
359.018	451.04593
359.53	514.17369
360.042	438.93206
360.554	505.15843
361.066	400.93159
361.578	494.02285
362.09	464.04146
362.602	495.0343
363.113	504.11101
363.625	453.97466
364.136	462.95832
364.647	528.16691
365.158	516.12087
365.669	465.04734
366.18	475.052
366.691	470.97056
367.201	515.15258
367.712	551.16882
368.222	551.17594
368.733	487.99507
369.243	532.1061
369.753	549.17217
370.263	553.23877
370.773	544.22882
371.282	568.25388
371.792	602.27911
372.301	595.31985
372.811	621.4951
373.32	630.2392
373.829	691.46432
374.338	663.32902
374.847	674.40307
375.356	683.44987
375.865	754.42578
376.373	771.54583
376.882	748.69079
377.39	755.61747
377.898	817.76166
378.407	834.645
378.915	849.60301
379.423	899.79119
379.93	988.92823
380.438	921.89192
380.946	1043.00884
381.453	1133.21381
381.96	1222.32479
382.468	1216.27435
382.975	1311.51675
383.482	1300.24447
383.989	1361.73497
384.495	1431.51284
385.002	1571.32199
385.509	1574.7375
386.015	1678.32134
386.521	1779.74765
387.028	1840.78342
387.534	1839.56035
388.04	1977.11517
388.546	1979.75767
389.051	2268.87316
389.557	2344.12122
390.063	2395.01671
390.568	2534.36446
391.073	2662.982
391.578	2719.49094
392.084	2904.11274
392.589	3049.82863
393.093	3396.34659
393.598	3601.03578
394.103	3924.14031
394.607	4269.06813
395.112	4474.11967
395.616	4728.89693
396.12	5195.21961
396.624	5876.09898
397.128	6304.09766
397.632	6825.8694
398.136	7499.88014
398.639	8314.5545
399.143	9478.48096
399.646	10620.7465
400.15	11752.77526
400.653	13222.03524
401.156	15027.45791
401.659	17684.34935
402.162	23032.99909
402.664	35032.34248
403.167	60589.93403
403.67	63769.22307
404.172	63919.58413
404.674	63858.43483
405.176	63738.15102
405.678	63977.72923
406.18	64011.81569
406.682	63863.44694
407.184	63926.60148
407.686	63841.39382
408.187	64025.8516
408.688	45280.14278
409.19	35180.83908
409.691	29112.74825
410.192	24989.90643
410.693	22483.72873
411.194	21008.12503
411.694	19726.74311
412.195	17859.81356
412.696	16668.0502
413.196	16331.48868
413.696	16281.37136
414.196	15863.40567
414.696	15003.75318
415.196	13632.87628
415.696	11074.742
416.196	8808.17647
416.695	7496.99002
417.195	7182.01123
417.694	6853.27405
418.194	6203.36812
418.693	6040.856
419.192	5846.12949
419.691	5635.13065
420.19	5652.3508
420.688	5333.66281
421.187	4940.67835
421.685	4705.61042
422.184	4076.03154
422.682	3539.72913
423.18	3281.11214
423.678	2944.11186
424.176	2741.09572
424.674	2530.93846
425.172	2338.14513
425.669	2198.28228
426.167	2024.93437
426.664	1894.76249
427.161	1757.71482
427.659	1625.79807
428.156	1558.30324
428.652	1486.78916
429.149	1380.53418
429.646	1310.20348
430.143	1220.29415
430.639	1196.23136
431.135	1167.33928
431.632	1074.97984
432.128	974.94751
432.624	1034.21518
433.12	973.83399
433.616	987.77065
434.111	951.88615
434.607	877.7845
435.103	829.4668
435.598	883.52939
436.093	773.55983
436.588	718.41325
437.083	736.43514
437.578	728.47463
438.073	658.47335
438.568	679.48578
439.062	655.23675
439.557	594.25003
440.051	549.11843
440.546	559.14916
441.04	600.29754
441.534	537.23686
442.028	540.18602
442.522	525.15182
443.015	457.90456
443.509	514.14538
444.002	476.07544
444.496	457.91514
444.989	502.11767
445.482	445.02343
445.975	500.05885
446.468	460.91881
446.961	469.93787
447.454	424.88501
447.947	439.97495
448.439	491.10781
448.931	457.97059
449.424	459.08296
449.916	460.03796
450.408	423.90073
450.9	420.9523
451.392	425.00609
451.884	373.80636
452.375	372.8681
452.867	388.8167
453.358	359.77576
453.849	406.80831
454.341	395.83417
454.832	361.73361
455.323	379.88877
455.814	370.79559
456.304	353.77096
456.795	362.77839
457.285	326.68016
457.776	370.79217
458.266	334.7512
458.756	305.68641
459.247	367.82625
459.737	339.77695
460.226	360.77276
460.716	271.62162
461.206	310.70579
461.695	280.66268
462.185	310.70037
462.674	312.67782
463.163	336.71254
463.653	335.67332
464.142	249.58123
464.63	240.56077
465.119	316.6976
465.608	317.70522
466.096	262.54518
466.585	243.53455
467.073	252.57144
467.561	245.56582
468.05	268.59091
468.538	278.64955
469.026	223.51112
469.513	219.44688
470.001	237.52486
470.489	254.58018
470.976	292.65056
471.463	256.61221
471.951	259.61761
472.438	227.51465
472.925	178.40872
473.412	197.46401
473.899	216.47925
474.385	221.52296
474.872	206.46562
475.359	223.52994
475.845	210.42101
476.331	160.33339
476.817	195.46091
477.303	192.4338
477.789	142.3318
478.275	154.37406
478.761	187.43171
479.247	182.39524
479.732	138.33809
480.218	201.5114
480.703	142.3431
481.188	179.3777
481.673	142.32057
482.158	138.29343
482.643	180.44799
483.128	207.46797
483.612	222.51138
484.097	178.41804
484.581	142.32254
485.066	190.45265
485.55	141.30653
486.034	157.33332
486.518	200.46493
487.002	100.24035
487.486	92.22112
487.969	83.20006
488.453	141.34409
488.936	117.25998
489.42	153.33163
489.903	91.22414
490.386	59.12203
490.869	152.32658
491.352	80.19104
491.835	82.16698
492.318	104.23124
492.8	150.30462
493.283	143.35804
493.765	87.21144
494.247	118.27085
494.73	104.22787
495.212	50.11835
495.694	122.2835
496.175	98.23321
496.657	118.27551
497.139	114.19332
497.62	87.20763
498.102	93.22932
498.583	72.17568
499.064	85.18833
499.545	116.26092
500.026	97.2176
500.507	100.22788
500.988	108.26665
501.469	67.16606
501.949	69.16945
502.43	147.3476
502.91	116.24332
503.39	81.19922
503.87	106.24788
504.35	70.16299
504.83	115.24831
505.31	56.13465
505.79	49.11573
506.269	48.11018
506.749	67.15259
507.228	83.19413
507.707	107.23628
508.187	81.19235
508.666	86.21148
509.145	63.14695
509.623	57.13327
510.102	77.18517
510.581	95.22716
511.059	120.29791
511.538	63.16171
512.016	86.20466
512.494	59.14146
512.972	74.17637
513.45	23.05397
513.928	35.08532
514.406	90.21902
514.884	78.1999
515.361	59.14097
515.839	74.16986
516.316	106.25496
516.793	66.16594
517.27	82.19596
517.747	69.17631
518.224	69.15847
518.701	91.19968
519.178	40.10025
519.654	83.19535
520.131	57.14097
520.607	-8.01974
521.083	7.01601
521.56	29.06865
522.036	47.10257
522.512	84.2061
522.987	71.17049
523.463	45.10682
523.939	108.26528
524.414	46.10546
524.89	68.16182
525.365	44.09966
525.84	47.11311
526.315	42.10194
526.79	74.16638
527.265	99.22692
527.74	35.08519
528.215	8.01883
528.689	28.06177
529.164	25.054
529.638	17.0433
530.112	33.07791
530.587	52.11153
531.061	39.09464
531.534	53.1277
532.008	82.19836
532.482	68.15596
532.956	23.05892
533.429	77.18763
533.903	44.09673
534.376	69.15224
534.849	12.02783
535.322	81.19013
535.795	-1.00244
536.268	63.15225
536.741	42.09991
537.213	13.03014
537.686	35.08592
538.158	80.18127
538.631	47.11397
539.103	48.10872
539.575	28.05811
540.047	24.05274
540.519	43.10298
540.991	68.16536
541.463	29.07009
541.934	11.0251
542.406	77.18433
542.877	30.06814
543.348	53.12809
543.82	68.16493
544.291	64.14931
544.762	68.16164
545.233	82.20683
545.703	31.06948
546.174	61.1415
546.645	67.16192
547.115	75.18057
547.585	46.10618
548.056	97.23707
548.526	77.18243
548.996	77.18356
549.466	87.21041
549.935	91.21643
550.405	62.13654
550.875	105.24752
551.344	65.15495
551.814	77.17621
552.283	127.27422
552.752	125.28996
553.221	114.24989
553.69	143.31894
554.159	78.19378
554.628	114.25663
555.096	107.27013
555.565	116.25438
556.033	130.30662
556.502	95.22803
556.97	99.21934
557.438	74.17359
557.906	71.1675
558.374	77.17848
558.842	81.19361
559.31	115.25543
559.777	79.19272
560.245	49.1129
560.712	46.10588
561.18	76.16828
561.647	39.08713
562.114	120.27246
562.581	87.21318
563.048	104.2367
563.514	126.31269
563.981	97.22108
564.448	118.26433
564.914	105.24212
565.381	86.19605
565.847	106.24506
566.313	88.20337
566.779	86.19304
567.245	85.19616
567.711	84.20036
568.176	58.13057
568.642	117.29157
569.108	125.30368
569.573	77.17784
570.038	116.24052
570.504	146.32502
570.969	125.30595
571.434	144.31525
571.899	142.33167
572.363	172.38655
572.828	146.33068
573.293	143.32303
573.757	188.42632
574.222	185.40526
574.686	190.42683
575.15	190.44674
575.614	215.49358
576.078	201.45959
576.542	154.34525
577.006	213.46778
577.469	203.48613
577.933	204.45282
578.396	165.3838
578.86	181.41669
579.323	196.46085
579.786	153.32681
580.249	232.52972
580.712	180.42801
581.175	172.41527
581.637	124.27994
582.1	166.35496
582.563	149.31178
583.025	158.37772
583.487	168.33946
583.95	134.28381
584.412	173.35622
584.874	181.43179
585.336	141.32979
585.797	161.3442
586.259	90.20972
586.721	131.30364
587.182	136.30941
587.643	179.39807
588.105	149.34645
588.566	94.19552
589.027	138.33344
589.488	152.34343
589.949	162.38625
590.41	130.25508
590.87	167.37524
591.331	158.33976
591.791	139.31771
592.252	128.29498
592.712	116.2753
593.172	144.3231
593.632	157.34349
594.092	141.31005
594.552	162.34491
595.011	109.24783
595.471	180.39955
595.931	142.31638
596.39	173.40701
596.849	134.30819
597.308	138.29023
597.768	162.41036
598.227	136.32239
598.685	132.29727
599.144	187.43085
599.603	169.38736
600.062	156.32346
600.52	171.37886
600.978	186.42932
601.437	153.34223
601.895	188.39364
602.353	181.3888
602.811	259.56233
603.269	158.36904
603.727	211.49234
604.184	236.52014
604.642	231.54979
605.099	247.5568
605.557	229.53917
606.014	189.3974
606.471	245.59384
606.928	343.72024
607.385	320.76347
607.842	240.53161
608.299	225.50949
608.755	295.6829
609.212	332.70099
609.668	386.81499
610.125	313.71795
610.581	346.76606
611.037	247.53308
611.493	291.64846
611.949	349.80403
612.405	351.67099
612.861	346.75039
613.316	364.821
613.772	376.8071
614.227	415.9297
614.683	341.68001
615.138	349.77189
615.593	318.70026
616.048	391.83514
616.503	349.79986
616.958	336.79765
617.412	414.91505
617.867	390.81404
618.321	372.71545
618.776	365.7529
619.23	370.81304
619.684	385.80093
620.138	351.75523
620.592	372.84726
621.046	400.88153
621.5	379.85465
621.954	323.67435
622.407	348.72252
622.861	317.73033
623.314	361.76572
623.768	355.78876
624.221	324.59853
624.674	314.68739
625.127	294.6504
625.58	341.71983
626.033	348.71316
626.485	289.65892
626.938	321.72389
627.39	320.7082
627.843	323.70365
628.295	295.64648
628.747	332.74792
629.199	271.58913
629.651	294.64062
630.103	271.59364
630.555	296.59013
631.006	240.53626
631.458	226.51269
631.909	209.45223
632.361	209.46613
632.812	225.50202
633.263	276.56997
633.714	224.45594
634.165	251.57714
634.616	204.46673
635.067	224.47463
635.518	246.55965
635.968	204.38609
636.419	248.51858
636.869	188.4322
637.319	185.41705
637.769	201.43734
638.219	247.55885
638.669	189.43598
639.119	190.44099
639.569	204.47348
640.019	286.62821
640.468	183.39834
640.918	172.397
641.367	245.52536
641.816	213.45655
642.265	256.57178
642.714	195.43311
643.163	201.44978
643.612	230.54331
644.061	180.37389
644.51	243.53455
644.958	225.4781
645.406	202.46736
645.855	194.45668
646.303	235.52173
646.751	229.5101
647.199	240.52185
647.647	234.52243
648.095	211.46436
648.543	219.42677
648.99	205.47665
649.438	199.4453
649.885	241.57799
650.333	265.48818
650.78	216.50411
651.227	251.58935
651.674	263.5732
652.121	244.57526
652.568	239.56315
653.015	200.47922
653.461	217.49777
653.908	187.41638
654.354	206.47415
654.801	208.47129
655.247	200.41821
655.693	168.42601
656.139	210.48393
656.585	210.48432
657.031	204.46373
657.477	238.49855
657.922	193.42457
658.368	183.43673
658.813	212.4645
659.259	228.53232
659.704	186.42812
660.149	134.30276
660.594	184.42385
661.039	166.36832
661.484	165.38062
661.929	201.45404
662.373	109.26937
662.818	144.34833
663.262	171.40246
663.707	164.40684
664.151	190.449
664.595	137.32458
665.039	148.35895
665.483	185.457
665.927	168.38344
666.371	167.38262
666.814	141.32759
667.258	168.39425
667.701	163.3379
668.145	174.42105
668.588	197.47266
669.031	135.31092
669.474	128.30109
669.917	170.36163
670.36	144.35147
670.803	182.42677
671.245	68.13803
671.688	147.34934
672.13	167.36738
672.573	120.29747
673.015	199.46398
673.457	180.3794
673.899	146.3449
674.341	137.32282
674.783	90.21294
675.225	175.41844
675.666	123.29546
676.108	147.30977
676.549	124.28302
676.991	96.20768
677.432	113.2201
677.873	113.25328
678.314	110.25724
678.755	126.30456
679.196	116.26017
679.637	95.22394
680.078	132.30152
680.518	99.22364
680.959	86.20198
681.399	147.35485
681.839	147.34786
682.28	131.31861
682.72	142.31664
683.16	127.31027
683.6	139.30848
684.039	95.19297
684.479	105.2549
684.919	132.30371
685.358	55.13572
685.798	55.14192
686.237	99.2321
686.676	71.15875
687.115	114.26334
687.554	124.29043
687.993	133.28705
688.432	104.23297
688.871	147.32813
689.309	124.291
689.748	171.34354
690.186	60.13888
690.625	125.28709
691.063	50.1183
691.501	130.31411
691.939	128.31521
692.377	77.18412
692.815	160.38016
693.253	80.18759
693.69	68.14705
694.128	93.22204
694.565	94.21878
695.003	81.20406
695.44	103.2394
695.877	85.19694
696.314	74.15351
696.751	115.25469
697.188	133.30056
697.625	87.19123
698.061	108.25325
698.498	52.1216
698.934	56.13234
699.371	67.15567
699.807	116.26754
700.243	63.15013
700.679	121.26294
701.115	67.15413
701.551	71.16248
701.987	52.11225
702.422	110.25693
702.858	124.28861
703.294	178.39363
703.729	91.21718
704.164	103.24063
704.599	107.23371
705.035	88.19379
705.47	48.11528
705.904	53.12129
706.339	88.19818
706.774	74.17054
707.209	131.29677
707.643	83.19505
708.078	80.19118
708.512	77.18994
708.946	56.13085
709.38	73.17068
709.814	72.16022
710.248	139.33046
710.682	95.22368
711.116	77.18454
711.549	26.06582
711.983	70.15906
712.416	107.24821
712.85	65.15845
713.283	92.21269
713.716	48.11742
714.149	46.10516
714.582	117.25598
715.015	31.07526
715.448	97.23918
715.881	84.17643
716.313	105.23932
716.746	80.18583
717.178	80.18877
717.61	92.22923
718.043	69.16738
718.475	112.26499
718.907	69.1692
719.339	75.16693
719.77	82.19266
720.202	43.10627
720.634	92.22112
721.065	53.12299
721.497	102.24376
721.928	54.12994
722.359	98.2333
722.79	73.17155
723.221	48.11738
723.652	79.19666
724.083	94.20622
724.514	79.17773
724.945	44.10156
725.375	74.16972
725.806	51.12367
726.236	111.27622
726.666	92.21168
727.096	103.24544
727.526	114.28631
727.956	70.157
728.386	76.18239
728.816	71.17848
729.246	125.2998
729.675	56.13419
730.105	87.20771
730.534	125.28202
730.964	97.23575
731.393	128.30355
731.822	104.25904
732.251	99.24501
732.68	107.24033
733.109	71.17165
733.537	163.38423
733.966	128.31021
734.395	150.33407
734.823	89.19143
735.251	69.16228
735.68	81.19494
736.108	73.17841
736.536	113.25641
736.964	90.2031
737.392	106.25747
737.82	71.16561
738.247	100.23146
738.675	105.23922
739.102	100.24272
739.53	145.36095
739.957	118.297
740.384	84.19697
740.811	84.20365
741.238	142.33662
741.665	143.32461
742.092	43.09694
742.519	129.31034
742.945	148.34732
743.372	160.38294
743.798	132.32686
744.225	85.19577
744.651	143.34493
745.077	97.2353
745.503	110.25724
745.929	158.36846
746.355	177.41155
746.781	115.27351
747.207	125.28755
747.632	118.28468
748.058	159.38628
748.483	185.40543
748.908	97.2353
749.334	132.31484
749.759	158.36222
750.184	145.33728
750.609	127.30054
751.033	136.30515
751.458	139.29742
751.883	130.30865
752.307	148.33494
752.732	177.43515
753.156	153.36206
753.58	154.34795
754.005	121.29352
754.429	183.41507
754.853	172.41119
755.277	184.41759
755.7	147.35136
756.124	117.2819
756.548	145.32915
756.971	193.44893
757.394	130.32097
757.818	149.37078
758.241	193.46904
758.664	140.34108
759.087	163.35225
759.51	126.29984
759.933	154.35843
760.356	204.5031
760.778	182.42743
761.201	160.37004
761.623	140.31967
762.046	154.34397
762.468	166.37964
762.89	157.36678
763.312	210.48876
763.734	146.3386
764.156	192.45215
764.578	138.30135
765	162.37824
765.421	139.34274
765.843	187.46803
766.264	133.30228
766.686	118.28242
767.107	141.3285
767.528	180.44359
767.949	124.30379
768.37	178.42244
768.791	180.4105
769.212	165.39935
769.632	210.46652
770.053	130.32778
770.473	128.29662
770.894	113.26793
771.314	141.31825
771.734	153.34082
772.154	147.36007
772.575	177.38708
772.994	123.26729
773.414	168.38004
773.834	103.24798
774.254	143.33447
774.673	186.43393
775.093	174.41438
775.512	113.26979
775.931	148.3607
776.351	151.36175
776.77	130.3077
777.189	165.37394
777.607	143.35092
778.026	146.34904
778.445	140.34235
778.864	90.22074
779.282	112.25666
779.701	97.23539
780.119	86.21179
780.537	100.24044
780.955	127.30842
781.373	128.30367
781.791	133.28988
782.209	95.206
782.627	94.24023
783.045	66.14528
783.462	84.20808
783.88	108.27066
784.297	123.29792
784.715	94.23515
785.132	101.2341
785.549	69.16738
785.966	58.1421
786.383	121.288
786.8	101.22545
787.217	106.24457
787.633	72.17646
788.05	119.26453
788.466	78.17501
788.883	121.30012
789.299	46.10618
789.715	100.23541
790.131	57.13786
790.547	103.24723
790.963	90.21524
791.379	72.17672
791.795	88.19078
792.21	69.15479
792.626	45.10277
793.041	103.24403
793.457	36.08607
793.872	47.10621
794.287	88.20619
794.702	59.13843
795.117	61.14792
795.532	86.21022
795.947	68.15565
796.362	41.09288
796.776	112.2453
797.191	77.18257
797.605	65.14977
798.02	36.08511
798.434	48.10335
798.848	113.27123
799.262	54.13008
799.676	37.08776
800.09	37.08847
800.504	68.15852
800.918	6.01343
801.331	-26.06551
801.745	53.11689
802.158	7.01695
802.572	101.23494
802.985	62.14322
803.398	39.0899
803.811	-8.01972
804.224	47.11183
804.637	40.09292
805.05	82.18081
805.462	49.11587
805.875	44.11142
806.288	-18.04295
806.7	23.05569
807.112	44.09767
807.525	18.04252
807.937	24.05797
808.349	39.09411
808.761	81.19272
809.173	85.19905
809.584	55.13061
809.996	7.01671
810.408	71.1795
810.819	39.08903
811.231	114.2938
811.642	66.15887
812.053	41.09725
812.464	39.08946
812.875	36.08999
813.286	76.19088
813.697	-13.02889
814.108	43.10113
814.519	73.15762
814.929	62.15229
815.34	-13.0305
815.75	74.18324
816.16	19.04543
816.571	-2.00506
816.981	68.15226
817.391	31.0718
817.801	15.03647
818.211	55.12602
818.62	53.12397
819.03	33.07815
819.44	38.09458
819.849	7.017
820.259	8.01974
820.668	22.05286
821.077	51.12381
821.486	-9.02086
821.895	18.04252
822.304	49.12565
822.713	54.12241
823.122	-19.04632
823.531	11.02493
823.939	44.10419
824.348	46.10723
824.756	47.11311
825.164	18.04379
825.573	18.04397
825.981	80.18921
826.389	68.16412
826.797	61.15025
827.205	9.02023
827.612	23.05472
828.02	8.01814
828.428	47.11564
828.835	51.13109
829.243	7.01608
829.65	52.12598
830.057	34.07935
830.464	64.15213
830.871	78.17983
831.278	20.04692
831.685	47.10022
832.092	24.05632
832.499	65.13679
832.905	19.04639
833.312	32.0689
833.718	65.15715
834.124	79.17299
834.531	10.02425
834.937	55.13687
835.343	24.05553
835.749	3.00669
836.155	25.06366
836.561	65.154
836.966	37.08702
837.372	8.01971
837.777	16.03888
838.183	65.13722
838.588	39.09432
838.993	41.09642
839.399	37.0879
839.804	25.05918
840.209	53.13203
840.613	50.10641
841.018	21.05131
841.423	-11.0276
841.828	47.11551
842.232	37.08688
842.637	99.22519
843.041	-11.02771
843.445	39.09379
843.849	28.06745
844.253	34.07767
844.657	-18.04464
845.061	72.15916
845.465	9.02112
845.869	11.02475
846.272	33.07815
846.676	-8.01847
847.079	13.03243
847.483	86.20474
847.886	60.13877
848.289	48.12589
848.692	-22.05408
849.095	43.099
849.498	23.05561
849.901	45.09816
850.304	62.14191
850.707	15.037
851.109	51.12367
851.512	21.05016
851.914	17.04195
852.316	83.20383
852.718	92.23429
853.121	44.10406
853.523	54.12017
853.925	22.05642
854.326	52.12631
854.728	23.05765
855.13	23.05825
855.531	2.00466
855.933	2.00461
856.334	33.08032
856.736	71.15343
857.137	54.12171
857.538	19.04673
857.939	46.11136
858.34	-33.07773
858.741	44.11087
859.142	19.04388
859.542	0
859.943	-24.05823
860.343	25.06042
860.744	41.09639
861.144	105.24636
861.544	18.04254
861.945	5.01238
862.345	42.09845
862.745	53.12789
863.145	24.05425
863.544	26.06389
863.944	68.15364
864.344	17.04034
864.743	60.14278
865.143	41.10284
865.542	-1.00222
865.941	16.03856
866.34	32.07286
866.74	20.05231
867.139	62.14459
867.537	31.07554
867.936	59.13697
868.335	29.07125
868.734	42.10397
869.132	22.04863
869.531	11.02543
869.929	15.03321
870.327	25.05788
870.726	54.12806
871.124	46.10228
871.522	31.07613
871.92	77.18187
872.318	54.12583
872.715	-9.02133
873.113	8.01878
873.511	12.02889
873.908	22.05482
874.306	26.06315
874.703	19.04555
875.1	-25.06156
875.497	24.05531
875.894	34.08206
876.291	54.12772
876.688	-33.08352
877.085	29.06658
877.482	32.07735
877.878	110.25532
878.275	18.04449
878.671	34.07015
879.068	68.15702
879.464	27.06295
879.86	44.09998
880.256	2.00471
880.652	31.07624
881.048	49.11546
881.444	48.10792
881.84	39.09557
882.236	15.03651
882.631	41.09755
883.027	7.01634
883.422	31.07616
883.817	14.03443
884.213	30.07456
884.608	72.17325
885.003	16.03696
885.398	8.01946
885.793	11.02665
886.188	-14.03384
886.582	-5.01236
886.977	50.11297
887.371	24.0583
887.766	33.07981
888.16	-17.04059
888.554	28.06633
888.949	34.08237
889.343	21.04927
889.737	25.0654
890.131	28.06794
890.525	65.16105
890.918	23.05596
891.312	14.03201
891.706	13.03307
892.099	22.05402
892.492	62.12625
892.886	12.02835
893.279	8.01974
893.672	29.07198
894.065	58.13977
894.458	10.02413
894.851	48.11216
895.244	-10.02487
895.637	43.09998
896.029	82.19289
896.422	-10.02343
896.814	-2.00481
897.206	79.18231
897.599	0
897.991	91.21118
898.383	63.14278
898.775	59.12887
899.167	41.09337
899.559	36.08712
899.951	29.06514
900.342	1.00245
900.734	27.06646
901.125	24.0606
901.517	22.05231
901.908	18.04098
902.299	46.10858
902.69	85.19295
903.082	58.13468
903.473	70.16312
903.863	16.03933
904.254	64.14384
904.645	22.05215
905.036	70.16581
905.426	13.02821
905.817	17.04004
906.207	-29.06653
906.597	29.06604
906.987	-15.03759
907.378	57.13952
907.768	5.01292
908.158	24.05634
908.547	27.0686
908.937	24.05882
909.327	-10.02353
909.717	11.0266
910.106	29.06677
910.495	1.00239
910.885	24.059
911.274	39.09379
911.663	0
912.052	47.11006
912.441	67.16503
912.83	25.05474
913.219	13.0329
913.608	53.12523
913.997	34.08317
914.385	62.14174
914.774	23.05392
915.162	63.1455
915.55	18.0417
915.939	20.04931
916.327	27.06451
916.715	54.13475
917.103	26.06059
917.491	65.15346
917.878	7.01662
918.266	-1.00251
918.654	78.19272
919.041	48.12272
919.429	-4.00914
919.816	41.10006
920.203	49.11537
920.591	17.04088
920.978	48.11291
921.365	49.12468
921.752	1.00227
922.139	40.08301
922.525	94.21576
922.912	70.16254
923.299	8.01931
923.685	-12.03024
924.072	-36.07868
924.458	12.02894
924.844	52.12375
925.231	9.02002
925.617	38.09444
926.003	8.01977
926.389	-6.01471
926.774	32.07799
927.16	47.112
927.546	51.12765
927.931	23.05506
928.317	-16.03544
928.702	47.106
929.088	92.21202
929.473	54.13342
929.858	70.16517
930.243	44.10265
930.628	29.06884
931.013	6.01444
931.398	43.09289
931.783	2.00506
932.167	106.24914
932.552	39.09383
932.937	3.00717
933.321	25.06121
933.705	-55.13437
934.09	5.01198
934.474	49.11028
934.858	19.04792
935.242	-27.06062
935.626	44.10927
936.009	26.06784
936.393	89.21986
936.777	30.0748
937.16	43.10902
937.544	-27.06077
937.927	-5.01242
938.311	40.09314
938.694	52.13318
939.077	12.02775
939.46	-27.06305
939.843	30.05814
940.226	-17.04227
940.609	38.08481
940.991	0
941.374	40.09475
941.757	26.06161
942.139	72.15449
942.522	53.11899
942.904	21.04871
943.286	22.05386
943.668	71.17874
944.05	74.17447
944.432	41.09691
944.814	13.03062
945.196	34.08057
945.578	6.01406
945.959	9.02012
946.341	66.15174
946.722	37.0828
947.104	36.08277
947.485	37.08266
947.866	16.0394
948.247	75.18323
948.628	-22.0511
949.009	35.08659
949.39	3.00719
949.771	24.05228
950.152	33.07815
950.532	36.08797
950.913	37.08563
951.293	46.12146
951.674	17.0397
952.054	73.17675
952.434	51.1219
952.814	8.01815
953.194	34.08481
953.574	48.11291
953.954	5.01134
954.334	72.17358
954.714	-7.01666
955.093	62.1459
955.473	51.12414
955.853	18.04521
956.232	13.03463
956.611	31.07046
956.99	45.10941
957.37	11.02697
957.749	9.02037
958.128	39.09539
958.506	7.01769
958.885	17.04135
959.264	19.04564
959.643	52.11389
960.021	43.10337
960.4	55.1187
960.778	-33.07797
961.156	4.00968
961.535	8.01778
961.913	87.1946
962.291	33.08299
962.669	1.00247
963.047	52.12853
963.424	39.09747
963.802	44.10431
964.18	-8.01932
964.557	34.07462
964.935	30.06823
965.312	23.05842
965.69	26.06218
966.067	19.04407
966.444	5.01168
966.821	42.10461
967.198	27.06224
967.575	52.12165
967.952	36.08111
968.329	47.11058
968.705	85.17345
969.082	59.14778
969.458	23.05403
969.835	14.03291
970.211	43.10771
970.587	40.0961
970.963	15.03692
971.339	52.13163
971.715	71.1701
972.091	36.08521
972.467	-4.00953
972.843	56.13516
973.219	48.10916
973.594	20.05075
973.97	-3.00671
974.345	43.09927
974.721	-1.00231
975.096	68.15871
975.471	20.04547
975.846	21.04821
976.221	11.02712
976.596	80.1862
976.971	74.17603
977.346	-15.03351
977.72	6.01474
978.095	22.055
978.469	53.12041
978.844	21.05066
979.218	34.07973
979.593	46.10504
979.967	-14.03243
980.341	75.16506
980.715	48.11668
981.089	23.05554
981.463	48.10535
981.837	50.11885
982.21	13.02826
982.584	24.05615
982.957	40.09687
983.331	12.02689
983.704	41.09823
984.078	3.00715
984.451	46.10791
984.824	25.05914
985.197	-19.04407
985.57	-7.01675
985.943	-1.00234
986.316	3.007
986.688	40.09237
987.061	92.20532
987.434	69.17526
987.806	-12.02778
988.179	10.02265
988.551	69.16682
988.923	29.06834
989.295	31.07418
989.667	41.09564
990.039	91.21826
990.411	-28.06148
990.783	-8.01753
991.155	44.10201
991.527	-30.0704
991.898	64.15365
992.27	7.01695
992.641	11.0265
993.012	-20.04434
993.384	9.0206
993.755	75.18432
994.126	38.08865
994.497	-4.00952
994.868	-32.07044
995.239	-2.00468
995.61	53.12828
995.98	4.00938
996.351	60.14355
996.722	53.11899
997.092	52.11854
997.462	2.00458
997.833	18.04065
998.203	12.02761
998.573	47.11299
998.943	27.06122
999.313	26.06037
999.683	7.0163
1000.053	-51.11149
1000.423	36.08333
1000.792	-18.04492
1001.162	27.06352
1001.531	-11.02638
1001.901	12.02875
1002.27	-5.01053
1002.639	-12.02957
1003.009	18.0411
1003.378	39.09634
1003.747	51.11431
1004.116	1.00231
1004.485	70.15932
1004.853	-23.0559
1005.222	-34.082
1005.591	51.1153
1005.959	24.05214
1006.328	55.11845
1006.696	-2.00464
1007.064	-11.02659
1007.433	20.04781
1007.801	32.0741
1008.169	12.02897
1008.537	38.08017
1008.905	19.04292
1009.273	53.12435
1009.64	41.09518
1010.008	45.10244
1010.375	12.02754
1010.743	21.04493
1011.11	86.19748
1011.478	66.15749
1011.845	44.09832
1012.212	46.10071
1012.579	3.00714
1012.946	17.03843
1013.313	71.15921
1013.68	49.10421
1014.047	15.03442
1014.414	42.09478
1014.78	50.11981
1015.147	16.03677
1015.513	61.14038
1015.88	29.07096
1016.246	0
1016.612	69.14847
1016.978	13.03098
1017.344	73.17269
1017.71	45.10435
1018.076	69.15294
1018.442	78.19272
1018.808	68.16437
1019.174	16.03851
1019.539	-3.00635
1019.905	55.12465
1020.27	10.02379
1020.636	17.03864
1021.001	56.12859
1021.366	31.07191
1021.731	82.20476
1022.096	13.03207
1022.461	31.07063
1022.826	59.13507
1023.191	1.00255
1023.556	10.02242
1023.92	62.14413
1024.285	-8.01868
1024.649	-12.0283
1025.014	5.01182
1025.378	43.1047
1025.742	5.01189
1026.107	46.09875
1026.471	64.14106
1026.835	28.06684
1027.199	-7.01635
1027.562	26.05726
1027.926	25.05841
1028.29	49.11927
1028.654	12.02639
1029.017	37.08766
1029.381	25.05765
1029.744	13.03211
1030.107	63.14197
1030.471	52.11979
1030.834	42.0895
1031.197	57.13091
1031.56	7.01581
1031.923	5.01257
1032.286	50.11205
1032.648	-16.03648
1033.011	87.19211
1033.374	30.06673
1033.736	-2.00512
1034.099	43.10062
1034.461	13.03206
1034.823	26.06273
1035.185	26.06244
1035.548	53.12411
1035.91	20.04596
1036.272	82.17777
1036.634	63.14707
1036.995	30.06698
1037.357	35.08228
1037.719	40.0935
1038.08	73.16645
1038.442	11.02509
1038.803	17.03857
1039.165	29.07014
1039.526	22.05121
1039.887	39.08929
1040.248	55.13227
1040.609	19.0447
1040.97	-1.00235
1041.331	68.1661
1041.692	45.10248
1042.053	41.08841
1042.413	47.10374
1042.774	66.15355
1043.134	73.16275
1043.495	16.03882
1043.855	62.14539
1044.215	26.06173
1044.576	-3.00699
1044.936	54.11702
1045.296	62.14794
1045.656	-1.00234
1046.016	31.07134
1046.375	22.05135
1046.735	91.19893
1047.095	43.09626
1047.454	37.07344
1047.814	33.07622
1048.173	4.00906
1048.533	44.09616
1048.892	27.06261
1049.251	19.04562
1049.61	11.02618
1049.969	18.04062
1050.328	82.16744
1050.687	28.06499
1051.046	40.09295
1051.405	26.06161
1051.763	21.04692
1052.122	-7.01689
1052.48	40.09446
1052.839	96.2177
1053.197	55.12328
1053.555	-13.02789
1053.914	49.1143
1054.272	-68.15708
1054.63	9.02131
1054.988	9.02083
1055.345	10.02026
1055.703	48.11075
1056.061	75.18704
1056.419	64.16184
1056.776	32.07307
1057.134	7.01528
1057.491	49.11779
1057.848	27.06427
1058.206	35.07738
1058.563	38.0795
1058.92	45.09837
1059.277	29.06879
1059.634	13.02893
1059.991	39.08975
1060.348	53.11454
1060.704	70.16293
1061.061	4.00875
1061.418	40.09317
1061.774	42.09953
1062.131	18.0469
1062.487	-56.12679
1062.843	52.12413
1063.199	11.02644
1063.555	37.08287
1063.911	21.05081
1064.267	-6.01177
1064.623	64.15031
1064.979	-29.06398
1065.335	33.07482
1065.691	-3.00683
1066.046	84.17339
1066.402	-1.00217
1066.757	78.18811
1067.112	65.15144
1067.468	33.07585
1067.823	-32.07304
1068.178	7.0162
1068.533	44.10209
1068.888	24.05471
1069.243	-2.00478
1069.598	11.02557
1069.952	88.19184
1070.307	-3.00723
1070.662	59.13556
1071.016	71.15324
1071.371	8.0176
1071.725	15.03415
1072.079	33.07634
1072.434	36.08432
1072.788	-19.04315
1073.142	42.09922
1073.496	11.02504
1073.85	32.0708
1074.203	26.06071
1074.557	34.0886
1074.911	85.19068
1075.265	-5.01119
1075.618	76.17689
1075.971	31.07057
1076.325	60.14749
1076.678	13.02857
1077.031	-23.04913
1077.385	73.15106
1077.738	1.00216
1078.091	59.12892
1078.444	44.09608
1078.796	20.04761
1079.149	59.14076
1079.502	20.04578
1079.855	36.08044
1080.207	19.04489
1080.56	20.05036
1080.912	45.10463
1081.264	40.09273
1081.617	61.14262
1081.969	26.0637
1082.321	29.06775
1082.673	62.13694
1083.025	-23.05249
1083.377	26.05853
1083.728	19.04225
1084.08	-10.02403
1084.432	8.01851
1084.783	-23.051
1085.135	3.00732
1085.486	7.01551
1085.838	64.15119
1086.189	70.16357
1086.54	60.13584
1086.891	56.13872
1087.242	46.10938
1087.593	-14.03244
1087.944	93.20063
1088.295	57.12265
1088.646	76.17912
1088.996	25.05831
1089.347	31.07257
1089.698	30.06889
1090.048	9.02249
1090.398	62.13556
1090.749	-24.05509
1091.099	27.06638
1091.449	54.12949
1091.799	26.06268
1092.149	18.043
1092.499	25.05868
1092.849	48.11747
1093.199	41.0977
1093.548	80.18502
1093.898	34.08144
1094.248	-11.02716
1094.597	14.03509
1094.947	15.03893
1095.296	83.19642
1095.645	30.07497
1095.994	63.14423
1096.343	56.13567
1096.692	35.09047
1097.041	35.0934
1097.39	21.05046
1097.739	11.02768
1098.088	37.09508
1098.437	27.06977
1098.785	23.05959
1099.134	-3.00761
1099.482	40.10704
1099.83	52.13168
1100.179	78.19913
1100.527	0
1100.875	32.08256
1101.223	47.1214
1101.571	3.00805
1101.919	13.03377
1102.267	15.04158
1102.615	5.01606
1102.962	3.00962
1103.31	1.00321
1103.658	-3.00962
