Data from N1 R0 sample 7_Subt2__3__11-58-45-273.txt Node

Date: Tue Sep 16 11:58:45 PDT 2025
User: uwsun
Spectrometer: HDX01956
Trigger mode: 0
Integration Time (sec): 5.000000E-1
Scans to average: 1
Nonlinearity correction enabled: true
Boxcar width: 0
Storing dark spectrum: false
XAxis mode: Wavelengths
Number of Pixels in Spectrum: 2068
>>>>>Begin Spectral Data<<<<<
194.03	0
194.578	10.03247
195.127	-2.00641
195.676	6.01929
196.225	14.0373
196.773	-3.00839
197.321	47.13064
197.87	74.19144
198.418	71.18511
198.966	135.35592
199.513	81.20821
200.061	89.22829
200.609	82.21834
201.156	75.16672
201.704	122.30816
202.251	99.26487
202.798	71.18618
203.345	90.22522
203.892	96.24474
204.438	98.23456
204.985	74.17833
205.532	45.1202
206.078	71.17572
206.624	117.29538
207.17	149.34973
207.716	116.2864
208.262	122.2438
208.808	103.26105
209.354	93.23252
209.899	95.24112
210.445	73.18515
210.99	98.24161
211.535	134.31704
212.08	101.2367
212.625	122.30585
213.17	101.25943
213.715	107.24693
214.259	124.29111
214.804	73.1812
215.348	97.22679
215.892	142.3453
216.436	71.16437
216.98	78.17357
217.524	83.20097
218.068	124.314
218.612	116.29645
219.155	105.25011
219.698	108.25849
220.242	72.17953
220.785	103.24374
221.328	56.14019
221.871	128.32643
222.414	111.27511
222.956	63.15243
223.499	86.19328
224.041	48.11128
224.583	43.09221
225.126	88.19444
225.668	102.24859
226.21	85.21658
226.751	109.24381
227.293	70.15984
227.835	113.2773
228.376	59.13567
228.918	102.25433
229.459	92.23056
230	176.41834
230.541	112.2578
231.082	51.12576
231.622	48.11
232.163	60.14612
232.704	98.24622
233.244	71.17752
233.784	70.17086
234.324	130.2924
234.864	64.14608
235.404	104.24511
235.944	113.26596
236.484	101.25261
237.023	143.33499
237.563	99.2311
238.102	111.26268
238.641	95.23924
239.18	99.23328
239.719	93.23353
240.258	118.26498
240.797	95.22785
241.335	114.2769
241.874	113.22104
242.412	150.36243
242.95	147.35351
243.488	79.1786
244.026	107.24968
244.564	113.2332
245.102	154.34695
245.64	71.17074
246.177	82.18338
246.715	131.31384
247.252	85.19397
247.789	155.2851
248.326	83.20142
248.863	157.3432
249.4	81.18499
249.936	208.42839
250.473	132.31158
251.009	105.24096
251.546	160.35501
252.082	75.1634
252.618	74.1672
253.154	122.29344
253.69	64.14513
254.226	114.27327
254.761	109.24522
255.297	112.24499
255.832	144.34096
256.367	119.27954
256.903	138.3062
257.438	140.32662
257.972	120.26725
258.507	69.15981
259.042	120.26127
259.576	173.37962
260.111	77.17819
260.645	113.24461
261.179	141.32914
261.713	156.34714
262.247	77.1772
262.781	129.27196
263.315	106.25738
263.849	103.25855
264.382	140.32018
264.915	136.32115
265.449	102.24971
265.982	126.28596
266.515	153.37295
267.048	126.26721
267.58	113.24409
268.113	103.22383
268.646	80.19694
269.178	109.24422
269.71	177.38774
270.243	198.45246
270.775	146.37299
271.307	127.30112
271.838	151.35415
272.37	117.28659
272.902	119.26958
273.433	133.29479
273.965	145.35042
274.496	120.29704
275.027	145.35938
275.558	115.28116
276.089	113.28283
276.62	69.17526
277.15	108.26587
277.681	94.20353
278.211	105.25653
278.741	120.26714
279.272	87.20077
279.802	132.32734
280.332	107.2536
280.861	130.31007
281.391	103.23523
281.921	107.25624
282.45	146.35994
282.98	143.3709
283.509	153.34674
284.038	110.25279
284.567	121.28224
285.096	179.42997
285.625	61.13903
286.153	169.401
286.682	99.22901
287.21	101.24132
287.739	111.26298
288.267	123.29983
288.795	112.29264
289.323	144.3374
289.851	147.3449
290.378	132.29398
290.906	99.24367
291.433	147.36487
291.961	144.32854
292.488	119.29526
293.015	148.34854
293.542	187.47595
294.069	179.43974
294.596	94.23089
295.122	186.44176
295.649	110.24183
296.175	144.34531
296.702	159.387
297.228	140.3361
297.754	111.25105
298.28	183.41759
298.806	121.2922
299.332	137.30707
299.857	110.25157
300.383	142.35599
300.908	132.32483
301.433	173.42123
301.958	162.36945
302.483	90.22457
303.008	157.38898
303.533	176.44978
304.058	149.34618
304.582	148.34908
305.107	112.29215
305.631	194.43492
306.155	145.33755
306.679	168.39317
307.203	157.36346
307.727	126.29938
308.251	161.39538
308.775	220.52774
309.298	202.48142
309.822	142.35599
310.345	181.42964
310.868	184.44038
311.391	161.39479
311.914	173.43065
312.437	229.51496
312.96	184.43027
313.482	144.33819
314.005	174.43101
314.527	142.36824
315.049	194.48616
315.571	190.42472
316.093	215.52524
316.615	177.42177
317.137	169.3674
317.659	231.55022
318.18	144.34294
318.702	239.55065
319.223	179.36326
319.744	220.48894
320.265	184.44541
320.786	233.57323
321.307	206.50298
321.828	165.37166
322.348	216.50213
322.869	229.53791
323.389	320.60684
323.909	225.5068
324.43	225.52975
324.95	212.48015
325.47	236.57622
325.989	261.60684
326.509	238.52542
327.029	251.5635
327.548	254.56497
328.067	293.69304
328.587	231.57124
329.106	218.4855
329.625	208.53509
330.144	273.62144
330.662	214.49787
331.181	247.57361
331.7	250.57082
332.218	259.55202
332.736	257.59093
333.255	292.67099
333.773	294.6764
334.291	298.72648
334.808	299.6569
335.326	239.52951
335.844	314.71836
336.361	346.86165
336.879	303.69529
337.396	346.81473
337.913	314.70564
338.43	297.65361
338.947	291.67925
339.464	316.66282
339.981	266.61907
340.497	336.79949
341.014	348.81944
341.53	313.68679
342.046	387.9284
342.562	358.86032
343.078	321.73423
343.594	355.81427
344.11	454.02731
344.626	370.89959
345.141	414.9032
345.657	377.81988
346.172	383.88762
346.687	305.68247
347.202	447.96795
347.717	406.92543
348.232	369.88523
348.747	383.8499
349.261	391.82355
349.776	407.92565
350.29	418.99987
350.805	416.98103
351.319	408.90593
351.833	454.99003
352.347	445.99729
352.861	432.96478
353.374	414.89784
353.888	452.04639
354.401	473.01226
354.915	451.96619
355.428	460.08386
355.941	415.92243
356.454	480.00179
356.967	446.98576
357.48	412.89122
357.993	447.04072
358.505	430.99473
359.018	504.15683
359.53	490.1242
360.042	468.9894
360.554	560.27066
361.066	493.12499
361.578	542.1104
362.09	440.9944
362.602	475.9987
363.113	564.2279
363.625	478.02099
364.136	498.02286
364.647	561.23143
365.158	537.16136
365.669	509.13633
366.18	539.17811
366.691	554.12069
367.201	533.18852
367.712	589.23922
368.222	548.17028
368.733	574.14796
369.243	605.23774
369.753	601.26894
370.263	638.40449
370.773	564.26888
371.282	619.35208
371.792	650.36685
372.301	601.33152
372.811	657.57108
373.32	701.35611
373.829	680.44443
374.338	728.43767
374.847	709.46457
375.356	711.50019
375.865	808.50797
376.373	805.60146
376.882	858.89622
377.39	879.83312
377.898	830.78475
378.407	904.75409
378.915	940.73579
379.423	951.87213
379.93	1088.07224
380.438	1023.05205
380.946	1112.10685
381.453	1161.25372
381.96	1243.35289
382.468	1253.32255
382.975	1426.66319
383.482	1362.31371
383.989	1455.86163
384.495	1600.68893
385.002	1522.28197
385.509	1638.80209
386.015	1802.39836
386.521	1895.83179
387.028	1978.87509
387.534	1960.62894
388.04	2110.20398
388.546	2099.81939
389.051	2242.86396
389.557	2408.14352
390.063	2567.05761
390.568	2710.4069
391.073	2777.98931
391.578	2890.5162
392.084	3029.1071
392.589	3187.80379
393.093	3404.34496
393.598	3752.9819
394.103	4003.10704
394.607	4452.97441
395.112	4754.96784
395.616	5079.69865
396.12	5420.09845
396.624	6025.03694
397.128	6562.03008
397.632	7304.91392
398.136	7791.03303
398.639	8317.55763
399.143	9542.6175
399.646	10806.43653
400.15	12035.2867
400.653	13403.37015
401.156	15077.94689
401.659	17581.07851
402.162	21810.22555
402.664	29949.37834
403.167	45870.09234
403.67	61345.00065
404.172	63919.58413
404.674	63858.43483
405.176	63738.15102
405.678	63977.72923
406.18	64011.81569
406.682	63863.44694
407.184	63926.60148
407.686	63841.39382
408.187	64025.8516
408.688	62311.7735
409.19	44695.22683
409.691	36328.23229
410.192	30885.36794
410.693	26758.43576
411.194	24609.10092
411.694	23151.92593
412.195	21100.76207
412.696	19134.05604
413.196	17945.08013
413.696	17557.23691
414.196	17722.15148
414.696	17053.44699
415.196	16086.77491
415.696	14143.51619
416.196	11245.30423
416.695	8899.3289
417.195	7949.31483
417.694	7572.53892
418.194	7126.37334
418.693	6677.70443
419.192	6498.90752
419.691	6340.85507
420.19	6093.15222
420.688	5993.32963
421.187	5716.30116
421.685	5213.32369
422.184	4802.6507
422.682	4155.45701
423.18	3579.03486
423.678	3272.0732
424.176	3009.09653
424.674	2888.96131
425.172	2700.2399
425.669	2546.43325
426.167	2409.10683
426.664	2152.90469
427.161	2000.88132
427.659	1858.00727
428.156	1769.45491
428.652	1649.97409
429.149	1573.75215
429.646	1508.40401
430.143	1462.58949
430.639	1338.41037
431.135	1351.59496
431.632	1217.16324
432.128	1187.25641
432.624	1107.33466
433.12	1105.01501
433.616	1080.89195
434.111	982.93369
434.607	1016.00108
435.103	905.57009
435.598	941.60517
436.093	863.70585
436.588	861.6384
437.083	734.43191
437.578	810.6103
438.073	719.5899
438.568	716.55462
439.062	668.25733
439.557	668.38317
440.051	612.22918
440.546	547.12749
441.04	577.25385
441.534	570.30436
442.028	632.36159
442.522	588.27318
443.015	471.92921
443.509	560.23619
444.002	512.14845
444.496	503.99654
444.989	518.14954
445.482	486.10877
445.975	581.20896
446.468	536.05003
446.961	535.05178
447.454	466.9636
447.947	469.03308
448.439	492.10984
448.931	482.01621
449.424	517.20634
449.916	489.097
450.408	437.92771
450.9	376.86017
451.392	432.02131
451.884	435.92789
452.375	381.88753
452.867	391.82247
453.358	420.89571
453.849	429.84953
454.341	391.82645
454.832	395.79648
455.323	467.07412
455.814	379.81337
456.304	353.77096
456.795	345.74456
457.285	358.74162
457.776	415.87986
458.266	364.81362
458.756	363.80721
459.247	337.76338
459.737	381.86583
460.226	383.81805
460.716	417.92841
461.206	346.78201
461.695	285.67386
462.185	349.78219
462.674	291.63503
463.163	374.78654
463.653	366.73037
464.142	327.75156
464.63	297.68617
465.119	342.75089
465.608	386.8464
466.096	269.55888
466.585	285.62141
467.073	224.51084
467.561	324.73647
468.05	254.56168
468.538	280.65396
469.026	248.56556
469.513	280.56343
470.001	258.56886
470.489	296.67038
470.976	310.68808
471.463	263.62811
471.951	259.61761
472.438	221.50166
472.925	249.5636
473.412	221.51811
473.899	257.56535
474.385	192.45689
474.872	233.52374
475.359	235.55716
475.845	227.4533
476.331	212.43662
476.817	248.58015
477.303	212.47703
477.789	158.36803
478.275	227.5438
478.761	184.42504
479.247	200.43266
479.732	192.46565
480.218	219.55542
480.703	176.42252
481.188	232.48384
481.673	197.43974
482.158	227.4733
482.643	197.48878
483.128	214.48311
483.612	254.58135
484.097	172.40442
484.581	199.44677
485.066	173.4135
485.55	164.35479
486.034	167.35378
486.518	206.47831
487.002	155.36864
487.486	135.32181
487.969	128.30589
488.453	124.30356
488.936	164.36085
489.42	148.32113
489.903	98.24107
490.386	86.1768
490.869	174.37207
491.352	129.30515
491.835	108.21862
492.318	136.30038
492.8	155.31441
493.283	156.38967
493.765	144.34623
494.247	153.34872
494.73	163.3527
495.212	88.20676
495.694	141.32643
496.175	137.32357
496.657	135.31415
497.139	93.15861
497.62	123.29152
498.102	150.36598
498.583	97.23557
499.064	100.22087
499.545	145.3242
500.026	149.33067
500.507	35.0808
500.988	150.36748
501.469	71.17585
501.949	105.25614
502.43	115.27361
502.91	141.29412
503.39	102.24989
503.87	100.23413
504.35	74.17217
504.83	118.25462
505.31	74.17732
505.79	33.07818
506.269	58.13286
506.749	35.08022
507.228	96.22397
507.707	106.23412
508.187	80.19001
508.666	107.26209
509.145	82.19055
509.623	116.26807
510.102	139.33033
510.581	125.29718
511.059	66.16546
511.538	88.2249
512.016	102.24199
512.494	50.12008
512.972	85.20216
513.45	86.1993
513.928	100.2408
514.406	90.21902
514.884	104.26532
515.361	60.14333
515.839	149.33686
516.316	77.18623
516.793	80.20063
517.27	41.09875
517.747	102.25912
518.224	52.11984
518.701	69.15211
519.178	102.25276
519.654	86.20229
520.131	57.14097
520.607	25.06133
521.083	47.10665
521.56	78.1829
522.036	84.18188
522.512	87.21334
522.987	82.19649
523.463	53.12562
523.939	125.30607
524.414	104.23565
524.89	117.2758
525.365	67.15104
525.84	74.17718
526.315	72.17377
526.79	67.15086
527.265	72.16593
527.74	50.12136
528.215	43.1005
528.689	51.11196
529.164	71.15186
529.638	-1.00256
530.112	12.02845
530.587	67.14324
531.061	48.11629
531.534	49.11815
532.008	111.26704
532.482	87.19877
532.956	-1.00257
533.429	91.22116
533.903	56.12281
534.376	80.1761
534.849	39.08997
535.322	48.11339
535.795	40.0968
536.268	79.19034
536.741	23.05491
537.213	81.18529
537.686	81.19716
538.158	81.1835
538.631	39.09471
539.103	80.18002
539.575	50.10326
540.047	52.1136
540.519	53.12668
540.991	78.18932
541.463	45.10842
541.934	33.07497
542.406	50.12031
542.877	20.04552
543.348	68.16387
543.82	34.08299
544.291	103.23845
544.762	48.11453
545.233	100.25142
545.703	17.03821
546.174	62.14379
546.645	35.0851
547.115	57.1377
547.585	66.15174
548.056	97.23707
548.526	85.20107
548.996	43.10317
549.466	94.22704
549.935	88.20942
550.405	70.1539
550.875	68.16145
551.344	57.13609
551.814	67.15363
552.283	93.20227
552.752	115.26729
553.221	66.14614
553.69	128.28637
554.159	120.29584
554.628	88.19915
555.096	99.25029
555.565	63.1397
556.033	158.37064
556.502	83.19968
556.97	79.17576
557.438	30.07098
557.906	73.17215
558.374	79.18304
558.842	61.14636
559.31	106.23588
559.777	119.28813
560.245	66.15155
560.712	33.07616
561.18	90.1987
561.647	2.0045
562.114	48.11057
562.581	79.19387
563.048	83.18971
563.514	103.25669
563.981	85.1942
564.448	73.16504
564.914	51.11887
565.381	97.22064
565.847	86.19961
566.313	37.08637
566.779	28.0636
567.245	36.08389
567.711	37.08905
568.176	24.0544
568.642	71.17842
569.108	56.13781
569.573	3.00703
570.038	56.11767
570.504	19.04341
570.969	70.17308
571.434	111.2447
571.899	44.10475
572.363	84.19219
572.828	125.28433
573.293	49.11281
573.757	75.17398
574.222	93.20768
574.686	89.20408
575.15	91.21809
575.614	170.39379
576.078	65.15269
576.542	99.22446
577.006	88.19834
577.469	118.28716
577.933	85.19334
578.396	18.04308
578.86	67.15776
579.323	99.23718
579.786	83.17998
580.249	110.25734
580.712	65.15797
581.175	75.18439
581.637	65.14851
582.1	69.15064
582.563	58.12381
583.025	94.22747
583.487	117.23918
583.95	29.06283
584.412	96.2011
584.874	77.18735
585.336	78.18469
585.797	82.17831
586.259	40.09413
586.721	48.11309
587.182	87.19989
587.643	82.18603
588.105	50.11853
588.566	51.10709
589.027	124.3004
589.488	72.16533
589.949	109.26253
590.41	109.21494
590.87	105.23893
591.331	127.27492
591.791	112.25739
592.252	78.18155
592.712	93.2217
593.172	104.23527
593.632	150.32866
594.092	77.1716
594.552	123.2641
595.011	86.19645
595.471	104.2345
595.931	122.27295
596.39	123.2922
596.849	83.19284
597.308	76.16202
597.768	115.29374
598.227	107.25507
598.685	97.22001
599.144	119.2779
599.603	92.21413
600.062	105.2202
600.52	154.34241
600.978	155.35997
601.437	119.26805
601.895	131.27776
602.353	127.27598
602.811	170.3761
603.269	108.25474
603.727	155.36566
604.184	207.459
604.642	176.42332
605.099	190.43331
605.557	144.34465
606.014	187.39337
606.471	193.47238
606.928	247.52965
607.385	247.59756
607.842	238.5274
608.299	233.52675
608.755	212.49885
609.212	259.55562
609.668	238.51883
610.125	280.64651
610.581	254.57316
611.037	192.41926
611.493	266.59583
611.949	280.65396
612.405	277.53902
612.861	245.5428
613.316	257.59235
613.772	273.59903
614.227	308.70521
614.683	270.54731
615.138	238.5386
615.593	243.54353
616.048	297.64729
616.503	307.70955
616.958	269.64685
617.412	311.7022
617.867	281.60073
618.321	300.58698
618.776	242.51299
619.23	261.58667
619.684	276.58812
620.138	282.61578
620.592	248.57901
621.046	321.71915
621.5	234.54332
621.954	289.60793
622.407	254.53842
622.861	221.51892
623.314	261.5657
623.768	256.58051
624.221	206.39179
624.674	245.54416
625.127	243.5433
625.58	214.46433
626.033	293.60792
626.485	211.48866
626.938	215.49536
627.39	266.59534
627.843	251.55517
628.295	223.49612
628.747	238.54648
629.199	235.51479
629.651	193.42956
630.103	178.39757
630.555	162.33305
631.006	181.40936
631.458	220.49969
631.909	187.40653
632.361	165.37135
632.812	213.47643
633.263	218.45605
633.714	177.36413
634.165	149.34959
634.616	172.39605
635.067	189.40353
635.518	200.45924
635.968	206.38969
636.419	218.45888
636.869	168.38777
637.319	199.44732
637.769	220.47674
638.219	186.42607
638.669	196.45149
639.119	159.37131
639.569	151.35415
640.019	193.43223
640.468	224.48334
640.918	123.28668
641.367	162.35361
641.816	223.47695
642.265	217.48858
642.714	208.46074
643.163	209.46691
643.612	192.45689
644.061	219.45094
644.51	190.42262
644.958	215.45785
645.406	155.36197
645.855	145.34459
646.303	167.37601
646.751	200.44818
647.199	195.42807
647.647	200.44966
648.095	172.38163
648.543	213.41567
648.99	212.49224
649.438	195.43671
649.885	286.68002
650.333	237.43966
650.78	201.47049
651.227	233.54901
651.674	164.36494
652.121	242.57077
652.568	201.47711
653.015	186.44686
653.461	203.46697
653.908	160.35826
654.354	175.40529
654.801	189.42989
655.247	168.35379
655.693	179.45302
656.139	200.46181
656.585	192.4444
657.031	160.36695
657.477	201.4245
657.922	147.3265
658.368	169.4044
658.813	212.4645
659.259	217.50773
659.704	227.5182
660.149	148.33344
660.594	180.41497
661.039	195.43005
661.484	163.37616
661.929	218.49073
662.373	147.36073
662.818	170.4092
663.262	170.40019
663.707	213.52365
664.151	218.51237
664.595	169.39791
665.039	159.38483
665.483	200.49269
665.927	187.42517
666.371	221.50084
666.814	138.32081
667.258	210.48876
667.701	229.46771
668.145	232.55525
668.588	211.5049
669.031	166.37995
669.474	161.37627
669.917	176.3739
670.36	219.52704
670.803	228.52981
671.245	152.30262
671.688	192.45232
672.13	172.37798
672.573	192.46967
673.015	196.45725
673.457	208.43571
673.899	220.51223
674.341	229.52992
674.783	136.31891
675.225	224.53057
675.666	274.6392
676.108	175.36651
676.549	125.28525
676.991	194.41088
677.432	204.38874
677.873	181.40001
678.314	186.42846
678.755	256.60355
679.196	143.31894
679.637	155.36111
680.078	214.48074
680.518	148.33098
680.959	176.40607
681.399	181.43411
681.839	194.4549
682.28	204.48936
682.72	171.37902
683.16	212.50971
683.6	216.47167
684.039	171.34132
684.479	170.40765
684.919	213.48213
685.358	169.40826
685.798	137.34846
686.237	164.37959
686.676	184.4018
687.115	190.43226
687.554	241.55149
687.993	194.41322
688.432	235.51218
688.871	203.44788
689.309	158.36832
689.748	206.41051
690.186	198.44571
690.625	227.51067
691.063	184.42402
691.501	224.5316
691.939	218.52791
692.377	190.44448
692.815	241.56366
693.253	199.45575
693.69	193.40617
694.128	152.35879
694.565	174.39858
695.003	200.49305
695.44	200.45593
695.877	183.41574
696.314	212.4262
696.751	238.51354
697.188	243.5368
697.625	251.53265
698.061	215.49358
698.498	200.45408
698.934	195.44838
699.371	206.46543
699.807	241.54194
700.243	198.45956
700.679	208.44361
701.115	299.6558
701.551	187.41793
701.987	219.45581
702.422	209.47865
702.858	266.60171
703.294	299.64446
703.729	236.54753
704.164	203.46491
704.599	284.59701
705.035	278.58775
705.47	208.48429
705.904	203.4505
706.339	216.47367
706.774	226.50498
707.209	251.5547
707.643	272.61553
708.078	274.63039
708.512	231.55359
708.946	233.52546
709.38	272.61102
709.814	261.55797
710.248	266.61688
710.682	305.68865
711.116	254.58812
711.549	210.51408
711.983	251.54937
712.416	321.71294
712.85	276.64614
713.283	261.58306
713.716	258.60637
714.149	225.49579
714.582	301.63289
715.015	242.56411
715.448	286.68054
715.881	286.57391
716.313	280.61555
716.746	271.60565
717.178	259.58981
717.61	325.77525
718.043	261.61019
718.475	287.65594
718.907	287.67518
719.339	227.48928
719.77	316.70839
720.202	272.64375
720.634	333.76351
721.065	301.66408
721.497	266.61566
721.928	257.59447
722.359	268.61708
722.79	294.66098
723.221	286.66824
723.652	293.70081
724.083	287.60399
724.514	316.67628
724.945	281.61788
725.375	353.7641
725.806	258.60117
726.236	313.75006
726.666	318.69849
727.096	313.71565
727.526	367.87943
727.956	269.57856
728.386	308.70634
728.816	322.77265
729.246	268.6252
729.675	273.62696
730.105	277.63717
730.534	330.71326
730.964	280.65704
731.393	342.77738
731.822	339.80802
732.251	294.70146
732.68	354.75464
733.109	319.73493
733.537	330.75253
733.966	377.8706
734.395	369.7844
734.823	334.68045
735.251	289.6504
735.68	323.74148
736.108	315.73497
736.536	350.75583
736.964	295.63775
737.392	352.81531
737.82	364.79985
738.247	331.73086
738.675	343.74373
739.102	320.74443
739.53	361.86308
739.957	355.85521
740.384	316.70723
740.811	262.61385
741.238	371.84038
741.665	397.85456
742.092	279.59852
742.519	286.66745
742.945	377.84494
743.372	360.82854
743.798	346.82296
744.225	362.78743
744.651	336.78072
745.077	340.78689
745.503	369.81884
745.929	386.85959
746.355	352.79005
746.781	349.79248
747.207	367.80322
747.632	429.97369
748.058	378.88037
748.483	363.76559
748.908	357.82344
749.334	395.89436
749.759	410.8922
750.184	385.85292
750.609	405.90655
751.033	399.84668
751.458	376.76322
751.883	420.94109
752.307	394.84683
752.732	399.94041
753.156	387.87412
753.58	402.86216
754.005	419.95909
754.429	395.85719
754.853	400.91433
755.277	436.9387
755.7	374.85491
756.124	367.84212
756.548	348.7573
756.971	391.87378
757.394	376.88604
757.818	403.95609
758.241	398.92985
758.664	375.87321
759.087	404.82792
759.51	362.82216
759.933	431.94804
760.356	427.00733
760.778	434.96885
761.201	387.85449
761.623	330.72454
762.046	413.87295
762.468	402.87554
762.89	389.86716
763.312	398.89181
763.734	419.91894
764.156	366.83259
764.578	382.79098
765	347.78059
765.421	355.84031
765.843	377.91094
766.264	369.79839
766.686	347.79401
767.107	365.81266
767.528	390.92366
767.949	348.81689
768.37	381.86863
768.791	368.80728
769.212	326.76496
769.632	327.70874
770.053	311.75859
770.473	330.73399
770.894	289.66184
771.314	331.71802
771.734	280.60727
772.154	322.76295
772.575	276.59093
772.994	278.58414
773.414	325.71161
773.834	264.61612
774.254	302.68425
774.673	335.75854
775.093	310.7189
775.512	266.61639
775.931	286.67897
776.351	285.66525
776.77	290.66507
777.189	232.5186
777.607	239.57603
778.026	263.61463
778.445	245.58736
778.864	242.57674
779.282	243.54218
779.701	223.52831
780.119	245.58557
780.537	184.43533
780.955	207.49514
781.373	212.49477
781.791	256.54337
782.209	180.38323
782.627	252.62602
783.045	166.35773
783.462	178.43332
783.88	205.50472
784.297	216.514
784.715	195.47887
785.132	167.38201
785.549	183.43439
785.966	171.41013
786.383	192.45074
786.8	185.40577
787.217	251.56235
787.633	175.42068
788.05	157.34625
788.466	169.37209
788.883	174.42738
789.299	150.33905
789.715	184.42605
790.131	170.40237
790.547	144.34294
790.963	126.29927
791.379	156.37693
791.795	154.32916
792.21	141.31161
792.626	138.30925
793.041	132.31098
793.457	89.21061
793.872	98.21916
794.287	123.28622
794.702	79.18463
795.117	121.2901
795.532	122.29622
795.947	105.23854
796.362	63.14208
796.776	65.14377
797.191	95.22447
797.605	89.20408
798.02	55.12955
798.434	164.3443
798.848	152.36213
799.262	61.14675
799.676	123.2869
800.09	103.24318
800.504	93.21573
800.918	66.14589
801.331	42.10454
801.745	108.23544
802.158	47.11294
802.572	129.29841
802.985	98.22476
803.398	80.18289
803.811	69.1677
804.224	39.09293
804.637	93.21377
805.05	53.11757
805.462	123.28668
805.875	63.15899
806.288	80.1873
806.7	33.07975
807.112	65.14365
807.525	18.04252
807.937	38.09154
808.349	54.12994
808.761	55.13151
809.173	73.17135
809.584	95.22386
809.996	18.04287
810.408	76.19197
810.819	77.17444
811.231	94.2431
811.642	60.14459
812.053	120.28029
812.464	74.16856
812.875	50.12467
813.286	94.23532
813.697	54.11832
814.108	57.13369
814.519	87.18729
814.929	73.17894
815.34	46.10669
815.75	99.24403
816.16	33.0787
816.571	50.12544
816.981	76.16989
817.391	48.11079
817.801	33.07996
818.211	44.10104
818.62	36.08448
819.03	69.16228
819.44	9.02252
819.849	34.08215
820.259	57.13936
820.668	45.10764
821.077	67.16216
821.486	51.1168
821.895	89.20735
822.304	53.13581
822.713	11.02515
823.122	37.08925
823.531	43.09682
823.939	62.1463
824.348	37.08641
824.756	47.11311
825.164	62.14958
825.573	17.04153
825.981	47.11187
826.389	72.17364
826.797	107.26131
827.205	65.14443
827.612	44.10427
828.02	5.01135
828.428	50.12295
828.835	22.05684
829.243	73.16544
829.65	34.08265
830.057	97.22358
830.464	67.15917
830.871	78.17983
831.278	29.06791
831.685	62.13177
832.092	27.06333
832.499	92.19247
832.905	14.03421
833.312	-3.00651
833.718	50.12122
834.124	72.15789
834.531	37.08928
834.937	28.07002
835.343	79.18079
835.749	44.0973
836.155	14.03572
836.561	67.15868
836.966	39.09169
837.372	36.08823
837.777	21.05098
838.183	33.07015
838.588	49.11829
838.993	76.17752
839.399	74.17454
839.804	18.04267
840.209	50.12463
840.613	46.09798
841.018	28.06832
841.423	52.129
841.828	31.07641
842.232	18.04242
842.637	93.2118
843.041	16.04011
843.445	29.06987
843.849	36.08659
844.253	36.0822
844.657	16.03943
845.061	137.29872
845.465	37.08634
845.869	74.16433
846.272	19.04512
846.676	-4.00923
847.079	45.11162
847.483	39.09368
847.886	52.12046
848.289	29.0763
848.692	24.05849
849.095	55.12632
849.498	41.09879
849.901	55.11972
850.304	55.12607
850.707	59.14436
851.109	25.06092
851.512	73.17262
851.914	10.02471
852.316	54.13333
852.718	59.15113
853.121	34.08057
853.523	52.11576
853.925	47.12001
854.326	22.05374
854.728	27.06763
855.13	38.09599
855.531	66.15167
855.933	3.00691
856.334	30.07306
856.736	63.13638
857.137	61.13729
857.538	31.07608
857.939	54.13053
858.34	-3.00703
858.741	58.14577
859.142	13.03006
859.542	78.19969
859.943	52.12436
860.343	33.07963
860.744	37.08705
861.144	53.12562
861.544	50.11743
861.945	29.07148
862.345	36.08448
862.745	73.17549
863.145	57.12797
863.544	89.21614
863.944	69.15587
864.344	10.02376
864.743	73.17329
865.143	70.17467
865.542	7.01549
865.941	52.12446
866.34	4.00916
866.74	28.07314
867.139	56.13075
867.537	-10.02455
867.936	75.17356
868.335	59.14414
868.734	40.09905
869.132	20.04423
869.531	51.11695
869.929	84.18328
870.327	53.12202
870.726	36.08567
871.124	47.10448
871.522	36.08833
871.92	75.17721
872.318	16.03756
872.715	36.08458
873.113	57.13254
873.511	18.04328
873.908	51.12641
874.306	39.0945
874.703	8.01922
875.1	5.01224
875.497	41.09417
875.894	63.15122
876.291	86.20214
876.688	-14.03531
877.085	11.02534
877.482	43.10372
877.878	88.20514
878.275	52.12773
878.671	37.07629
879.068	75.17294
879.464	45.10455
879.86	-4.00918
880.256	-7.01651
880.652	28.0689
881.048	5.01188
881.444	-4.00909
881.84	56.13679
882.236	62.14958
882.631	71.16795
883.027	48.11115
883.422	10.02466
883.817	21.05157
884.213	43.10662
884.608	41.09924
885.003	5.01158
885.398	8.01946
885.793	52.12503
886.188	2.00482
886.582	35.08589
886.977	44.09954
887.371	23.05588
887.766	42.10141
888.16	22.05213
888.554	43.10156
888.949	61.14703
889.343	81.18782
889.737	52.13541
890.131	3.00731
890.525	102.251
890.918	13.03169
891.312	40.09097
891.706	31.0786
892.099	58.14146
892.492	65.13227
892.886	90.20939
893.279	26.06393
893.672	42.104
894.065	69.16594
894.458	14.03375
894.851	66.15368
895.244	38.09368
895.637	47.1092
896.029	78.18362
896.422	24.05586
896.814	27.06461
897.206	46.10685
897.599	133.31071
897.991	33.07746
898.383	77.17401
898.775	63.13749
899.167	52.11816
899.559	56.135
899.951	94.20831
900.342	67.16186
900.734	64.15645
901.125	40.10071
901.517	39.09244
901.908	21.04779
902.299	45.10624
902.69	76.17284
903.082	83.19177
903.473	88.20434
903.863	41.10032
904.254	84.18801
904.645	9.02139
905.036	74.17515
905.426	71.15218
905.817	45.10542
906.207	17.03864
906.597	59.13355
906.987	28.06961
907.378	59.14436
907.768	51.13073
908.158	33.07734
908.547	54.13655
908.937	-27.0668
909.327	58.13468
909.717	2.00485
910.106	18.04153
910.495	36.08557
910.885	72.17541
911.274	9.02177
911.663	83.19953
912.052	28.06581
912.441	57.14066
912.83	36.07865
913.219	66.16546
913.608	63.14857
913.997	11.02702
914.385	47.10777
914.774	40.09347
915.162	47.1089
915.55	28.06473
915.939	35.08605
916.327	47.11187
916.715	84.20846
917.103	34.0791
917.491	38.09019
917.878	89.208
918.266	11.02757
918.654	46.11433
919.041	24.06162
919.429	23.0523
919.816	33.08065
920.203	86.20103
920.591	91.21576
920.978	21.04966
921.365	58.14734
921.752	-18.041
922.139	68.14024
922.525	52.12036
922.912	44.10269
923.299	29.06971
923.685	-12.03024
924.072	12.02596
924.458	41.09834
924.844	8.0192
925.231	43.09495
925.617	25.06228
926.003	20.04933
926.389	57.13812
926.774	29.07072
927.16	55.13086
927.546	80.19919
927.931	1.0024
928.317	27.05927
928.702	42.09482
929.088	57.13228
929.473	57.14076
929.858	49.11609
930.243	46.10728
930.628	78.18341
931.013	42.10041
931.398	35.07573
931.783	35.08811
932.167	47.11174
932.552	41.0986
932.937	53.12547
933.321	38.09282
933.705	-21.05098
934.09	22.05256
934.474	2.00454
934.858	17.04289
935.242	3.00669
935.626	17.04243
936.009	60.15565
936.393	105.25862
936.777	36.08967
937.16	20.05092
937.544	29.06452
937.927	39.0961
938.311	44.10237
938.694	63.16104
939.077	65.14875
939.46	24.05549
939.843	43.08308
940.226	44.1082
940.609	78.17264
940.991	18.04407
941.374	68.1602
941.757	59.13892
942.139	50.1078
942.522	29.06543
942.904	73.16759
943.286	30.07333
943.668	36.0912
944.05	40.09493
944.432	58.13664
944.814	13.03062
945.196	21.04989
945.578	14.03275
945.959	-11.0247
946.341	12.02789
946.722	27.06054
947.104	40.09189
947.485	26.05822
947.866	63.1538
948.247	70.17118
948.628	15.03459
949.009	3.00747
949.39	49.11636
949.771	22.04794
950.152	31.07345
950.532	71.17236
950.913	74.16999
951.293	58.15284
951.674	21.049
952.054	61.14803
952.434	54.129
952.814	0
953.194	33.08233
953.574	69.16164
953.954	26.05872
954.334	100.2398
954.714	74.17332
955.093	52.1226
955.473	87.21033
955.853	15.03769
956.232	27.07176
956.611	41.093
956.99	92.22171
957.37	13.03187
957.749	57.12776
958.128	55.13412
958.506	11.02777
958.885	21.05104
959.264	45.10756
959.643	98.21255
960.021	30.0723
960.4	61.13148
960.778	-1.00235
961.156	28.06745
961.535	49.10798
961.913	99.2209
962.291	56.14024
962.669	47.11534
963.047	85.20882
963.424	90.22286
963.802	46.10901
964.18	26.0624
964.557	35.0768
964.935	94.211
965.312	58.1464
965.69	15.03595
966.067	2.00466
966.444	31.07205
966.821	54.13421
967.198	51.11699
967.575	23.05411
967.952	41.09228
968.329	74.17319
968.705	119.24095
969.082	79.19716
969.458	26.06104
969.835	46.10745
970.211	26.06532
970.587	36.08656
970.963	1.00247
971.339	39.09895
971.715	72.17246
972.091	53.12503
972.467	57.13416
972.843	62.14947
973.219	61.13836
973.594	33.08355
973.97	13.02897
974.345	62.1426
974.721	-7.01615
975.096	43.10085
975.471	59.13306
975.846	26.05963
976.221	12.02958
976.596	100.23183
976.971	94.22275
977.346	26.05759
977.72	22.0539
978.095	30.07489
978.469	39.08885
978.844	78.18612
979.218	48.11225
979.593	73.16578
979.967	15.03455
980.341	34.07547
980.715	48.11668
981.089	14.03387
981.463	49.10752
981.837	58.13765
982.21	17.03693
982.584	56.13019
982.957	38.09206
983.331	4.00898
983.704	84.19959
984.078	30.07109
984.451	-16.03799
984.824	53.12469
985.197	3.00693
985.57	-12.02874
985.943	10.02339
986.316	63.14533
986.688	52.11979
987.061	68.15251
987.434	70.17776
987.806	3.00692
988.179	22.04971
988.551	53.12852
988.923	23.05426
989.295	41.09793
989.667	46.10719
990.039	66.15905
990.411	-26.05707
990.783	-2.00438
991.155	24.05586
991.527	19.04416
991.898	55.13227
992.27	37.08908
992.641	51.12195
993.012	-14.031
993.384	22.05021
993.755	37.09157
994.126	100.23045
994.497	29.0686
994.868	23.05004
995.239	27.06276
995.61	2.00489
995.98	23.05373
996.351	38.0913
996.722	58.13008
997.092	-14.03234
997.462	46.10432
997.833	55.12328
998.203	40.09152
998.573	43.10345
998.943	47.10613
999.313	47.10868
999.683	76.17452
1000.053	-52.1137
1000.423	-9.02102
1000.792	23.05696
1001.162	-29.06897
1001.531	11.02627
1001.901	-5.01202
1002.27	-13.02742
1002.639	-14.03452
1003.009	31.0706
1003.378	37.09144
1003.747	18.04062
1004.116	38.08705
1004.485	31.07111
1004.853	26.06261
1005.222	-34.082
1005.591	35.07939
1005.959	48.10375
1006.328	40.08642
1006.696	1.00232
1007.064	16.03849
1007.433	43.10235
1007.801	37.08559
1008.169	5.01209
1008.537	71.1487
1008.905	71.15868
1009.273	30.07071
1009.64	22.05127
1010.008	62.14066
1010.375	46.10487
1010.743	26.05557
1011.11	52.12022
1011.478	41.0983
1011.845	76.1687
1012.212	85.18455
1012.579	57.13426
1012.946	-4.00908
1013.313	70.157
1013.68	38.08101
1014.047	9.02068
1014.414	1.00228
1014.78	50.11981
1015.147	50.11412
1015.513	90.20592
1015.88	38.09282
1016.246	43.10042
1016.612	48.10375
1016.978	42.09953
1017.344	36.08577
1017.71	56.12957
1018.076	40.0892
1018.442	70.17321
1018.808	42.10202
1019.174	-4.00967
1019.539	12.0253
1019.905	17.03883
1020.27	-41.09849
1020.636	8.01822
1021.001	95.21644
1021.366	43.09951
1021.731	75.18752
1022.096	20.04927
1022.461	46.10448
1022.826	85.19358
1023.191	42.10639
1023.556	75.16589
1023.92	41.09571
1024.285	1.00233
1024.649	-24.05674
1025.014	9.02126
1025.378	43.1047
1025.742	38.0898
1026.107	37.07958
1026.471	0
1026.835	46.10943
1027.199	38.08799
1027.562	-20.04447
1027.926	62.14379
1028.29	79.19121
1028.654	54.11772
1029.017	98.22944
1029.381	42.09652
1029.744	45.11051
1030.107	86.19288
1030.471	68.15615
1030.834	18.03856
1031.197	95.21653
1031.56	38.0853
1031.923	39.09744
1032.286	103.2283
1032.648	39.08792
1033.011	51.11347
1033.374	46.10198
1033.736	10.02556
1034.099	43.10062
1034.461	20.04925
1034.823	15.03626
1035.185	31.07438
1035.548	62.14493
1035.91	58.13228
1036.272	74.1607
1036.634	84.19528
1036.995	23.05143
1037.357	22.05185
1037.719	31.07259
1038.08	130.293
1038.442	39.08846
1038.803	7.01592
1039.165	51.12283
1039.526	17.03961
1039.887	29.06653
1040.248	83.19854
1040.609	33.07743
1040.97	20.0469
1041.331	59.14436
1041.692	111.24941
1042.053	40.08628
1042.413	50.11029
1042.774	66.15355
1043.134	35.07864
1043.495	47.11337
1043.855	71.1662
1044.215	39.09236
1044.576	25.05792
1044.936	76.16392
1045.296	63.1503
1045.656	9.02106
1046.016	66.15082
1046.375	31.07222
1046.735	41.09057
1047.095	16.03602
1047.454	22.04382
1047.814	55.12647
1048.173	61.13662
1048.533	30.06576
1048.892	45.10397
1049.251	15.03605
1049.61	39.09233
1049.969	45.10099
1050.328	91.18544
1050.687	32.07422
1051.046	44.10217
1051.405	16.03799
1051.763	72.15916
1052.122	8.01925
1052.48	44.10382
1052.839	97.21992
1053.197	20.04515
1053.555	41.08693
1053.914	34.07954
1054.272	31.0702
1054.63	-14.03329
1054.988	64.14649
1055.345	10.02026
1055.703	80.18341
1056.061	73.18212
1056.419	82.20669
1056.776	1.0023
1057.134	-21.0461
1057.491	72.17233
1057.848	31.07373
1058.206	10.02223
1058.563	19.03992
1058.92	77.16718
1059.277	43.10172
1059.634	36.07975
1059.991	71.16235
1060.348	42.09098
1060.704	31.07271
1061.061	9.01967
1061.418	48.11163
1061.774	-9.02154
1062.131	89.22909
1062.487	11.02456
1062.843	43.10282
1063.199	44.10511
1063.555	26.05836
1063.911	1.00243
1064.267	122.23203
1064.623	39.09204
1064.979	-17.03741
1065.335	52.11744
1065.691	5.01136
1066.046	45.0937
1066.402	20.04319
1066.757	81.19524
1067.112	79.18355
1067.468	13.03
1067.823	18.04067
1068.178	75.17122
1068.533	59.13648
1068.888	25.05698
1069.243	72.16956
1069.598	18.04178
1069.952	62.13591
1070.307	9.02165
1070.662	81.18529
1071.016	47.10196
1071.371	65.14125
1071.725	67.15092
1072.079	53.12212
1072.434	32.07501
1072.788	15.03383
1073.142	84.19682
1073.496	10.02277
1073.85	41.09054
1074.203	57.13228
1074.557	39.10154
1074.911	78.17523
1075.265	11.02454
1075.618	68.15852
1075.971	80.18031
1076.325	7.01738
1076.678	11.02419
1077.031	-22.04698
1077.385	81.16731
1077.738	35.07515
1078.091	39.08558
1078.444	62.13487
1078.796	32.07601
1079.149	15.03609
1079.502	41.09345
1079.855	7.01574
1080.207	51.11976
1080.56	53.13266
1080.912	55.12763
1081.264	76.17494
1081.617	62.14493
1081.969	28.06857
1082.321	1.00235
1082.673	22.049
1083.025	40.09012
1083.377	309.65515
1083.728	28.06215
1084.08	21.05016
1084.432	1.00232
1084.783	26.05707
1085.135	30.07279
1085.486	57.12497
1085.838	40.09493
1086.189	27.06362
1086.54	44.09994
1086.891	78.19244
1087.242	73.17269
1087.593	50.1144
1087.944	80.17307
1088.295	44.09494
1088.646	101.23688
1088.996	37.0861
1089.347	5.01176
1089.698	46.10529
1090.048	18.04492
1090.398	58.12692
1090.749	49.11083
1091.099	64.15627
1091.449	36.08662
1091.799	51.12237
1092.149	69.16322
1092.499	16.03762
1092.849	46.11261
1093.199	30.07164
1093.548	69.15993
1093.898	18.04325
1094.248	-4.00987
1094.597	-1.00251
1094.947	9.02338
1095.296	43.10255
1095.645	24.06004
1095.994	50.11477
1096.343	87.20954
1096.692	9.02337
1097.041	19.05083
1097.39	31.07435
1097.739	54.13484
1098.088	36.09252
1098.437	51.13123
1098.785	28.07249
1099.134	4.01014
1099.482	36.0964
1099.83	81.20406
1100.179	81.20668
1100.527	-19.04865
1100.875	61.15658
1101.223	46.11884
1101.571	-6.01613
1101.919	57.14693
1102.267	34.09396
1102.615	-3.00964
1102.962	3.00962
1103.31	-11.03539
1103.658	-7.02246
