Data from N1 R0 sample 1_Subt2__3__12-25-43-737.txt Node

Date: Tue Sep 16 12:25:43 PDT 2025
User: uwsun
Spectrometer: HDX01956
Trigger mode: 0
Integration Time (sec): 5.000000E-1
Scans to average: 1
Nonlinearity correction enabled: true
Boxcar width: 0
Storing dark spectrum: false
XAxis mode: Wavelengths
Number of Pixels in Spectrum: 2068
>>>>>Begin Spectral Data<<<<<
194.03	-3.00871
194.578	-1.00325
195.127	-6.01925
195.676	4.01286
196.225	18.04793
196.773	-17.04764
197.321	24.06695
197.87	13.03399
198.418	29.07615
198.966	49.13106
199.513	61.15735
200.061	49.12657
200.609	37.09925
201.156	56.12498
201.704	19.04887
202.251	51.13753
202.798	18.04763
203.345	91.22769
203.892	47.12086
204.438	31.07514
204.985	5.01221
205.532	12.03223
206.078	43.10697
206.624	101.25571
207.17	88.20901
207.716	57.14226
208.262	72.14555
208.808	52.13299
209.354	68.17078
209.899	35.08978
210.445	45.1147
210.99	72.17836
211.535	71.17003
212.08	56.13239
212.625	16.04088
213.17	85.21895
213.715	91.21067
214.259	98.23124
214.804	40.09988
215.348	81.18998
215.892	63.15546
216.436	46.10702
216.98	65.14503
217.524	95.2295
218.068	53.1359
218.612	81.20828
219.155	93.22204
219.698	85.20433
220.242	21.05285
220.785	67.15966
221.328	65.16246
221.871	99.25376
222.414	52.13027
222.956	21.05121
223.499	16.03648
224.041	65.15018
224.583	38.08157
225.126	52.11576
225.668	31.07655
226.21	33.08486
226.751	79.1778
227.293	52.11917
227.835	16.03997
228.376	60.13794
228.918	41.10336
229.459	48.12125
230	54.13136
230.541	43.10034
231.082	39.09638
231.622	17.0392
232.163	34.08321
232.704	64.16178
233.244	34.08558
233.784	39.09574
234.324	92.20855
234.864	12.02768
235.404	42.10018
235.944	45.10731
236.484	79.19838
237.023	52.12398
237.563	68.15971
238.102	96.22784
238.641	40.10172
239.18	21.05023
239.719	50.12652
240.258	91.20548
240.797	60.14487
241.335	54.13264
241.874	93.18278
242.412	79.19344
242.95	73.17802
243.488	30.0685
244.026	102.23825
244.564	74.15405
245.102	57.13097
245.64	32.07752
246.177	36.08127
246.715	104.25044
247.252	16.03702
247.789	53.09999
248.326	44.10756
248.863	58.12944
249.4	95.21635
249.936	99.2089
250.473	81.19309
251.009	38.08838
251.546	63.14261
252.082	3.00664
252.618	89.20047
253.154	71.17243
253.69	69.15631
254.226	91.21909
254.761	68.15427
255.297	47.10422
255.832	46.11098
256.367	42.10014
256.903	97.21706
257.438	79.18652
257.972	96.21487
258.507	75.1735
259.042	75.16485
259.576	133.2943
260.111	25.05845
260.645	55.12054
261.179	76.17968
261.713	57.12944
262.247	69.15904
262.781	116.24525
263.315	50.12268
263.849	45.11414
264.382	75.17377
264.915	86.20505
265.449	14.03483
265.982	45.10381
266.515	93.22924
267.048	73.15661
267.58	65.14185
268.113	26.05743
268.646	20.04978
269.178	58.13131
269.71	110.24437
270.243	79.18485
270.775	75.19399
271.307	64.15359
271.838	47.11247
272.37	87.21429
272.902	72.16467
273.433	111.24716
273.965	66.16188
274.496	77.1921
275.027	96.24007
275.558	67.16527
276.089	54.1366
276.62	31.07927
277.15	60.14901
277.681	39.08544
278.211	57.1405
278.741	104.23229
279.272	77.17805
279.802	79.1978
280.332	65.15531
280.861	46.11148
281.391	63.14504
281.921	62.14975
282.45	93.23151
282.98	80.20975
283.509	117.2671
284.038	65.15072
284.567	38.09008
285.096	76.18613
285.625	41.09383
286.153	131.31312
286.682	75.17432
287.21	5.01217
287.739	53.12697
288.267	60.14798
288.795	94.24637
289.323	65.15465
289.851	118.27843
290.378	37.08403
290.906	38.09458
291.433	89.22324
291.961	98.22566
292.488	71.17771
293.015	100.2377
293.542	81.21002
294.069	116.28829
294.596	90.22123
295.122	91.22009
295.649	59.1311
296.175	60.14618
296.702	111.2726
297.228	68.16548
297.754	20.04607
298.28	116.26828
298.806	51.12479
299.332	85.19256
299.857	101.23141
300.383	73.18528
300.908	100.24753
301.433	103.25407
301.958	74.17176
302.483	35.0882
303.008	103.25771
303.533	70.18222
304.058	48.11374
304.582	75.17941
305.107	47.12396
305.631	73.16773
306.155	68.1607
306.679	83.19748
307.203	108.25246
307.727	49.11815
308.251	81.20186
308.775	117.28616
309.298	43.1056
309.822	48.12237
310.345	126.30226
310.868	114.27649
311.391	128.3158
311.914	69.17501
312.437	87.20133
312.96	85.20263
313.482	45.10773
314.005	31.07879
314.527	27.0714
315.049	114.28981
315.571	87.19861
316.093	98.24462
316.615	66.16062
317.137	75.16631
317.659	70.17188
318.18	48.11642
318.702	118.27843
319.223	55.11478
319.744	90.20542
320.265	92.22656
320.786	114.28662
321.307	72.18018
321.828	110.25056
322.348	89.21208
322.869	105.2526
323.389	57.11504
323.909	89.20604
324.43	86.20795
324.95	111.25657
325.47	107.26752
325.989	112.26806
326.509	119.26925
327.029	160.36592
327.548	94.21602
328.067	111.27179
328.587	138.34708
329.106	65.14935
329.625	128.33388
330.144	151.35221
330.662	128.30285
331.181	148.35043
331.7	73.17262
332.218	113.24848
332.736	112.26499
333.255	140.33149
333.773	92.2202
334.291	132.33176
334.808	140.31786
335.326	89.20334
335.844	119.28291
336.361	160.41191
336.879	147.34786
337.396	132.32375
337.913	109.25525
338.43	145.32928
338.947	150.35983
339.464	157.34088
339.981	104.24977
340.497	127.31431
341.014	110.27099
341.53	141.32059
342.046	239.58951
342.562	141.35278
343.078	173.40749
343.594	140.33495
344.11	188.44926
344.626	166.419
345.141	180.41216
345.657	168.38159
346.172	172.41527
346.687	157.36202
347.202	222.50382
347.717	162.38743
348.232	185.45935
348.747	189.43633
349.261	139.30899
349.776	215.50798
350.29	201.50071
350.805	163.40325
351.319	187.43429
351.833	200.45961
352.347	210.49338
352.861	201.4703
353.374	173.39446
353.888	219.53143
354.401	158.36179
354.915	240.53759
355.428	230.56721
355.941	187.43532
356.454	153.34308
356.967	171.39964
357.48	158.36033
357.993	206.50335
358.505	187.45344
359.018	193.47133
359.53	217.52598
360.042	212.47331
360.554	222.53901
361.066	154.37602
361.578	276.60038
362.09	188.44669
362.602	198.44169
363.113	262.60784
363.625	245.55071
364.136	250.54313
364.647	214.50474
365.158	204.4733
365.669	261.61354
366.18	268.62028
366.691	249.5397
367.201	235.55716
367.712	255.57671
368.222	257.58431
368.733	222.48087
369.243	256.56587
369.753	283.64003
370.263	263.62522
370.773	178.43267
371.282	242.57143
371.792	255.58352
372.301	207.49684
372.811	293.75016
373.32	313.66247
373.829	256.59463
374.338	290.63217
374.847	271.61539
375.356	286.66036
375.865	343.71452
376.373	327.72354
376.882	351.85835
377.39	343.80092
377.898	316.75509
378.407	341.75105
378.915	389.8179
379.423	341.76804
379.93	439.96888
380.438	370.85495
380.946	441.97329
381.453	461.04297
381.96	514.14491
382.468	503.10533
382.975	520.18694
383.482	542.12342
383.989	564.33956
384.495	629.33511
385.002	583.12047
385.509	650.4046
386.015	694.26351
386.521	711.44048
387.028	741.48698
387.534	722.36383
388.04	811.70466
388.546	799.53202
389.051	868.63055
389.557	899.76881
390.063	982.84059
390.568	990.98501
391.073	1007.83804
391.578	1124.22044
392.084	1122.04252
392.589	1173.98639
393.093	1348.45798
393.598	1393.39007
394.103	1510.62283
394.607	1598.7549
395.112	1796.02183
395.616	1895.05856
396.12	2020.90363
396.624	2281.18135
397.128	2434.36047
397.632	2807.34013
398.136	2939.23579
398.639	3085.36109
399.143	3500.64699
399.646	3987.18561
400.15	4523.79682
400.653	4989.41413
401.156	5493.07224
401.659	6533.16437
402.162	8112.32624
402.664	10760.56739
403.167	16002.89173
403.67	33284.32326
404.172	60197.34401
404.674	63858.43483
405.176	63738.15102
405.678	63977.72923
406.18	64011.81569
406.682	63863.44694
407.184	63926.60148
407.686	63841.39382
408.187	43120.78815
408.688	25954.81559
409.19	17865.95665
409.691	14428.71231
410.192	12213.99735
410.693	10463.40691
411.194	9429.31879
411.694	8902.36912
412.195	8172.68486
412.696	7259.92808
413.196	6834.32011
413.696	6584.02833
414.196	6598.55628
414.696	6443.27784
415.196	5933.06309
415.696	5410.0721
416.196	4484.85929
416.695	3447.31436
417.195	3061.47897
417.694	2927.73198
418.194	2722.79189
418.693	2590.14833
419.192	2398.24099
419.691	2435.18326
420.19	2308.29322
420.688	2253.35931
421.187	2137.5188
421.685	2036.98254
422.184	1840.90297
422.682	1605.42432
423.18	1388.38081
423.678	1261.21646
424.176	1190.1243
424.674	1133.99079
425.172	1069.03154
425.669	944.93877
426.167	976.86974
426.664	872.66941
427.161	795.57274
427.659	768.62234
428.156	726.34396
428.652	665.4985
429.149	596.30864
429.646	600.20338
430.143	568.23819
430.639	548.18544
431.135	480.11352
431.632	479.01319
432.128	470.04804
432.624	445.07336
433.12	402.86439
433.616	448.91559
434.111	384.86292
434.607	362.82349
435.103	350.69714
435.598	380.74668
436.093	394.86503
436.588	354.75726
437.083	331.70822
437.578	329.72797
438.073	273.66045
438.568	330.77616
439.062	327.66785
439.557	231.52563
440.051	244.53236
440.546	254.55887
441.04	220.51506
441.534	218.53485
442.028	225.52769
442.522	243.56566
443.015	161.34077
443.509	232.54803
444.002	203.48501
444.496	190.40399
444.989	224.52832
445.482	152.37072
445.975	228.5124
446.468	204.43168
446.961	217.45929
447.454	123.27388
447.947	208.4841
448.439	230.54752
448.931	200.44855
449.424	224.55363
449.916	228.53984
450.408	190.42508
450.9	192.45549
451.392	154.3844
451.884	196.43976
452.375	117.28669
452.867	168.37074
453.358	186.41681
453.849	196.4093
454.341	197.4341
454.832	186.39308
455.323	228.55046
455.814	151.33999
456.304	161.36591
456.795	142.31979
457.285	115.25118
457.776	167.37324
458.266	182.42209
458.756	52.12308
459.247	146.34356
459.737	201.47343
460.226	208.46112
460.716	139.32728
461.206	110.26056
461.695	114.27846
462.185	172.39953
462.674	121.27356
463.163	169.37146
463.653	186.3867
464.142	159.37771
464.63	147.34975
465.119	179.40649
465.608	191.43603
466.096	98.21137
466.585	124.2796
467.073	107.24978
467.561	109.25854
468.05	93.21257
468.538	130.31257
469.026	100.23486
469.513	127.26457
470.001	135.30533
470.489	112.26314
470.976	189.43007
471.463	137.33507
471.951	82.20216
472.438	116.26892
472.925	141.32617
473.412	61.14748
473.899	119.26936
474.385	131.31539
474.872	98.22638
475.359	115.27897
475.845	113.23163
476.331	93.19667
476.817	115.27603
477.303	126.28851
477.789	99.23328
478.275	62.15319
478.761	68.1607
479.247	96.2123
479.732	57.14174
480.218	107.27676
480.703	96.23397
481.188	71.15337
481.673	107.24329
482.158	96.20599
482.643	104.26242
483.128	108.24909
483.612	98.23133
484.097	76.18204
484.581	75.17267
485.066	136.32737
485.55	83.18267
486.034	111.23802
486.518	125.29489
487.002	25.06094
487.486	67.1618
487.969	45.10924
488.453	35.0871
488.936	51.11488
489.42	63.13918
489.903	47.1167
490.386	24.05003
490.869	120.2596
491.352	41.09864
491.835	48.0985
492.318	63.14127
492.8	77.15898
493.283	94.23744
493.765	38.0932
494.247	55.12784
494.73	65.14359
495.212	27.06419
495.694	86.20127
496.175	74.17691
496.657	64.15101
497.139	64.11
497.62	82.19589
498.102	59.14639
498.583	5.01235
499.064	63.14022
499.545	99.22345
500.026	113.25266
500.507	68.15596
500.988	131.32207
501.469	53.1317
501.949	125.30379
502.43	103.24563
502.91	140.2921
503.39	96.23545
503.87	139.32294
504.35	143.32816
504.83	63.13754
505.31	91.21735
505.79	28.0664
506.269	141.3176
506.749	103.23286
507.228	153.35294
507.707	193.4185
508.187	201.46624
508.666	206.49528
509.145	185.42114
509.623	211.47838
510.102	227.5303
510.581	279.64356
511.059	266.64267
511.538	254.63007
512.016	301.68655
512.494	319.72672
512.972	308.70096
513.45	357.78266
513.928	394.89554
514.406	456.03101
514.884	466.10991
515.361	467.02608
515.839	534.11027
516.316	573.25306
516.793	578.3158
517.27	558.20916
517.747	585.35505
518.224	621.26593
518.701	580.13961
519.178	648.44142
519.654	649.35606
520.131	622.37495
520.607	561.23608
521.083	599.20441
521.56	587.23663
522.036	589.13583
522.512	569.26734
522.987	559.21468
523.463	534.14526
523.939	574.28508
524.414	488.01716
524.89	448.9877
525.365	440.91595
525.84	408.91421
526.315	455.01599
526.79	390.81982
527.265	458.97377
527.74	332.76289
528.215	305.676
528.689	290.60452
529.164	304.61736
529.638	273.66368
530.112	206.46998
530.587	280.57096
531.061	237.55366
531.534	258.59738
532.008	261.60995
532.482	233.51665
532.956	168.41934
533.429	241.56918
533.903	190.40487
534.376	208.44554
534.849	125.28341
535.322	191.43866
535.795	132.31388
536.268	134.31949
536.741	173.40114
537.213	150.33836
537.686	184.4392
538.158	151.3372
538.631	153.3636
539.103	107.23944
539.575	94.1922
540.047	113.24367
540.519	154.36097
540.991	108.26066
541.463	82.19619
541.934	61.1378
542.406	125.29649
542.877	116.25888
543.348	95.22777
543.82	98.23635
544.291	86.19977
544.762	112.26397
545.233	162.40276
545.703	110.24255
546.174	64.14837
546.645	113.27071
547.115	113.2701
547.585	111.25289
548.056	102.24906
548.526	127.29798
548.996	102.24199
549.466	123.29546
549.935	105.24905
550.405	133.28852
550.875	120.28205
551.344	100.23678
551.814	134.30313
552.283	133.2868
552.752	154.35518
553.221	160.34732
553.69	189.41752
554.159	156.38204
554.628	160.35678
555.096	170.42434
555.565	113.24796
556.033	184.42943
556.502	176.41592
556.97	196.42546
557.438	140.32417
557.906	185.42675
558.374	180.40868
558.842	176.41302
559.31	209.45513
559.777	238.5633
560.245	169.38004
560.712	207.4611
561.18	239.51117
561.647	190.41121
562.114	211.4702
562.581	271.64126
563.048	268.58967
563.514	326.77927
563.981	276.60625
564.448	314.6749
564.914	265.59151
565.381	316.6868
565.847	329.72675
566.313	296.65564
566.779	323.68961
567.245	284.62933
567.711	361.81507
568.176	301.64376
568.642	332.79483
569.108	373.86376
569.573	327.7175
570.038	363.71109
570.504	426.89312
570.969	367.85761
571.434	398.82447
571.899	379.84383
572.363	463.97819
572.828	439.9348
573.293	412.87941
573.757	428.92306
574.222	421.87621
574.686	495.04024
575.15	480.06243
575.614	577.22619
576.078	429.93572
576.542	417.8841
577.006	458.95384
577.469	453.03066
577.933	505.0487
578.396	447.98158
578.86	448.97612
579.323	460.02358
579.786	432.86688
580.249	480.039
580.712	436.98536
581.175	458.04352
581.637	397.84611
582.1	412.834
582.563	409.80651
583.025	421.95554
583.487	434.82345
583.95	337.68203
584.412	403.78684
584.874	446.00754
585.336	376.83871
585.797	434.87291
586.259	340.75309
586.721	353.78204
587.182	380.82166
587.643	353.75659
588.105	319.71673
588.566	327.64481
589.027	308.7202
589.488	323.70425
589.949	344.79141
590.41	327.61179
590.87	309.67402
591.331	316.65637
591.791	278.61757
592.252	275.6151
592.712	252.58233
593.172	290.6311
593.632	291.6186
594.092	237.51062
594.552	307.63299
595.011	274.60211
595.471	297.64317
595.931	260.5651
596.39	223.51952
596.849	210.47563
597.308	193.40098
597.768	206.51772
598.227	208.4862
598.685	186.41424
599.144	187.43085
599.603	189.43146
600.062	197.40473
600.52	228.49914
600.978	176.40704
601.437	195.43239
601.895	210.43757
602.353	137.29707
602.811	240.52319
603.269	172.40064
603.727	153.36108
604.184	219.48439
604.642	151.36492
605.099	196.44645
605.557	178.42325
606.014	154.32631
606.471	146.36047
606.928	214.46216
607.385	167.41011
607.842	150.33849
608.299	167.38262
608.755	130.31079
609.212	208.45112
609.668	200.43951
610.125	164.38742
610.581	157.3613
611.037	156.34325
611.493	132.30383
611.949	185.44015
612.405	199.39444
612.861	147.33233
613.316	164.38501
613.772	144.32456
614.227	211.49254
614.683	108.22704
615.138	112.25996
615.593	130.29755
616.048	130.29336
616.503	121.28999
616.958	142.34969
617.412	142.33167
617.867	126.27841
618.321	139.28235
618.776	143.30969
619.23	89.20711
619.684	158.34531
620.138	123.27762
620.592	96.23082
621.046	145.33662
621.5	95.22664
621.954	109.23838
622.407	100.21911
622.861	105.25212
623.314	125.27879
623.768	115.26824
624.221	127.24619
624.674	98.22431
625.127	82.18942
625.58	76.16975
626.033	127.27327
626.485	90.21343
626.938	115.27025
627.39	121.2789
627.843	122.27711
628.295	116.2638
628.747	131.30724
629.199	80.18098
629.651	89.20236
630.103	107.2425
630.555	118.245
631.006	63.14591
631.458	107.2486
631.909	71.15816
632.361	65.14929
632.812	84.19289
633.263	129.27519
633.714	95.19905
634.165	114.26931
634.616	90.21063
635.067	83.18129
635.518	82.19274
635.968	59.11563
636.419	148.31634
636.869	95.22246
637.319	105.24057
637.769	104.23095
638.219	82.19176
638.669	70.1653
639.119	67.15929
639.569	90.2136
640.019	102.23272
640.468	124.2733
640.918	66.15555
641.367	85.18856
641.816	90.19803
642.265	102.23506
642.714	111.25085
643.163	98.22395
643.612	102.24692
644.061	114.24029
644.51	130.29276
644.958	145.31348
645.406	115.27067
645.855	120.28655
646.303	104.23718
646.751	131.29773
647.199	135.3001
647.647	107.24516
648.095	113.2538
648.543	132.26255
648.99	124.29293
649.438	87.19917
649.885	128.31359
650.333	161.30434
650.78	96.22933
651.227	114.27483
651.674	102.2299
652.121	176.42043
652.568	126.30341
653.015	66.16218
653.461	96.22555
653.908	122.27531
654.354	98.23043
654.801	101.23382
655.247	117.24916
655.693	107.27427
656.139	108.25394
656.585	106.24953
657.031	102.23666
657.477	146.31206
657.922	109.24401
658.368	75.18269
658.813	122.27238
659.259	99.23699
659.704	184.42369
660.149	89.20293
660.594	110.25713
661.039	88.19842
661.484	133.30876
661.929	135.30906
662.373	76.18895
662.818	99.24151
663.262	109.25964
663.707	121.30253
664.151	121.28977
664.595	113.26896
665.039	140.34006
665.483	109.27302
665.927	81.18812
666.371	134.30905
666.814	131.30496
667.258	171.40105
667.701	164.3399
668.145	179.43274
668.588	156.37721
669.031	119.27495
669.474	115.27119
669.917	168.35753
670.36	95.23399
670.803	139.32868
671.245	66.13403
671.688	91.21859
672.13	134.29683
672.573	98.24391
673.015	170.39863
673.457	145.30798
673.899	92.21961
674.341	162.37987
674.783	122.28686
675.225	150.36038
675.666	127.30483
676.108	89.18994
676.549	84.19327
676.991	87.18857
677.432	146.28214
677.873	86.19383
678.314	124.28918
678.755	154.37027
679.196	116.26017
679.637	108.25394
680.078	126.28817
680.518	136.3049
680.959	124.28906
681.399	144.3478
681.839	129.30633
682.28	121.29484
682.72	82.18512
683.16	126.30789
683.6	139.30848
684.039	66.13495
684.479	118.28576
684.919	130.29923
685.358	77.18924
685.798	79.203
686.237	102.239
686.676	83.18512
687.115	144.33066
687.554	110.25834
687.993	148.31839
688.432	132.29398
688.871	117.26279
689.309	127.29786
689.748	103.21018
690.186	74.17081
690.625	121.27812
691.063	116.27095
691.501	139.33528
691.939	104.25725
692.377	113.26834
692.815	177.41918
693.253	90.21063
693.69	133.2836
694.128	95.22673
694.565	134.30942
695.003	166.4118
695.44	126.29153
695.877	134.30745
696.314	61.12691
696.751	129.28486
697.188	143.3225
697.625	124.27043
698.061	123.28758
698.498	97.22483
698.934	91.2136
699.371	96.22176
699.807	131.30123
700.243	159.37189
700.679	85.18613
701.115	157.35465
701.551	81.18499
701.987	91.1948
702.422	125.29111
702.858	150.34733
703.294	201.44235
703.729	121.28711
704.164	123.28622
704.599	127.27621
705.035	125.27314
705.47	123.29118
705.904	107.2422
706.339	151.33567
706.774	162.36677
707.209	121.27467
707.643	115.26856
708.078	125.29615
708.512	67.16558
708.946	108.24978
709.38	159.36546
709.814	120.26437
710.248	123.29332
710.682	154.35843
711.116	151.35678
711.549	75.1882
711.983	128.28743
712.416	152.34945
712.85	98.23742
713.283	102.23534
713.716	104.25176
714.149	95.21504
714.582	100.21957
715.015	94.2255
715.448	125.30664
715.881	107.2236
716.313	105.23932
716.746	141.32357
717.178	111.26034
717.61	141.34819
718.043	91.21984
718.475	120.28348
718.907	136.32935
719.339	71.15816
719.77	141.32746
720.202	93.22772
720.634	103.24704
721.065	101.23215
721.497	133.31595
721.928	83.19862
722.359	88.2099
722.79	106.24749
723.221	54.1319
723.652	107.26501
724.083	79.17386
724.514	137.30455
724.945	66.15167
725.375	75.17198
725.806	53.12847
726.236	83.2076
726.666	121.27679
727.096	92.21969
727.526	124.31087
727.956	124.27502
728.386	86.20599
728.816	107.26723
729.246	99.23862
729.675	31.07464
730.105	135.31934
730.534	100.22677
730.964	65.15892
731.393	79.18912
731.822	124.30773
732.251	92.22798
732.68	81.1829
733.109	87.2097
733.537	105.2503
733.966	101.24602
734.395	87.19629
734.823	44.09555
735.251	52.1227
735.68	104.2492
736.108	54.13244
736.536	69.15797
736.964	91.20531
737.392	92.22405
737.82	77.17939
738.247	76.17675
738.675	52.11974
739.102	34.08355
739.53	87.21886
739.957	96.24258
740.384	73.17155
740.811	55.13407
741.238	82.19664
741.665	136.30916
742.092	9.02043
742.519	75.18228
742.945	101.2392
743.372	77.18721
743.798	82.20491
744.225	67.15487
744.651	66.16152
745.077	90.21861
745.503	17.04048
745.929	117.27505
746.355	56.13332
746.781	78.18683
747.207	80.18569
747.632	92.22305
748.058	103.25286
748.483	103.22963
748.908	86.20905
749.334	75.18084
749.759	89.20686
750.184	111.25993
750.609	67.16039
751.033	72.16367
751.458	69.14988
751.883	51.12293
752.307	97.2218
752.732	119.2957
753.156	40.09672
753.58	88.2015
754.005	70.17143
754.429	105.24193
754.853	87.21136
755.277	92.21269
755.7	102.2459
756.124	37.0905
756.548	37.08583
756.971	70.16677
757.394	2.00505
757.818	71.17918
758.241	62.15437
758.664	37.09187
759.087	65.14341
759.51	36.08715
759.933	71.16795
760.356	90.22661
760.778	28.06773
761.201	94.22025
761.623	43.1001
762.046	53.12085
762.468	71.16548
762.89	67.15929
763.312	124.2935
763.734	61.14385
764.156	60.14492
764.578	37.08252
765	62.1476
765.421	35.08795
765.843	90.2292
766.264	76.17473
766.686	39.09475
767.107	79.1863
767.528	89.223
767.949	32.07973
768.37	47.11436
768.791	62.14476
769.212	34.08432
769.632	17.03928
770.053	-10.02584
770.473	40.09431
770.894	19.04587
771.314	37.08529
771.734	75.16977
772.154	20.05014
772.575	71.15875
772.994	21.04662
773.414	54.12499
773.834	26.06351
774.254	38.09071
774.673	70.16703
775.093	60.14601
775.512	37.08962
775.931	45.11178
776.351	57.139
776.77	32.07717
777.189	69.15943
777.607	-8.02018
778.026	53.12896
778.445	37.09221
778.864	31.07686
779.282	28.06525
779.701	38.09324
780.119	36.08947
780.537	54.13097
780.955	48.11829
781.373	48.11563
781.791	79.17416
782.209	19.04187
782.627	0
783.045	13.02893
783.462	34.08499
783.88	36.09139
784.297	34.08373
784.715	32.08095
785.132	14.03301
785.549	15.03676
785.966	76.18557
786.383	116.27636
786.8	43.09714
787.217	38.08886
787.633	75.18371
788.05	70.15719
788.466	37.08372
788.883	62.15544
789.299	-1.00233
789.715	60.14235
790.131	38.09223
790.547	35.0851
790.963	34.08218
791.379	38.09386
791.795	40.08761
792.21	36.08131
792.626	20.04591
793.041	4.00966
793.457	12.02882
793.872	14.03185
794.287	69.16228
794.702	-5.01188
795.117	47.11427
795.532	26.06427
795.947	15.0347
796.362	35.07939
796.776	63.13941
797.191	85.20123
797.605	33.07652
798.02	36.08511
798.434	76.16266
798.848	61.14786
799.262	9.02187
799.676	74.17427
800.09	41.09796
800.504	25.05877
800.918	25.05574
801.331	-16.04024
801.745	70.15383
802.158	-3.00728
802.572	93.21667
802.985	38.0882
803.398	74.16938
803.811	24.05882
804.224	10.02396
804.637	60.13882
805.05	-1.00224
805.462	31.07356
805.875	29.07363
806.288	29.06857
806.7	8.01942
807.112	21.04684
807.525	15.03546
807.937	21.05075
808.349	4.00972
808.761	50.11967
809.173	67.15745
809.584	50.11885
809.996	-13.03114
810.408	25.06372
810.819	30.06861
811.231	71.18435
811.642	77.18496
812.053	44.10431
812.464	7.01616
812.875	42.10488
813.286	32.081
813.697	35.077
814.108	82.19138
814.519	78.16824
814.929	57.14014
815.34	-1.00234
815.75	53.13175
816.16	61.14469
816.571	66.16511
816.981	54.12126
817.391	38.08789
817.801	25.06067
818.211	49.1124
818.62	87.20213
819.03	20.04749
819.44	34.08469
819.849	-2.00487
820.259	19.04678
820.668	33.07912
821.077	52.12621
821.486	30.069
821.895	27.06367
822.304	7.01808
822.713	38.08642
823.122	40.09643
823.531	-7.01592
823.939	62.1463
824.348	61.14178
824.756	56.13454
825.164	97.23247
825.573	14.03422
825.981	52.12365
826.389	40.09705
826.797	60.14781
827.205	89.19678
827.612	64.15107
828.02	13.02945
828.428	0
828.835	34.08766
829.243	22.05038
829.65	31.0754
830.057	7.01642
830.464	85.20123
830.871	72.16619
831.278	74.17176
831.685	32.06846
832.092	46.10749
832.499	72.15129
832.905	10.02445
833.312	-35.07645
833.718	56.13562
834.124	69.15141
834.531	31.07489
834.937	73.18106
835.343	21.04862
835.749	46.10168
836.155	27.06872
836.561	30.07156
836.966	19.04484
837.372	34.08336
837.777	58.13983
838.183	27.05747
838.588	15.03644
838.993	45.10575
839.399	15.03579
839.804	-3.00714
840.209	55.13697
840.613	39.0832
841.018	43.10462
841.423	63.15598
841.828	13.03215
842.232	11.02596
842.637	74.16917
843.041	29.07253
843.445	25.06028
843.849	39.09375
844.253	3.0069
844.657	10.02467
845.061	90.1982
845.465	49.11407
845.869	38.08502
846.272	43.10164
846.676	9.02071
847.079	68.16795
847.483	95.22577
847.886	120.27422
848.289	72.18807
848.692	26.06334
849.095	11.02549
849.498	54.12979
849.901	42.09168
850.304	38.0874
850.707	18.04438
851.109	66.15959
851.512	58.13755
851.914	-4.00991
852.316	66.1626
852.718	109.27675
853.121	36.08528
853.523	-4.00901
853.925	22.05642
854.326	30.07317
854.728	51.12719
855.13	45.11353
855.531	22.051
855.933	11.0253
856.334	81.19538
856.736	55.11926
857.137	99.22108
857.538	38.09313
857.939	43.10415
858.34	47.10898
858.741	28.07075
859.142	3.00695
859.542	56.14392
859.943	39.09351
860.343	47.11311
860.744	40.09405
861.144	71.16769
861.544	51.11976
861.945	31.07638
862.345	69.16088
862.745	56.13506
863.145	17.03848
863.544	34.08342
863.944	56.12684
864.344	38.0898
864.743	73.17329
865.143	46.11528
865.542	3.00664
865.941	44.10547
866.34	40.09093
866.74	58.15072
867.139	71.16529
867.537	6.01469
867.936	64.14843
868.335	47.11508
868.734	7.01744
869.132	-12.02671
869.531	20.04615
869.929	55.12074
870.327	56.12885
870.726	50.11867
871.124	14.03134
871.522	44.1078
871.92	65.15388
872.318	7.01646
872.715	57.13337
873.113	14.03283
873.511	38.09102
873.908	27.06721
874.306	80.19235
874.703	33.07891
875.1	9.02202
875.497	72.16434
875.894	47.11316
876.291	56.13239
876.688	46.11478
877.085	36.08253
877.482	29.07014
877.878	59.13832
878.275	30.07399
878.671	33.0681
879.068	96.22044
879.464	66.15271
879.86	38.08645
880.256	18.04224
880.652	28.0689
881.048	33.078
881.444	20.04523
881.84	51.12469
882.236	59.14243
882.631	64.1516
883.027	61.14089
883.422	24.05904
883.817	25.06135
884.213	45.11153
884.608	92.22053
885.003	36.08283
885.398	22.05338
885.793	20.04838
886.188	-10.02415
886.582	28.0688
886.977	58.13083
887.371	57.1376
887.766	34.08222
888.16	-26.06218
888.554	51.12027
888.949	0
889.343	79.18326
889.737	-6.01578
890.131	37.08962
890.525	109.26788
890.918	50.12104
891.312	62.14037
891.706	37.09371
892.099	60.14629
892.492	118.23723
892.886	37.08698
893.279	39.09567
893.672	44.10892
894.065	83.19907
894.458	10.02413
894.851	29.06802
895.244	37.09124
895.637	60.13904
896.029	39.09251
896.422	5.01168
896.814	7.01681
897.206	77.17777
897.599	85.20045
897.991	29.06812
898.383	30.06845
898.775	98.21228
899.167	38.08659
899.559	-16.0391
899.951	83.18435
900.342	33.08023
900.734	51.12497
901.125	9.02279
901.517	38.09008
901.908	30.06814
902.299	66.15519
902.69	81.18402
903.082	49.11398
903.473	86.19977
903.863	7.01724
904.254	70.15713
904.645	68.15977
905.036	24.05736
905.426	96.20466
905.817	46.10774
906.207	-17.0389
906.597	45.10215
906.987	9.02245
907.378	63.15403
907.768	57.14596
908.158	19.04465
908.547	67.16903
908.937	34.08317
909.327	49.11398
909.717	0
910.106	18.04153
910.495	27.06429
910.885	65.15857
911.274	27.06508
911.663	47.11376
912.052	33.07749
912.441	64.15773
912.83	71.15396
913.219	30.0757
913.608	65.15323
913.997	43.10502
914.385	43.09868
914.774	72.16718
915.162	66.15234
915.55	14.03246
915.939	42.10313
916.327	38.0906
916.715	73.18153
917.103	21.04898
917.491	49.11605
917.878	46.10842
918.266	30.07494
918.654	101.2485
919.041	58.14802
919.429	48.10859
919.816	68.16511
920.203	79.18492
920.591	46.11001
920.978	48.11291
921.365	35.08928
921.752	-34.0777
922.139	64.13211
922.525	37.0859
922.912	50.11656
923.299	31.07449
923.685	-9.02266
924.072	1.00217
924.458	98.2325
924.844	3.00721
925.231	26.05762
925.617	65.16075
926.003	40.09829
926.389	30.07306
926.774	0
927.16	39.09308
927.546	67.16721
927.931	59.14027
928.317	73.1587
928.702	48.10823
929.088	110.25259
929.473	61.15053
929.858	108.25295
930.243	69.16019
930.628	66.15555
931.013	51.12172
931.398	9.01958
931.783	15.0379
932.167	53.12586
932.552	40.09621
932.937	74.17447
933.321	55.13392
933.705	11.02654
934.09	13.03111
934.474	36.08124
934.858	47.11794
935.242	21.04668
935.626	28.06974
936.009	57.14795
936.393	51.12687
936.777	45.1119
937.16	69.17414
937.544	-46.10393
937.927	14.03466
938.311	15.0351
938.694	51.13064
939.077	25.05767
939.46	6.01392
939.843	88.16818
940.226	19.04694
940.609	93.20519
940.991	-7.01722
941.374	78.18341
941.757	32.07574
942.139	72.15449
942.522	27.06094
942.904	97.22162
943.286	36.0879
943.668	47.11883
944.05	14.03339
944.432	21.04983
944.814	3.00708
945.196	-17.04068
945.578	33.07691
945.959	14.03127
946.341	11.02557
946.722	63.14022
947.104	69.15758
947.485	67.14875
947.866	60.14656
948.247	51.12516
948.628	-1.00231
949.009	-24.06002
949.39	16.03824
949.771	11.02403
950.152	46.10867
950.532	43.10494
950.913	61.14049
951.293	27.07152
951.674	31.0722
952.054	62.15043
952.434	71.16906
952.814	3.00681
953.194	-5.01256
953.574	62.14544
953.954	0
954.334	34.08256
954.714	23.05441
955.093	89.20833
955.473	43.10482
955.853	15.03769
956.232	52.13763
956.611	-20.04593
956.99	56.13587
957.37	32.07817
957.749	8.01811
958.128	37.09053
958.506	38.09547
958.885	51.12325
959.264	36.0862
959.643	92.19979
960.021	41.0986
960.4	26.05646
960.778	10.02343
961.156	11.02658
961.535	21.04655
961.913	85.19021
962.291	35.08798
962.669	19.04687
963.047	54.13342
963.424	39.09747
963.802	6.01433
964.18	-2.00483
964.557	31.06808
964.935	61.13785
965.312	41.10381
965.69	55.13081
966.067	0
966.444	19.04427
966.821	55.13667
967.198	40.09196
967.575	55.12859
967.952	45.1012
968.329	42.09891
968.705	104.2113
969.082	43.10802
969.458	51.11915
969.835	21.04929
970.211	40.10025
970.587	78.18605
970.963	0
971.339	8.02041
971.715	65.1559
972.091	27.06402
972.467	17.04032
972.843	38.09203
973.219	75.16963
973.594	-4.01019
973.97	5.01116
974.345	56.12895
974.721	52.11859
975.096	57.13332
975.471	22.04999
975.846	58.13217
976.221	25.06149
976.596	77.17932
976.971	86.20411
977.346	32.0708
977.72	11.027
978.095	37.09224
978.469	47.10691
978.844	25.06026
979.218	63.14689
979.593	64.14561
979.967	-3.00693
980.341	21.04674
980.715	78.18854
981.089	27.06515
981.463	20.04415
981.837	48.11414
982.21	-3.00654
982.584	55.12789
982.957	61.14714
983.331	5.01122
983.704	74.17617
984.078	22.05221
984.451	25.05889
984.824	28.0662
985.197	24.0552
985.57	-18.04316
985.943	15.03506
986.316	41.095
986.688	8.01859
987.061	72.16135
987.434	70.17776
987.806	10.02305
988.179	53.11899
988.551	84.20251
988.923	46.10804
989.295	53.1263
989.667	59.13713
990.039	79.18991
990.411	39.08443
990.783	7.01529
991.155	-3.00702
991.527	15.03489
991.898	82.19619
992.27	73.17455
992.641	61.14558
993.012	17.0374
993.384	37.0842
993.755	44.10876
994.126	74.17142
994.497	53.12479
994.868	46.0996
995.239	45.10422
995.61	27.06567
995.98	-13.03059
996.351	27.06501
996.722	106.23539
997.092	16.03674
997.462	28.06373
997.833	59.13214
998.203	24.05509
998.573	11.02662
998.943	49.1106
999.313	63.14521
999.683	13.03023
1000.053	10.02158
1000.423	11.02559
1000.792	-33.08257
1001.162	21.04947
1001.531	39.09265
1001.901	57.13541
1002.27	-16.03377
1002.639	33.08065
1003.009	42.09544
1003.378	19.04711
1003.747	5.01131
1004.116	13.02993
1004.485	41.09386
1004.853	-2.00484
1005.222	-47.11363
1005.591	60.1354
1005.959	56.12084
1006.328	39.08428
1006.696	10.02316
1007.064	-4.00966
1007.433	12.02873
1007.801	56.12905
1008.169	15.0362
1008.537	59.12389
1008.905	53.11889
1009.273	18.04252
1009.64	75.17294
1010.008	40.09115
1010.375	17.03898
1010.743	45.09579
1011.11	98.22449
1011.478	58.13861
1011.845	44.09832
1012.212	67.14603
1012.579	59.13892
1012.946	46.10338
1013.313	29.06559
1013.68	69.14611
1014.047	-3.00691
1014.414	33.07461
1014.78	43.10317
1015.147	44.10055
1015.513	41.09473
1015.88	-3.00738
1016.246	-14.03306
1016.612	29.06294
1016.978	102.2389
1017.344	34.08104
1017.71	51.11812
1018.076	14.03139
1018.442	43.10693
1018.808	23.05607
1019.174	15.03611
1019.539	-4.00846
1019.905	38.08642
1020.27	36.08521
1020.636	38.086
1021.001	61.13993
1021.366	51.11784
1021.731	87.21705
1022.096	35.08599
1022.461	60.1359
1022.826	48.11013
1023.191	56.14151
1023.556	18.04029
1023.92	33.07716
1024.285	33.07643
1024.649	22.05155
1025.014	-11.02608
1025.378	63.15283
1025.742	22.05215
1026.107	69.14739
1026.471	69.15192
1026.835	45.10707
1027.199	55.12693
1027.562	3.00664
1027.926	64.14837
1028.29	31.07571
1028.654	8.01761
1029.017	68.16014
1029.381	47.1079
1029.744	65.15904
1030.107	55.12414
1030.471	51.11751
1030.834	-2.0043
1031.197	103.23438
1031.56	15.03383
1031.923	11.02762
1032.286	77.1716
1032.648	47.10578
1033.011	101.22237
1033.374	55.12171
1033.736	9.02301
1034.099	22.05169
1034.461	24.05906
1034.823	55.13197
1035.185	41.09819
1035.548	40.09391
1035.91	42.0961
1036.272	66.14358
1036.634	47.11006
1036.995	43.09575
1037.357	17.04011
1037.719	36.08422
1038.08	80.18215
1038.442	46.10419
1038.803	-9.02053
1039.165	33.07975
1039.526	54.12489
1039.887	0
1040.248	35.08449
1040.609	23.05407
1040.97	34.07951
1041.331	51.12497
1041.692	81.18313
1042.053	64.13733
1042.413	25.05544
1042.774	78.18104
1043.134	67.14956
1043.495	30.0726
1043.855	86.20072
1044.215	61.14385
1044.576	17.03945
1044.936	77.16604
1045.296	61.14558
1045.656	7.01639
1046.016	32.07363
1046.375	42.09764
1046.735	87.19034
1047.095	90.19953
1047.454	71.13981
1047.814	63.14464
1048.173	79.17627
1048.533	38.08316
1048.892	8.01862
1049.251	26.06235
1049.61	51.12046
1049.969	30.06753
1050.328	88.17945
1050.687	38.08803
1051.046	32.07448
1051.405	29.06868
1051.763	38.0846
1052.122	1.00241
1052.48	43.10148
1052.839	77.17529
1053.197	17.0384
1053.555	36.07641
1053.914	29.06791
1054.272	-10.02283
1054.63	19.04489
1054.988	58.13292
1055.345	29.0585
1055.703	69.15854
1056.061	36.09042
1056.419	85.21413
1056.776	11.02522
1057.134	-8.01751
1057.491	55.13207
1057.848	66.15592
1058.206	-5.01115
1058.563	21.0441
1058.92	61.1329
1059.277	63.14845
1059.634	98.21427
1059.991	53.12163
1060.348	22.04786
1060.704	101.23364
1061.061	58.12542
1061.418	21.0491
1061.774	62.14635
1062.131	36.09352
1062.487	16.03569
1062.843	42.10045
1063.199	26.06232
1063.555	75.16665
1063.911	16.03875
1064.267	68.13103
1064.623	35.08267
1064.979	5.01095
1065.335	74.16638
1065.691	21.04755
1066.046	30.06268
1066.402	8.01732
1066.757	54.13082
1067.112	44.10294
1067.468	62.14168
1067.823	-39.08914
1068.178	40.09196
1068.533	54.12504
1068.888	24.05471
1069.243	22.05231
1069.598	22.05102
1069.952	75.16395
1070.307	34.08141
1070.662	107.24348
1071.016	60.1298
1071.371	73.15836
1071.725	-14.03206
1072.079	32.07404
1072.434	40.09361
1072.788	-22.04999
1073.142	68.15983
1073.496	50.11293
1073.85	55.1211
1074.203	65.1506
1074.557	66.17104
1074.911	99.22145
1075.265	30.06668
1075.618	73.17001
1075.971	35.07961
1076.325	66.16206
1076.678	-6.01324
1077.031	-38.08143
1077.385	63.13066
1077.738	-9.01951
1078.091	62.13539
1078.444	-2.00441
1078.796	57.13473
1079.149	61.14547
1079.502	22.05034
1079.855	36.08044
1080.207	25.059
1080.56	43.10782
1080.912	32.0746
1081.264	30.06969
1081.617	48.11251
1081.969	24.05882
1082.321	48.11172
1082.673	33.07333
1083.025	20.04524
1083.377	52.11644
1083.728	38.08418
1084.08	14.03348
1084.432	-2.00464
1084.783	6.01322
1085.135	63.15191
1085.486	-3.00666
1085.838	51.12078
1086.189	50.11729
1086.54	40.09093
1086.891	56.13872
1087.242	110.25834
1087.593	34.07804
1087.944	88.19005
1088.295	63.13539
1088.646	70.16517
1088.996	15.03506
1089.347	29.06791
1089.698	5.01154
1090.048	34.08459
1090.398	17.03752
1090.749	19.04324
1091.099	38.09324
1091.449	49.11761
1091.799	-12.02914
1092.149	8.01915
1092.499	33.07734
1092.849	0
1093.199	27.06451
1093.548	73.16907
1093.898	-8.01932
1094.248	-8.01974
1094.597	35.08738
1094.947	55.14177
1095.296	84.19874
1095.645	42.10473
1095.994	44.10112
1096.343	59.14286
1096.692	52.13401
1097.041	38.10135
1097.39	19.04568
1097.739	18.04524
1098.088	27.0695
1098.437	41.10568
1098.785	-24.06269
1099.134	-23.05856
1099.482	37.09906
1099.83	64.16172
1100.179	63.16126
1100.527	1.00255
1100.875	45.11583
1101.223	57.14698
1101.571	-9.02421
1101.919	59.15203
1102.267	0
1102.615	7.02247
1102.962	-6.01926
1103.31	6.01926
1103.658	-5.01604
