Data from N1 R0 sample 3_Subt2__0__12-27-19-733.txt Node

Date: Tue Sep 16 12:27:19 PDT 2025
User: uwsun
Spectrometer: HDX01956
Trigger mode: 0
Integration Time (sec): 5.000000E-1
Scans to average: 1
Nonlinearity correction enabled: true
Boxcar width: 0
Storing dark spectrum: false
XAxis mode: Wavelengths
Number of Pixels in Spectrum: 2068
>>>>>Begin Spectral Data<<<<<
194.03	-20.05823
194.578	4.013
195.127	-3.00962
195.676	5.01608
196.225	13.03464
196.773	38.10558
197.321	29.08083
197.87	46.11958
198.418	108.27978
198.966	99.26259
199.513	124.31634
200.061	47.12144
200.609	99.26286
201.156	94.20814
201.704	69.17594
202.251	87.23323
202.798	51.13419
203.345	111.27672
203.892	90.22969
204.438	57.13749
204.985	88.21151
205.532	92.24382
206.078	67.16594
206.624	118.29785
207.17	159.37247
207.716	88.21839
208.262	85.17132
208.808	105.26603
209.354	159.39278
209.899	43.11015
210.445	123.30919
210.99	95.23434
211.535	113.26844
212.08	79.18594
212.625	127.3181
213.17	128.32723
213.715	133.30534
214.259	114.26816
214.804	70.17385
215.348	193.44272
215.892	125.30493
216.436	81.18715
216.98	93.20631
217.524	124.29792
218.068	122.30904
218.612	141.35876
219.155	119.2827
219.698	125.29821
220.242	90.22368
220.785	143.33578
221.328	103.25566
221.871	144.3662
222.414	123.30419
222.956	61.14764
223.499	77.17337
224.041	113.25859
224.583	57.12186
225.126	97.21393
225.668	112.27245
226.21	98.24913
226.751	90.2021
227.293	88.20021
227.835	99.24358
228.376	129.29247
228.918	91.22736
229.459	106.26498
230	94.22696
230.541	101.23299
231.082	112.27307
231.622	64.1462
232.163	88.21319
232.704	138.34422
233.244	118.29252
233.784	70.17086
234.324	162.36199
234.864	113.25537
235.404	96.22661
235.944	92.21742
236.484	134.33315
237.023	87.20604
237.563	106.2471
238.102	121.28579
238.641	84.21195
239.18	102.24021
239.719	81.20384
240.258	92.2077
240.797	102.24432
241.335	101.24593
241.874	117.22865
242.412	158.38118
242.95	94.22833
243.488	90.20302
244.026	103.24054
244.564	113.2332
245.102	183.40984
245.64	87.20859
246.177	66.14809
246.715	129.30916
247.252	82.18724
247.789	228.41168
248.326	91.2205
248.863	87.193
249.4	116.26305
249.936	166.34512
250.473	169.39605
251.009	74.17088
251.546	107.24003
252.082	77.16768
252.618	132.29471
253.154	106.25573
253.69	93.20965
254.226	68.16443
254.761	155.34542
255.297	110.24072
255.832	133.31559
256.367	105.24732
256.903	143.31696
257.438	115.26961
257.972	92.20609
258.507	99.22792
259.042	134.29088
259.576	168.36903
260.111	83.19185
260.645	93.20218
261.179	131.3064
261.713	143.31907
262.247	102.23356
262.781	139.2924
263.315	100.24308
263.849	132.32961
264.382	121.27779
264.915	144.33951
265.449	101.2473
265.982	112.25491
266.515	157.38242
267.048	127.26928
267.58	141.30275
268.113	82.17899
268.646	97.23804
269.178	105.23545
269.71	135.29835
270.243	157.36173
270.775	132.33805
271.307	110.26167
271.838	130.30615
272.37	105.25777
272.902	131.29604
273.433	155.34198
273.965	120.29137
274.496	106.26306
275.027	121.30121
275.558	136.33121
276.089	132.32925
276.62	84.21279
277.15	84.2077
277.681	128.27513
278.211	108.26371
278.741	120.26714
279.272	116.26615
279.802	72.18051
280.332	153.3594
280.861	111.26572
281.391	130.29528
281.921	109.26093
282.45	118.29241
282.98	143.3709
283.509	106.24252
284.038	122.27969
284.567	136.31629
285.096	145.35055
285.625	69.15701
286.153	110.26398
286.682	153.35013
287.21	85.20371
287.739	126.29765
288.267	109.2664
288.795	116.30289
289.323	129.30314
289.851	185.43083
290.378	83.18673
290.906	137.33483
291.433	121.30176
291.961	107.24594
292.488	137.33881
293.015	126.298
293.542	173.44141
294.069	166.40879
294.596	163.39525
295.122	170.40501
295.649	93.20519
296.175	156.37323
296.702	170.41292
297.228	136.32674
297.754	139.31258
298.28	189.43076
298.806	145.34857
299.332	136.3049
299.857	160.36224
300.383	131.32907
300.908	197.47894
301.433	165.40235
301.958	156.3562
302.483	106.26373
303.008	175.43214
303.533	119.30716
304.058	147.34167
304.582	151.35595
305.107	87.22791
305.631	121.27534
306.155	162.37586
306.679	177.4135
307.203	136.31616
307.727	137.32483
308.251	144.35475
308.775	200.48159
309.298	186.44466
309.822	162.40466
310.345	191.4525
310.868	159.38236
311.391	180.43983
311.914	165.41133
312.437	191.43286
312.96	173.40543
313.482	146.34276
314.005	168.41661
314.527	119.30982
315.049	215.53674
315.571	204.4547
316.093	183.44973
316.615	164.39177
317.137	201.43399
317.659	205.49073
318.18	150.35682
318.702	220.5088
319.223	176.35742
319.744	229.50799
320.265	182.44074
320.786	223.54964
321.307	213.51939
321.828	184.41284
322.348	189.44171
322.869	194.45881
323.389	461.8442
323.909	183.41574
324.43	208.49135
324.95	240.54047
325.47	244.59486
325.989	236.55143
326.509	236.52123
327.029	248.55711
327.548	244.54385
328.067	208.50009
328.587	262.64421
329.106	212.47273
329.625	247.63108
330.144	258.58908
330.662	268.61684
331.181	286.65905
331.7	217.49877
332.218	270.57409
332.736	266.61052
333.255	289.6645
333.773	230.53593
334.291	291.71034
334.808	292.64247
335.326	304.66437
335.844	281.64714
336.361	371.91969
336.879	339.77227
337.396	336.79273
337.913	319.71614
338.43	308.67625
338.947	334.77301
339.464	301.63345
339.981	256.59698
340.497	268.64604
341.014	299.71079
341.53	266.58944
342.046	363.87481
342.562	358.86032
343.078	349.79377
343.594	351.80574
344.11	354.81896
344.626	367.8928
345.141	376.82691
345.657	396.85772
346.172	392.90685
346.687	347.76971
347.202	416.90679
347.717	409.9317
348.232	354.85168
348.747	405.8946
349.261	356.75561
349.776	431.97545
350.29	427.01745
350.805	445.04134
351.319	410.90999
351.833	395.87215
352.347	397.89852
352.861	403.90542
353.374	414.89784
353.888	408.9547
354.401	401.87318
354.915	414.89402
355.428	466.09674
355.941	383.85697
356.454	461.96799
356.967	450.99377
357.48	412.89122
357.993	454.0556
358.505	398.92657
359.018	545.24083
359.53	538.22266
360.042	481.0121
360.554	508.16463
361.066	470.07738
361.578	485.00619
362.09	526.16587
362.602	509.06031
363.113	523.14838
363.625	526.11206
364.136	530.08088
364.647	503.11736
365.158	562.20904
365.669	530.17816
366.18	559.21674
366.691	522.06357
367.201	573.2673
367.712	582.22635
368.222	526.12856
368.733	576.15144
369.243	601.23065
369.753	562.1966
370.263	625.37958
370.773	536.2127
371.282	639.38993
371.792	667.39741
372.301	676.47454
372.811	661.57945
373.32	654.27924
373.829	623.33959
374.338	696.38466
374.847	738.51467
375.356	694.46972
375.865	807.50647
376.373	808.60632
376.882	844.8707
377.39	845.7754
377.898	807.7438
378.407	877.71254
378.915	936.73011
379.423	939.85367
379.93	1103.09329
380.438	984.9929
380.946	1091.07747
381.453	1130.20949
381.96	1224.32748
382.468	1241.30705
382.975	1342.55738
383.482	1389.34283
383.989	1446.84985
384.495	1508.59608
385.002	1514.27525
385.509	1667.83022
386.015	1793.39316
386.521	1833.78814
387.028	1880.81151
387.534	1948.62263
388.04	2044.16162
388.546	2050.79547
389.051	2183.84133
389.557	2304.10584
390.063	2476.03838
390.568	2681.40129
391.073	2657.9815
391.578	2771.50055
392.084	2884.11285
392.589	2994.83598
393.093	3352.35504
393.598	3558.04949
394.103	3871.16157
394.607	4272.06666
395.112	4544.08284
395.616	4788.86341
396.12	5239.19541
396.624	5848.11136
397.128	6448.05645
397.632	7076.87522
398.136	7646.9492
398.639	8113.3628
399.143	8957.53708
399.646	10217.39866
400.15	11492.47904
400.653	12602.8178
401.156	14305.82259
401.659	16802.82941
402.162	20675.87343
402.664	26832.14316
403.167	39188.3728
403.67	60638.92432
404.172	63919.58413
404.674	63858.43483
405.176	63738.15102
405.678	63977.72923
406.18	64011.81569
406.682	63863.44694
407.184	63926.60148
407.686	63841.39382
408.187	64025.8516
408.688	63892.51763
409.19	46556.31449
409.691	37445.11597
410.192	31549.04146
410.693	27361.14358
411.194	24568.52799
411.694	23404.586
412.195	21473.12119
412.696	19361.14399
413.196	18072.72815
413.696	17583.56046
414.196	17556.07255
414.696	17154.63795
415.196	16183.83165
415.696	14543.03056
416.196	11635.14199
416.695	9354.17031
417.195	8092.4215
417.694	7687.61755
418.194	7229.40656
418.693	6807.69733
419.192	6592.88971
419.691	6335.85641
420.19	6172.12264
420.688	6041.3092
421.187	5709.3039
421.685	5427.20772
422.184	4869.61275
422.682	4307.37684
423.18	3663.00667
423.678	3301.06727
424.176	3134.08367
424.674	2863.96211
425.172	2779.24941
425.669	2527.42721
426.167	2398.10334
426.664	2220.93402
427.161	2018.89184
427.659	1871.01769
428.156	1788.46686
428.652	1627.95047
429.149	1600.7801
429.646	1528.42243
430.143	1471.59949
430.639	1375.45411
431.135	1266.48062
431.632	1189.12849
432.128	1138.18861
432.624	1075.28289
433.12	1097.0044
433.616	1051.85495
434.111	970.91539
434.607	982.95087
435.103	926.59772
435.598	941.60517
436.093	867.71217
436.588	878.66392
437.083	815.55974
437.578	753.51665
438.073	699.55207
438.568	743.60406
439.062	713.3274
439.557	665.37787
440.051	616.23609
440.546	627.26949
441.04	599.29565
441.534	617.39874
442.028	583.26905
442.522	535.17133
443.015	501.98144
443.509	539.19498
444.002	571.2655
444.496	503.99654
444.989	530.17329
445.482	494.12524
445.975	561.17246
446.468	509.00339
446.961	543.06553
447.454	457.9469
447.947	501.09631
448.439	485.09558
448.931	509.06689
449.424	506.18318
449.916	501.1212
450.408	458.96784
450.9	433.97918
451.392	420.99737
451.884	457.97016
452.375	381.88753
452.867	411.86073
453.358	415.88601
453.849	396.79024
454.341	443.92569
454.832	363.73734
455.323	441.01947
455.814	404.86234
456.304	417.89837
456.795	376.80606
457.285	398.8171
457.776	375.80201
458.266	377.84042
458.756	287.64828
459.247	351.79282
459.737	388.88048
460.226	363.7787
460.716	370.83181
461.206	330.74828
461.695	294.69393
462.185	337.75717
462.674	365.784
463.163	404.84401
463.653	339.68073
464.142	318.73219
464.63	285.66002
465.119	341.74885
465.608	342.75689
466.096	310.63816
466.585	261.57198
467.073	250.56713
467.561	306.6981
468.05	289.6344
468.538	271.63407
469.026	240.54821
469.513	251.50845
470.001	255.5626
470.489	293.66399
470.976	305.67769
471.463	263.62811
471.951	274.65149
472.438	251.56628
472.925	287.64458
473.412	225.52707
473.899	248.54658
474.385	241.56808
474.872	222.50014
475.359	273.6425
475.845	219.43814
476.331	164.34142
476.817	199.47
477.303	208.46841
477.789	206.47529
478.275	231.55296
478.761	174.40274
479.247	212.45744
479.732	198.47966
480.218	237.59914
480.703	186.44567
481.188	201.42207
481.673	200.44615
482.158	167.35285
482.643	219.54118
483.128	229.51538
483.612	249.57048
484.097	179.42031
484.581	187.42086
485.066	238.56177
485.55	152.32967
486.034	144.30659
486.518	206.47831
487.002	117.2803
487.486	144.34268
487.969	158.37541
488.453	77.19015
488.936	130.28809
489.42	164.35463
489.903	123.30117
490.386	37.07691
490.869	186.3967
491.352	146.34423
491.835	131.26379
492.318	136.30038
492.8	173.34948
493.283	120.30171
493.765	118.28512
494.247	186.4211
494.73	142.30864
495.212	79.18594
495.694	158.36455
496.175	120.28436
496.657	142.32998
497.139	107.1818
497.62	120.28458
498.102	109.26798
498.583	77.1877
499.064	105.23167
499.545	141.31552
500.026	118.26356
500.507	110.25016
500.988	128.31487
501.469	73.18073
501.949	140.33929
502.43	144.3407
502.91	178.36825
503.39	102.24989
503.87	104.2433
504.35	124.28565
504.83	101.21873
505.31	64.15365
505.79	7.01667
506.269	54.1238
506.749	80.18171
507.228	117.27183
507.707	126.27713
508.187	61.14542
508.666	82.20179
509.145	72.16765
509.623	43.10081
510.102	76.1828
510.581	127.30182
511.059	44.11075
511.538	54.13883
512.016	112.2652
512.494	62.14856
512.972	123.2904
513.45	51.11901
513.928	83.20051
514.406	43.10556
514.884	68.17458
515.361	75.17865
515.839	125.28398
516.316	96.23135
516.793	94.23515
517.27	82.19596
517.747	103.26161
518.224	37.08552
518.701	54.11942
519.178	62.15476
519.654	88.20692
520.131	82.20186
520.607	47.11483
521.083	15.03426
521.56	58.13654
522.036	43.09392
522.512	101.24703
522.987	134.3179
523.463	35.08324
523.939	112.2749
524.414	57.13039
524.89	76.18058
525.365	87.19533
525.84	55.13217
526.315	67.16186
526.79	58.13083
527.265	101.23141
527.74	58.14057
528.215	66.15355
528.689	42.09238
529.164	47.10105
529.638	40.10147
530.112	18.04262
530.587	54.11577
531.061	50.12109
531.534	99.23645
532.008	101.24344
532.482	59.13556
532.956	33.08438
533.429	109.26402
533.903	98.21301
534.376	31.06894
534.849	40.09226
535.322	57.13442
535.795	19.04616
536.268	90.2164
536.741	59.13989
537.213	64.1469
537.686	83.20195
538.158	65.14773
538.631	81.19516
539.103	48.10872
539.575	2.00417
540.047	26.05711
540.519	90.2136
540.991	53.12924
541.463	73.17495
541.934	42.09524
542.406	84.20082
542.877	37.08392
543.348	68.16387
543.82	19.04651
544.291	69.16082
544.762	53.12634
545.233	122.30552
545.703	30.06726
546.174	51.11854
546.645	69.16669
547.115	66.15917
547.585	77.17663
548.056	147.35592
548.526	67.15904
548.996	54.1293
549.466	76.18419
549.935	65.15537
550.405	47.10383
550.875	50.11912
551.344	36.0863
551.814	67.15363
552.283	66.14437
552.752	76.17801
553.221	104.22845
553.69	93.20957
554.159	94.23285
554.628	87.19693
555.096	63.1603
555.565	84.18545
556.033	99.23491
556.502	72.17358
556.97	66.14723
557.438	40.09446
557.906	108.25295
558.374	75.17391
558.842	79.1889
559.31	114.25326
559.777	79.19272
560.245	22.05096
560.712	28.06468
561.18	63.13987
561.647	52.11586
562.114	37.08542
562.581	68.16721
563.048	84.19196
563.514	60.15069
563.981	62.14231
564.448	58.13153
564.914	84.19451
565.381	113.2562
565.847	76.17675
566.313	13.03049
566.779	68.1532
567.245	12.0281
567.711	72.17213
568.176	5.01138
568.642	32.08098
569.108	62.1524
569.573	-2.00469
570.038	72.15076
570.504	85.19162
570.969	43.10685
571.434	60.13368
571.899	79.18681
572.363	68.15608
572.828	111.2532
573.293	85.19428
573.757	83.19223
574.222	74.1659
574.686	80.18377
575.15	107.25566
575.614	140.32623
576.078	75.17584
576.542	90.20443
577.006	40.09104
577.469	86.21054
577.933	119.26882
578.396	76.17989
578.86	71.16704
579.323	98.23482
579.786	82.17785
580.249	123.28701
580.712	48.11703
581.175	36.08915
581.637	59.13496
582.1	69.15064
582.563	70.14904
583.025	20.04907
583.487	101.20722
583.95	-9.01966
584.412	107.2236
584.874	64.1561
585.336	29.06932
585.797	61.13323
586.259	41.09646
586.721	16.03793
587.182	73.1682
587.643	93.21051
588.105	54.12791
588.566	19.04018
589.027	88.21463
589.488	67.154
589.949	89.21517
590.41	95.18795
590.87	103.23448
591.331	94.20492
591.791	99.2281
592.252	98.22719
592.712	27.06518
593.172	87.19749
593.632	154.33714
594.092	40.08982
594.552	107.23054
595.011	67.15363
595.471	131.29375
595.931	88.19826
596.39	65.15614
596.849	98.22701
597.308	125.26364
597.768	92.23595
598.227	100.2387
598.685	106.23999
599.144	110.25734
599.603	141.325
600.062	94.19761
600.52	114.25558
600.978	90.2117
601.437	76.1727
601.895	135.28599
602.353	108.23564
602.811	191.4207
603.269	115.27088
603.727	96.22907
604.184	82.18656
604.642	140.33904
605.099	149.34262
605.557	129.30963
606.014	170.35895
606.471	140.34603
606.928	230.495
607.385	178.43623
607.842	167.37555
608.299	181.41353
608.755	203.47851
609.212	217.46974
609.668	231.50432
610.125	237.55192
610.581	226.5129
611.037	189.41298
611.493	211.47799
611.949	216.51084
612.405	255.49881
612.861	193.43223
613.316	212.49302
613.772	259.56999
614.227	264.60982
614.683	245.49947
615.138	241.54505
615.593	251.56049
616.048	239.5273
616.503	222.52177
616.958	233.56412
617.412	267.60827
617.867	227.49096
618.321	222.44239
618.776	229.48681
619.23	217.49218
619.684	261.55797
620.138	239.52664
620.592	234.54783
621.046	243.55316
621.5	182.42693
621.954	205.43921
622.407	199.42691
622.861	219.51442
623.314	246.5349
623.768	228.51996
624.221	185.35365
624.674	180.40519
625.127	145.33075
625.58	201.43734
626.033	175.37267
626.485	159.37204
626.938	230.52833
627.39	225.50783
627.843	214.47699
628.295	191.42775
628.747	213.49153
629.199	203.44769
629.651	120.27113
630.103	188.41904
630.555	122.25308
631.006	159.36122
631.458	133.30742
631.909	111.24521
632.361	122.277
632.812	106.24233
633.263	164.34719
633.714	127.26421
634.165	126.29696
634.616	127.29507
635.067	137.29581
635.518	112.26171
635.968	155.29687
636.419	166.35343
636.869	129.30007
637.319	168.38004
637.769	179.39129
638.219	141.32591
638.669	117.27377
639.119	119.28008
639.569	90.2136
640.019	170.38253
640.468	183.39834
640.918	116.27073
641.367	158.34517
641.816	105.23031
642.265	146.3335
642.714	148.33193
643.163	230.51159
643.612	125.30129
644.061	181.37588
644.51	166.37108
644.958	201.42934
645.406	115.27067
645.855	71.17113
646.303	141.31916
646.751	198.44389
647.199	156.34527
647.647	184.41505
648.095	148.33002
648.543	183.35967
648.99	172.40253
649.438	166.37399
649.885	137.33507
650.333	171.32245
650.78	164.38666
651.227	160.38236
651.674	130.29133
652.121	214.50748
652.568	153.36654
653.015	94.22978
653.461	168.38916
653.908	166.37123
654.354	165.38289
654.801	150.34388
655.247	96.20537
655.693	154.39148
656.139	179.41505
656.585	131.30688
657.031	164.37582
657.477	173.36761
657.922	149.33081
658.368	164.39281
658.813	166.36725
659.259	155.36708
659.704	195.44803
660.149	145.32688
660.594	172.39716
661.039	170.37688
661.484	154.35602
661.929	177.40179
662.373	113.27905
662.818	131.31766
663.262	147.3476
663.707	160.3972
664.151	177.41934
664.595	156.36823
665.039	144.34951
665.483	143.35598
665.927	189.42955
666.371	120.27753
666.814	152.35238
667.258	176.41237
667.701	193.3974
668.145	186.44907
668.588	167.40297
669.031	137.3154
669.474	126.2965
669.917	164.34932
670.36	201.48537
670.803	196.45833
671.245	104.20937
671.688	174.41136
672.13	153.33757
672.573	176.43181
673.015	168.39409
673.457	161.34077
673.899	212.49438
674.341	124.29293
674.783	131.30748
675.225	151.36271
675.666	165.39317
676.108	139.29343
676.549	182.41054
676.991	143.30625
677.432	139.26906
677.873	115.25766
678.314	130.30281
678.755	179.42833
679.196	116.26017
679.637	140.32713
680.078	156.35462
680.518	141.31578
680.959	126.29361
681.399	179.42947
681.839	157.37081
682.28	154.37294
682.72	115.25787
683.16	157.38142
683.6	168.37058
684.039	116.2345
684.479	131.31647
684.919	178.40578
685.358	139.33769
685.798	148.3757
686.237	148.34365
686.676	153.3363
687.115	189.43007
687.554	204.4703
687.993	175.37429
688.432	191.42017
688.871	165.36694
689.309	211.48672
689.748	134.27151
690.186	108.2476
690.625	211.47624
691.063	182.41958
691.501	200.47684
691.939	160.39169
692.377	132.31231
692.815	220.51667
693.253	167.38493
693.69	184.388
694.128	154.36337
694.565	177.40521
695.003	177.4382
695.44	158.36324
695.877	231.51967
696.314	134.27424
696.751	182.39743
697.188	180.40287
697.625	121.26406
698.061	135.31489
698.498	151.34624
698.934	156.36151
699.371	131.30051
699.807	195.44264
700.243	183.42601
700.679	197.42116
701.115	214.47778
701.551	199.44365
701.987	119.2532
702.422	205.46987
702.858	180.41431
703.294	242.52799
703.729	177.41545
704.164	152.35168
704.599	212.45273
705.035	207.44445
705.47	163.38289
705.904	189.42066
706.339	223.48829
706.774	210.47079
707.209	188.42095
707.643	197.45262
708.078	180.42191
708.512	155.37684
708.946	176.40154
709.38	186.42521
709.814	153.33474
710.248	225.52604
710.682	244.55779
711.116	201.4703
711.549	133.33024
711.983	164.36555
712.416	215.48804
712.85	194.46147
713.283	210.47408
713.716	169.40409
714.149	170.37892
714.582	242.51545
715.015	171.40419
715.448	199.48145
715.881	224.45594
716.313	199.44493
716.746	266.59509
717.178	195.44982
717.61	251.60724
718.043	161.38379
718.475	171.39995
718.907	188.45081
719.339	126.27747
719.77	208.47665
720.202	198.47533
720.634	223.52259
721.065	172.38972
721.497	204.47797
721.928	195.45662
722.359	186.43529
722.79	187.42965
723.221	146.3505
723.652	192.4681
724.083	225.47997
724.514	239.52001
724.945	204.45583
725.375	189.42345
725.806	202.47588
726.236	182.44703
726.666	195.43941
727.096	235.54575
727.526	261.63807
727.956	224.48644
728.386	220.51344
728.816	202.49578
729.246	262.61193
729.675	189.44136
730.105	187.43789
730.534	226.49935
730.964	201.47895
731.393	238.55239
731.822	240.58292
732.251	187.45531
732.68	214.47007
733.109	200.47172
733.537	240.55725
733.966	261.61665
734.395	232.50789
734.823	181.38159
735.251	193.4429
735.68	232.5423
736.108	184.44038
736.536	203.45219
736.964	218.47906
737.392	222.52746
737.82	214.48508
738.247	259.58051
738.675	166.37353
739.102	166.39791
739.53	225.55192
739.957	227.56012
740.384	213.48683
740.811	176.4193
741.238	204.47779
741.665	307.67363
742.092	142.31363
742.519	210.49742
742.945	260.59675
743.372	237.55887
743.798	207.50551
744.225	210.47156
744.651	196.46802
745.077	209.49629
745.503	216.49458
745.929	275.6265
746.355	218.50277
746.781	205.4791
747.207	238.53509
747.632	274.64146
748.058	240.57417
748.483	230.49926
748.908	228.53942
749.334	185.43677
749.759	243.54756
750.184	237.54124
750.609	212.49341
751.033	209.46189
751.458	255.53192
751.883	211.49312
752.307	194.43492
752.732	251.60861
753.156	194.45544
753.58	274.60388
754.005	174.41788
754.429	272.60575
754.853	246.57975
755.277	238.53421
755.7	221.52074
756.124	191.45373
756.548	188.42303
756.971	251.57714
757.394	219.53182
757.818	226.55447
758.241	204.49475
758.664	230.55088
759.087	217.46351
759.51	209.4894
759.933	227.52071
760.356	251.61363
760.778	223.51952
761.201	217.49617
761.623	198.44681
762.046	223.49097
762.468	224.5063
762.89	193.44769
763.312	269.61877
763.734	229.52234
764.156	221.5175
764.578	183.3958
765	270.61697
765.421	182.44521
765.843	200.49939
766.264	211.47196
766.686	190.44848
767.107	174.40274
767.528	236.57557
767.949	180.43639
768.37	259.60504
768.791	215.48685
769.212	172.41574
769.632	186.41527
770.053	129.32532
770.473	195.44587
770.894	126.298
771.314	154.34667
771.734	134.29967
772.154	182.44289
772.575	154.33842
772.994	163.35119
773.414	181.40836
773.834	132.31605
774.254	152.35489
774.673	206.47869
775.093	159.37975
775.512	169.39915
775.931	135.32982
776.351	168.40117
776.77	156.36738
777.189	192.43274
777.607	139.34136
778.026	173.41144
778.445	149.36375
778.864	108.264
779.282	108.2477
779.701	144.34636
780.119	101.24804
780.537	78.18833
780.955	126.30605
781.373	116.27583
781.791	150.32575
782.209	124.26722
782.627	80.20496
783.045	54.11917
783.462	111.2736
783.88	90.22628
784.297	98.23849
784.715	113.28171
785.132	95.22046
785.549	87.21033
785.966	104.25262
786.383	94.2249
786.8	155.34212
787.217	110.2536
787.633	126.30571
788.05	83.18589
788.466	112.24954
788.883	104.25875
789.299	98.22386
789.715	115.26993
790.131	112.26806
790.547	88.21183
790.963	112.26673
791.379	103.25136
791.795	65.14161
792.21	94.20978
792.626	79.17919
793.041	65.15513
793.457	93.21991
793.872	54.12186
794.287	87.20389
794.702	66.15464
795.117	98.23599
795.532	93.22704
795.947	79.18042
796.362	74.16652
796.776	74.16337
797.191	98.23142
797.605	88.20183
798.02	68.15977
798.434	95.20248
798.848	116.27827
799.262	54.13008
799.676	154.35702
800.09	66.15694
800.504	69.16082
800.918	17.03796
801.331	1.00251
801.745	17.03778
802.158	32.07712
802.572	97.22581
802.985	44.10201
803.398	77.17614
803.811	11.02702
804.224	52.1236
804.637	57.13196
805.05	40.08897
805.462	94.22034
805.875	77.19384
806.288	52.12241
806.7	19.04604
807.112	59.13056
807.525	50.11738
807.937	23.05556
808.349	51.12279
808.761	96.22775
809.173	53.12489
809.584	60.14235
809.996	28.06656
810.408	48.12185
810.819	14.03212
811.231	96.24818
811.642	102.24385
812.053	59.13946
812.464	40.09174
812.875	77.19106
813.286	62.15611
813.697	53.11615
814.108	46.10812
814.519	73.15762
814.929	67.16442
815.34	40.09288
815.75	62.15387
816.16	81.19139
816.571	34.08555
816.981	85.18966
817.391	44.10164
817.801	54.13033
818.211	79.18013
818.62	69.16088
819.03	106.24749
819.44	6.01502
819.849	38.09175
820.259	49.11998
820.668	20.04807
821.077	67.16216
821.486	15.0346
821.895	59.13827
822.304	17.04384
822.713	43.09769
823.122	72.17253
823.531	32.07221
823.939	63.14863
824.348	49.11416
824.756	109.25924
825.164	47.11371
825.573	69.16694
825.981	37.08824
826.389	43.10427
826.797	90.22049
827.205	72.15976
827.612	49.116
828.02	-18.04103
828.428	66.16182
828.835	44.11324
829.243	44.10031
829.65	38.0923
830.057	30.07007
830.464	41.09789
830.871	71.16392
831.278	2.00471
831.685	51.10865
832.092	41.0959
832.499	30.06362
832.905	55.13337
833.312	30.06462
833.718	75.18098
834.124	48.10579
834.531	58.1394
834.937	77.19085
835.343	-5.01164
835.749	16.03559
836.155	57.14431
836.561	42.09995
836.966	70.16357
837.372	25.0614
837.777	79.1897
838.183	101.21153
838.588	64.15406
838.993	90.20964
839.399	43.10203
839.804	23.05447
840.209	60.14928
840.613	62.1316
841.018	10.02448
841.423	3.00751
841.828	27.0666
842.232	38.08921
842.637	97.22073
843.041	19.04761
843.445	27.06508
843.849	44.10567
844.253	34.07767
844.657	35.08595
845.061	116.25406
845.465	11.0258
845.869	73.16214
846.272	67.15763
846.676	7.01612
847.079	54.13372
847.483	96.2281
847.886	46.10669
848.289	25.06582
848.692	-11.02698
849.095	24.05546
849.498	45.10834
849.901	32.07
850.304	36.08283
850.707	43.10552
851.109	71.17152
851.512	95.22368
851.914	47.11534
852.316	55.13577
852.718	79.20165
853.121	77.18095
853.523	16.03589
853.925	38.09718
854.326	67.16229
854.728	76.18868
855.13	37.09348
855.531	21.04869
855.933	27.06191
856.334	48.11651
856.736	78.16831
857.137	35.07919
857.538	27.06631
857.939	104.24901
858.34	23.05359
858.741	42.10586
859.142	55.12612
859.542	48.12353
859.943	79.18796
860.343	25.06042
860.744	52.12198
861.144	82.19326
861.544	24.05665
861.945	33.08128
862.345	29.06815
862.745	55.13267
863.145	7.01588
863.544	83.2018
863.944	39.08864
864.344	44.10386
864.743	132.30977
865.143	93.23109
865.542	-5.01109
865.941	52.12446
866.34	-2.00459
866.74	76.19689
867.139	66.1538
867.537	-14.0344
867.936	48.11168
868.335	31.07613
868.734	84.20633
869.132	44.09682
869.531	21.04844
869.929	27.05962
870.327	10.02322
870.726	40.09512
871.124	66.14614
871.522	3.00741
871.92	96.2259
872.318	64.14884
872.715	29.06823
873.113	17.03984
873.511	58.1384
873.908	60.14847
874.306	31.07523
874.703	35.08366
875.1	19.0464
875.497	-6.01391
875.894	67.1607
876.291	56.13239
876.688	24.06013
877.085	40.09163
877.482	13.03154
877.878	79.18449
878.275	45.11068
878.671	-2.00416
879.068	71.16385
879.464	26.06063
879.86	28.06383
880.256	-2.00471
880.652	22.0542
881.048	28.06625
881.444	-5.01136
881.84	42.10286
882.236	25.06074
882.631	88.20748
883.027	53.1226
883.422	23.05659
883.817	-3.0074
884.213	24.05971
884.608	80.19221
885.003	25.05765
885.398	-1.00244
885.793	16.03873
886.188	21.05043
886.582	63.1538
886.977	17.03867
887.371	42.10167
887.766	1.00243
888.16	2.00476
888.554	46.10858
888.949	48.11598
889.343	49.11434
889.737	4.0105
890.131	24.05827
890.525	60.14879
890.918	12.02926
891.312	-15.03449
891.706	23.0584
892.099	50.12213
892.492	53.10815
892.886	23.05422
893.279	7.01727
893.672	50.12363
894.065	11.02674
894.458	26.06254
894.851	17.03997
895.244	7.01736
895.637	87.20053
896.029	68.16039
896.422	22.05123
896.814	18.04315
897.206	85.19592
897.599	105.24665
897.991	34.07979
898.383	33.07525
898.775	88.19103
899.167	49.11141
899.559	22.05338
899.951	61.13611
900.342	38.0923
900.734	54.13225
901.125	28.07065
901.517	30.07123
901.908	32.07266
902.299	47.11092
902.69	68.15489
903.082	94.21671
903.473	64.14931
903.863	22.05402
904.254	70.15713
904.645	27.06394
905.036	48.11418
905.426	13.02821
905.817	8.01888
906.207	-4.00913
906.597	56.12684
906.987	38.0943
907.378	53.12982
907.768	33.08486
908.158	43.10058
908.547	46.11649
908.937	12.02948
909.327	44.10245
909.717	-1.00242
910.106	11.02542
910.495	38.09029
910.885	70.1706
911.274	9.02177
911.663	30.07284
912.052	57.13322
912.441	59.14554
912.83	76.16463
913.219	45.11324
913.608	64.1509
913.997	14.03438
914.385	48.11004
914.774	74.17176
915.162	51.11807
915.55	27.06243
915.939	29.07138
916.327	21.05023
916.715	70.17416
917.103	16.03736
917.491	80.18833
917.878	55.1294
918.266	26.065
918.654	55.13647
919.041	41.10495
919.429	20.0455
919.816	58.14109
920.203	64.15025
920.591	66.15724
920.978	63.14776
921.365	79.19994
921.752	5.01134
922.139	80.16454
922.525	35.08129
922.912	15.03521
923.299	27.06493
923.685	-6.0151
924.072	-24.05232
924.458	53.12683
924.844	42.10014
925.231	-13.02904
925.617	27.06724
926.003	60.14689
926.389	11.02688
926.774	34.08283
927.16	44.10491
927.546	68.16968
927.931	96.22661
928.317	22.04835
928.702	44.09929
929.088	41.09545
929.473	60.14809
929.858	13.03101
930.243	64.14873
930.628	61.14391
931.013	33.07903
931.398	44.09502
931.783	11.02781
932.167	113.26523
932.552	15.03625
932.937	39.09258
933.321	46.1122
933.705	2.00483
934.09	23.05493
934.474	58.1303
934.858	41.10299
935.242	26.05774
935.626	31.07717
936.009	57.14795
936.393	55.13672
936.777	51.12668
937.16	31.07877
937.544	41.09099
937.927	38.09365
938.311	64.14831
938.694	71.18123
939.077	44.10112
939.46	8.01855
939.843	69.13248
940.226	-14.03479
940.609	92.20303
940.991	-27.06665
941.374	67.15788
941.757	35.08279
942.139	19.04124
942.522	83.1852
942.904	80.18341
943.286	36.0879
943.668	132.32865
944.05	52.12313
944.432	44.10394
944.814	4.00944
945.196	-12.02869
945.578	42.09772
945.959	23.05128
946.341	32.07407
946.722	55.12262
947.104	73.16659
947.485	74.16406
947.866	100.24244
948.247	72.176
948.628	3.00693
949.009	4.00995
949.39	19.04538
949.771	42.09113
950.152	60.14136
950.532	31.07582
950.913	17.0395
951.293	48.1267
951.674	37.08607
952.054	45.10953
952.434	31.07438
952.814	36.08121
953.194	6.01504
953.574	64.15008
953.954	2.00454
954.334	98.23509
954.714	44.10366
955.093	69.16215
955.473	50.12172
955.853	5.01259
956.232	67.17688
956.611	31.07046
956.99	81.19561
957.37	-7.01722
957.749	3.0068
958.128	45.10994
958.506	39.09797
958.885	23.05588
959.264	69.16417
959.643	106.22951
960.021	63.15087
960.4	51.11017
960.778	28.06538
961.156	24.05786
961.535	30.06637
961.913	66.14827
962.291	38.09547
962.669	25.0616
963.047	52.12853
963.424	81.20091
963.802	46.10901
964.18	38.09099
964.557	80.17388
964.935	63.14232
965.312	63.15888
965.69	63.14961
966.067	4.00931
966.444	-19.0446
966.821	58.14404
967.198	53.12153
967.575	1.00236
967.952	42.09451
968.329	63.14776
968.705	109.22121
969.082	62.15521
969.458	65.15144
969.835	47.10976
970.211	51.12756
970.587	60.14361
970.963	41.10043
971.339	36.09139
971.715	49.11788
972.091	40.0946
972.467	37.08742
972.843	82.19694
973.219	72.16294
973.594	19.04822
973.97	40.08864
974.345	24.05562
974.721	23.05276
975.096	35.08222
975.471	73.16416
975.846	8.01841
976.221	14.0345
976.596	93.2159
976.971	109.25754
977.346	23.05098
977.72	25.06121
978.095	44.10955
978.469	75.16963
978.844	42.10091
979.218	81.18819
979.593	69.15682
979.967	14.03225
980.341	39.08648
980.715	50.1215
981.089	4.00969
981.463	51.11186
981.837	31.07396
982.21	40.08646
982.584	23.05382
982.957	18.04377
983.331	32.07142
983.704	39.09347
984.078	54.12737
984.451	-4.00948
984.824	31.07325
985.197	0
985.57	-11.02634
985.943	56.12983
986.316	32.07427
986.688	28.06481
987.061	96.21407
987.434	113.28477
987.806	20.046
988.179	9.02039
988.551	59.14291
988.923	9.02129
989.295	58.13808
989.667	48.11181
990.039	109.26053
990.411	-4.00874
990.783	15.03271
991.155	23.05354
991.527	79.18144
991.898	59.14178
992.27	39.09386
992.641	50.11958
993.012	28.06145
993.384	9.0206
993.755	7.01742
994.126	53.12329
994.497	24.05683
994.868	37.08027
995.239	41.09503
995.61	40.09705
995.98	17.03976
996.351	57.13645
996.722	87.19396
997.092	35.08006
997.462	49.11105
997.833	40.08993
998.203	30.06878
998.573	49.11775
998.943	43.09718
999.313	62.14294
999.683	43.09939
1000.053	-3.00649
1000.423	23.05337
1000.792	10.02483
1001.162	-14.0332
1001.531	88.20708
1001.901	5.012
1002.27	16.03353
1002.639	31.07579
1003.009	52.11792
1003.378	39.09634
1003.747	59.13203
1004.116	41.09386
1004.485	71.16156
1004.853	4.00967
1005.222	1.0024
1005.591	39.08839
1005.959	31.06725
1006.328	54.11632
1006.696	-7.01627
1007.064	10.02408
1007.433	58.13765
1007.801	-17.03975
1008.169	-4.00969
1008.537	67.14044
1008.905	61.13662
1009.273	42.09876
1009.64	57.13191
1010.008	47.10695
1010.375	9.02067
1010.743	35.07466
1011.11	76.17487
1011.478	97.23008
1011.845	15.03372
1012.212	96.20795
1012.579	40.09453
1012.946	78.17415
1013.313	30.06784
1013.68	101.21237
1014.047	-32.07413
1014.414	25.05661
1014.78	51.12218
1015.147	47.10734
1015.513	5.01164
1015.88	64.15557
1016.246	56.13044
1016.612	21.04565
1016.978	71.1673
1017.344	72.17035
1017.71	48.11124
1018.076	67.14857
1018.442	67.16588
1018.808	71.17152
1019.174	-5.01208
1019.539	-5.01058
1019.905	68.1537
1020.27	26.06166
1020.636	48.10841
1021.001	46.10584
1021.366	41.09492
1021.731	81.2023
1022.096	46.11278
1022.461	53.12021
1022.826	57.13055
1023.191	25.06352
1023.556	71.15718
1023.92	43.10034
1024.285	38.08792
1024.649	20.04688
1025.014	39.09158
1025.378	47.11436
1025.742	10.02376
1026.107	60.12841
1026.471	33.07321
1026.835	42.09999
1027.199	7.01631
1027.562	23.05068
1027.926	49.11394
1028.29	40.09753
1028.654	45.09829
1029.017	47.11114
1029.381	46.10563
1029.744	16.0395
1030.107	121.26943
1030.471	54.12435
1030.834	13.02788
1031.197	66.15131
1031.56	24.05403
1031.923	45.11231
1032.286	91.20221
1032.648	-3.00682
1033.011	53.11787
1033.374	23.05123
1033.736	12.03066
1034.099	1.00236
1034.461	62.1515
1034.823	22.05312
1035.185	14.0337
1035.548	49.11483
1035.91	22.05054
1036.272	72.15643
1036.634	28.06581
1036.995	27.06032
1037.357	53.12416
1037.719	53.12358
1038.08	94.21342
1038.442	18.041
1038.803	-10.02282
1039.165	57.13713
1039.526	-6.01404
1039.887	36.08247
1040.248	55.13227
1040.609	15.03532
1040.97	28.06556
1041.331	64.15645
1041.692	63.14295
1042.053	34.07343
1042.413	84.18397
1042.774	40.09354
1043.134	43.09646
1043.495	40.09661
1043.855	71.1662
1044.215	24.057
1044.576	39.09011
1044.936	57.12344
1045.296	42.1006
1045.656	-9.02113
1046.016	61.13954
1046.375	12.02806
1046.735	91.19893
1047.095	34.07626
1047.454	91.17834
1047.814	50.11509
1048.173	4.00906
1048.533	26.05704
1048.892	6.01397
1049.251	39.09329
1049.61	2.00477
1049.969	11.02486
1050.328	34.07018
1050.687	-5.01168
1051.046	0
1051.405	-6.01431
1051.763	63.13952
1052.122	-20.04838
1052.48	60.14114
1052.839	52.11898
1053.197	44.09885
1053.555	36.07641
1053.914	64.14884
1054.272	-16.03658
1054.63	12.02839
1054.988	32.07372
1055.345	5.01014
1055.703	72.16533
1056.061	29.07293
1056.419	51.12926
1056.776	-16.03689
1057.134	5.01092
1057.491	22.05316
1057.848	42.09968
1058.206	5.01112
1058.563	58.1208
1058.92	106.22873
1059.277	80.18789
1059.634	0
1059.991	83.18933
1060.348	40.08668
1060.704	114.26303
1061.061	27.05877
1061.418	44.10241
1061.774	42.09953
1062.131	87.22402
1062.487	-29.0653
1062.843	32.07668
1063.199	30.07186
1063.555	55.12272
1063.911	21.05081
1064.267	76.14616
1064.623	33.07797
1064.979	-23.05068
1065.335	36.08157
1065.691	13.02949
1066.046	67.13883
1066.402	2.00434
1066.757	41.09957
1067.112	60.13993
1067.468	60.13717
1067.823	-11.025
1068.178	38.0874
1068.533	50.11587
1068.888	41.09315
1069.243	37.08773
1069.598	63.14493
1069.952	45.099
1070.307	2.00482
1070.662	59.13556
1071.016	-1.00219
1071.371	27.05915
1071.725	68.15314
1072.079	56.12895
1072.434	24.05634
1072.788	-3.00679
1073.142	90.21063
1073.496	58.13078
1073.85	57.12545
1074.203	62.14374
1074.557	60.15565
1074.911	56.12637
1075.265	61.1347
1075.618	36.08445
1075.971	63.14249
1076.325	25.06185
1076.678	-2.00441
1077.031	-6.01277
1077.385	62.12861
1077.738	44.09429
1078.091	44.09645
1078.444	20.0439
1078.796	99.2321
1079.149	86.20411
1079.502	76.172
1079.855	96.21185
1080.207	63.14759
1080.56	61.15246
1080.912	55.12763
1081.264	15.03495
1081.617	51.11948
1081.969	-15.03703
1082.321	34.07935
1082.673	50.11071
1083.025	-25.05707
1083.377	275.58739
1083.728	47.10392
1084.08	4.00958
1084.432	-1.00232
1084.783	18.03957
1085.135	53.12804
1085.486	55.12064
1085.838	34.08079
1086.189	12.02836
1086.54	34.07738
1086.891	78.19244
1087.242	50.1188
1087.593	-7.0162
1087.944	94.20275
1088.295	54.11627
1088.646	103.24148
1088.996	45.10455
1089.347	29.06791
1089.698	35.08029
1090.048	50.12404
1090.398	21.04631
1090.749	17.0387
1091.099	59.1442
1091.449	77.18384
1091.799	52.12474
1092.149	12.0287
1092.499	40.09361
1092.849	38.09317
1093.199	21.05023
1093.548	56.13013
1093.898	9.02166
1094.248	33.08083
1094.597	21.05256
1094.947	27.06994
1095.296	42.10018
1095.645	21.05256
1095.994	64.14649
1096.343	42.10202
1096.692	37.09561
1097.041	60.15944
1097.39	53.12659
1097.739	2.00504
1098.088	50.12819
1098.437	28.07234
1098.785	2.0052
1099.134	13.03289
1099.482	46.12297
1099.83	54.1367
1100.179	75.19157
1100.527	-22.05636
1100.875	20.05171
1101.223	55.14187
1101.571	-18.04848
1101.919	63.16222
1102.267	30.08296
1102.615	2.00642
1102.962	-8.02569
1103.31	-4.01286
1103.658	-1.00321
