Data from N1 R0 sample 11_Subt2__2__11-37-14-802.txt Node

Date: Tue Sep 16 11:37:14 PDT 2025
User: uwsun
Spectrometer: HDX01956
Trigger mode: 0
Integration Time (sec): 5.000000E-1
Scans to average: 1
Nonlinearity correction enabled: true
Boxcar width: 0
Storing dark spectrum: false
XAxis mode: Wavelengths
Number of Pixels in Spectrum: 2068
>>>>>Begin Spectral Data<<<<<
194.03	1.0029
194.578	9.02923
195.127	3.00961
195.676	2.00643
196.225	8.02134
196.773	-9.02519
197.321	25.06973
197.87	91.23473
198.418	86.22364
198.966	75.19973
199.513	115.29385
200.061	56.14447
200.609	63.16828
201.156	64.1426
201.704	42.1076
202.251	84.22529
202.798	90.23524
203.345	77.19315
203.892	100.25476
204.438	93.2228
204.985	62.14975
205.532	76.20196
206.078	81.2001
206.624	116.2929
207.17	132.31086
207.716	86.2135
208.262	108.21652
208.808	101.25608
209.354	125.31072
209.899	65.16586
210.445	92.23255
210.99	108.26577
211.535	124.29395
212.08	84.19751
212.625	94.23685
213.17	80.20625
213.715	109.25144
214.259	83.19642
214.804	60.14928
215.348	129.29971
215.892	137.33345
216.436	60.13921
216.98	62.13843
217.524	101.24372
218.068	104.26429
218.612	108.2764
219.155	129.30586
219.698	59.14253
220.242	45.11276
220.785	105.24838
221.328	82.20432
221.871	127.32394
222.414	92.22881
222.956	44.10684
223.499	80.18002
224.041	79.18202
224.583	50.10706
225.126	84.18576
225.668	112.27245
226.21	83.21156
226.751	109.24381
227.293	100.22696
227.835	102.25082
228.376	58.1334
228.918	62.15572
229.459	82.20587
230	153.36528
230.541	109.25104
231.082	91.22274
231.622	50.11454
232.163	44.10748
232.704	89.22397
233.244	36.09058
233.784	60.14672
234.324	132.29678
234.864	60.13706
235.404	99.23355
235.944	99.23364
236.484	104.25998
237.023	52.12398
237.563	83.19436
238.102	143.3363
238.641	86.21692
239.18	68.1612
239.719	94.236
240.258	110.24742
240.797	95.22785
241.335	102.24831
241.874	153.29645
242.412	107.26063
242.95	68.16598
243.488	26.05942
244.026	90.21071
244.564	109.22515
245.102	122.27666
245.64	90.21566
246.177	98.21844
246.715	92.22204
247.252	73.16699
247.789	70.13151
248.326	72.17509
248.863	75.16679
249.4	99.22528
249.936	157.32706
250.473	113.26772
251.009	84.19358
251.546	65.14707
252.082	45.09866
252.618	90.20268
253.154	66.16044
253.69	97.21849
254.226	111.26623
254.761	86.19439
255.297	92.20209
255.832	79.18941
256.367	65.1543
256.903	151.33413
257.438	70.16556
257.972	53.11968
258.507	65.15066
259.042	75.16485
259.576	171.37538
260.111	45.1048
260.645	95.20644
261.179	102.23993
261.713	71.16078
262.247	61.14083
262.781	79.16838
263.315	27.06653
263.849	70.17676
264.382	89.20564
264.915	111.26339
265.449	62.15291
265.982	100.22815
266.515	121.29671
267.048	67.14392
267.58	69.15045
268.113	76.1661
268.646	61.15069
269.178	97.21787
269.71	118.26171
270.243	144.33264
270.775	96.24741
271.307	75.17961
271.838	98.23223
272.37	44.10923
272.902	106.24077
273.433	122.27103
273.965	97.23654
274.496	64.16005
275.027	149.36902
275.558	115.28116
276.089	103.25827
276.62	45.11478
277.15	106.26104
277.681	70.15234
278.211	149.36103
278.741	104.23229
279.272	140.31967
279.802	129.32007
280.332	101.23966
280.861	113.27041
281.391	95.21731
281.921	101.24215
282.45	93.23151
282.98	92.24072
283.509	112.25594
284.038	115.26402
284.567	72.16956
285.096	157.3787
285.625	106.2394
286.153	104.24987
286.682	149.34125
287.21	82.19664
287.739	96.2281
288.267	114.27836
288.795	73.19201
289.323	75.1781
289.851	113.26689
290.378	65.14677
290.906	143.3491
291.433	128.31881
291.961	110.25269
292.488	142.35085
293.015	123.29107
293.542	172.43894
294.069	141.34883
294.596	95.2333
295.122	145.34711
295.649	115.25256
296.175	134.32194
296.702	173.41997
297.228	88.21335
297.754	79.17984
298.28	138.31777
298.806	96.23292
299.332	127.28525
299.857	141.32046
300.383	156.3901
300.908	115.28388
301.433	122.29989
301.958	138.31625
302.483	87.21721
303.008	180.44408
303.533	96.24878
304.058	82.19304
304.582	110.26137
305.107	113.2947
305.631	164.36993
306.155	119.27844
306.679	160.37504
307.203	135.3139
307.727	152.35935
308.251	136.33553
308.775	177.42807
309.298	147.35404
309.822	148.37063
310.345	170.40439
310.868	175.41956
311.391	143.35183
311.914	149.37253
312.437	146.33391
312.96	126.298
313.482	121.28545
314.005	97.24366
314.527	136.35305
315.049	194.48616
315.571	205.45684
316.093	183.44973
316.615	143.34297
317.137	168.3653
317.659	198.47461
318.18	121.28944
318.702	219.50658
319.223	153.31234
319.744	142.3207
320.265	152.37017
320.786	227.55909
321.307	175.42976
321.828	205.45797
322.348	162.38061
322.869	217.51092
323.389	198.38667
323.909	198.44845
324.43	177.42063
324.95	164.37507
325.47	181.44646
325.989	230.53804
326.509	244.53799
327.029	241.54217
327.548	241.5375
328.067	191.4607
328.587	247.60901
329.106	207.46206
329.625	241.6164
330.144	245.56087
330.662	268.61684
331.181	298.68505
331.7	178.41232
332.218	263.56006
332.736	280.64085
333.255	256.59251
333.773	247.57361
334.291	252.61962
334.808	260.57591
335.326	238.5274
335.844	310.70979
336.361	301.75574
336.879	296.68019
337.396	301.71499
337.913	286.64642
338.43	282.62255
338.947	247.58154
339.464	323.67645
339.981	256.59698
340.497	271.6529
341.014	302.7175
341.53	317.69498
342.046	394.94392
342.562	346.83338
343.078	361.81906
343.594	275.6409
344.11	370.85325
344.626	326.79916
345.141	348.76984
345.657	360.78574
346.172	334.78159
346.687	347.76971
347.202	401.87688
347.717	360.82821
348.232	356.85616
348.747	360.80269
349.261	386.81392
349.776	428.96926
350.29	401.96233
350.805	412.97235
351.319	356.79903
351.833	364.80892
352.347	379.86094
352.861	393.88477
353.374	390.85013
353.888	444.02946
354.401	371.813
354.915	453.97005
355.428	430.01893
355.941	389.86931
356.454	348.74894
356.967	415.92319
357.48	437.94024
357.993	450.0471
358.505	410.95224
359.018	483.1132
359.53	454.04895
360.042	467.9875
360.554	459.06241
361.066	452.03977
361.578	520.07054
362.09	468.04959
362.602	448.94754
363.113	549.19899
363.625	502.0668
364.136	434.90588
364.647	450.01039
365.158	489.0682
365.669	500.11827
366.18	457.01585
366.691	544.10294
367.201	560.24186
367.712	533.135
368.222	581.23202
368.733	529.06881
369.243	563.1626
369.753	535.14568
370.263	602.33512
370.773	505.14964
371.282	576.26944
371.792	618.30859
372.301	589.30815
372.811	651.5585
373.32	653.27758
373.829	615.32463
374.338	657.3188
374.847	716.47673
375.356	691.46432
375.865	787.47632
376.373	792.58032
376.882	781.7536
377.39	818.7288
377.898	785.70418
378.407	872.70477
378.915	882.65202
379.423	940.85521
379.93	992.93422
380.438	979.98502
380.946	1044.01029
381.453	1144.22957
381.96	1192.28397
382.468	1205.25979
382.975	1361.58186
383.482	1298.24219
383.989	1371.74882
384.495	1504.59188
385.002	1557.31075
385.509	1613.77727
386.015	1769.37901
386.521	1791.75685
387.028	1900.82509
387.534	1913.60361
388.04	2036.15626
388.546	2097.81845
389.051	2251.8672
389.557	2343.12085
390.063	2394.01641
390.568	2496.3526
391.073	2649.98068
391.578	2773.50088
392.084	2942.11192
392.589	3111.81858
393.093	3335.35806
393.598	3641.0224
394.103	4019.10008
394.607	4279.06321
395.112	4615.04473
395.616	4783.86622
396.12	5291.16711
396.624	5853.10913
397.128	6266.1099
397.632	6992.86917
398.136	7517.88772
398.639	8418.66807
399.143	9664.89062
399.646	10779.33304
400.15	11731.66671
400.653	13352.99479
401.156	15237.51305
401.659	17794.71817
402.162	23274.49947
402.664	35520.21881
403.167	60640.61646
403.67	63769.22307
404.172	63919.58413
404.674	63858.43483
405.176	63738.15102
405.678	63977.72923
406.18	64011.81569
406.682	63863.44694
407.184	63926.60148
407.686	63841.39382
408.187	64025.8516
408.688	45454.44366
409.19	35457.06853
409.691	29505.23059
410.192	25262.71531
410.693	22590.27787
411.194	21403.83321
411.694	19956.94386
412.195	17968.16718
412.696	16956.39257
413.196	16496.37471
413.696	16514.96668
414.196	16191.98886
414.696	15209.70768
415.196	13826.39867
415.696	11147.06001
416.196	8764.11014
416.695	7606.03498
417.195	7206.01453
417.694	6935.28614
418.194	6328.34205
418.693	6021.86304
419.192	5941.08818
419.691	5741.0799
420.19	5673.34027
420.688	5434.60721
421.187	5010.63989
421.685	4671.62949
422.184	4070.03427
422.682	3578.71521
423.18	3247.11849
423.678	2936.1121
424.176	2733.09506
424.674	2578.94596
425.172	2424.17557
425.669	2189.27721
426.167	2102.97808
426.664	1866.74403
427.161	1758.7156
427.659	1686.8574
428.156	1567.31043
428.652	1497.80237
429.149	1397.55468
429.646	1362.25936
430.143	1322.42489
430.639	1191.22473
431.135	1129.28268
431.632	1145.07248
432.128	1004.99369
432.624	993.14594
433.12	1056.95047
433.616	964.73946
434.111	906.81559
434.607	904.82824
435.103	895.55679
435.598	883.52939
436.093	818.63377
436.588	777.5084
437.083	736.43514
437.578	699.42517
438.073	674.50426
438.568	665.4594
439.062	635.20477
439.557	581.22612
440.051	561.13981
440.546	521.08006
441.04	554.20967
441.534	520.2017
442.028	552.20936
442.522	535.17133
443.015	444.8815
443.509	533.18313
444.002	548.22025
444.496	447.89719
444.989	441.99605
445.482	448.02973
445.975	504.0664
446.468	464.92594
446.961	479.95565
447.454	429.89445
447.947	481.0569
448.439	475.07514
448.931	452.96101
449.424	479.12586
449.916	482.08282
450.408	427.90846
450.9	412.93569
451.392	409.97331
451.884	401.86169
452.375	373.87026
452.867	378.7974
453.358	390.83715
453.849	361.72625
454.341	388.82065
454.832	376.76148
455.323	454.04687
455.814	330.7157
456.304	391.84707
456.795	344.74256
457.285	318.66465
457.776	341.73466
458.266	339.76166
458.756	278.62911
459.247	300.68469
459.737	365.83216
460.226	416.88217
460.716	296.67556
461.206	285.65216
461.695	293.6917
462.185	318.71727
462.674	289.63093
463.163	345.73019
463.653	330.66404
464.142	300.69323
464.63	255.59406
465.119	253.56589
465.608	316.70314
466.096	250.52161
466.585	224.49473
467.073	238.54123
467.561	270.62045
468.05	262.5784
468.538	256.60073
469.026	262.5958
469.513	195.40007
470.001	232.51432
470.489	269.61258
470.976	305.67769
471.463	216.52051
471.951	214.51471
472.438	240.54268
472.925	207.47255
473.412	204.47984
473.899	193.43027
474.385	207.49116
474.872	196.44392
475.359	231.5481
475.845	139.28325
476.331	166.34543
476.817	186.4404
477.303	173.39239
477.789	161.37479
478.275	137.33383
478.761	162.37586
479.247	159.34698
479.732	152.37141
480.218	183.46709
480.703	171.41091
481.188	184.38783
481.673	183.40967
482.158	168.35488
482.643	194.4816
483.128	226.50894
483.612	194.44938
484.097	128.30355
484.581	140.31812
485.066	201.47785
485.55	194.41699
486.034	133.28385
486.518	255.58633
487.002	122.292
487.486	123.29388
487.969	106.25438
488.453	104.25555
488.936	124.27513
489.42	120.26193
489.903	114.2796
490.386	50.10363
490.869	159.3411
491.352	93.22153
491.835	127.25597
492.318	74.16556
492.8	144.29284
493.283	104.26223
493.765	108.26145
494.247	130.29767
494.73	105.23002
495.212	72.16969
495.694	88.20587
496.175	104.24721
496.657	133.30962
497.139	85.14528
497.62	101.2404
498.102	107.26316
498.583	42.10305
499.064	70.15558
499.545	106.23891
500.026	102.22858
500.507	73.16726
500.988	145.35556
501.469	32.07982
501.949	106.25853
502.43	111.2643
502.91	151.31428
503.39	80.19679
503.87	104.2433
504.35	83.19276
504.83	43.09428
505.31	57.13703
505.79	15.03566
506.269	63.14417
506.749	34.07795
507.228	94.21939
507.707	82.18202
508.187	90.21335
508.666	101.24767
509.145	71.16535
509.623	70.16325
510.102	54.13043
510.581	79.18948
511.059	89.2222
511.538	66.16933
512.016	47.11269
512.494	67.16039
512.972	104.24644
513.45	54.12593
513.928	51.12395
514.406	105.25481
514.884	78.1999
515.361	82.19506
515.839	79.18115
516.316	65.15756
516.793	40.10104
517.27	50.12022
517.747	67.17126
518.224	37.08552
518.701	67.14776
519.178	83.20639
519.654	6.01433
520.131	26.06467
520.607	43.10513
521.083	3.00687
521.56	82.19213
522.036	63.13702
522.512	96.23502
522.987	69.16575
523.463	9.02151
523.939	101.24841
524.414	66.1507
524.89	59.14065
525.365	45.1019
525.84	66.15827
526.315	56.13557
526.79	75.16859
527.265	78.17954
527.74	39.09486
528.215	26.06097
528.689	19.04199
529.164	10.02167
529.638	15.03822
530.112	-1.00238
530.587	81.17264
531.061	17.04143
531.534	59.14199
532.008	65.15774
532.482	82.18754
532.956	34.08692
533.429	75.18282
533.903	43.09456
534.376	58.12826
534.849	45.10368
535.322	86.20166
535.795	13.03162
536.268	75.18084
536.741	29.06916
537.213	88.20102
537.686	70.17073
538.158	38.08684
538.631	75.18091
539.103	43.09749
539.575	65.13378
540.047	47.10279
540.519	73.17382
540.991	66.16056
541.463	49.11797
541.934	27.06142
542.406	65.15596
542.877	69.15549
543.348	30.07282
543.82	64.15534
544.291	99.22938
544.762	56.13342
545.233	79.19937
545.703	82.18187
546.174	57.13233
546.645	92.22129
547.115	35.0849
547.585	57.13128
548.056	74.18163
548.526	71.16841
548.996	50.11981
549.466	75.1818
549.935	98.23276
550.405	59.13001
550.875	103.2429
551.344	64.1526
551.814	59.13551
552.283	70.15299
552.752	115.26729
553.221	68.1505
553.69	153.34054
554.159	101.24987
554.628	114.25663
555.096	105.26518
555.565	70.15499
556.033	157.36836
556.502	78.18783
556.97	99.21934
557.438	41.0968
557.906	107.25066
558.374	154.35149
558.842	106.25215
559.31	92.20532
559.777	142.34233
560.245	71.16287
560.712	47.10816
561.18	106.23324
561.647	80.17721
562.114	96.21903
562.581	119.28986
563.048	142.3207
563.514	156.38501
563.981	116.26337
564.448	116.25995
564.914	100.23082
565.381	129.29152
565.847	109.25184
566.313	121.27779
566.779	76.17095
567.245	81.18708
567.711	109.25874
568.176	100.22317
568.642	99.24752
569.108	141.34152
569.573	93.21411
570.038	170.34823
570.504	147.32718
570.969	115.282
571.434	170.37012
571.899	165.38365
572.363	207.46186
572.828	209.46729
573.293	175.39273
573.757	159.36268
574.222	186.40737
574.686	216.48264
575.15	219.51201
575.614	215.49358
576.078	195.44641
576.542	179.39923
577.006	180.39805
577.469	200.47922
577.933	183.40798
578.396	169.3928
578.86	192.44105
579.323	195.45859
579.786	207.43698
580.249	224.51228
580.712	151.36106
581.175	126.30685
581.637	172.38449
582.1	168.35908
582.563	166.34604
583.025	163.3893
583.487	213.42594
583.95	106.22588
584.412	136.28237
584.874	180.42949
585.336	133.31157
585.797	154.32973
586.259	125.28927
586.721	108.25147
587.182	119.27167
587.643	133.2986
588.105	123.28747
588.566	106.21989
589.027	157.37798
589.488	164.36963
589.949	179.42539
590.41	105.20724
590.87	155.34913
591.331	174.37287
591.791	147.33545
592.252	142.32633
592.712	125.29615
593.172	134.30128
593.632	173.37722
594.092	129.28438
594.552	172.3654
595.011	150.33822
595.471	171.38028
595.931	176.38937
596.39	158.37281
596.849	138.31713
597.308	153.32072
597.768	155.39312
598.227	169.39807
598.685	178.39708
599.144	192.44193
599.603	170.38957
600.062	173.35734
600.52	192.42352
600.978	191.44042
601.437	196.43452
601.895	207.4316
602.353	136.29497
602.811	214.46908
603.269	216.49875
603.727	223.51911
604.184	244.53687
604.642	253.5996
605.099	250.56322
605.557	253.59288
606.014	258.53423
606.471	281.67647
606.928	311.65766
607.385	355.84128
607.842	273.60054
608.299	333.73743
608.755	325.74786
609.212	321.6794
609.668	373.78979
610.125	347.79049
610.581	394.86358
611.037	305.65005
611.493	308.68392
611.949	366.84033
612.405	389.7368
612.861	331.72016
613.316	376.84599
613.772	394.84245
614.227	440.98062
614.683	427.83449
615.138	347.76779
615.593	399.86366
616.048	432.9145
616.503	398.90317
616.958	386.90748
617.412	383.85202
617.867	361.75837
618.321	403.76929
618.776	445.90142
619.23	409.89135
619.684	343.72024
620.138	405.86129
620.592	368.83883
621.046	453.98722
621.5	355.80447
621.954	332.69176
622.407	374.77199
622.861	346.79251
623.314	360.76377
623.768	350.77846
624.221	310.57467
624.674	325.70981
625.127	334.73271
625.58	353.7432
626.033	373.76007
626.485	314.7123
626.938	368.82189
627.39	296.65837
627.843	333.7239
628.295	290.63619
628.747	310.70151
629.199	331.71037
629.651	281.61398
630.103	261.57294
630.555	288.57525
631.006	220.49361
631.458	258.58148
631.909	176.38351
632.361	206.45973
632.812	224.4999
633.263	261.54081
633.714	237.48097
634.165	244.56183
634.616	236.53646
635.067	261.54855
635.518	214.49
635.968	240.45023
636.419	245.51265
636.869	160.3699
637.319	261.57921
637.769	212.46019
638.219	240.54379
638.669	175.40481
639.119	222.51199
639.569	180.41977
640.019	247.547
640.468	177.38577
640.918	216.49419
641.367	234.50296
641.816	214.45859
642.265	263.58656
642.714	179.3989
643.163	256.56634
643.612	254.59721
644.061	249.50925
644.51	234.51573
644.958	248.52433
645.406	232.53356
645.855	212.4973
646.303	239.53017
646.751	254.56286
647.199	240.52185
647.647	232.51818
648.095	207.45594
648.543	223.43415
648.99	279.6392
649.438	235.52195
649.885	259.61903
650.333	275.50533
650.78	266.61468
651.227	244.5737
651.674	264.57526
652.121	258.60661
652.568	284.6633
653.015	204.48843
653.461	220.50435
653.908	231.50965
654.354	219.50276
654.801	206.46695
655.247	224.46591
655.693	240.60077
656.139	178.41281
656.585	228.52394
657.031	198.45064
657.477	205.43256
657.922	217.47496
658.368	187.44593
658.813	215.47078
659.259	197.46275
659.704	228.52038
660.149	146.32906
660.594	194.446
661.039	191.42158
661.484	224.51063
661.929	195.44103
662.373	125.308
662.818	184.44172
663.262	201.4703
663.707	203.49999
664.151	150.35723
664.595	184.43196
665.039	197.47338
665.483	168.4163
665.927	180.40984
666.371	177.40472
666.814	160.37034
667.258	183.42819
667.701	209.4288
668.145	206.49547
668.588	199.47727
669.031	131.30195
669.474	150.35132
669.917	168.35753
670.36	148.36097
670.803	222.51648
671.245	122.24459
671.688	163.38617
672.13	93.20777
672.573	185.45314
673.015	164.38501
673.457	177.37332
673.899	168.39517
674.341	151.35484
674.783	98.23151
675.225	187.44611
675.666	188.446
676.108	118.25025
676.549	160.36253
676.991	103.22249
677.432	193.36876
677.873	95.21373
678.314	182.41958
678.755	183.43757
679.196	156.347
679.637	99.23319
680.078	143.32593
680.518	149.33315
680.959	135.31402
681.399	112.27215
681.839	91.21768
682.28	106.25902
682.72	109.24472
683.16	127.31027
683.6	149.32998
684.039	143.28729
684.479	119.28813
684.919	149.34166
685.358	91.22307
685.798	92.23586
686.237	99.2321
686.676	70.15655
687.115	143.32843
687.554	110.25834
687.993	99.21522
688.432	99.22199
688.871	101.2276
689.309	112.26345
689.748	89.18219
690.186	102.23412
690.625	120.27588
691.063	58.13702
691.501	90.2191
691.939	121.29836
692.377	113.26834
692.815	192.45338
693.253	103.24044
693.69	100.21476
694.128	120.28502
694.565	114.26429
695.003	123.30753
695.44	109.25305
695.877	108.24909
696.314	62.12896
696.751	71.15868
697.188	96.21858
697.625	98.21491
698.061	77.18165
698.498	91.21118
698.934	69.16265
699.371	73.16941
699.807	120.27654
700.243	82.19469
700.679	92.20116
701.115	109.24864
701.551	68.15571
701.987	39.08443
702.422	107.25007
702.858	60.14141
703.294	134.29905
703.729	79.18897
704.164	68.15995
704.599	91.19943
705.035	63.13947
705.47	101.24012
705.904	76.17312
706.339	83.18711
706.774	87.19997
707.209	84.19211
707.643	87.20429
708.078	108.25671
708.512	36.08947
708.946	90.2089
709.38	89.20743
709.814	67.14925
710.248	90.21598
710.682	137.31993
711.116	92.21986
711.549	67.16836
711.983	72.16354
712.416	134.30917
712.85	105.25404
713.283	108.24889
713.716	108.26125
714.149	48.10969
714.582	133.29
715.015	45.10896
715.448	76.18813
715.881	102.21339
716.313	78.17875
716.746	80.18583
717.178	106.24885
717.61	147.3626
718.043	90.21746
718.475	136.32028
718.907	84.20541
719.339	85.1888
719.77	80.18803
720.202	81.19878
720.634	103.24704
721.065	100.2299
721.497	101.24141
721.928	71.17029
722.359	96.22863
722.79	70.16459
723.221	61.14881
723.652	95.2358
724.083	81.17819
724.514	117.26117
724.945	72.16526
725.375	100.22815
725.806	85.2048
726.236	117.29083
726.666	127.29016
727.096	90.215
727.526	135.33777
727.956	111.24685
728.386	86.20599
728.816	122.30387
729.246	100.24099
729.675	73.17435
730.105	94.22412
730.534	82.18663
730.964	92.2238
731.393	118.28037
731.822	120.29802
732.251	120.29584
732.68	106.23813
733.109	102.24515
733.537	190.44552
733.966	118.28651
734.395	102.22943
734.823	65.14053
735.251	102.23834
735.68	98.23509
736.108	78.19046
736.536	132.29836
736.964	104.23402
737.392	144.34728
737.82	130.29971
738.247	94.21784
738.675	133.3013
739.102	105.25461
739.53	147.3658
739.957	149.37293
740.384	141.32694
740.811	100.24172
741.238	178.41902
741.665	164.37069
742.092	23.05206
742.519	129.31034
742.945	181.42201
743.372	146.35037
743.798	134.33169
744.225	107.24535
744.651	129.31199
745.077	166.39745
745.503	102.2389
745.929	145.33901
746.355	114.26837
746.781	120.28513
747.207	137.31439
747.632	185.44066
748.058	204.49141
748.483	166.36525
748.908	174.41597
749.334	158.37498
749.759	210.4764
750.184	181.41803
750.609	172.40348
751.033	172.38306
751.458	215.45247
751.883	152.35935
752.307	163.36775
752.732	223.54357
753.156	188.44187
753.58	167.37632
754.005	158.38061
754.429	245.54868
754.853	169.40425
755.277	227.51067
755.7	174.41374
756.124	180.4285
756.548	150.34015
756.971	217.50236
757.394	161.39523
757.818	190.46926
758.241	192.4667
758.664	146.35529
759.087	205.43902
759.51	164.38742
759.933	192.44352
760.356	218.53623
760.778	198.46355
761.201	184.42352
761.623	140.31967
762.046	166.36985
762.468	187.42586
762.89	155.36225
763.312	198.46192
763.734	187.43016
764.156	219.51302
764.578	216.46388
765	166.38727
765.421	188.45937
765.843	190.47528
766.264	165.37257
766.686	180.4257
767.107	196.45168
767.528	199.48869
767.949	184.44575
768.37	204.48171
768.791	198.44991
769.212	185.44606
769.632	216.47925
770.053	186.46427
770.473	164.37733
770.894	184.43027
771.314	173.38792
771.734	198.43694
772.154	135.33141
772.575	210.45604
772.994	147.31781
773.414	185.41705
773.834	158.37642
774.254	175.40674
774.673	242.55834
775.093	158.37743
775.512	136.32327
775.931	162.39378
776.351	173.41271
776.77	151.35595
777.189	142.32332
777.607	188.45749
778.026	137.32808
778.445	137.3352
778.864	94.23038
779.282	113.2589
779.701	131.31587
780.119	139.33896
780.537	94.22627
780.955	174.41883
781.373	104.24787
781.791	179.38632
782.209	145.31107
782.627	102.26031
783.045	105.22924
783.462	121.2977
783.88	97.24357
784.297	101.24565
784.715	133.33036
785.132	124.2861
785.549	85.20558
785.966	97.23592
786.383	180.42356
786.8	143.31643
787.217	123.28283
787.633	120.29148
788.05	106.23627
788.466	123.27343
788.883	133.32916
789.299	29.06717
789.715	143.33381
790.131	110.26338
790.547	41.09957
790.963	61.1467
791.379	122.29667
791.795	70.15234
792.21	76.17024
792.626	76.17249
793.041	87.20676
793.457	55.13101
793.872	36.08154
794.287	128.29756
794.702	44.10354
795.117	87.20994
795.532	74.1813
795.947	28.0646
796.362	47.10634
796.776	48.10655
797.191	85.20123
797.605	54.12469
798.02	51.12022
798.434	140.29548
798.848	122.29233
799.262	64.15388
799.676	77.18123
800.09	17.04081
800.504	102.23619
800.918	-16.03597
801.331	9.02253
801.745	47.10379
802.158	57.13671
802.572	104.24177
802.985	51.11807
803.398	76.17389
803.811	-15.03703
804.224	32.07636
804.637	39.09061
805.05	55.12196
805.462	69.16253
805.875	12.03056
806.288	65.15263
806.7	32.07735
807.112	49.10865
807.525	15.03546
807.937	50.12017
808.349	41.0989
808.761	58.13861
809.173	76.17828
809.584	68.16108
809.996	54.12772
810.408	43.10926
810.819	42.09582
811.231	110.28369
811.642	83.19915
812.053	55.13011
812.464	39.08946
812.875	45.11231
813.286	74.18592
813.697	33.07263
814.108	74.17298
814.519	60.12991
814.929	76.1862
815.34	10.02336
815.75	42.10461
816.16	61.14469
816.571	7.0177
816.981	36.08114
817.391	24.05566
817.801	27.0655
818.211	85.19358
818.62	36.08448
819.03	63.14834
819.44	29.0723
819.849	-24.05862
820.259	21.05169
820.668	-5.01207
821.077	16.0391
821.486	25.05756
821.895	34.08007
822.304	25.06437
822.713	30.06834
823.122	15.03633
823.531	1.00227
823.939	54.12762
824.348	-13.03066
824.756	27.06523
825.164	78.18761
825.573	16.0391
825.981	41.0977
826.389	63.1522
826.797	75.18426
827.205	21.04709
827.612	43.10192
828.02	-7.01592
828.428	19.04699
828.835	46.11835
829.243	8.01837
829.65	22.0536
830.057	17.03981
830.464	98.23142
830.871	49.11362
831.278	37.08651
831.685	4.00861
832.092	16.03761
832.499	43.09093
832.905	26.06339
833.312	26.05605
833.718	64.15476
834.124	69.15141
834.531	24.05806
834.937	90.22254
835.343	47.10825
835.749	54.11917
836.155	27.06872
836.561	40.09523
836.966	13.03072
837.372	47.11496
837.777	81.19442
838.183	25.05324
838.588	29.07027
838.993	32.07539
839.399	11.02626
839.804	7.01663
840.209	57.1419
840.613	35.07473
841.018	-4.00982
841.423	5.01251
841.828	57.13983
842.232	13.03067
842.637	102.23187
843.041	-6.0151
843.445	33.07945
843.849	42.10091
844.253	78.17659
844.657	14.03452
845.061	78.1722
845.465	-33.07806
845.869	57.12703
846.272	-22.05266
846.676	-13.03005
847.079	42.10423
847.483	47.11273
847.886	63.14562
848.289	46.12069
848.692	-15.03682
849.095	21.04856
849.498	34.08203
849.901	-16.03535
850.304	45.10335
850.707	23.05665
851.109	59.14286
851.512	24.05729
851.914	41.10073
852.316	74.18203
852.718	79.20165
853.121	5.01191
853.523	-9.02029
853.925	68.17299
854.326	29.07075
854.728	57.142
855.13	15.03805
855.531	34.07864
855.933	34.07785
856.334	24.05852
856.736	55.11926
857.137	50.11279
857.538	67.16332
857.939	55.13292
858.34	29.06748
858.741	7.01775
859.142	31.07143
859.542	45.11587
859.943	37.08874
860.343	5.01213
860.744	82.19123
861.144	28.06668
861.544	35.08244
861.945	34.08373
862.345	17.04004
862.745	51.12311
863.145	0
863.544	9.02218
863.944	41.09315
864.344	1.00238
864.743	77.18264
865.143	76.18943
865.542	-27.06017
865.941	43.1031
866.34	26.05927
866.74	21.05492
867.139	92.21328
867.537	-13.03194
867.936	44.10245
868.335	35.08589
868.734	28.06949
869.132	7.01552
869.531	25.05763
869.929	52.11423
870.327	7.01626
870.726	11.0263
871.124	35.078
871.522	31.07613
871.92	9.02154
872.318	-17.04017
872.715	19.04479
873.113	-8.01884
873.511	19.04568
873.908	46.11412
874.306	27.06557
874.703	11.02641
875.1	-5.01227
875.497	29.06677
875.894	62.14885
876.291	55.13006
876.688	8.0201
877.085	-25.05802
877.482	6.01457
877.878	54.12673
878.275	-1.00248
878.671	-20.04177
879.068	56.12962
879.464	17.03972
879.86	16.03656
880.256	-34.0806
880.652	34.08358
881.048	14.03321
881.444	-19.04331
881.84	9.02218
882.236	58.14004
882.631	75.17728
883.027	42.09737
883.422	-9.02227
883.817	-6.01481
884.213	42.10416
884.608	50.12081
885.003	14.03235
885.398	0
885.793	-2.00486
886.188	7.01685
886.582	19.04676
886.977	13.02959
887.371	33.08002
887.766	7.01701
888.16	-4.00953
888.554	64.15055
888.949	35.08478
889.343	57.1328
889.737	0
890.131	43.10404
890.525	60.14879
890.918	10.02439
891.312	46.10448
891.706	20.05081
892.099	9.02215
892.492	75.15228
892.886	30.07062
893.279	0
893.672	32.07939
894.065	54.13023
894.458	-5.0121
894.851	28.06568
895.244	-4.00994
895.637	63.14591
896.029	66.15573
896.422	-25.05875
896.814	-18.04344
897.206	42.09764
897.599	62.14686
897.991	53.12392
898.383	8.01833
898.775	53.11591
899.167	12.02749
899.559	71.17068
899.951	10.02255
900.342	-7.01715
900.734	56.1371
901.125	24.0606
901.517	55.12995
901.908	41.09292
902.299	61.14357
902.69	66.1504
903.082	106.24379
903.473	59.13778
903.863	16.03933
904.254	53.11938
904.645	4.00952
905.036	32.07636
905.426	22.04765
905.817	12.02829
906.207	-17.0389
906.597	46.1044
906.987	12.02992
907.378	17.04192
907.768	33.08486
908.158	-13.03074
908.547	46.11649
908.937	33.08074
909.327	7.01642
909.717	13.03143
910.106	31.07134
910.495	5.01196
910.885	66.16098
911.274	12.02901
911.663	18.0438
912.052	30.07049
912.441	59.14554
912.83	11.02416
913.219	29.07319
913.608	64.1509
913.997	58.14125
914.385	57.13044
914.774	6.01411
915.162	48.11119
915.55	20.04631
915.939	20.04931
916.327	42.10006
916.715	45.11247
917.103	15.03503
917.491	4.00956
917.878	48.11309
918.266	-16.0403
918.654	34.08469
919.041	17.0437
919.429	40.09064
919.816	53.12905
920.203	59.13865
920.591	41.09815
920.978	53.12455
921.365	27.06897
921.752	-15.03415
922.139	41.08507
922.525	-9.02108
922.912	43.10038
923.299	12.02894
923.685	10.0251
924.072	-8.01738
924.458	24.05775
924.844	36.08593
925.231	-5.01115
925.617	38.09444
926.003	19.04687
926.389	15.03663
926.774	43.10459
927.16	31.0741
927.546	46.11524
927.931	21.05029
928.317	0
928.702	27.06114
929.088	27.06303
929.473	40.09909
929.858	47.1114
930.243	47.10959
930.628	19.04519
931.013	38.09092
931.398	4.00871
931.783	30.07559
932.167	71.16802
932.552	42.10099
932.937	29.06897
933.321	29.07096
933.705	-23.05586
934.09	-17.04091
934.474	18.04077
934.858	25.06298
935.242	-15.03359
935.626	27.06726
936.009	48.12478
936.393	77.19064
936.777	39.09709
937.16	38.09643
937.544	-1.00224
937.927	42.10343
938.311	67.15517
938.694	73.18627
939.077	8.01852
939.46	27.06238
939.843	24.04658
940.226	6.01486
940.609	76.16828
940.991	13.03186
941.374	61.14391
941.757	47.11092
942.139	36.07785
942.522	40.09005
942.904	39.09015
943.286	42.10244
943.668	90.22579
944.05	45.1067
944.432	-5.01192
944.814	16.03767
945.196	-3.00716
945.578	46.10694
945.959	15.0335
946.341	-6.01399
946.722	36.08058
947.104	5.01157
947.485	46.10258
947.866	43.10537
948.247	17.04198
948.628	20.04607
949.009	38.09396
949.39	23.05489
949.771	5.01093
950.152	38.08991
950.532	51.12427
950.913	35.08103
951.293	28.07416
951.674	44.10221
952.054	47.11436
952.434	29.06961
952.814	42.09463
953.194	21.05251
953.574	31.07316
953.954	12.02718
954.334	65.15691
954.714	12.02845
955.093	5.0119
955.473	69.16738
955.853	29.07269
956.232	23.06117
956.611	81.18223
956.99	4.0098
957.37	-7.01722
957.749	-10.02272
958.128	19.04664
958.506	31.07798
958.885	17.04135
959.264	40.0957
959.643	91.19766
960.021	27.0651
960.4	13.02831
960.778	21.0491
961.156	20.04825
961.535	29.06417
961.913	89.199
962.291	33.08299
962.669	49.1202
963.047	32.07939
963.424	51.12719
963.802	87.20453
964.18	4.00964
964.557	33.07244
964.935	17.03876
965.312	50.12639
965.69	63.14961
966.067	14.03251
966.444	12.028
966.821	47.11696
967.198	18.04156
967.575	30.07049
967.952	72.16102
968.329	51.1199
968.705	129.2606
969.082	67.16758
969.458	28.06571
969.835	1.00236
970.211	52.13004
970.587	38.09133
970.963	28.06875
971.339	12.03059
971.715	68.163
972.091	22.05221
972.467	9.02138
972.843	55.13277
973.219	38.08659
973.594	21.05328
973.97	-21.04713
974.345	50.11527
974.721	41.09371
975.096	53.12406
975.471	40.09056
975.846	9.02071
976.221	8.01974
976.596	54.12633
976.971	73.17369
977.346	46.10147
977.72	-23.05682
978.095	34.08481
978.469	45.1024
978.844	51.12232
979.218	54.12613
979.593	51.11634
979.967	-19.04406
980.341	43.09527
980.715	32.07802
981.089	22.05314
981.463	26.05733
981.837	58.13765
982.21	-13.02842
982.584	43.10022
982.957	46.11127
983.331	13.02913
983.704	57.13614
984.078	-30.07191
984.451	35.08228
984.824	19.045
985.197	19.04374
985.57	9.02147
985.943	2.00469
986.316	23.05348
986.688	73.16746
987.061	92.20532
987.434	78.1978
987.806	23.05287
988.179	25.05645
988.551	9.022
988.923	38.08939
989.295	56.13337
989.667	54.12564
990.039	107.25585
990.411	-38.08361
990.783	22.0479
991.155	9.02101
991.527	44.10176
991.898	61.14653
992.27	48.11532
992.641	34.08156
993.012	-13.02878
993.384	28.06383
993.755	48.11856
994.126	69.16
994.497	10.02374
994.868	8.01746
995.239	42.09733
995.61	23.05598
995.98	5.01172
996.351	44.10559
996.722	87.19396
997.092	48.10951
997.462	35.07955
997.833	28.06311
998.203	38.08698
998.573	35.08433
998.943	48.10836
999.313	46.10639
999.683	22.05106
1000.053	-12.02602
1000.423	-11.0257
1000.792	11.0273
1001.162	12.02832
1001.531	45.10678
1001.901	20.04785
1002.27	10.02099
1002.639	4.00983
1003.009	7.01602
1003.378	44.1086
1003.747	28.06306
1004.116	5.01153
1004.485	45.10294
1004.853	-20.04858
1005.222	-11.02641
1005.591	57.12871
1005.959	46.09947
1006.328	43.09285
1006.696	9.02085
1007.064	31.07435
1007.433	3.0072
1007.801	2.00466
1008.169	1.00242
1008.537	76.15899
1008.905	12.02715
1009.273	28.06602
1009.64	46.10669
1010.008	32.07304
1010.375	22.0504
1010.743	19.04067
1011.11	60.13849
1011.478	64.15277
1011.845	60.13363
1012.212	58.12666
1012.579	8.01902
1012.946	19.04294
1013.313	38.08579
1013.68	73.15444
1014.047	62.14094
1014.414	-26.05949
1014.78	47.11269
1015.147	32.0733
1015.513	35.08096
1015.88	24.05878
1016.246	29.06791
1016.612	37.08016
1016.978	38.09012
1017.344	32.0763
1017.71	40.09284
1018.076	17.03809
1018.442	80.19759
1018.808	49.11887
1019.174	6.01447
1019.539	13.02741
1019.905	5.01145
1020.27	16.03802
1020.636	24.05447
1021.001	39.08986
1021.366	-8.0187
1021.731	111.27572
1022.096	30.07377
1022.461	69.156
1022.826	40.09192
1023.191	27.06858
1023.556	35.07806
1023.92	43.10034
1024.285	21.04875
1024.649	43.10034
1025.014	14.03303
1025.378	59.14323
1025.742	-2.00476
1026.107	48.103
1026.471	52.1149
1026.835	65.15406
1027.199	-33.07749
1027.562	-4.00886
1027.926	38.08855
1028.29	22.05382
1028.654	35.07661
1029.017	81.19027
1029.381	60.13739
1029.744	19.04689
1030.107	48.1085
1030.471	75.17198
1030.834	7.01503
1031.197	32.07386
1031.56	28.06298
1031.923	48.11973
1032.286	100.22179
1032.648	27.06102
1033.011	104.22884
1033.374	57.12608
1033.736	-13.03336
1034.099	17.03998
1034.461	30.07374
1034.823	50.12008
1035.185	22.05288
1035.548	56.13106
1035.91	15.03451
1036.272	79.17138
1036.634	62.14476
1036.995	9.02018
1037.357	32.07527
1037.719	39.09118
1038.08	97.2201
1038.442	12.02737
1038.803	-37.08488
1039.165	6.01457
1039.526	64.14773
1039.887	7.01613
1040.248	50.12036
1040.609	24.05641
1040.97	-7.0165
1041.331	76.18537
1041.692	85.19201
1042.053	55.11825
1042.413	1.00223
1042.774	55.12824
1043.134	39.08756
1043.495	21.0509
1043.855	55.12915
1044.215	20.04754
1044.576	21.04869
1044.936	23.05017
1045.296	70.16677
1045.656	5.01171
1046.016	20.04613
1046.375	31.07222
1046.735	64.1407
1047.095	84.18646
1047.454	47.09307
1047.814	48.11053
1048.173	47.10556
1048.533	11.02421
1048.892	-9.02102
1049.251	33.07903
1049.61	24.05698
1049.969	-7.01588
1050.328	68.13929
1050.687	2.00467
1051.046	-7.01642
1051.405	38.08984
1051.763	40.08901
1052.122	-13.03141
1052.48	21.04977
1052.839	71.16183
1053.197	22.04965
1053.555	8.01708
1053.914	61.14195
1054.272	-3.00684
1054.63	11.02603
1054.988	42.09656
1055.345	-12.02444
1055.703	43.09931
1056.061	51.12774
1056.419	74.18679
1056.776	4.00919
1057.134	3.00655
1057.491	49.11779
1057.848	61.14424
1058.206	0
1058.563	19.03992
1058.92	78.16932
1059.277	40.09468
1059.634	49.10825
1059.991	36.0829
1060.348	52.1124
1060.704	77.17897
1061.061	24.05228
1061.418	8.01875
1061.774	27.06417
1062.131	24.06248
1062.487	37.08218
1062.843	13.03126
1063.199	63.14995
1063.555	46.10283
1063.911	42.10122
1064.267	11.02149
1064.623	51.12008
1064.979	-33.07287
1065.335	19.0432
1065.691	38.08575
1066.046	57.11837
1066.402	-3.00651
1066.757	24.05847
1067.112	24.05637
1067.468	62.14168
1067.823	10.02263
1068.178	-1.00232
1068.533	50.11587
1068.888	57.12908
1069.243	-4.00956
1069.598	-2.00466
1069.952	56.12291
1070.307	34.08141
1070.662	66.15143
1071.016	39.08475
1071.371	34.07437
1071.725	-6.01372
1072.079	53.12212
1072.434	4.00943
1072.788	3.00678
1073.142	47.11092
1073.496	-1.00228
1073.85	-3.00669
1074.203	68.15746
1074.557	49.12736
1074.911	60.13529
1075.265	16.03566
1075.618	70.16312
1075.971	33.07509
1076.325	57.14019
1076.678	-9.01987
1077.031	-39.08359
1077.385	65.13475
1077.738	-21.04563
1078.091	-24.05336
1078.444	-17.0376
1078.796	46.10896
1079.149	13.03129
1079.502	23.05261
1079.855	9.02022
1080.207	6.01421
1080.56	20.05036
1080.912	47.10924
1081.264	49.1134
1081.617	54.12643
1081.969	22.05394
1082.321	-41.0971
1082.673	58.12821
1083.025	1.00227
1083.377	17.03834
1083.728	40.08857
1084.08	8.01915
1084.432	11.02544
1084.783	-9.0199
1085.135	28.06796
1085.486	8.01772
1085.838	43.10199
1086.189	34.08001
1086.54	8.0183
1086.891	77.19001
1087.242	56.13291
1087.593	42.09625
1087.944	68.14749
1088.295	67.14386
1088.646	88.20692
1088.996	-15.03526
1089.347	13.03054
1089.698	37.08484
1090.048	19.0474
1090.398	-34.07585
1090.749	14.03189
1091.099	31.07616
1091.449	53.12712
1091.799	31.07466
1092.149	-24.05779
1092.499	37.08664
1092.849	28.06878
1093.199	39.09297
1093.548	68.15765
1093.898	12.02886
1094.248	9.02214
1094.597	10.02508
1094.947	35.09053
1095.296	48.11436
1095.645	-2.00503
1095.994	73.16679
1096.343	63.15243
1096.692	52.13401
1097.041	49.13045
1097.39	14.03369
1097.739	46.11503
1098.088	45.11547
1098.437	41.10568
1098.785	-11.02867
1099.134	-3.00761
1099.482	42.11235
1099.83	75.18914
1100.179	27.06955
1100.527	13.0331
1100.875	26.06715
1101.223	47.1214
1101.571	0
1101.919	61.15713
1102.267	32.08846
1102.615	9.02889
1102.962	-4.01284
1103.31	-6.01929
1103.658	-13.04174
