Data from N1 R0 sample 9_Subt2__1__11-34-27-305.txt Node

Date: Tue Sep 16 11:34:27 PDT 2025
User: uwsun
Spectrometer: HDX01956
Trigger mode: 0
Integration Time (sec): 5.000000E-1
Scans to average: 1
Nonlinearity correction enabled: true
Boxcar width: 0
Storing dark spectrum: false
XAxis mode: Wavelengths
Number of Pixels in Spectrum: 2068
>>>>>Begin Spectral Data<<<<<
194.03	13.03767
194.578	31.10043
195.127	12.03842
195.676	12.03856
196.225	32.08501
196.773	5.01396
197.321	41.11407
197.87	92.23727
198.418	138.35564
198.966	153.40215
199.513	136.34622
200.061	111.28363
200.609	139.36659
201.156	121.26641
201.704	126.31804
202.251	169.4469
202.798	99.25837
203.345	138.34234
203.892	135.34179
204.438	104.24863
204.985	113.2703
205.532	156.40899
206.078	89.21954
206.624	146.36668
207.17	192.44687
207.716	141.34652
208.262	132.26317
208.808	166.416
209.354	130.32285
209.899	127.32051
210.445	118.29689
210.99	134.32816
211.535	180.42208
212.08	121.28246
212.625	110.27637
213.17	124.31723
213.715	161.36754
214.259	156.36394
214.804	113.27843
215.348	158.36498
215.892	181.43691
216.436	80.18488
216.98	83.18451
217.524	128.30729
218.068	150.37807
218.612	163.41312
219.155	119.2827
219.698	150.35613
220.242	76.18937
220.785	133.31291
221.328	113.27997
221.871	142.36124
222.414	110.27268
222.956	94.2261
223.499	107.23944
224.041	128.29203
224.583	91.19311
225.126	104.22903
225.668	130.31518
226.21	155.39005
226.751	152.33698
227.293	95.21583
227.835	145.35372
228.376	108.24591
228.918	100.24944
229.459	114.28456
230	147.35136
230.541	157.35812
231.082	135.32773
231.622	55.12586
232.163	89.21557
232.704	150.37333
233.244	81.20215
233.784	129.3114
234.324	134.30115
234.864	88.19988
235.404	103.2428
235.944	111.26135
236.484	123.30641
237.023	111.26166
237.563	153.35336
238.102	157.36822
238.641	109.2738
239.18	112.26325
239.719	129.32183
240.258	115.2584
240.797	136.32364
241.335	128.31009
241.874	171.3299
242.412	170.4092
242.95	137.33008
243.488	57.12944
244.026	149.34481
244.564	151.30896
245.102	150.33822
245.64	143.33918
246.177	68.15251
246.715	167.39733
247.252	126.28515
247.789	108.201
248.326	101.24427
248.863	121.26652
249.4	124.28074
249.936	143.29883
250.473	162.38017
251.009	104.23871
251.546	136.30326
252.082	98.21246
252.618	126.28166
253.154	93.22492
253.69	120.26903
254.226	165.39167
254.761	87.19661
255.297	124.27055
255.832	151.35705
256.367	112.26345
256.903	196.42963
257.438	143.33342
257.972	96.21487
258.507	137.31301
259.042	110.24
259.576	201.43845
260.111	148.33766
260.645	163.34908
261.179	113.26523
261.713	130.29085
262.247	122.27823
262.781	133.28015
263.315	67.16387
263.849	134.33448
264.382	100.23054
264.915	152.35782
265.449	60.14803
265.982	171.38454
266.515	142.34685
267.048	132.27957
267.58	141.30275
268.113	124.26825
268.646	92.22598
269.178	172.38036
269.71	203.44225
270.243	196.44807
270.775	155.39535
271.307	116.27562
271.838	164.38366
272.37	128.31289
272.902	147.33111
273.433	174.38237
273.965	140.33865
274.496	152.37404
275.027	140.3473
275.558	139.33832
276.089	138.34384
276.62	115.28971
277.15	140.3426
277.681	129.27722
278.211	156.3775
278.741	159.3511
279.272	171.38801
279.802	95.23718
280.332	122.28831
280.861	114.27275
281.391	188.42199
281.921	115.27498
282.45	96.23885
282.98	153.39615
283.509	153.34674
284.038	156.3552
284.567	210.48123
285.096	149.35995
285.625	135.30309
286.153	194.4581
286.682	163.37226
287.21	128.30425
287.739	151.35498
288.267	166.40139
288.795	166.42973
289.323	136.31916
289.851	218.50437
290.378	119.26574
290.906	149.36334
291.433	150.37211
291.961	184.4164
292.488	132.32674
293.015	177.41447
293.542	193.4907
294.069	185.45398
294.596	145.35279
295.122	202.47828
295.649	166.36065
296.175	173.41255
296.702	197.47607
297.228	175.41732
297.754	224.49493
298.28	190.43296
298.806	188.44823
299.332	139.31143
299.857	156.35347
300.383	173.43128
300.908	174.42485
301.433	208.50313
301.958	194.43957
302.483	147.363
303.008	200.4916
303.533	172.43987
304.058	149.34618
304.582	142.33532
305.107	164.42397
305.631	199.44567
306.155	162.37586
306.679	173.40447
307.203	223.50948
307.727	181.4255
308.251	204.49698
308.775	219.52544
309.298	215.51113
309.822	219.54137
310.345	211.49795
310.868	198.47262
311.391	255.61436
311.914	201.49779
312.437	262.58518
312.96	219.5086
313.482	181.42201
314.005	176.43581
314.527	199.51096
315.049	209.52233
315.571	217.48237
316.093	193.47343
316.615	198.4699
317.137	250.53411
317.659	224.53426
318.18	248.57878
318.702	249.57254
319.223	226.45372
319.744	274.60211
320.265	264.62941
320.786	270.6597
321.307	267.64448
321.828	262.5784
322.348	205.47759
322.869	285.66211
323.389	331.62601
323.909	227.51109
324.43	245.57459
324.95	287.64008
325.47	274.66424
325.989	307.70729
326.509	293.63939
327.029	351.77178
327.548	268.59437
328.067	324.76176
328.587	336.81481
329.106	282.61969
329.625	359.89904
330.144	332.7467
330.662	336.76281
331.181	371.84038
331.7	282.63972
332.218	388.80376
332.736	321.72862
333.255	351.79702
333.773	331.75588
334.291	360.86742
334.808	347.75465
335.326	375.80721
335.844	382.86195
336.361	398.98173
336.879	418.93699
337.396	374.87585
337.913	404.89109
338.43	405.87103
338.947	388.88833
339.464	396.81593
339.981	352.80528
340.497	398.93568
341.014	450.0364
341.53	371.80409
342.046	472.11175
342.562	441.04082
343.078	443.98832
343.594	456.02263
344.11	506.13311
344.626	489.1601
345.141	473.01706
345.657	427.91873
346.172	482.093
346.687	419.91546
347.202	543.14982
347.717	470.05538
348.232	489.14404
348.747	503.08632
349.261	534.08757
349.776	579.26887
350.29	543.2656
350.805	540.24057
351.319	500.08698
351.833	535.1447
352.347	516.1375
352.861	569.23277
353.374	474.01287
353.888	589.32709
354.401	521.10364
354.915	571.1897
355.428	602.37987
355.941	528.14406
356.454	550.13038
356.967	526.14117
357.48	522.1007
357.993	614.3832
358.505	564.26785
359.018	622.39438
359.53	587.32096
360.042	613.253
360.554	642.43278
361.066	551.24289
361.578	670.33348
362.09	631.36844
362.602	628.27413
363.113	733.53922
363.625	707.43628
364.136	638.2697
364.647	673.44289
365.158	620.31741
365.669	630.37178
366.18	654.39517
366.691	661.30486
367.201	675.46148
367.712	703.44243
368.222	746.5256
368.733	723.39674
369.243	708.41511
369.753	705.45499
370.263	754.61984
370.773	713.55565
371.282	798.67768
371.792	816.65386
372.301	768.64286
372.811	852.96175
373.32	890.64492
373.829	846.73267
374.338	911.7228
374.847	917.80681
375.356	932.87204
375.865	996.77359
376.373	1033.94729
376.882	1054.23293
377.39	1089.16467
377.898	1125.26529
378.407	1114.05343
378.915	1221.09799
379.423	1261.30283
379.93	1370.43454
380.438	1328.47962
380.946	1374.44042
381.453	1481.66034
381.96	1628.79959
382.468	1616.73207
382.975	1796.05575
383.482	1764.68413
383.989	1830.28891
384.495	1927.96235
385.002	2040.61027
385.509	2162.20462
386.015	2296.59393
386.521	2393.07723
387.028	2510.09692
387.534	2578.81817
388.04	2595.41677
388.546	2736.98088
389.051	2964.9592
389.557	3167.21134
390.063	3261.04499
390.568	3432.38972
391.073	3474.88551
391.578	3693.42085
392.084	3944.85001
392.589	4114.4505
393.093	4496.90934
393.598	4871.41653
394.103	5197.47205
394.607	5737.27338
395.112	6102.26388
395.616	6298.11353
396.12	6974.67032
396.624	7808.11298
397.128	8382.68649
397.632	9149.7603
398.136	9975.7187
398.639	11262.36194
399.143	12921.10116
399.646	14253.70567
400.15	15750.23416
400.653	17878.32906
401.156	20297.24905
401.659	24001.62955
402.162	31659.79851
402.664	49079.99799
403.167	62083.74782
403.67	63769.22307
404.172	63919.58413
404.674	63858.43483
405.176	63738.15102
405.678	63977.72923
406.18	64011.81569
406.682	63863.44694
407.184	63926.60148
407.686	63841.39382
408.187	64025.8516
408.688	58421.65652
409.19	45855.5069
409.691	38285.89128
410.192	32981.50081
410.693	29694.64234
411.194	27950.46606
411.694	25937.27745
412.195	23905.39264
412.696	22563.84196
413.196	22006.80259
413.696	22262.99306
414.196	21422.03326
414.696	20059.468
415.196	18005.4677
415.696	14610.6459
416.196	11669.31287
416.695	10196.34534
417.195	9646.83439
417.694	8990.35482
418.194	8416.4031
418.693	8035.17704
419.192	7850.15044
419.691	7727.01365
420.19	7500.06224
420.688	7208.0998
421.187	6654.11867
421.685	6147.88652
422.184	5422.30425
422.682	4642.19081
423.18	4148.79961
423.678	3937.85312
424.176	3565.98303
424.674	3484.85124
425.172	3236.23466
425.669	2854.49811
426.167	2654.16382
426.664	2465.01281
427.161	2228.99681
427.659	2153.21085
428.156	2105.62651
428.652	1951.25643
429.149	1916.06125
429.646	1772.62094
430.143	1692.82341
430.639	1538.63272
431.135	1504.78468
431.632	1416.39057
432.128	1362.48112
432.624	1343.6877
433.12	1317.27577
433.616	1272.11727
434.111	1203.24611
434.607	1176.23059
435.103	1107.81978
435.598	1102.80001
436.093	1011.92992
436.588	959.78197
437.083	934.73672
437.578	912.77047
438.073	807.75197
438.568	898.87483
439.062	833.50527
439.557	767.55338
440.051	727.42193
440.546	727.43871
441.04	760.58791
441.534	671.50464
442.028	774.61719
442.522	657.40188
443.015	618.1756
443.509	684.47122
444.002	630.37932
444.496	592.14683
444.989	632.36974
445.482	569.27675
445.975	659.34777
446.468	605.16619
446.961	640.22757
447.454	545.10523
447.947	582.25213
448.439	590.30468
448.931	639.3015
449.424	544.26271
449.916	585.28688
450.408	517.07653
450.9	530.1728
451.392	558.28759
451.884	525.09613
452.375	531.1982
452.867	510.04284
453.358	478.00467
453.849	508.98739
454.341	494.01874
454.832	473.93667
455.323	465.06994
455.814	450.95093
456.304	491.03907
456.795	482.00775
457.285	415.84873
457.776	475.99386
458.266	394.87522
458.756	370.82157
459.247	458.00986
459.737	469.04473
460.226	454.95476
460.716	435.96486
461.206	393.8797
461.695	324.76027
462.185	371.82773
462.674	421.89336
463.163	431.89502
463.653	437.85768
464.142	358.81769
464.63	375.85289
465.119	376.81962
465.608	420.91435
466.096	347.70838
466.585	329.71064
467.073	321.71767
467.561	340.77033
468.05	350.75842
468.538	389.88901
469.026	276.62585
469.513	296.59343
470.001	369.79464
470.489	323.7275
470.976	353.7765
471.463	302.71585
471.951	278.66049
472.438	279.62584
472.925	309.69085
473.412	306.70541
473.899	303.66009
474.385	267.62618
474.872	285.63378
475.359	289.67803
475.845	295.5798
476.331	222.45619
476.817	238.55785
477.303	255.56872
477.789	227.52154
478.275	221.53003
478.761	229.52424
479.247	243.52084
479.732	229.55152
480.218	229.57975
480.703	206.49171
481.188	232.48384
481.673	220.48874
482.158	241.50093
482.643	210.51979
483.128	201.45497
483.612	189.43824
484.097	191.44743
484.581	202.45323
485.066	212.50293
485.55	184.39635
486.034	167.35378
486.518	234.54031
487.002	118.28264
487.486	175.41396
487.969	136.32451
488.453	169.41026
488.936	185.40526
489.42	177.38168
489.903	153.37254
490.386	55.11386
490.869	209.44352
491.352	116.27509
491.835	127.25597
492.318	140.30895
492.8	168.33977
493.283	135.3385
493.765	124.29927
494.247	160.36416
494.73	195.41905
495.212	79.18594
495.694	152.35112
496.175	128.30285
496.657	173.39955
497.139	117.19825
497.62	138.32613
498.102	152.37072
498.583	29.07133
499.064	140.30662
499.545	90.20351
500.026	164.36282
500.507	114.25904
500.988	157.38413
501.469	88.21727
501.949	134.32512
502.43	132.31303
502.91	162.33635
503.39	96.23545
503.87	153.35449
504.35	61.14229
504.83	94.20388
505.31	83.19854
505.79	75.17625
506.269	54.1238
506.749	129.2901
507.228	85.19873
507.707	111.2449
508.187	133.31266
508.666	106.25969
509.145	135.31043
509.623	107.24771
510.102	108.25819
510.581	109.25994
511.059	72.18031
511.538	104.26504
512.016	119.28139
512.494	89.21216
512.972	99.23482
513.45	92.21295
513.928	86.20764
514.406	91.22141
514.884	104.26532
515.361	80.19038
515.839	103.23504
516.316	103.24789
516.793	104.25969
517.27	78.18655
517.747	89.22661
518.224	95.21705
518.701	88.19322
519.178	92.2284
519.654	89.20923
520.131	76.1873
520.607	42.10271
521.083	70.1581
521.56	38.0898
522.036	77.16697
522.512	106.25902
522.987	127.3017
523.463	71.16769
523.939	110.27009
524.414	68.15521
524.89	98.23187
525.365	98.21953
525.84	92.21952
526.315	50.12118
526.79	88.19729
527.265	76.175
527.74	36.08761
528.215	50.1167
528.689	32.07053
529.164	45.09679
529.638	42.10651
530.112	46.10833
530.587	107.22677
531.061	86.20686
531.534	70.16812
532.008	87.21025
532.482	58.13329
532.956	45.11482
533.429	170.40703
533.903	90.19595
534.376	49.10856
534.849	79.18079
535.322	86.20166
535.795	10.02434
536.268	119.28454
536.741	24.05729
537.213	61.1401
537.686	110.26629
538.158	105.23671
538.631	69.16663
539.103	115.25692
539.575	96.1962
540.047	79.1716
540.519	114.26931
540.991	84.20365
541.463	105.25011
541.934	64.14449
542.406	121.28723
542.877	49.11087
543.348	120.28633
543.82	131.31396
544.291	131.30159
544.762	128.30074
545.233	139.34702
545.703	113.249
546.174	165.37485
546.645	146.34757
547.115	168.39733
547.585	135.30608
548.056	208.49781
548.526	154.35942
548.996	185.43185
549.466	158.377
549.935	216.50133
550.405	185.39687
550.875	229.52677
551.344	181.42185
551.814	245.54167
552.283	257.53943
552.752	258.58267
553.221	300.63176
553.69	335.7174
554.159	289.69019
554.628	317.68384
555.096	333.80648
555.565	260.55283
556.033	375.84218
556.502	320.73503
556.97	352.73865
557.438	364.80523
557.906	382.84645
558.374	414.89517
558.842	418.9343
559.31	419.87166
559.777	459.03759
560.245	440.93428
560.712	445.94222
561.18	473.96033
561.647	434.8902
562.114	483.01364
562.581	536.20088
563.048	536.11097
563.514	676.505
563.981	619.25956
564.448	667.32288
564.914	602.24799
565.381	719.42684
565.847	717.45331
566.313	681.38528
566.779	758.46412
567.245	719.44675
567.711	772.5945
568.176	787.50462
568.642	842.81598
569.108	831.74673
569.573	774.5365
570.038	916.5603
570.504	853.61843
570.969	859.81037
571.434	957.73427
571.899	957.87338
572.363	961.80779
572.828	1031.91224
573.293	1003.86574
573.757	1054.96709
574.222	1043.87042
574.686	1082.9837
575.15	1103.1257
575.614	1176.17562
576.078	1093.04618
576.542	1066.93963
577.006	1108.97462
577.469	1109.18922
577.933	1133.02684
578.396	1091.06846
578.86	1099.06148
579.323	1158.20592
579.786	1132.90689
580.249	1179.17417
580.712	1062.08992
581.175	1077.1477
581.637	1093.97735
582.1	978.72353
582.563	1044.75336
583.025	1031.04633
583.487	1097.74851
583.95	978.6895
584.412	1026.70899
584.874	977.97016
585.336	963.88514
585.797	1026.783
586.259	979.87775
586.721	950.84085
587.182	969.83
587.643	929.74236
588.105	885.7551
588.566	862.48621
589.027	909.87144
589.488	895.7131
589.949	861.77334
590.41	879.42131
590.87	824.5994
591.331	880.59727
591.791	834.63653
592.252	780.56066
592.712	787.62224
593.172	734.44479
593.632	814.53194
594.092	726.39819
594.552	753.39577
595.011	677.35963
595.471	724.42307
595.931	689.35895
596.39	669.41888
596.849	652.34156
597.308	606.14154
597.768	672.54353
598.227	610.31076
598.685	595.21065
599.144	607.27883
599.603	558.17674
600.062	605.12709
600.52	558.13447
600.978	531.13906
601.437	551.12913
601.895	524.01389
602.353	545.07702
602.811	560.13596
603.269	510.1064
603.727	483.06441
604.184	484.00926
604.642	550.22623
605.099	508.08191
605.557	439.99113
606.014	471.92878
606.471	449.04416
606.928	508.02607
607.385	501.15154
607.842	455.96255
608.299	447.9663
608.755	424.9563
609.212	466.95497
609.668	403.84771
610.125	465.03195
610.581	411.89761
611.037	397.82921
611.493	370.81098
611.949	371.85096
612.405	382.72478
612.861	325.70801
613.316	338.76642
613.772	382.81892
614.227	378.85327
614.683	317.63567
615.138	280.62821
615.593	307.67759
616.048	314.68187
616.503	285.66159
616.958	294.7036
617.412	308.69585
617.867	335.70779
618.321	301.5888
618.776	287.60239
619.23	275.61636
619.684	274.58411
620.138	290.63217
620.592	258.60117
621.046	280.6326
621.5	197.46076
621.954	201.43101
622.407	234.4982
622.861	202.47607
623.314	240.52252
623.768	231.52648
624.221	205.38998
624.674	174.39217
625.127	205.46194
625.58	209.45397
626.033	218.45989
626.485	211.48866
626.938	195.45107
627.39	220.49706
627.843	163.36715
628.295	190.4256
628.747	242.55522
629.199	227.4981
629.651	183.40815
630.103	179.39972
630.555	168.34491
631.006	194.4376
631.458	149.3433
631.909	155.33926
632.361	116.26369
632.812	185.41619
633.263	223.466
633.714	179.36808
634.165	128.30156
634.616	108.25186
635.067	160.34376
635.518	171.39493
635.968	184.34995
636.419	190.40241
636.869	161.37213
637.319	156.35376
637.769	143.31498
638.219	167.384
638.669	92.21632
639.119	108.25474
639.569	111.26237
640.019	155.34985
640.468	104.23018
640.918	130.30257
641.367	107.23628
641.816	110.24102
642.265	174.39522
642.714	125.28168
643.163	179.40237
643.612	153.36682
644.061	175.36391
644.51	160.35811
644.958	133.28828
645.406	123.28904
645.855	88.21143
646.303	133.30154
646.751	132.29994
647.199	148.32811
647.647	139.31643
648.095	80.1809
648.543	120.23935
648.99	150.35256
649.438	113.25734
649.885	148.36124
650.333	155.29343
650.78	115.27372
651.227	154.36844
651.674	121.27166
652.121	127.30622
652.568	143.34324
653.015	60.1476
653.461	103.24167
653.908	82.18656
654.354	108.25345
654.801	102.23609
655.247	118.25123
655.693	58.14995
656.139	66.15646
656.585	103.24261
657.031	126.29095
657.477	175.3717
657.922	88.19786
658.368	118.28512
658.813	94.21109
659.259	108.2581
659.704	136.31616
660.149	77.176
660.594	107.25027
661.039	93.20948
661.484	120.2793
661.929	120.27555
662.373	43.10755
662.818	77.18861
663.262	103.24563
663.707	121.30253
664.151	105.25222
664.595	77.18454
665.039	107.26151
665.483	101.25334
665.927	115.26528
666.371	127.29332
666.814	80.18811
667.258	130.30734
667.701	149.30984
668.145	109.26699
668.588	146.3537
669.031	57.13332
669.474	80.18994
669.917	119.25595
670.36	107.26297
670.803	183.42903
671.245	85.17187
671.688	102.2445
672.13	112.24923
672.573	68.17017
673.015	149.35082
673.457	132.28116
673.899	158.37237
674.341	69.16474
674.783	99.23383
675.225	127.30646
675.666	137.32821
676.108	79.16897
676.549	101.2316
676.991	118.25407
677.432	120.23334
677.873	63.14266
678.314	84.19744
678.755	176.42139
679.196	104.23383
679.637	76.17982
680.078	142.32371
680.518	106.23911
680.959	89.2089
681.399	103.2507
681.839	108.2575
682.28	102.24943
682.72	131.29278
683.16	106.25998
683.6	134.29769
684.039	139.27951
684.479	157.37741
684.919	136.31266
685.358	71.17469
685.798	55.14192
686.237	116.27105
686.676	94.20918
687.115	118.27237
687.554	156.36308
687.993	130.28075
688.432	106.23735
688.871	150.33462
689.309	170.39535
689.748	134.27151
690.186	70.1617
690.625	147.33613
691.063	112.26181
691.501	175.41924
691.939	149.36551
692.377	83.19824
692.815	180.42603
693.253	110.25643
693.69	63.13638
694.128	125.29661
694.565	106.24613
695.003	144.35866
695.44	141.32526
695.877	143.32751
696.314	116.23837
696.751	139.3063
697.188	161.36176
697.625	145.31482
698.061	84.1979
698.498	117.27011
698.934	131.30508
699.371	97.22403
699.807	121.27879
700.243	121.28512
700.679	101.22041
701.115	133.30191
701.551	107.24309
701.987	95.20319
702.422	160.37004
702.858	149.34508
703.294	206.45288
703.729	129.30562
704.164	115.26803
704.599	196.42002
705.035	124.27101
705.47	76.18155
705.904	123.27751
706.339	176.38921
706.774	123.28068
707.209	167.37555
707.643	147.34113
708.078	124.29384
708.512	107.26248
708.946	146.33511
709.38	167.38324
709.814	151.3305
710.248	170.40174
710.682	156.36294
711.116	145.343
711.549	47.11853
711.983	123.27649
712.416	170.38942
712.85	114.27535
713.283	127.29156
713.716	137.32958
714.149	90.20393
714.582	151.32799
715.015	131.31204
715.448	160.38994
715.881	93.19495
716.313	135.30583
716.746	123.28329
717.178	98.23043
717.61	152.37459
718.043	69.16738
718.475	136.32028
718.907	158.38104
719.339	113.24953
719.77	132.30711
720.202	63.15512
720.634	132.31484
721.065	80.18466
721.497	107.25546
721.928	77.18447
722.359	92.21927
722.79	69.16228
723.221	44.10768
723.652	101.25042
724.083	86.18899
724.514	166.36679
724.945	56.12895
725.375	114.25936
725.806	92.22137
726.236	92.22973
726.666	76.17542
727.096	69.16549
727.526	121.30351
727.956	67.15036
728.386	111.26461
728.816	52.13116
729.246	112.26929
729.675	-13.03156
730.105	111.26379
730.534	86.19558
730.964	105.25481
731.393	76.18204
731.822	104.25904
732.251	115.28378
732.68	64.14502
733.109	85.20496
733.537	62.14902
733.966	96.23406
734.395	84.18964
734.823	43.0934
735.251	35.08286
735.68	79.1902
736.108	27.06655
736.536	101.22974
736.964	28.06399
737.392	46.11299
737.82	60.14026
738.247	70.16299
738.675	49.1129
739.102	57.13947
739.53	104.26082
739.957	75.19023
740.384	44.10398
740.811	27.06616
741.238	83.199
741.665	87.19973
742.092	-2.00455
742.519	63.15346
742.945	104.24616
743.372	76.18481
743.798	45.1132
744.225	56.12972
744.651	34.0837
745.077	78.18989
745.503	-8.01914
745.929	108.25434
746.355	43.10262
746.781	37.08932
747.207	68.15821
747.632	93.22543
748.058	93.22873
748.483	93.20777
748.908	49.11994
749.334	69.16656
749.759	84.19543
750.184	80.18847
750.609	84.20043
751.033	70.15919
751.458	123.2641
751.883	54.13008
752.307	38.08792
752.732	104.25913
753.156	68.16356
753.58	71.16313
754.005	5.01239
754.429	74.17156
754.853	58.14167
755.277	52.12117
755.7	66.16019
756.124	35.08564
756.548	11.02565
756.971	64.15265
757.394	36.09042
757.818	30.07627
758.241	53.13218
758.664	42.10419
759.087	48.10628
759.51	40.09676
759.933	6.01437
760.356	92.23156
760.778	31.07495
761.201	48.11348
761.623	37.08624
762.046	32.07327
762.468	78.18155
762.89	42.10033
763.312	79.18861
763.734	59.13919
764.156	25.06078
764.578	62.13757
765	60.14289
765.421	29.07295
765.843	22.0567
766.264	23.05344
766.686	8.01955
767.107	55.13031
767.528	65.16357
767.949	39.09705
768.37	61.14803
768.791	17.04004
769.212	31.07692
769.632	45.10339
770.053	-39.1013
770.473	55.1293
770.894	14.03383
771.314	28.06466
771.734	40.09119
772.154	22.05514
772.575	28.06316
772.994	-15.03355
773.414	56.12957
773.834	3.00736
774.254	27.06459
774.673	86.20458
775.093	50.12191
775.512	40.09683
775.931	16.03995
776.351	39.09542
776.77	20.04834
777.189	20.04666
777.607	34.08512
778.026	27.06601
778.445	25.06244
778.864	35.08672
779.282	8.01872
779.701	37.0908
780.119	33.08206
780.537	18.04395
780.955	13.03224
781.373	28.06771
781.791	68.15025
782.209	0
782.627	-2.0052
783.045	-13.02909
783.462	34.08499
783.88	30.07624
784.297	31.07638
784.715	32.08095
785.132	34.07985
785.549	37.09029
785.966	41.10076
786.383	19.04611
786.8	66.14839
787.217	88.20377
787.633	16.03962
788.05	41.09262
788.466	60.13512
788.883	76.19005
789.299	-8.01866
789.715	68.16108
790.131	34.08259
790.547	33.08026
790.963	24.05812
791.379	-25.06246
791.795	6.01324
792.21	40.09027
792.626	1.0023
793.041	3.00724
793.457	45.1074
793.872	9.0205
794.287	77.18081
794.702	63.1477
795.117	39.09496
795.532	43.10595
795.947	17.03931
796.362	19.04324
796.776	67.14814
797.191	46.10972
797.605	13.03026
798.02	19.04507
798.434	59.12674
798.848	76.1837
799.262	37.08942
799.676	81.1905
800.09	66.15694
800.504	2.00472
800.918	13.02905
801.331	-30.07564
801.745	31.06868
802.158	-16.03891
802.572	47.11049
802.985	58.13409
803.398	67.15357
803.811	-19.04694
804.224	10.02396
804.637	40.09292
805.05	23.05134
805.462	13.03095
805.875	25.06352
806.288	35.08267
806.7	-6.01461
807.112	-3.00672
807.525	-22.05237
807.937	2.00485
808.349	25.06049
808.761	53.12678
809.173	-3.00715
809.584	61.14469
809.996	37.0878
810.408	51.1294
810.819	24.05496
811.231	111.28621
811.642	48.11594
812.053	79.18601
812.464	-28.06509
812.875	27.0676
813.286	73.18344
813.697	12.02653
814.108	28.06604
814.519	117.25024
814.929	44.10844
815.34	-14.03285
815.75	50.12436
816.16	25.05971
816.571	28.07053
816.981	23.05198
817.391	9.02094
817.801	14.03404
818.211	36.0828
818.62	21.04943
819.03	29.06873
819.44	-18.04526
819.849	19.04604
820.259	-6.01484
820.668	39.0934
821.077	71.17172
821.486	1.00231
821.895	-23.05477
822.304	10.02582
822.713	30.06834
823.122	33.07966
823.531	-3.00682
823.939	45.10653
824.348	5.01175
824.756	23.05561
825.164	19.04621
825.573	11.0269
825.981	24.05738
826.389	47.11389
826.797	69.1697
827.205	67.14882
827.612	60.14174
828.02	2.00454
828.428	28.06913
828.835	29.07483
829.243	12.02753
829.65	59.14275
830.057	39.09093
830.464	97.2291
830.871	30.06983
831.278	32.07489
831.685	36.07695
832.092	41.0959
832.499	56.11809
832.905	24.05854
833.312	29.06248
833.718	85.20472
834.124	57.12539
834.531	12.02909
834.937	58.14425
835.343	12.02783
835.749	19.04224
836.155	41.1041
836.561	58.1376
836.966	86.20032
837.372	42.10282
837.777	22.0534
838.183	25.05324
838.588	64.15406
838.993	103.23931
839.399	28.06663
839.804	-33.079
840.209	42.10484
840.613	39.0832
841.018	20.04887
841.423	34.08462
841.828	58.14225
842.232	-5.01184
842.637	35.08064
843.041	13.03261
843.445	-27.06574
843.849	48.11519
844.253	28.06404
844.657	41.10058
845.061	79.17438
845.465	33.07707
845.869	47.10496
846.272	54.12737
846.676	19.04364
847.079	30.07461
847.483	47.11273
847.886	72.16613
848.289	28.07369
848.692	41.09961
849.095	39.08986
849.498	24.05801
849.901	6.0132
850.304	79.1802
850.707	48.11768
851.109	68.16437
851.512	19.0454
851.914	43.1056
852.316	79.19415
852.718	83.21171
853.121	30.07115
853.523	43.09591
853.925	11.02827
854.326	17.04156
854.728	11.02763
855.13	34.08595
855.531	-9.02099
855.933	24.05507
856.334	36.08758
856.736	27.0589
857.137	41.09266
857.538	28.06875
857.939	36.08731
858.34	25.05822
858.741	13.03294
859.142	14.03237
859.542	60.15409
859.943	15.03613
860.343	30.07243
860.744	54.12663
861.144	87.20485
861.544	18.04254
861.945	33.08128
862.345	29.06815
862.745	67.16125
863.145	13.02945
863.544	23.05655
863.944	-2.00458
864.344	-13.03103
864.743	49.11685
865.143	43.10782
865.542	-16.03558
865.941	23.05535
866.34	19.04338
866.74	21.05492
867.139	47.10993
867.537	1.00245
867.936	15.03513
868.335	22.05412
868.734	-17.04254
869.132	-43.09634
869.531	16.03695
869.929	1.00222
870.327	-15.035
870.726	10.02392
871.124	26.05805
871.522	-23.05705
871.92	35.08334
872.318	-9.02123
872.715	13.03068
873.113	25.0585
873.511	0
873.908	8.01998
874.306	52.12569
874.703	-12.02894
875.1	17.04153
875.497	10.02311
875.894	36.08685
876.291	0
876.688	31.07756
877.085	21.04829
877.482	38.09175
877.878	53.1244
878.275	13.03216
878.671	18.03727
879.068	93.21368
879.464	3.00703
879.86	17.03884
880.256	20.04692
880.652	12.02962
881.048	27.06389
881.444	-15.03416
881.84	-13.03216
882.236	9.02193
882.631	14.03348
883.027	43.09967
883.422	-4.00989
883.817	19.04668
884.213	34.08444
884.608	56.13516
885.003	-5.0116
885.398	40.09672
885.793	20.04838
886.188	-2.00482
886.582	11.02711
886.977	13.02959
887.371	2.00488
887.766	18.04366
888.16	23.05449
888.554	52.1226
888.949	84.20159
889.343	15.03524
889.737	-11.02895
890.131	47.11363
890.525	27.06736
890.918	35.08497
891.312	9.0206
891.706	2.0051
892.099	37.0906
892.492	69.14029
892.886	15.03541
893.279	36.08836
893.672	44.10892
894.065	65.15643
894.458	-8.01937
894.851	45.10521
895.244	-14.03485
895.637	37.08614
896.029	60.14174
896.422	20.04659
896.814	-11.02651
897.206	59.1367
897.599	87.20509
897.991	41.09609
898.383	28.06391
898.775	85.18463
899.167	-4.00919
899.559	34.08231
899.951	-3.00678
900.342	21.05117
900.734	77.18777
901.125	-6.01523
901.517	46.10888
901.908	33.07491
902.299	16.03799
902.69	68.15489
903.082	41.09552
903.473	57.13317
903.863	18.04423
904.254	77.17259
904.645	58.13654
905.036	66.15646
905.426	18.03902
905.817	22.05177
906.207	1.00228
906.597	51.11563
906.987	18.04483
907.378	36.08846
907.768	39.10018
908.158	29.06802
908.547	37.09385
908.937	29.07101
909.327	26.06075
909.717	13.03143
910.106	28.06448
910.495	29.06903
910.885	32.07854
911.274	26.06268
911.663	69.16631
912.052	36.08448
912.441	49.12109
912.83	30.06562
913.219	43.10825
913.608	76.17877
913.997	38.09289
914.385	72.16427
914.774	40.09347
915.162	55.12723
915.55	12.02783
915.939	30.07383
916.327	-19.0458
916.715	30.07518
917.103	-4.00938
917.491	74.17441
917.878	55.1294
918.266	-11.02768
918.654	76.18785
919.041	26.06673
919.429	55.12424
919.816	26.06363
920.203	79.18492
920.591	62.14783
920.978	50.11757
921.365	44.11205
921.752	26.0587
922.139	73.15038
922.525	44.10201
922.912	30.07021
923.299	37.08881
923.685	-22.05553
924.072	6.013
924.458	28.06732
924.844	38.09067
925.231	-6.01339
925.617	38.09444
926.003	23.05669
926.389	15.03663
926.774	13.0318
927.16	42.10018
927.546	52.13013
927.931	52.12379
928.317	26.05709
928.702	38.08586
929.088	106.2436
929.473	31.07692
929.858	38.09022
930.243	77.17848
930.628	79.18572
931.013	41.09804
931.398	43.09289
931.783	6.01518
932.167	105.24684
932.552	-19.04621
932.937	67.15819
933.321	31.07582
933.705	-19.04611
934.09	-1.0024
934.474	8.01816
934.858	33.08302
935.242	-3.0067
935.626	40.09941
936.009	35.09119
936.393	78.19308
936.777	66.16349
937.16	65.16416
937.544	2.00447
937.927	12.02972
938.311	54.12539
938.694	64.16356
939.077	22.05078
939.46	-8.01861
939.843	5.00975
940.226	-2.00496
940.609	76.16828
940.991	-8.01968
941.374	42.09945
941.757	27.06397
942.139	74.15872
942.522	53.11899
942.904	46.10618
943.286	29.0709
943.668	54.13635
944.05	22.05239
944.432	-20.04783
944.814	-2.00472
945.196	-12.02869
945.578	5.01172
945.959	30.06679
946.341	22.05102
946.722	7.01576
947.104	25.0576
947.485	22.0493
947.866	10.02465
948.247	32.07881
948.628	2.00462
949.009	20.04962
949.39	40.09515
949.771	1.00219
950.152	40.0946
950.532	72.17476
950.913	27.06261
951.293	5.01329
951.674	38.08838
952.054	18.04403
952.434	-5.01208
952.814	5.01135
953.194	-3.00753
953.574	59.13849
953.954	-27.06164
954.334	27.06565
954.714	38.08963
955.093	56.13193
955.473	58.14099
955.853	50.12485
956.232	-6.01603
956.611	-16.03671
956.99	49.11904
957.37	-31.07661
957.749	35.07881
958.128	14.0344
958.506	-1.00253
958.885	-5.01221
959.264	36.0862
959.643	57.12471
960.021	30.0723
960.4	13.02831
960.778	-8.01881
961.156	26.06266
961.535	22.04875
961.913	61.13718
962.291	14.03533
962.669	29.0714
963.047	63.1554
963.424	57.142
963.802	32.07603
964.18	11.02647
964.557	45.09854
964.935	54.12221
965.312	40.10129
965.69	31.07407
966.067	32.07404
966.444	-23.05403
966.821	48.11943
967.198	7.0162
967.575	26.06114
967.952	71.15881
968.329	38.08956
968.705	92.18743
969.082	50.12544
969.458	34.0797
969.835	48.11207
970.211	34.0853
970.587	66.15779
970.963	-4.00988
971.339	25.06359
971.715	49.11788
972.091	35.08286
972.467	-4.00953
972.843	70.1685
973.219	28.06393
973.594	-30.07681
973.97	21.04672
974.345	42.09698
974.721	33.07555
975.096	65.1518
975.471	33.07482
975.846	22.0505
976.221	28.06883
976.596	104.24091
976.971	47.11238
977.346	66.14498
977.72	36.08797
978.095	32.07985
978.469	47.10691
978.844	57.13656
979.218	59.13768
979.593	22.05048
979.967	13.02995
980.341	68.14988
980.715	60.14552
981.089	62.14862
981.463	0
981.837	62.14703
982.21	54.11637
982.584	24.05615
982.957	0
983.331	0
983.704	88.20893
984.078	-1.00238
984.451	31.07293
984.824	61.14329
985.197	-17.03942
985.57	-35.0842
985.943	39.09072
986.316	33.07658
986.688	65.14935
987.061	28.06332
987.434	98.24763
987.806	-43.10014
988.179	-19.04329
988.551	42.10206
988.923	5.01184
989.295	62.14749
989.667	22.05151
990.039	87.20882
990.411	-32.07032
990.783	-1.00219
991.155	-19.0446
991.527	21.04879
991.898	32.07729
992.27	37.08908
992.641	78.18555
993.012	-21.04657
993.384	69.156
993.755	42.10385
994.126	43.10022
994.497	9.02137
994.868	26.05654
995.239	16.03727
995.61	58.14025
995.98	26.06071
996.351	23.05542
996.722	88.19615
997.092	11.02528
997.462	41.09307
997.833	33.0743
998.203	15.03449
998.573	13.03145
998.943	76.1706
999.313	26.06037
999.683	42.0971
1000.053	-27.05872
1000.423	-7.01634
1000.792	-10.02492
1001.162	-20.04749
1001.531	71.16763
1001.901	-9.02165
1002.27	2.0042
1002.639	6.01474
1003.009	30.06834
1003.378	47.11594
1003.747	59.13203
1004.116	20.04598
1004.485	-7.01618
1004.853	-16.03884
1005.222	1.0024
1005.591	40.09064
1005.959	34.07371
1006.328	70.15027
1006.696	-1.00232
1007.064	6.01446
1007.433	24.05733
1007.801	-10.02335
1008.169	2.00484
1008.537	63.13218
1008.905	18.04067
1009.273	11.02602
1009.64	35.08135
1010.008	38.08663
1010.375	46.10487
1010.743	-2.0043
1011.11	68.15671
1011.478	88.20909
1011.845	18.04044
1012.212	91.19733
1012.579	32.07574
1012.946	45.10116
1013.313	32.07233
1013.68	27.0577
1014.047	30.06864
1014.414	33.07461
1014.78	22.053
1015.147	23.05278
1015.513	49.11304
1015.88	7.0172
1016.246	17.0399
1016.612	43.09304
1016.978	46.10892
1017.344	34.08104
1017.71	49.11353
1018.076	11.02468
1018.442	60.14874
1018.808	49.11887
1019.174	-28.06796
1019.539	-32.06813
1019.905	8.0183
1020.27	-11.02627
1020.636	-55.12683
1021.001	70.16029
1021.366	-15.03511
1021.731	73.18258
1022.096	-7.01733
1022.461	30.06836
1022.826	62.14185
1023.191	24.06099
1023.556	34.07585
1023.92	58.13494
1024.285	15.03486
1024.649	-17.04014
1025.014	16.03774
1025.378	65.15762
1025.742	29.06865
1026.107	17.03672
1026.471	48.10615
1026.835	13.03112
1027.199	30.06958
1027.562	30.06601
1027.926	50.11624
1028.29	16.03918
1028.654	42.09179
1029.017	30.07117
1029.381	37.08512
1029.744	14.03458
1030.107	50.11297
1030.471	72.1652
1030.834	17.03642
1031.197	83.18963
1031.56	23.05179
1031.923	-7.01763
1032.286	52.11648
1032.648	47.10578
1033.011	21.04701
1033.374	14.03124
1033.736	12.03066
1034.099	13.0306
1034.461	28.06885
1034.823	-7.01699
1035.185	3.00724
1035.548	38.08925
1035.91	50.11422
1036.272	42.09183
1036.634	48.11238
1036.995	27.06032
1037.357	-1.00237
1037.719	38.08886
1038.08	101.22899
1038.442	0
1038.803	-26.05951
1039.165	6.01457
1039.526	11.02566
1039.887	32.07336
1040.248	15.03635
1040.609	61.14234
1040.97	-8.01886
1041.331	67.16369
1041.692	15.03437
1042.053	25.0541
1042.413	5.01113
1042.774	52.12132
1043.134	40.08979
1043.495	18.04366
1043.855	35.08251
1044.215	17.04043
1044.576	31.07174
1044.936	35.07615
1045.296	38.09109
1045.656	-4.00938
1046.016	9.0208
1046.375	4.00937
1046.735	74.16235
1047.095	33.07403
1047.454	42.08327
1047.814	9.02089
1048.173	-13.02956
1048.533	31.06794
1048.892	-8.01868
1049.251	11.02645
1049.61	8.01905
1049.969	36.08094
1050.328	33.06813
1050.687	-9.02104
1051.046	-10.02347
1051.405	26.06161
1051.763	28.06246
1052.122	23.05519
1052.48	28.06627
1052.839	23.05293
1053.197	36.08101
1053.555	0
1053.914	53.12353
1054.272	-6.01369
1054.63	13.03075
1054.988	61.13971
1055.345	3.00609
1055.703	37.08556
1056.061	43.10786
1056.419	83.20917
1056.776	-19.04383
1057.134	-26.05714
1057.491	45.10826
1057.848	-11.02637
1058.206	-37.08304
1058.563	55.11463
1058.92	71.15435
1059.277	32.07586
1059.634	27.05992
1059.991	57.1307
1060.348	-4.00875
1060.704	67.15604
1061.061	26.05661
1061.418	46.10702
1061.774	0
1062.131	36.09352
1062.487	23.05123
1062.843	12.02886
1063.199	24.05755
1063.555	9.02027
1063.911	23.05563
1064.267	27.05254
1064.623	57.13405
1064.979	-17.03741
1065.335	-7.016
1065.691	-37.08477
1066.046	63.13066
1066.402	12.02596
1066.757	14.03417
1067.112	3.00707
1067.468	50.11454
1067.823	-11.025
1068.178	46.10563
1068.533	72.16613
1068.888	29.06604
1069.243	16.03809
1069.598	-13.03036
1069.952	40.08809
1070.307	34.08141
1070.662	35.0808
1071.016	13.02841
1071.371	41.08955
1071.725	52.11749
1072.079	42.09698
1072.434	-30.07117
1072.788	-2.00453
1073.142	34.08044
1073.496	7.01595
1073.85	31.0686
1074.203	56.12998
1074.557	53.13766
1074.911	37.08382
1075.265	30.06668
1075.618	68.15852
1075.971	30.06831
1076.325	66.16206
1076.678	48.10473
1077.031	-48.10309
1077.385	34.07097
1077.738	6.01296
1078.091	27.0594
1078.444	23.05045
1078.796	57.13473
1079.149	28.0672
1079.502	29.06626
1079.855	43.09595
1080.207	50.11743
1080.56	17.04283
1080.912	43.10002
1081.264	33.07661
1081.617	19.04479
1081.969	28.06857
1082.321	19.04448
1082.673	60.13258
1083.025	-8.0182
1083.377	19.04283
1083.728	25.05553
1084.08	-43.10396
1084.432	30.06911
1084.783	-25.05546
1085.135	29.07038
1085.486	-30.06698
1085.838	33.07843
1086.189	23.05424
1086.54	47.10669
1086.891	44.10923
1087.242	57.13525
1087.593	-17.03942
1087.944	56.12177
1088.295	43.09281
1088.646	61.14419
1088.996	45.10455
1089.347	-7.01651
1089.698	34.07801
1090.048	6.015
1090.398	17.03752
1090.749	-2.00457
1091.099	43.10541
1091.449	36.08662
1091.799	12.02901
1092.149	25.05964
1092.499	20.04699
1092.849	38.09317
1093.199	66.15652
1093.548	39.09093
1093.898	-4.00965
1094.248	3.00739
1094.597	-1.00251
1094.947	23.05962
1095.296	41.09781
1095.645	13.03259
1095.994	50.11477
1096.343	44.10684
1096.692	51.13146
1097.041	24.06416
1097.39	-28.06791
1097.739	31.07773
1098.088	38.09763
1098.437	40.10312
1098.785	-2.0052
1099.134	-14.03559
1099.482	23.06172
1099.83	32.08132
1100.179	52.13336
1100.527	11.02802
1100.875	2.00519
1101.223	11.02859
1101.571	-31.08368
1101.919	52.13415
1102.267	12.03328
1102.615	-7.02251
1102.962	-7.02248
1103.31	-1.00321
1103.658	-6.01925
