Data from N1 R0 sample 6_Subt2__3__12-00-02-271.txt Node

Date: Tue Sep 16 12:00:02 PDT 2025
User: uwsun
Spectrometer: HDX01956
Trigger mode: 0
Integration Time (sec): 5.000000E-1
Scans to average: 1
Nonlinearity correction enabled: true
Boxcar width: 0
Storing dark spectrum: false
XAxis mode: Wavelengths
Number of Pixels in Spectrum: 2068
>>>>>Begin Spectral Data<<<<<
194.03	1.0029
194.578	2.0065
195.127	-1.00321
195.676	5.01608
196.225	9.024
196.773	30.08345
197.321	7.01958
197.87	51.13246
198.418	67.1748
198.966	90.23908
199.513	58.14969
200.061	64.16488
200.609	37.09925
201.156	74.16453
201.704	9.02319
202.251	82.22
202.798	53.13941
203.345	81.20303
203.892	102.25976
204.438	50.12077
204.985	29.07048
205.532	19.05097
206.078	19.04747
206.624	96.24327
207.17	125.29477
207.716	68.16937
208.262	60.12163
208.808	86.21863
209.354	74.18565
209.899	96.24362
210.445	56.14246
210.99	98.24161
211.535	73.17475
212.08	54.12772
212.625	58.14708
213.17	72.18588
213.715	107.24693
214.259	72.17075
214.804	39.0974
215.348	55.12965
215.892	92.22581
216.436	59.13692
216.98	85.18887
217.524	58.14109
218.068	70.17896
218.612	78.20067
219.155	71.17023
219.698	73.17589
220.242	60.14993
220.785	48.1148
221.328	48.12034
221.871	94.24116
222.414	67.1674
222.956	-19.04668
223.499	54.12216
224.041	18.04198
224.583	34.07305
225.126	62.13774
225.668	87.21263
226.21	82.20905
226.751	111.24818
227.293	21.04842
227.835	41.10195
228.376	58.1334
228.918	26.06572
229.459	57.14375
230	116.27891
230.541	61.14184
231.082	63.155
231.622	28.06442
232.163	64.15575
232.704	60.15178
233.244	55.13791
233.784	77.1877
234.324	69.15714
234.864	31.07123
235.404	33.07885
235.944	45.10731
236.484	94.2354
237.023	30.07183
237.563	82.19206
238.102	46.11022
238.641	51.12945
239.18	68.1612
239.719	69.17401
240.258	29.06631
240.797	50.12095
241.335	43.10584
241.874	90.17701
242.412	85.2079
242.95	78.19003
243.488	9.02064
244.026	120.2793
244.564	99.20495
245.102	57.13097
245.64	67.16125
246.177	47.10587
246.715	86.2078
247.252	64.14667
247.789	130.24062
248.326	42.10271
248.863	68.15145
249.4	54.124
249.936	115.24181
250.473	92.21885
251.009	39.09068
251.546	73.1649
252.082	48.10517
252.618	45.10228
253.154	64.15563
253.69	83.18749
254.226	89.21436
254.761	51.1161
255.297	3.00671
255.832	56.13485
256.367	80.18935
256.903	120.26725
257.438	72.17022
257.972	40.09056
258.507	90.20757
259.042	104.2272
259.576	115.25543
260.111	53.12324
260.645	120.25938
261.179	99.23301
261.713	68.15408
262.247	37.08583
262.781	80.17048
263.315	32.07878
263.849	60.15178
264.382	64.14861
264.915	85.2027
265.449	8.01993
265.982	55.12662
266.515	70.17327
267.048	22.04772
267.58	76.16547
268.113	62.13591
268.646	59.14581
269.178	80.18031
269.71	96.21389
270.243	122.28306
270.775	81.2093
271.307	54.12984
271.838	77.1832
272.37	50.12399
272.902	81.18492
273.433	90.20127
273.965	56.1376
274.496	20.05041
275.027	94.23515
275.558	103.25239
276.089	62.15661
276.62	31.07927
277.15	66.16373
277.681	91.19716
278.211	55.13562
278.741	105.23448
279.272	58.13462
279.802	92.22981
280.332	92.21868
280.861	72.17364
281.391	59.13594
281.921	64.15452
282.45	42.10552
282.98	102.26643
283.509	111.25371
284.038	108.24829
284.567	42.09949
285.096	111.27007
285.625	22.05054
286.153	147.35028
286.682	143.3279
287.21	42.10148
287.739	78.18598
288.267	104.25441
288.795	53.13988
289.323	70.16639
289.851	87.20652
290.378	67.15123
290.906	94.23157
291.433	82.20595
291.961	114.26167
292.488	64.16039
293.015	81.19324
293.542	137.35178
294.069	113.28099
294.596	56.13852
295.122	101.24381
295.649	47.1047
296.175	56.13653
296.702	120.29421
297.228	31.07596
297.754	76.17312
298.28	152.34903
298.806	136.32749
299.332	99.22364
299.857	82.18859
300.383	82.20779
300.908	94.23294
301.433	132.32387
301.958	99.22865
302.483	59.14805
303.008	118.29444
303.533	61.15904
304.058	54.12781
304.582	80.19118
305.107	83.21758
305.631	101.23076
306.155	103.24176
306.679	101.23947
307.203	100.23413
307.727	85.20356
308.251	71.17726
308.775	121.29572
309.298	104.25252
309.822	58.1476
310.345	121.29054
310.868	85.20728
311.391	91.22604
311.914	98.24728
312.437	93.21496
312.96	112.26561
313.482	111.26237
314.005	91.22884
314.527	47.12388
315.049	94.23981
315.571	125.28317
316.093	81.20281
316.615	46.11236
317.137	139.30411
317.659	111.27048
318.18	63.15237
318.702	117.27612
319.223	49.1024
319.744	120.27223
320.265	114.2796
320.786	138.34546
321.307	89.22204
321.828	127.28829
322.348	112.26571
322.869	145.34618
323.389	393.73201
323.909	45.10509
324.43	84.20319
324.95	130.29935
325.47	133.33096
325.989	129.30775
326.509	150.33725
327.029	150.34374
327.548	150.34084
328.067	171.41402
328.587	129.32497
329.106	133.30142
329.625	157.40748
330.144	134.3136
330.662	141.33276
331.181	156.3688
331.7	100.23523
332.218	182.3944
332.736	124.2927
333.255	142.3361
333.773	96.22959
334.291	133.33421
334.808	119.27134
335.326	156.3516
335.844	118.28059
336.361	206.52607
336.879	133.31559
337.396	177.43048
337.913	184.42453
338.43	128.29168
338.947	119.28715
339.464	153.33248
339.981	162.38477
340.497	179.43877
341.014	149.36442
341.53	182.41037
342.046	206.5112
342.562	181.44958
343.078	169.39838
343.594	189.44794
344.11	186.44466
344.626	184.46293
345.141	195.44516
345.657	206.46429
346.172	180.43393
346.687	134.31041
347.202	185.42301
347.717	225.5316
348.232	204.50476
348.747	190.43855
349.261	199.43685
349.776	243.57101
350.29	207.51509
350.805	208.51032
351.319	186.43205
351.833	228.52101
352.347	213.50013
352.861	216.50391
353.374	167.38124
353.888	226.54769
354.401	159.364
354.915	200.45169
355.428	239.58842
355.941	210.48664
356.454	219.48439
356.967	176.41092
357.48	172.39115
357.993	213.51978
358.505	167.40647
359.018	242.58558
359.53	209.50735
360.042	254.56215
360.554	256.61758
361.066	188.45612
361.578	238.52191
362.09	251.58912
362.602	274.6016
363.113	285.65819
363.625	296.65837
364.136	242.52665
364.647	260.60774
365.158	244.56161
365.669	252.59343
366.18	245.56964
366.691	273.58868
367.201	253.59775
367.712	339.75353
368.222	290.65492
368.733	238.51376
369.243	305.66726
369.753	246.56055
370.263	323.75896
370.773	232.55821
371.282	285.66734
371.792	306.69303
372.301	316.74266
372.811	320.81538
373.32	331.6978
373.829	282.65165
374.338	339.7313
374.847	337.75499
375.356	316.72526
375.865	383.79074
376.373	412.89541
376.882	390.94678
377.39	368.85506
377.898	406.95337
378.407	427.92347
378.915	448.9297
379.423	444.97888
379.93	544.17226
380.438	466.05409
380.946	496.0801
381.453	510.14255
381.96	574.26291
382.468	572.23902
382.975	645.43563
383.482	601.22954
383.989	667.55308
384.495	712.48424
385.002	729.35254
385.509	732.55433
386.015	823.45011
386.521	861.68522
387.028	868.69134
387.534	849.55455
388.04	887.83347
388.546	902.68706
389.051	1012.83465
389.557	1052.99622
390.063	1075.96936
390.568	1212.30572
391.073	1187.06852
391.578	1337.51176
392.084	1289.24945
392.589	1377.20536
393.093	1459.58746
393.598	1595.59346
394.103	1783.88138
394.607	1956.06335
395.112	2004.18951
395.616	2205.26491
396.12	2386.06685
396.624	2638.29624
397.128	2867.46142
397.632	3143.34204
398.136	3457.16587
398.639	3597.26982
399.143	4111.45219
399.646	4572.89827
400.15	5211.41057
400.653	5739.01809
401.156	6563.69291
401.659	7434.15989
402.162	9285.01828
402.664	12716.41067
403.167	19513.14544
403.67	44076.20215
404.172	61457.80308
404.674	63858.43483
405.176	63738.15102
405.678	63977.72923
406.18	64011.81569
406.682	63863.44694
407.184	63926.60148
407.686	63841.39382
408.187	44306.51167
408.688	27045.25013
409.19	19486.4058
409.691	15798.75192
410.192	13421.84376
410.693	11627.52398
411.194	10498.40731
411.694	10024.81758
412.195	9189.94896
412.696	8301.54804
413.196	7895.81794
413.696	7767.19742
414.196	7854.93307
414.696	7499.2501
415.196	7205.86608
415.696	6315.7038
416.196	4963.59227
416.695	3919.16224
417.195	3567.40663
417.694	3439.61494
418.194	3222.73224
418.693	2960.1781
419.192	2850.33927
419.691	2843.25903
420.19	2755.4307
420.688	2676.52252
421.187	2548.59579
421.685	2403.15216
422.184	2178.12018
422.682	1824.58314
423.18	1644.63322
423.678	1417.39163
424.176	1295.25054
424.674	1282.16544
425.172	1182.18567
425.669	1117.20402
426.167	1065.99696
426.664	1010.86997
427.161	901.73871
427.659	820.71263
428.156	823.48716
428.652	745.65154
429.149	727.55275
429.646	695.36374
430.143	686.45846
430.639	599.28185
431.135	580.31929
431.632	529.10694
432.128	516.13988
432.624	534.26677
433.12	504.05802
433.616	485.98289
434.111	432.9612
434.607	439.98304
435.103	392.77317
435.598	418.814
436.093	406.88913
436.588	375.79854
437.083	365.77522
437.578	408.88785
438.073	343.8188
438.568	364.85044
439.062	306.62795
439.557	261.59028
440.051	282.6103
440.546	284.62093
441.04	249.57963
441.534	267.6491
442.028	312.71924
442.522	250.58115
443.015	160.33872
443.509	238.56155
444.002	260.61441
444.496	176.37537
444.989	248.58219
445.482	205.49503
445.975	292.64759
446.468	216.45587
446.961	276.57662
447.454	167.36846
447.947	209.48633
448.439	241.57249
448.931	232.51689
449.424	242.59614
449.916	213.50579
450.408	228.50609
450.9	219.51683
451.392	187.46397
451.884	197.44192
452.375	183.44291
452.867	204.44679
453.358	189.42327
453.849	201.41928
454.341	219.48035
454.832	203.4274
455.323	270.64667
455.814	199.44365
456.304	183.41406
456.795	200.44505
457.285	179.38566
457.776	205.45456
458.266	139.32511
458.756	145.33702
459.247	161.37775
459.737	189.44621
460.226	188.41852
460.716	179.41817
461.206	157.36851
461.695	121.29517
462.185	154.35899
462.674	129.29117
463.163	180.39473
463.653	183.38072
464.142	169.4007
464.63	157.37282
465.119	189.42833
465.608	208.4732
466.096	164.34871
466.585	140.31464
467.073	103.24063
467.561	123.29096
468.05	155.34985
468.538	176.41946
469.026	110.25784
469.513	129.26861
470.001	137.30973
470.489	131.30664
470.976	111.25657
471.463	176.42733
471.951	136.33195
472.438	158.36324
472.925	150.34636
473.412	110.26348
473.899	128.2892
474.385	133.32008
474.872	79.18318
475.359	132.31918
475.845	136.27732
476.331	94.19874
476.817	100.24071
477.303	136.31079
477.789	70.16588
478.275	77.18973
478.761	88.20716
479.247	92.20362
479.732	109.26848
480.218	124.31979
480.703	64.15691
481.188	101.21677
481.673	85.19413
482.158	128.27276
482.643	109.27479
483.128	143.32751
483.612	139.3255
484.097	51.12274
484.581	114.26041
485.066	149.35777
485.55	160.34643
486.034	97.20863
486.518	166.38849
487.002	49.11891
487.486	76.18322
487.969	44.10684
488.453	43.10685
488.936	65.14599
489.42	85.18691
489.903	48.11917
490.386	62.12815
490.869	119.25749
491.352	39.09386
491.835	54.11067
492.318	23.052
492.8	117.23939
493.283	99.24985
493.765	8.01973
494.247	85.19639
494.73	88.19347
495.212	9.02147
495.694	69.16202
496.175	81.19339
496.657	115.26866
497.139	28.04859
497.62	73.17469
498.102	63.1562
498.583	-1.00247
499.064	45.10053
499.545	44.10043
500.026	98.2198
500.507	77.17628
500.988	105.25939
501.469	8.02004
501.949	86.21054
502.43	54.12999
502.91	101.21256
503.39	15.03734
503.87	96.22494
504.35	47.10993
504.83	34.07469
505.31	12.02909
505.79	-7.01671
506.269	18.04156
506.749	42.09613
507.228	39.09201
507.707	119.26211
508.187	56.13362
508.666	36.08934
509.145	62.14465
509.623	39.09151
510.102	49.11846
510.581	64.15394
511.059	44.11075
511.538	32.08259
512.016	59.14113
512.494	42.10102
512.972	40.09596
513.45	32.07495
513.928	50.12154
514.406	56.13715
514.884	45.11599
515.361	64.15277
515.839	72.16533
516.316	82.19813
516.793	32.08095
517.27	41.09875
517.747	68.17379
518.224	78.17882
518.701	-12.0269
519.178	35.08779
519.654	49.11609
520.131	14.0349
520.607	20.04911
521.083	11.02514
521.56	-5.01191
522.036	44.09608
522.512	51.1259
522.987	31.075
523.463	34.08088
523.939	103.25323
524.414	33.07585
524.89	64.15242
525.365	33.07491
525.84	40.0964
526.315	26.0633
526.79	52.11744
527.265	79.1818
527.74	74.1788
528.215	-6.01416
528.689	-3.00666
529.164	12.02599
529.638	7.01786
530.112	5.01187
530.587	70.14956
531.061	22.05356
531.534	25.06055
532.008	49.11927
532.482	80.18304
532.956	-4.01029
533.429	62.1515
533.903	21.04639
534.376	49.10856
534.849	12.02783
535.322	53.12508
535.795	14.03404
536.268	94.22584
536.741	10.02393
537.213	29.06703
537.686	19.04678
538.158	23.05272
538.631	20.04874
539.103	12.02738
539.575	23.04779
540.047	46.10062
540.519	56.13378
540.991	68.16536
541.463	39.09407
541.934	-1.00229
542.406	46.11077
542.877	-12.02749
543.348	112.26765
543.82	59.14334
544.291	88.20434
544.762	75.17803
545.233	107.26868
545.703	22.0494
546.174	65.15066
546.645	62.14998
547.115	100.23962
547.585	91.20816
548.056	83.20338
548.526	86.2034
548.996	125.29523
549.466	94.22704
549.935	47.11273
550.405	107.23341
550.875	134.31409
551.344	110.25996
551.814	163.36655
552.283	142.30562
552.752	131.30352
553.221	142.30943
553.69	191.42176
554.159	212.51377
554.628	198.43804
555.096	200.4965
555.565	127.27786
556.033	282.64543
556.502	232.5423
556.97	232.49974
557.438	197.45099
557.906	231.52797
558.374	298.66035
558.842	231.53625
559.31	265.5702
559.777	314.73221
560.245	275.60494
560.712	244.53935
561.18	325.68214
561.647	328.6889
562.114	361.77942
562.581	345.80464
563.048	406.86736
563.514	430.0052
563.981	448.94837
564.448	465.96691
564.914	426.91914
565.381	472.99174
565.847	471.00754
566.313	478.01658
566.779	533.0843
567.245	474.00675
567.711	480.05536
568.176	445.92203
568.642	540.23909
569.108	538.2029
569.573	487.03059
570.038	503.95276
570.504	615.2338
570.969	592.31999
571.434	618.21556
571.899	629.32582
572.363	629.27878
572.828	661.33783
573.293	656.32436
573.757	675.3768
574.222	712.38433
574.686	752.49207
575.15	754.57467
575.614	782.58848
576.078	727.48368
576.542	737.45172
577.006	735.43489
577.469	739.58521
577.933	723.42945
578.396	698.44987
578.86	711.46083
579.323	742.55574
579.786	736.372
580.249	802.61805
580.712	675.44904
581.175	649.42246
581.637	679.35675
582.1	654.24904
582.563	629.1748
583.025	649.40274
583.487	693.23076
583.95	604.14613
584.412	692.25731
584.874	687.47673
585.336	609.29092
585.797	576.11897
586.259	585.22755
586.721	549.16457
587.182	555.15323
587.643	527.08522
588.105	528.13335
588.566	518.97567
589.027	562.2463
589.488	507.06035
589.949	517.14613
590.41	510.91113
590.87	528.09631
591.331	553.08621
591.791	441.9464
592.252	498.06058
592.712	440.97859
593.172	484.00792
593.632	498.00905
594.092	393.8183
594.552	413.83124
595.011	372.80058
595.471	395.83746
595.931	417.876
596.39	382.86195
596.849	348.76599
597.308	305.61783
597.768	400.96995
598.227	327.74645
598.685	326.70491
599.144	346.7718
599.603	321.71323
600.062	285.57388
600.52	342.73065
600.978	261.59341
601.437	327.70511
601.895	333.67486
602.353	249.52702
602.811	295.63557
603.269	251.57552
603.727	300.68772
604.184	315.68273
604.642	307.71997
605.099	284.63535
605.557	244.5728
606.014	247.51271
606.471	212.51705
606.928	297.62998
607.385	294.70494
607.842	229.50841
608.299	272.61002
608.755	251.58613
609.212	207.44905
609.668	286.61711
610.125	243.56522
610.581	245.55387
611.037	174.38141
611.493	217.49098
611.949	241.5672
612.405	224.44139
612.861	246.5449
613.316	258.59454
613.772	198.44133
614.227	254.58789
614.683	164.3405
615.138	212.4823
615.593	191.4318
616.048	219.4852
616.503	196.463
616.958	176.43069
617.412	249.56933
617.867	186.40582
618.321	169.34093
618.776	136.29497
619.23	168.38484
619.684	191.41452
620.138	162.36273
620.592	141.33612
621.046	191.43936
621.5	157.37009
621.954	133.28939
622.407	205.43921
622.861	121.28966
623.314	151.33497
623.768	165.38107
624.221	131.2537
624.674	205.4591
625.127	124.28405
625.58	145.31925
626.033	168.35831
626.485	128.30132
626.938	215.49536
627.39	144.33039
627.843	152.34315
628.295	136.30803
628.747	171.39792
629.199	132.29544
629.651	129.29093
630.103	122.27565
630.555	118.245
631.006	104.23891
631.458	157.36116
631.909	102.22575
632.361	58.1334
632.812	114.2602
633.263	184.38783
633.714	126.26219
634.165	99.23455
634.616	119.27692
635.067	136.29371
635.518	166.38377
635.968	96.1865
636.419	205.43275
636.869	109.25455
637.319	78.17968
637.769	118.26128
638.219	155.35727
638.669	81.19087
639.119	109.25704
639.569	136.3199
640.019	119.27057
640.468	126.27759
640.918	87.20421
641.367	116.25567
641.816	136.29635
642.265	123.28227
642.714	130.29264
643.163	134.30399
643.612	150.35983
644.061	92.19485
644.51	116.26198
644.958	166.35727
645.406	112.26376
645.855	120.28655
646.303	77.17656
646.751	174.39201
647.199	89.19973
647.647	138.31421
648.095	140.3127
648.543	122.24323
648.99	114.26983
649.438	95.21714
649.885	133.32553
650.333	146.277
650.78	86.20584
651.227	147.35216
651.674	149.3326
652.121	137.32971
652.568	161.38511
653.015	92.22498
653.461	94.22094
653.908	122.27531
654.354	134.31287
654.801	86.19969
655.247	158.33347
655.693	104.26672
656.139	112.26314
656.585	115.27025
657.031	137.31565
657.477	114.24535
657.922	110.2462
658.368	105.25433
658.813	99.22208
659.259	113.26979
659.704	167.38585
660.149	98.22305
660.594	142.32985
661.039	170.37688
661.484	122.28384
661.929	140.32018
662.373	62.15454
662.818	74.18136
663.262	112.26663
663.707	105.26328
664.151	135.32243
664.595	142.3361
665.039	101.24712
665.483	103.25827
665.927	168.38344
666.371	130.30006
666.814	125.29134
667.258	165.38743
667.701	132.27553
668.145	128.31242
668.588	156.37721
669.031	91.21143
669.474	92.21792
669.917	115.24756
670.36	147.3586
670.803	170.39956
671.245	68.13803
671.688	115.27498
672.13	163.35888
672.573	126.312
673.015	142.3348
673.457	121.25835
673.899	164.38606
674.341	150.35256
674.783	135.31662
675.225	133.32057
675.666	153.36542
676.108	135.28524
676.549	132.30079
676.991	82.17793
677.432	165.3174
677.873	109.24452
678.314	111.25952
678.755	213.50637
679.196	124.27765
679.637	121.28379
680.078	157.35682
680.518	146.32664
680.959	127.29588
681.399	119.28878
681.839	134.3179
682.28	154.37294
682.72	102.22933
683.16	126.30789
683.6	133.29553
684.039	131.26391
684.479	131.31647
684.919	154.35277
685.358	97.23751
685.798	117.29864
686.237	136.31654
686.676	103.22878
687.115	183.41692
687.554	201.46366
687.993	175.37429
688.432	176.38839
688.871	194.42883
689.309	162.37735
689.748	184.36855
690.186	148.33657
690.625	154.35163
691.063	161.37272
691.501	165.39604
691.939	216.52326
692.377	147.34679
692.815	206.48511
693.253	150.34692
693.69	148.31455
694.128	145.34273
694.565	153.35196
695.003	221.54271
695.44	200.45593
695.877	172.39162
696.314	176.35677
696.751	195.42464
697.188	244.5389
697.625	139.30218
698.061	170.39379
698.498	157.35957
698.934	154.35702
699.371	143.32724
699.807	171.39006
700.243	199.46179
700.679	191.40886
701.115	228.50756
701.551	184.41148
701.987	158.33332
702.422	237.53972
702.858	191.43866
703.294	247.53833
703.729	229.53203
704.164	168.38746
704.599	225.47914
705.035	212.4547
705.47	202.47088
705.904	200.44412
706.339	241.5257
706.774	270.59781
707.209	248.54842
707.643	191.43936
708.078	267.61515
708.512	214.51452
708.946	225.50825
709.38	234.52976
709.814	236.50726
710.248	215.50365
710.682	257.58597
711.116	250.57932
711.549	185.45498
711.983	220.48467
712.416	243.54846
712.85	193.45918
713.283	223.50209
713.716	243.57279
714.149	175.38966
714.582	251.53358
715.015	187.44063
715.448	233.56008
715.881	258.52107
716.313	203.4535
716.746	230.51838
717.178	205.47194
717.61	235.57025
718.043	211.49814
718.475	232.53612
718.907	234.55618
719.339	185.40235
719.77	221.50512
720.202	187.44986
720.634	211.49563
721.065	168.38097
721.497	186.43734
721.928	182.42727
722.359	169.39683
722.79	186.42743
723.221	173.41318
723.652	169.4138
724.083	170.36698
724.514	184.40503
724.945	179.40204
725.375	207.46206
725.806	135.32218
726.236	219.53422
726.666	173.39159
727.096	165.38849
727.526	181.44909
727.956	216.46987
728.386	200.4686
728.816	168.41493
729.246	223.52484
729.675	106.25157
730.105	173.40622
730.534	163.3649
730.964	125.3022
731.393	185.43388
731.822	181.44449
732.251	143.35105
732.68	158.35115
733.109	142.3387
733.537	186.43649
733.966	166.39942
734.395	137.30594
734.823	83.17875
735.251	88.20619
735.68	135.32157
736.108	47.11543
736.536	119.26969
736.964	138.30836
737.392	130.31435
737.82	174.39762
738.247	157.35928
738.675	108.24591
739.102	101.2451
739.53	138.34397
739.957	131.32895
740.384	61.14368
740.811	54.13166
741.238	97.23194
741.665	170.38378
742.092	32.0723
742.519	125.30095
742.945	112.26468
743.372	148.35503
743.798	88.21966
744.225	95.21836
744.651	73.17841
745.077	86.20905
745.503	52.12299
745.929	155.36168
746.355	93.21983
746.781	77.18447
747.207	48.11212
747.632	139.33402
748.058	142.34608
748.483	111.24706
748.908	113.27329
749.334	108.25879
749.759	111.25687
750.184	116.27137
750.609	69.16512
751.033	112.25254
751.458	119.25573
751.883	62.14913
752.307	126.28643
752.732	123.30541
753.156	118.28113
753.58	96.21947
754.005	76.18592
754.429	104.23967
754.853	97.23522
755.277	92.21269
755.7	84.20319
756.124	96.23222
756.548	47.10881
756.971	84.19959
757.394	65.1624
757.818	66.16671
758.241	86.21319
758.664	52.12877
759.087	75.16513
759.51	64.15412
759.933	82.19356
760.356	103.25873
760.778	108.25731
761.201	87.20413
761.623	11.02577
762.046	91.2059
762.468	69.16088
762.89	50.11926
763.312	134.31655
763.734	81.19027
764.156	75.18064
764.578	65.14413
765	114.26868
765.421	45.11288
765.843	67.17132
766.264	52.12012
766.686	36.08751
767.107	31.07379
767.528	83.2082
767.949	52.1291
768.37	114.27389
768.791	90.20898
769.212	46.11383
769.632	61.13971
770.053	44.11265
770.473	59.13859
770.894	28.06748
771.314	58.13313
771.734	71.16084
772.154	33.08254
772.575	100.22225
772.994	51.11252
773.414	55.12728
773.834	80.19345
774.254	80.18943
774.673	124.29281
775.093	95.22967
775.512	60.1447
775.931	64.15842
776.351	78.18946
776.77	52.12493
777.189	74.17081
777.607	52.12975
778.026	42.1024
778.445	73.18073
778.864	48.11864
779.282	20.04668
779.701	43.10541
780.119	49.12149
780.537	22.05368
780.955	32.0791
781.373	65.15608
781.791	79.17416
782.209	40.08776
782.627	43.11088
783.045	2.00446
783.462	24.0601
783.88	35.08887
784.297	83.20255
784.715	48.12107
785.132	43.10081
785.549	23.05628
785.966	27.06653
786.383	80.19191
786.8	65.14617
787.217	87.20149
787.633	74.1813
788.05	35.07916
788.466	24.05445
788.883	76.19005
789.299	30.06947
789.715	71.16808
790.131	38.09223
790.547	40.09716
790.963	56.1348
791.379	70.17188
791.795	43.09412
792.21	51.11483
792.626	74.16802
793.041	24.05773
793.457	65.15453
793.872	33.07479
794.287	19.04512
794.702	13.03078
795.117	1.00245
795.532	30.0741
795.947	65.14887
796.362	23.0523
796.776	30.06684
797.191	85.20123
797.605	21.04881
798.02	46.10854
798.434	26.05625
798.848	85.20511
799.262	46.11098
799.676	87.20437
800.09	19.04559
800.504	38.08911
800.918	-21.04726
801.331	-8.02009
801.745	17.03778
802.158	34.08191
802.572	45.10583
802.985	48.11119
803.398	41.09447
803.811	-12.02961
804.224	48.11418
804.637	61.14111
805.05	6.01344
805.462	111.25932
805.875	39.09885
806.288	15.03557
806.7	-31.07582
807.112	17.03795
807.525	-19.04521
807.937	15.03629
808.349	15.03636
808.761	74.1763
809.173	89.20825
809.584	80.18906
809.996	-10.02394
810.408	18.04594
810.819	3.0069
811.231	39.10182
811.642	78.18733
812.053	81.19064
812.464	41.09401
812.875	44.10983
813.286	64.16109
813.697	46.10096
814.108	47.11045
814.519	90.19362
814.929	63.15472
815.34	11.02569
815.75	59.1465
816.16	5.01199
816.571	35.08805
816.981	31.06994
817.391	-21.04914
817.801	26.06308
818.211	74.1689
818.62	58.13553
819.03	51.12036
819.44	-2.00501
819.849	19.04604
820.259	27.06638
820.668	56.13368
821.077	57.13822
821.486	18.0415
821.895	29.06836
822.304	20.05154
822.713	30.06834
823.122	53.12746
823.531	51.11464
823.939	67.15794
824.348	42.09799
824.756	28.06763
825.164	26.06315
825.573	5.01224
825.981	68.1612
826.389	34.08259
826.797	77.1891
827.205	22.04932
827.612	-25.06003
828.02	4.00908
828.428	14.03466
828.835	78.19955
829.243	35.07993
829.65	22.0536
830.057	26.06078
830.464	80.18957
830.871	102.23403
831.278	17.0399
831.685	48.10233
832.092	28.06566
832.499	75.15749
832.905	20.04882
833.312	30.06462
833.718	100.24016
834.124	69.15141
834.531	40.09647
834.937	28.07002
835.343	83.18979
835.749	45.09949
836.155	62.15683
836.561	29.06918
836.966	40.09402
837.372	32.07849
837.777	80.19206
838.183	70.14761
838.588	31.07509
838.993	83.1936
839.399	69.16291
839.804	21.04975
840.209	60.14928
840.613	16.0343
841.018	8.01959
841.423	28.06977
841.828	54.13254
842.232	17.04007
842.637	74.16917
843.041	10.0251
843.445	33.07945
843.849	56.13419
844.253	77.17437
844.657	67.16357
845.061	128.27963
845.465	17.03983
845.869	95.21004
846.272	18.04275
846.676	34.07785
847.079	26.06471
847.483	65.15537
847.886	59.13648
848.289	98.25484
848.692	11.02687
849.095	52.1195
849.498	67.16064
849.901	-5.01102
850.304	71.16222
850.707	60.14678
851.109	36.08754
851.512	49.11641
851.914	43.1056
852.316	86.21108
852.718	39.10025
853.121	23.05462
853.523	14.03141
853.925	57.14529
854.326	40.09738
854.728	37.09251
855.13	24.06078
855.531	-4.00932
855.933	50.11412
856.334	48.11651
856.736	76.16406
857.137	51.11502
857.538	82.19933
857.939	72.17345
858.34	32.07442
858.741	42.10586
859.142	28.06455
859.542	47.12098
859.943	33.07921
860.343	44.10595
860.744	12.02837
861.144	93.21872
861.544	24.05665
861.945	10.02474
862.345	60.14015
862.745	20.04856
863.145	83.18535
863.544	73.17782
863.944	48.1089
864.344	9.02139
864.743	76.1803
865.143	69.17221
865.542	-10.02221
865.941	89.21151
866.34	37.08416
866.74	21.05492
867.139	57.13306
867.537	16.0391
867.936	46.10707
868.335	27.06636
868.734	9.02241
869.132	35.07716
869.531	20.04615
869.929	47.10335
870.327	32.07398
870.726	42.09983
871.124	56.12425
871.522	41.1005
871.92	54.12811
872.318	17.0399
872.715	-10.02371
873.113	7.01644
873.511	38.09102
873.908	37.09194
874.306	19.04621
874.703	-14.03378
875.1	-4.00981
875.497	15.03463
875.894	3.00728
876.291	83.1952
876.688	37.09248
877.085	13.02994
877.482	-2.00487
877.878	46.10812
878.275	67.16412
878.671	-34.07122
879.068	29.06748
879.464	45.10455
879.86	44.09998
880.256	3.00706
880.652	34.08358
881.048	-20.04776
881.444	27.06097
881.84	8.01972
882.236	49.11851
882.631	67.15861
883.027	19.04425
883.422	-26.06455
883.817	33.08086
884.213	8.01996
884.608	79.18984
885.003	20.04616
885.398	20.04854
885.793	18.04356
886.188	-5.01207
886.582	37.09077
886.977	8.01823
887.371	8.01949
887.766	-6.01462
888.16	-1.00238
888.554	22.05217
888.949	60.14465
889.343	28.06561
889.737	34.08881
890.131	-16.03914
890.525	80.19767
890.918	35.08497
891.312	84.18933
891.706	30.07608
892.099	49.11971
892.492	75.15228
892.886	31.07296
893.279	44.10784
893.672	58.1432
894.065	87.20851
894.458	24.05775
894.851	72.16745
895.244	22.0544
895.637	68.15733
896.029	65.1534
896.422	23.05354
896.814	-5.01204
897.206	45.10455
897.599	108.25355
897.991	65.15162
898.383	68.15395
898.775	70.15254
899.167	55.1249
899.559	-6.01463
899.951	32.07183
900.342	39.09471
900.734	44.10796
901.125	17.04298
901.517	47.11122
901.908	13.02963
902.299	67.15751
902.69	115.25946
903.082	59.13697
903.473	84.1952
903.863	30.07355
904.254	46.10376
904.645	57.13421
905.036	65.15412
905.426	73.1564
905.817	52.12165
906.207	-10.02285
906.597	34.07735
906.987	15.03738
907.378	74.18056
907.768	55.14088
908.158	20.04699
908.547	22.05595
908.937	-10.02466
909.327	80.18495
909.717	31.07469
910.106	-3.00695
910.495	3.00718
910.885	47.11504
911.274	50.11999
911.663	26.06318
912.052	4.00945
912.441	27.06699
912.83	14.03073
913.219	25.06314
913.608	37.0877
913.997	32.07831
914.385	53.12139
914.774	47.10967
915.162	95.21801
915.55	58.13329
915.939	41.10069
916.327	44.10479
916.715	84.20846
917.103	32.07448
917.491	54.12776
917.878	48.11309
918.266	36.08983
918.654	81.20003
919.041	45.11511
919.429	12.02735
919.816	82.19858
920.203	66.15489
920.591	26.06242
920.978	59.13849
921.365	32.08167
921.752	13.02943
922.139	58.11988
922.525	44.10201
922.912	34.07951
923.299	34.08166
923.685	6.01507
924.072	15.03243
924.458	14.03375
924.844	26.06218
925.231	36.07961
925.617	38.09444
926.003	76.1855
926.389	23.05609
926.774	17.04155
927.16	37.08834
927.546	72.17953
927.931	22.05268
928.317	36.07888
928.702	55.12384
929.088	66.15289
929.473	20.04972
929.858	69.16284
930.243	64.14873
930.628	27.06412
931.013	48.11462
931.398	58.12488
931.783	2.00506
932.167	75.17735
932.552	41.0986
932.937	60.14185
933.321	90.21771
933.705	23.05537
934.09	6.01438
934.474	40.09019
934.858	37.09301
935.242	14.03117
935.626	44.10927
936.009	49.12736
936.393	117.28754
936.777	56.13898
937.16	58.14666
937.544	37.08218
937.927	52.12782
938.311	82.18935
938.694	99.25145
939.077	62.14197
939.46	-16.03728
939.843	65.12492
940.226	22.05432
940.609	81.17916
940.991	9.02207
941.374	72.1695
941.757	11.02614
942.139	59.12696
942.522	24.0542
942.904	61.14038
943.286	36.0879
943.668	71.17874
944.05	52.12313
944.432	65.15293
944.814	13.03062
945.196	41.09703
945.578	52.12074
945.959	32.07121
946.341	52.11988
946.722	48.10717
947.104	95.21583
947.485	56.12462
947.866	14.03449
948.247	79.19286
948.628	-9.02085
949.009	15.03725
949.39	45.10694
949.771	20.0436
950.152	64.15066
950.532	70.16997
950.913	57.13139
951.293	14.03717
951.674	39.09068
952.054	72.17436
952.434	8.01928
952.814	14.03172
953.194	-11.02766
953.574	45.10591
953.954	6.01361
954.334	60.14498
954.714	46.10833
955.093	64.15055
955.473	51.12414
955.853	47.11743
956.232	16.0426
956.611	55.1244
956.99	69.167
957.37	16.0392
957.749	8.01811
958.128	54.13171
958.506	24.06045
958.885	31.0752
959.264	48.11467
959.643	107.23163
960.021	35.08427
960.4	43.09304
960.778	39.09086
961.156	50.11995
961.535	73.16005
961.913	65.14605
962.291	58.1452
962.669	52.12749
963.047	45.11137
963.424	52.12966
963.802	-8.01915
964.18	24.05762
964.557	33.07244
964.935	46.10427
965.312	79.19866
965.69	55.13081
966.067	-2.00466
966.444	-10.02343
966.821	60.14896
967.198	34.07826
967.575	78.18155
967.952	82.183
968.329	35.08254
968.705	75.15339
969.082	56.14034
969.458	29.06804
969.835	29.06796
970.211	61.15229
970.587	59.14124
970.963	45.11015
971.339	18.04584
971.715	55.13217
972.091	59.13903
972.467	-8.01907
972.843	96.22994
973.219	77.17408
973.594	8.02034
973.97	29.06441
974.345	61.14032
974.721	9.0207
975.096	76.1771
975.471	34.07707
975.846	9.02071
976.221	8.01974
976.596	86.19993
976.971	64.15254
977.346	91.19884
977.72	24.05878
978.095	64.15877
978.469	46.10465
978.844	31.07464
979.218	76.17675
979.593	65.14785
979.967	7.01615
980.341	80.17588
980.715	25.06103
981.089	3.00727
981.463	66.14431
981.837	51.1212
982.21	-43.0946
982.584	46.10715
982.957	22.05346
983.331	35.07806
983.704	59.14086
984.078	8.01904
984.451	14.03305
984.824	7.01662
985.197	-13.03012
985.57	10.02385
985.943	-12.02819
986.316	1.00234
986.688	53.12207
987.061	46.10364
987.434	79.2003
987.806	33.0757
988.179	51.11455
988.551	57.13812
988.923	30.07068
989.295	78.18498
989.667	-14.03301
990.039	58.13998
990.411	-32.07032
990.783	32.06952
991.155	35.08129
991.527	29.06727
991.898	34.08209
992.27	37.08908
992.641	76.18086
993.012	-17.03767
993.384	34.07742
993.755	63.15518
994.126	88.20328
994.497	18.04267
994.868	33.07165
995.239	60.13855
995.61	40.09705
995.98	36.08389
996.351	0
996.722	73.16322
997.092	29.06642
997.462	33.07503
997.833	36.08101
998.203	-5.01154
998.573	85.20286
998.943	38.08596
999.313	75.17246
999.683	48.11084
1000.053	-35.07625
1000.423	4.00932
1000.792	-13.03241
1001.162	-1.00237
1001.531	38.09029
1001.901	0
1002.27	-17.03589
1002.639	25.06119
1003.009	35.07964
1003.378	20.04958
1003.747	-6.01361
1004.116	61.13909
1004.485	73.16605
1004.853	-25.06078
1005.222	-23.05535
1005.591	24.05456
1005.959	-1.00218
1006.328	44.09498
1006.696	31.07151
1007.064	-21.05087
1007.433	41.09763
1007.801	7.01629
1008.169	-6.01454
1008.537	48.10104
1008.905	73.16309
1009.273	28.06602
1009.64	76.17521
1010.008	47.10695
1010.375	24.05496
1010.743	17.03641
1011.11	112.25584
1011.478	63.15041
1011.845	28.06277
1012.212	146.31287
1012.579	54.12727
1012.946	36.08107
1013.313	31.07009
1013.68	49.10421
1014.047	-5.01152
1014.414	5.01137
1014.78	41.09841
1015.147	53.1209
1015.513	50.11532
1015.88	67.16277
1016.246	18.04224
1016.612	79.16962
1016.978	56.13234
1017.344	25.05969
1017.71	25.0582
1018.076	15.03362
1018.442	99.24367
1018.808	120.28721
1019.174	-26.06308
1019.539	4.00845
1019.905	56.12689
1020.27	52.1227
1020.636	93.20811
1021.001	58.13313
1021.366	84.19281
1021.731	103.25622
1022.096	12.02961
1022.461	45.10223
1022.826	78.17789
1023.191	14.03564
1023.556	40.08912
1023.92	37.08644
1024.285	8.01862
1024.649	61.14184
1025.014	-2.00473
1025.378	24.05865
1025.742	27.06394
1026.107	59.1263
1026.471	41.0908
1026.835	32.07633
1027.199	4.00932
1027.562	62.1355
1027.926	-7.01646
1028.29	65.15774
1028.654	44.09612
1029.017	58.13686
1029.381	35.08055
1029.744	42.1032
1030.107	68.15308
1030.471	59.13572
1030.834	84.17736
1031.197	84.19188
1031.56	19.04282
1031.923	26.06511
1032.286	93.20657
1032.648	33.07449
1033.011	102.22453
1033.374	48.10637
1033.736	4.01023
1034.099	5.01179
1034.461	13.03206
1034.823	48.11532
1035.185	35.08391
1035.548	65.15185
1035.91	20.04596
1036.272	63.13714
1036.634	69.16088
1036.995	52.11557
1037.357	29.06826
1037.719	66.15349
1038.08	117.26441
1038.442	49.11092
1038.803	28.06339
1039.165	43.10372
1039.526	44.10197
1039.887	47.10743
1040.248	85.20325
1040.609	23.05407
1040.97	55.12809
1041.331	23.05665
1041.692	40.09119
1042.053	77.16476
1042.413	46.10156
1042.774	74.1719
1043.134	53.11865
1043.495	55.13247
1043.855	64.15002
1044.215	43.10176
1044.576	28.06484
1044.936	85.18298
1045.296	71.16912
1045.656	34.07917
1046.016	35.08048
1046.375	45.10455
1046.735	53.11679
1047.095	75.16679
1047.454	73.14368
1047.814	21.04862
1048.173	-4.00908
1048.533	24.05268
1048.892	-10.02336
1049.251	59.14059
1049.61	19.04515
1049.969	46.10321
1050.328	48.09877
1050.687	14.03259
1051.046	37.08603
1051.405	9.0214
1051.763	25.05581
1052.122	-17.0411
1052.48	30.07098
1052.839	49.11218
1053.197	15.0339
1053.555	40.08483
1053.914	21.04925
1054.272	-15.03429
1054.63	19.04489
1054.988	40.092
1055.345	-4.00813
1055.703	57.13128
1056.061	43.10786
1056.419	48.12172
1056.776	12.02751
1057.134	-7.01532
1057.491	27.06518
1057.848	4.00956
1058.206	-4.00892
1058.563	53.11051
1058.92	64.13934
1059.277	25.05935
1059.634	67.14745
1059.991	62.14203
1060.348	61.1316
1060.704	43.10062
1061.061	14.03056
1061.418	41.09548
1061.774	22.05233
1062.131	60.15522
1062.487	48.10637
1062.843	47.1123
1063.199	34.08138
1063.555	90.19936
1063.911	0
1064.267	119.22649
1064.623	64.15031
1064.979	-9.01977
1065.335	52.11744
1065.691	13.02949
1066.046	69.14291
1066.402	-14.03046
1066.757	84.20235
1067.112	32.07504
1067.468	33.07585
1067.823	4.00906
1068.178	27.06224
1068.533	26.06054
1068.888	36.08187
1069.243	76.17884
1069.598	32.07407
1069.952	81.17684
1070.307	39.09329
1070.662	21.04862
1071.016	45.09766
1071.371	69.14981
1071.725	36.08161
1072.079	79.18108
1072.434	20.04699
1072.788	-20.04543
1073.142	75.17604
1073.496	18.04092
1073.85	59.12979
1074.203	39.09083
1074.557	38.09895
1074.911	81.18186
1075.265	54.11942
1075.618	63.14701
1075.971	15.03426
1076.325	42.10358
1076.678	35.07658
1077.031	-13.02771
1077.385	43.08958
1077.738	25.05379
1078.091	28.06158
1078.444	9.0198
1078.796	59.13941
1079.149	50.11949
1079.502	57.1295
1079.855	37.08266
1080.207	21.0496
1080.56	33.0829
1080.912	44.10233
1081.264	40.09273
1081.617	77.17947
1081.969	-3.00739
1082.321	-17.04007
1082.673	60.13258
1083.025	17.03848
1083.377	25.05629
1083.728	41.09076
1084.08	10.02393
1084.432	33.07597
1084.783	-7.01547
1085.135	42.10167
1085.486	67.14659
1085.838	23.05477
1086.189	50.11729
1086.54	59.13361
1086.891	74.18271
1087.242	57.13525
1087.593	-7.0162
1087.944	54.11747
1088.295	79.16919
1088.646	79.18608
1088.996	30.06991
1089.347	16.03756
1089.698	55.12566
1090.048	17.04243
1090.398	21.04631
1090.749	-34.0782
1091.099	35.08592
1091.449	44.10571
1091.799	57.13661
1092.149	35.08334
1092.499	71.16516
1092.849	36.0883
1093.199	18.04308
1093.548	94.2168
1093.898	16.03846
1094.248	-2.00493
1094.597	20.05007
1094.947	57.14688
1095.296	50.11908
1095.645	73.181
1095.994	36.08286
1096.343	67.16198
1096.692	69.1773
1097.041	10.02679
1097.39	32.07674
1097.739	7.01763
1098.088	56.14342
1098.437	36.09288
1098.785	29.07506
1099.134	9.02279
1099.482	22.05905
1099.83	26.06614
1100.179	55.14098
1100.527	24.06099
1100.875	38.09793
1101.223	42.10858
1101.571	-25.06742
1101.919	19.0493
1102.267	39.10769
1102.615	-3.00964
1102.962	9.02884
1103.31	13.0417
1103.658	-1.00321
