Data from N2 R1 sample 7_Subt2__1__13-33-22-456.txt Node

Date: Wed Aug 27 13:33:22 PDT 2025
User: uwsun
Spectrometer: HDX01956
Trigger mode: 0
Integration Time (sec): 5.000000E-1
Scans to average: 1
Nonlinearity correction enabled: true
Boxcar width: 0
Storing dark spectrum: false
XAxis mode: Wavelengths
Number of Pixels in Spectrum: 2068
>>>>>Begin Spectral Data<<<<<
194.03	204.57762
194.578	199.63436
195.127	203.63801
195.676	214.67349
196.225	163.43637
196.773	206.56942
197.321	297.80858
197.87	407.01541
198.418	473.17952
198.966	430.09163
199.513	440.07664
200.061	423.05426
200.609	440.11864
201.156	423.91286
201.704	460.13398
202.251	438.12099
202.798	439.11904
203.345	468.11809
203.892	425.03814
204.438	475.09777
204.985	518.18142
205.532	463.17409
206.078	470.12074
206.624	434.04777
207.17	525.16824
207.716	491.16575
208.262	429.82807
208.808	455.09546
209.354	492.16342
209.899	477.15458
210.445	476.14243
210.99	452.05961
211.535	506.14333
212.08	452.029
212.625	465.12
213.17	456.10181
213.715	444.97601
214.259	440.99278
214.804	448.07308
215.348	443.98751
215.892	451.04428
216.436	459.02157
216.98	427.92426
217.524	433.99431
218.068	423.02059
218.612	451.09972
219.155	416.95471
219.698	383.88867
220.242	414.9922
220.785	387.88444
221.328	407.98822
221.871	339.82963
222.414	416.00612
222.956	375.88797
223.499	390.86237
224.041	462.04757
224.583	395.82539
225.126	406.88275
225.668	409.97518
226.21	374.91848
226.751	378.82258
227.293	396.88221
227.835	385.91446
228.376	467.04198
228.918	390.95599
229.459	394.964
230	368.84999
230.541	401.90942
231.082	478.11718
231.622	463.04325
232.163	433.01954
232.704	437.05205
233.244	419.99289
233.784	405.95491
234.324	375.81484
234.864	391.86801
235.404	423.96514
235.944	422.96421
236.484	425.01151
237.023	432.99459
237.563	445.99729
238.102	380.86198
238.641	418.01476
239.18	396.90955
239.719	465.12211
240.258	444.96289
240.797	454.0556
241.335	451.05665
241.874	460.8647
242.412	410.95449
242.95	429.00305
243.488	484.07041
244.026	410.91793
244.564	399.79863
245.102	482.05311
245.64	428.99991
246.177	369.80896
246.715	417.96218
247.252	416.92177
247.789	390.70317
248.326	458.07161
248.863	423.90621
249.4	378.82956
249.936	456.92222
250.473	449.01124
251.009	469.043
251.546	486.0435
252.082	419.8833
252.618	475.0275
253.154	463.06788
253.69	412.91025
254.226	388.88798
254.761	479.03573
255.297	480.02262
255.832	397.90802
256.367	443.01558
256.903	425.91246
257.438	446.9981
257.972	509.09602
258.507	447.00467
259.042	396.82913
259.576	452.9493
260.111	456.01047
260.645	353.74777
261.179	433.9728
261.713	469.00628
262.247	442.98589
262.781	393.80228
263.315	449.05031
263.849	473.13371
264.382	496.07872
264.915	504.14158
265.449	487.14691
265.982	480.04254
266.515	483.12513
267.048	422.85855
267.58	492.01506
268.113	475.9943
268.646	498.1749
269.178	487.06024
269.71	464.95817
270.243	453.99475
270.775	480.16903
271.307	480.09418
271.838	456.02808
272.37	437.03097
272.902	486.05873
273.433	501.04778
273.965	475.10256
274.496	492.15309
275.027	504.19459
275.558	470.09329
276.089	488.15928
276.62	463.12064
277.15	532.2392
277.681	487.01305
278.211	500.16639
278.741	517.09372
279.272	502.09688
279.802	515.22375
280.332	557.24877
280.861	484.11307
281.391	499.08365
281.921	489.10733
282.45	517.22945
282.98	520.2807
283.509	479.03838
284.038	465.01654
284.567	471.03966
285.096	516.17732
285.625	483.03771
286.153	495.10957
286.682	551.20489
287.21	524.19272
287.739	498.12248
288.267	471.09455
288.795	550.35963
289.323	533.18117
289.851	501.10554
290.378	545.17266
290.906	574.32403
291.433	502.18527
291.961	553.19653
292.488	485.136
293.015	539.19845
293.542	547.31183
294.069	595.37769
294.596	551.27571
295.122	530.19667
295.649	514.06909
296.175	596.35627
296.702	589.32871
297.228	608.36688
297.754	557.17745
298.28	535.15752
298.806	506.14194
299.332	591.24235
299.857	539.1483
300.383	602.40245
300.908	601.38335
301.433	598.34931
301.958	620.34884
302.483	628.46651
303.008	556.26566
303.533	681.63159
304.058	584.27043
304.582	637.41371
305.107	615.49291
305.631	574.22007
306.155	683.47064
306.679	644.40111
307.203	594.28893
307.727	642.42334
308.251	633.42401
308.775	613.35475
309.298	623.3992
309.822	655.51494
310.345	659.42741
310.868	677.47641
311.391	670.49163
311.914	710.63606
312.437	649.34467
312.96	669.44355
313.482	631.38238
314.005	704.62609
314.527	720.70902
315.049	730.66012
315.571	699.42259
316.093	745.65564
316.615	676.48076
317.137	748.4572
317.659	733.57773
318.18	726.56833
318.702	838.74253
319.223	762.40161
319.744	811.62239
320.265	803.72998
320.786	767.7116
321.307	798.77531
321.828	792.57739
322.348	846.72877
322.869	831.74826
323.389	950.35701
323.909	815.66047
324.43	886.82854
324.95	810.64467
325.47	887.90777
325.989	878.79422
326.509	875.70137
327.029	917.79244
327.548	919.77689
328.067	944.97093
328.587	938.96703
329.106	1011.97364
329.625	946.10884
330.144	924.80998
330.662	960.90358
331.181	975.91225
331.7	988.93278
332.218	1064.89404
332.736	1016.95958
333.255	1020.99452
333.773	1040.02359
334.291	1021.09308
334.808	1032.89183
335.326	1062.96547
335.844	1135.15002
336.361	1147.36123
336.879	1141.17816
337.396	1114.17814
337.913	1202.24259
338.43	1152.06253
338.947	1138.19279
339.464	1205.0572
339.981	1235.30378
340.497	1260.42843
341.014	1284.44775
341.53	1240.17883
342.046	1270.41518
342.562	1360.55696
343.078	1320.37661
343.594	1304.40368
344.11	1296.34625
344.626	1332.56021
345.141	1316.24591
345.657	1318.19549
346.172	1416.55405
346.687	1373.36305
347.202	1450.40501
347.717	1443.51828
348.232	1454.7077
348.747	1451.44412
349.261	1441.2866
349.776	1475.53828
350.29	1482.7033
350.805	1525.75222
351.319	1545.55189
351.833	1545.51427
352.347	1531.57147
352.861	1555.5938
353.374	1575.50825
353.888	1542.5852
354.401	1623.60582
354.915	1677.63475
355.428	1654.85656
355.941	1636.61441
356.454	1712.50513
356.967	1599.60289
357.48	1635.53295
357.993	1691.82554
358.505	1690.8368
359.018	1763.90409
359.53	1733.73766
360.042	1762.53423
360.554	1755.7681
361.066	1751.87156
361.578	1851.52068
362.09	1835.82385
362.602	1874.53386
363.113	1935.77653
363.625	1852.58936
364.136	1899.56096
364.647	1868.72887
365.158	1958.80759
365.669	2002.95647
366.18	1984.82995
366.691	1951.57001
367.201	1961.8525
367.712	2025.77554
368.222	2047.71224
368.733	2033.52688
369.243	2132.65314
369.753	2131.74957
370.263	2209.02643
370.773	2196.17344
371.282	2267.94849
371.792	2297.83404
372.301	2379.09305
372.811	2367.38697
373.32	2464.56647
373.829	2516.87939
374.338	2607.64888
374.847	2687.77372
375.356	2747.86746
375.865	2842.35747
376.373	2987.55779
376.882	3023.11723
377.39	3033.84518
377.898	3158.97134
378.407	3397.42476
378.915	3377.02719
379.423	3594.36455
379.93	3651.07899
380.438	3861.3545
380.946	4029.95409
381.453	4266.99334
381.96	4532.61497
382.468	4925.29337
382.975	5125.29977
383.482	5193.93163
383.989	5183.55545
384.495	5545.76577
385.002	5867.17273
385.509	6144.46299
386.015	6514.98518
386.521	6886.33711
387.028	7037.41319
387.534	7178.42365
388.04	7554.9105
388.546	7885.33374
389.051	8390.36897
389.557	9077.07511
390.063	9360.28563
390.568	9731.22829
391.073	10166.74856
391.578	10432.79328
392.084	10796.40837
392.589	11482.79125
393.093	12710.52183
393.598	13391.58246
394.103	14622.19189
394.607	15801.41695
395.112	16896.48594
395.616	17966.43125
396.12	19590.69584
396.624	21651.89283
397.128	23581.90146
397.632	25532.86751
398.136	27622.19149
398.639	30749.92169
399.143	35086.86901
399.646	38985.93424
400.15	42385.40899
400.653	47745.71883
401.156	54548.40556
401.659	55461.01895
402.162	53821.55638
402.664	47275.14456
403.167	32260.27245
403.67	3851.94142
404.172	0
404.674	0
405.176	0
405.678	0
406.18	0
406.682	0
407.184	0
407.686	12367.42319
408.187	34596.90747
408.688	44563.94194
409.19	48906.19284
409.691	51236.67962
410.192	52883.26968
410.693	53713.23343
411.194	54189.54801
411.694	54767.79104
412.195	55625.98899
412.696	55971.27715
413.196	55815.15953
413.696	55802.1488
414.196	55740.09561
414.696	56340.4775
415.196	53788.26181
415.696	44363.51352
416.196	34456.57528
416.695	29676.22729
417.195	27671.13961
417.694	26161.16491
418.194	24399.61859
418.693	23424.76312
419.192	22845.23172
419.691	22304.68277
420.19	21563.53162
420.688	21073.17066
421.187	19705.61195
421.685	17882.41702
422.184	15851.6804
422.682	13914.10575
423.18	12398.26077
423.678	11292.50561
424.176	10403.15958
424.674	9890.55484
425.172	9174.44294
425.669	8444.33807
426.167	7733.10431
426.664	7043.36595
427.161	6678.26458
427.659	6129.4981
428.156	5735.00664
428.652	5539.10679
429.149	5389.92197
429.646	5105.69509
430.143	4598.41357
430.639	4496.46122
431.135	4257.00151
431.632	4011.78285
432.128	3761.02218
432.624	3708.59641
433.12	3631.95004
433.616	3475.88884
434.111	3479.43239
434.607	3329.49657
435.103	3231.94411
435.598	2903.90112
436.093	2826.51991
436.588	2638.34097
437.083	2616.48946
437.578	2453.39582
438.073	2323.93063
438.568	2290.79689
439.062	2226.25865
439.557	2112.57875
440.051	2179.53903
440.546	2083.54301
441.04	2030.70055
441.534	1936.81973
442.028	1881.57883
442.522	1821.58282
443.015	1815.31443
443.509	1816.69827
444.002	1791.65819
444.496	1687.19898
444.989	1720.59183
445.482	1738.67657
445.975	1656.34147
446.468	1705.2541
446.961	1556.04355
447.454	1587.32336
447.947	1521.33824
448.439	1535.43984
448.931	1492.15016
449.424	1531.54656
449.916	1548.44609
450.408	1439.12992
450.9	1359.23036
451.392	1378.39739
451.884	1376.1387
452.375	1384.35632
452.867	1275.95914
453.358	1303.04606
453.849	1313.91326
454.341	1237.9271
454.832	1240.86766
455.323	1274.22142
455.814	1210.97289
456.304	1118.88525
456.795	1224.01916
457.285	1185.87344
457.776	1147.86188
458.266	1150.0232
458.756	1137.04234
459.247	1077.94043
459.737	1135.04912
460.226	1104.8515
460.716	1031.87911
461.206	1069.95147
461.695	1090.08307
462.185	1011.84814
462.674	1034.81208
463.163	1003.71952
463.653	964.57287
464.142	960.81783
464.63	933.78853
465.119	950.72549
465.608	958.75061
466.096	954.64792
466.585	894.65644
467.073	897.71611
467.561	887.71411
468.05	906.68539
468.538	844.6881
469.026	838.62198
469.513	792.36376
470.001	907.71522
470.489	876.73037
470.976	784.47899
471.463	750.567
471.951	736.53229
472.438	680.36786
472.925	804.59391
473.412	736.51735
473.899	735.42335
474.385	694.46268
474.872	672.34492
475.359	658.40554
475.845	644.16992
476.331	611.16593
476.817	646.35663
477.303	561.15432
477.789	593.25695
478.275	543.20036
478.761	628.33559
479.247	525.04227
479.732	523.17388
480.218	529.22084
480.703	541.19594
481.188	506.96664
481.673	529.08592
482.158	571.1095
482.643	521.1909
483.128	484.0173
483.612	424.91247
484.097	468.04357
484.581	435.91622
485.066	418.94277
485.55	398.81304
486.034	426.85839
486.518	380.82096
487.002	468.06721
487.486	387.88444
487.969	378.86058
488.453	360.84176
488.936	379.80144
489.42	350.7338
489.903	321.75397
490.386	404.62576
490.869	358.72967
491.352	347.78347
491.835	357.69471
492.318	373.79946
492.8	428.8422
493.283	331.78986
493.765	312.73012
494.247	352.77186
494.73	254.53678
495.212	296.6682
495.694	310.6918
496.175	289.65706
496.657	304.68177
497.139	311.52217
497.62	264.60666
498.102	298.7129
498.583	288.6903
499.064	191.41187
499.545	282.61708
500.026	229.50058
500.507	233.52524
500.988	213.51163
501.469	205.49895
501.949	221.52114
502.43	273.62696
502.91	226.46022
503.39	233.55881
503.87	246.55965
504.35	213.4833
504.83	220.47165
505.31	210.49222
505.79	208.48639
506.269	196.44392
506.749	210.46691
507.228	182.41808
507.707	183.39496
508.187	193.44521
508.666	148.3526
509.145	134.30917
509.623	200.46163
510.102	138.32815
510.581	180.41679
511.059	196.48017
511.538	126.31645
512.016	212.49711
512.494	200.47702
512.972	105.24492
513.45	141.32487
513.928	162.38699
514.406	183.43773
514.884	181.45253
515.361	79.18579
515.839	169.37942
516.316	178.42
516.793	134.33291
517.27	160.37738
517.747	169.42604
518.224	100.22824
518.701	149.32805
519.178	115.28064
519.654	165.38168
520.131	127.30831
520.607	132.31906
521.083	147.33193
521.56	117.2714
522.036	112.24437
522.512	101.24298
522.987	127.29844
523.463	164.38276
523.939	106.25361
524.414	180.40685
524.89	170.39801
525.365	91.20338
525.84	129.30326
526.315	136.32314
526.79	93.20708
527.265	147.33301
527.74	91.21826
528.215	153.36192
528.689	80.17691
529.164	124.26917
529.638	130.32755
530.112	63.14886
530.587	110.23817
531.061	122.29233
531.534	149.35641
532.008	120.2871
532.482	94.21221
532.956	57.1439
533.429	87.20731
533.903	96.20955
534.376	123.27297
534.849	84.19173
535.322	118.27562
535.795	81.19487
536.268	131.31132
536.741	73.17275
537.213	87.19917
537.686	58.14051
538.158	97.21858
538.631	21.05041
539.103	105.2368
539.575	91.18847
540.047	132.28935
540.519	67.15782
540.991	70.16799
541.463	111.264
541.934	63.14278
542.406	43.10156
542.877	65.14473
543.348	31.07265
543.82	79.19034
544.291	57.1307
544.762	107.25115
545.233	76.1873
545.703	58.12869
546.174	148.33739
546.645	104.24682
547.115	157.37138
547.585	118.26389
548.056	59.1407
548.526	138.31853
548.996	129.30184
549.466	152.3581
549.935	142.33076
550.405	174.37271
550.875	140.32366
551.344	153.35547
551.814	204.45395
552.283	150.31644
552.752	145.32621
553.221	139.29755
553.69	109.23606
554.159	168.40117
554.628	194.42435
555.096	192.4667
555.565	186.41012
556.033	161.36725
556.502	163.38513
556.97	109.23565
557.438	130.29935
557.906	151.34847
558.374	118.26683
558.842	131.30712
559.31	145.31965
559.777	129.30621
560.245	110.25016
560.712	107.2425
561.18	120.26304
561.647	72.15909
562.114	151.34332
562.581	126.29892
563.048	145.32741
563.514	142.34051
563.981	198.43968
564.448	163.35496
564.914	191.42458
565.381	219.47549
565.847	206.46106
566.313	312.69165
566.779	284.61568
567.245	279.61142
567.711	333.75156
568.176	235.50239
568.642	310.72714
569.108	322.74051
569.573	345.7503
570.038	367.71791
570.504	390.8126
570.969	361.82238
571.434	395.79209
571.899	468.00823
572.363	517.04356
572.828	487.98379
573.293	573.16899
573.757	551.11385
574.222	629.23055
574.686	644.25786
575.15	610.2753
575.614	668.32456
576.078	654.31367
576.542	658.27917
577.006	671.28869
577.469	670.38174
577.933	709.35787
578.396	677.37151
578.86	671.35252
579.323	757.5345
579.786	716.29573
580.249	699.35546
580.712	678.40452
581.175	710.49448
581.637	727.39509
582.1	667.21886
582.563	700.26414
583.025	677.40651
583.487	647.1352
583.95	662.22953
584.412	654.15924
584.874	663.38779
585.336	631.29626
585.797	556.05077
586.259	616.25373
586.721	604.23932
587.182	569.14873
587.643	500.99407
588.105	502.03295
588.566	494.90442
589.027	489.04386
589.488	459.92553
589.949	466.00262
590.41	407.7265
590.87	426.84971
591.331	420.81322
591.791	454.93669
592.252	371.76562
592.712	372.7968
593.172	381.77602
593.632	333.65016
594.092	359.72189
594.552	287.56008
595.011	306.64779
595.471	295.60688
595.931	274.56101
596.39	362.79446
596.849	296.6332
597.308	287.55795
597.768	306.72197
598.227	276.60727
598.685	290.60586
599.144	302.65358
599.603	312.67609
600.062	275.54406
600.52	238.49679
600.978	283.62097
601.437	268.56487
601.895	196.38585
602.353	260.52728
602.811	293.60412
603.269	291.63368
603.727	303.66569
604.184	282.59072
604.642	233.52503
605.099	320.6878
605.557	282.63036
606.014	263.52568
606.471	343.78233
606.928	300.59282
607.385	409.89966
607.842	415.86065
608.299	381.80214
608.755	359.77742
609.212	420.84475
609.668	363.73095
610.125	355.76778
610.581	355.74511
611.037	294.6085
611.493	326.69707
611.949	312.6833
612.405	393.73055
612.861	340.71756
613.316	352.77251
613.772	327.67604
614.227	326.69043
614.683	360.69671
615.138	391.82898
615.593	360.76943
616.048	356.74374
616.503	307.67618
616.958	352.79362
617.412	344.74224
617.867	418.84421
618.321	393.74765
618.776	355.7122
619.23	354.75333
619.684	365.75696
620.138	357.73607
620.592	315.69554
621.046	322.68286
621.5	342.76194
621.954	330.6775
622.407	333.67764
622.861	299.67456
623.314	248.52502
623.768	320.68602
624.221	216.4034
624.674	266.56854
625.127	281.60515
625.58	204.42998
626.033	216.44166
626.485	281.63136
626.938	217.48137
627.39	322.69388
627.843	228.49176
628.295	202.43792
628.747	239.53458
629.199	252.53628
629.651	228.49513
630.103	210.45779
630.555	242.49302
631.006	177.39526
631.458	223.5027
631.909	171.37191
632.361	170.38221
632.812	143.32065
633.263	155.32131
633.714	176.36819
634.165	116.26903
634.616	147.33518
635.067	128.2711
635.518	145.33222
635.968	139.27113
636.419	117.2471
636.869	90.20525
637.319	171.39147
637.769	92.20116
638.219	138.31878
638.669	89.20686
639.119	106.2473
639.569	114.26805
640.019	106.23666
640.468	70.15448
640.918	91.21092
641.367	96.21301
641.816	14.03075
642.265	52.11754
642.714	64.14519
643.163	34.07717
643.612	61.14547
644.061	62.12999
644.51	79.17795
644.958	97.21213
645.406	97.22732
645.855	73.17788
646.303	119.27199
646.751	98.22025
647.199	29.06519
647.647	62.14077
648.095	73.16558
648.543	140.28574
648.99	81.19183
649.438	49.11213
649.885	33.07996
650.333	124.24009
650.78	65.15584
651.227	111.26602
651.674	91.20691
652.121	107.25673
652.568	92.22162
653.015	103.25585
653.461	57.13437
653.908	57.13123
654.354	84.19867
654.801	122.28731
655.247	46.09998
655.693	18.04636
656.139	100.24044
656.585	71.17036
657.031	74.17502
657.477	79.17306
657.922	95.21959
658.368	134.32743
658.813	86.19882
659.259	60.14405
659.704	72.16824
660.149	99.23083
660.594	74.17583
661.039	70.15932
661.484	89.21061
661.929	48.11216
662.373	84.21226
662.818	50.12413
663.262	8.01953
663.707	76.19101
664.151	60.14525
664.595	109.26481
665.039	57.14128
665.483	78.20004
665.927	65.1518
666.371	81.19183
666.814	90.21516
667.258	62.14851
667.701	101.21845
668.145	72.17901
668.588	69.16995
669.031	124.29327
669.474	76.18357
669.917	120.26393
670.36	78.19364
670.803	114.27441
671.245	102.22076
671.688	93.22458
672.13	114.26135
672.573	75.18948
673.015	93.2234
673.457	107.23717
673.899	89.21549
674.341	47.11427
674.783	90.21771
675.225	153.37518
675.666	61.14964
676.108	42.09199
676.549	55.13086
676.991	75.16908
677.432	155.32275
677.873	101.2354
678.314	50.12086
678.755	84.20724
679.196	131.3058
679.637	127.30981
680.078	114.26837
680.518	124.28792
680.959	30.07216
681.399	83.20647
681.839	82.20119
682.28	102.25415
682.72	95.22264
683.16	112.28018
683.6	127.28876
684.039	56.11918
684.479	84.20778
684.919	98.23267
685.358	82.20743
685.798	112.29633
686.237	137.32983
686.676	58.13425
687.115	77.1832
687.554	108.25938
687.993	142.31573
688.432	116.26743
688.871	77.17869
689.309	91.22067
689.748	107.22856
690.186	107.25722
690.625	133.3151
691.063	143.34584
691.501	139.34463
691.939	129.32509
692.377	106.26239
692.815	123.29692
693.253	57.13827
693.69	110.2458
694.128	84.20793
694.565	113.27113
695.003	122.3086
695.44	140.33329
695.877	151.35581
696.314	154.33315
696.751	95.21723
697.188	108.24889
697.625	138.31345
698.061	146.35356
698.498	137.33158
698.934	145.34883
699.371	117.27837
699.807	106.25351
700.243	98.23652
700.679	109.24924
701.115	108.25177
701.551	87.20604
701.987	154.3478
702.422	137.32783
702.858	168.40086
703.294	46.10495
703.729	130.31707
704.164	120.2882
704.599	119.26684
705.035	106.24087
705.47	117.28371
705.904	115.27288
706.339	157.36289
706.774	116.27552
707.209	119.27964
707.643	126.30318
708.078	118.28673
708.512	107.26946
708.946	123.29355
709.38	132.31472
709.814	191.43936
710.248	140.34286
710.682	139.33325
711.116	175.42371
711.549	143.37038
711.983	107.25105
712.416	157.37023
712.85	138.34472
713.283	118.27929
713.716	72.18025
714.149	110.26157
714.582	136.30953
715.015	131.32516
715.448	172.42995
715.881	111.23998
716.313	91.21218
716.746	112.26653
717.178	125.30265
717.61	124.31232
718.043	92.22981
718.475	121.29242
718.907	134.33315
719.339	101.23457
719.77	85.20441
720.202	138.34858
720.634	115.28294
721.065	138.33029
721.497	164.40163
721.928	90.22425
722.359	101.24914
722.79	120.29126
723.221	102.2559
723.652	154.39038
724.083	129.29616
724.514	118.27117
724.945	112.2655
725.375	144.34057
725.806	87.21476
726.236	155.38977
726.666	130.31102
727.096	140.34629
727.526	87.22324
727.956	103.24006
728.386	155.38219
728.816	178.45569
729.246	99.24295
729.675	109.26887
730.105	178.43575
730.534	98.23223
730.964	144.36074
731.393	163.39703
731.822	80.20309
732.251	123.31351
732.68	94.22094
733.109	148.36862
733.537	116.28261
733.966	103.25669
734.395	98.22917
734.823	105.23913
735.251	93.22619
735.68	109.27233
736.108	124.315
736.536	152.36241
736.964	70.16543
737.392	123.30797
737.82	80.19067
738.247	132.3187
738.675	124.29213
739.102	136.34402
739.53	104.26504
739.957	95.24411
740.384	116.28377
740.811	117.29559
741.238	76.18647
741.665	110.25724
742.092	101.24224
742.519	123.3083
742.945	75.18207
743.372	109.27154
743.798	134.3439
744.225	103.24883
744.651	77.19474
745.077	95.23804
745.503	122.30044
745.929	79.19222
746.355	58.14141
746.781	116.28798
747.207	97.23035
747.632	96.23763
748.058	53.13266
748.483	147.34194
748.908	66.16582
749.334	120.29747
749.759	107.25702
750.184	94.22601
750.609	97.23733
751.033	67.15702
751.458	184.40656
751.883	104.2546
752.307	115.2754
752.732	87.22262
753.156	111.27682
753.58	94.22387
754.005	51.13013
754.429	93.22161
754.853	86.21669
755.277	57.13578
755.7	78.19442
756.124	70.17574
756.548	65.15786
756.971	87.21453
757.394	110.2828
757.818	56.14573
758.241	98.24984
758.664	85.21864
759.087	55.12657
759.51	32.08049
759.933	38.09248
760.356	46.11814
760.778	130.32579
761.201	113.27617
761.623	78.19095
762.046	98.23088
762.468	84.2022
762.89	-7.01741
763.312	25.0616
763.734	39.09567
764.156	92.22931
764.578	21.04914
765	113.27853
765.421	106.27602
765.843	104.27211
766.264	44.10636
766.686	21.05317
767.107	97.2383
767.528	55.14182
767.949	22.0563
768.37	59.14757
768.791	35.08608
769.212	24.0622
769.632	44.10523
770.053	53.14086
770.473	49.12087
770.894	37.09254
771.314	33.07906
771.734	56.13357
772.154	15.03915
772.575	64.14943
772.994	55.12758
773.414	44.10676
773.834	-43.10895
774.254	31.0779
774.673	12.02966
775.093	-11.02767
775.512	49.12371
775.931	64.16425
776.351	28.07065
776.77	72.18005
777.189	46.1114
777.607	-2.00516
778.026	-13.03291
778.445	-38.09715
778.864	33.08468
779.282	45.11072
779.701	58.14745
780.119	37.09501
780.537	5.0128
780.955	36.09233
781.373	-12.03019
781.791	14.0322
782.209	11.0255
782.627	3.00798
783.045	48.11238
783.462	-20.05185
783.88	22.05799
784.297	28.07196
784.715	-2.00525
785.132	-9.02223
785.549	45.11466
785.966	3.00765
786.383	32.07982
786.8	-35.08263
787.217	-2.00484
787.633	60.15286
788.05	11.02607
788.466	30.07172
788.883	2.00518
789.299	-4.00981
789.715	44.10923
790.131	30.07591
790.547	-14.03525
790.963	41.1031
791.379	5.01279
791.795	-22.05102
792.21	33.07882
792.626	-41.09942
793.041	28.0702
793.457	-7.01757
793.872	-23.05514
794.287	19.04718
794.702	16.03965
795.117	25.06375
795.532	2.00511
795.947	14.03408
796.362	-24.05771
796.776	13.03039
797.191	26.06516
797.605	-2.00487
798.02	29.07209
798.434	-13.02958
798.848	3.00756
799.262	10.02542
799.676	33.08068
800.09	-33.08203
800.504	11.02721
800.918	5.0119
801.331	13.03407
801.745	-39.09115
802.158	21.05334
802.572	-2.00486
802.985	37.09033
803.398	20.04853
803.811	33.08432
804.224	22.05504
804.637	-30.07336
805.05	64.15019
805.462	60.14966
805.875	11.02914
806.288	-9.02204
806.7	6.0153
807.112	23.05424
807.525	4.00997
807.937	12.03021
808.349	-70.17833
808.761	-66.16505
809.173	59.14414
809.584	2.00493
809.996	33.08248
810.408	39.1021
810.819	60.14432
811.231	81.21377
811.642	124.30379
812.053	50.12227
812.464	54.13063
812.875	30.07785
813.286	7.01813
813.697	-19.04407
814.108	18.04412
814.519	-47.10691
814.929	-31.07938
815.34	-39.09645
815.75	-8.02065
816.16	12.03014
816.571	1.00264
816.981	1.00236
817.391	6.01476
817.801	2.00504
818.211	8.01921
818.62	20.04922
819.03	-9.02248
819.44	6.01573
819.849	-12.03083
820.259	-1.00256
820.668	-35.08824
821.077	0
821.486	46.11224
821.895	-28.06974
822.304	26.06905
822.713	-14.03373
823.122	-30.07586
823.531	-14.03355
823.939	-11.0273
824.348	-13.0321
824.756	1.00253
825.164	8.02016
825.573	-17.04352
825.981	-36.0897
826.389	34.08613
826.797	14.03586
827.205	10.02363
827.612	3.00745
828.02	30.07202
828.428	-14.03602
828.835	-12.03188
829.243	-13.03138
829.65	-17.04298
830.057	2.00488
830.464	-13.03208
830.871	-10.02406
831.278	-6.01471
831.685	6.01367
832.092	28.06936
832.499	-27.06079
832.905	14.03564
833.312	21.04846
833.718	14.03497
834.124	-29.06722
834.531	19.04821
834.937	12.03096
835.343	27.06582
835.749	12.02824
836.155	17.045
836.561	17.04192
836.966	-27.06685
837.372	8.02065
837.777	4.01008
838.183	19.04304
838.588	22.05533
838.993	-9.02195
839.399	19.04764
839.804	-16.03997
840.209	5.01293
840.613	-42.09629
841.018	5.0128
841.423	-13.03373
841.828	-7.01788
842.232	-17.04234
842.637	-3.00719
843.041	-23.06005
843.445	36.09103
843.849	-17.04286
844.253	-2.0048
844.657	2.00513
845.061	12.0275
845.465	-5.01241
845.869	19.04477
846.272	24.05954
846.676	-52.12569
847.079	28.07224
847.483	18.04485
847.886	19.0464
848.289	-7.01893
848.692	6.01524
849.095	11.02674
849.498	4.01009
849.901	-38.08918
850.304	-22.05304
850.707	-20.05145
851.109	-14.03541
851.512	33.08251
851.914	23.05978
852.316	-3.00769
852.718	81.21392
853.121	28.06982
853.523	71.17062
853.925	-3.00797
854.326	-1.00255
854.728	15.03897
855.13	2.00522
855.531	35.08554
855.933	18.04369
856.334	-9.02275
856.736	61.14072
857.137	55.12955
857.538	62.15784
857.939	27.06819
858.34	26.06384
858.741	8.02109
859.142	-31.07554
859.542	7.01863
859.943	22.05577
860.343	42.10605
860.744	2.00492
861.144	-15.03714
861.544	14.03471
861.945	7.01809
862.345	24.05902
862.745	24.05978
863.145	10.02389
863.544	17.04336
863.944	45.10818
864.344	-24.06002
864.743	7.01739
865.143	45.11676
865.542	-19.04531
865.941	-7.01748
866.34	-49.11887
866.74	-2.0054
867.139	-14.03411
867.537	19.04875
867.936	20.04862
868.335	-15.03853
868.734	9.02327
869.132	28.06568
869.531	-54.13087
869.929	-1.00236
870.327	24.05873
870.726	-12.03001
871.124	10.02341
871.522	-16.04106
871.92	42.10435
872.318	-8.01967
872.715	-20.04947
873.113	9.02223
873.511	-58.14488
873.908	-59.15235
874.306	15.03795
874.703	16.04021
875.1	-28.07186
875.497	-26.06351
875.894	-17.04287
876.291	-45.11109
876.688	-4.01043
877.085	6.0145
877.482	-4.01015
877.878	0
878.275	4.01024
878.671	-45.10041
879.068	-21.05142
879.464	14.03441
879.86	11.02658
880.256	21.05194
880.652	37.09537
881.048	14.03487
881.444	-15.03594
881.84	35.08975
882.236	24.06052
882.631	-8.01982
883.027	17.04101
883.422	44.11367
883.817	5.0129
884.213	11.02856
884.608	23.05784
885.003	26.0641
885.398	-15.03826
885.793	8.02034
886.188	6.01526
886.582	32.08218
886.977	58.13856
887.371	-63.16013
887.766	34.08542
888.16	56.14019
888.554	-54.13387
888.949	-22.05563
889.343	-2.00494
889.737	14.03782
890.131	16.04057
890.525	17.04412
890.918	21.05343
891.312	-4.00963
891.706	14.03682
892.099	5.01278
892.492	32.06926
892.886	18.04506
893.279	23.05959
893.672	17.04379
894.065	1.00252
894.458	-19.04809
894.851	-35.08599
895.244	18.0466
895.637	24.05814
896.029	32.07944
896.422	6.01481
896.814	32.08089
897.206	-34.08305
897.599	31.07627
897.991	4.00984
898.383	-51.1226
898.775	15.03433
899.167	12.02871
899.559	-18.04571
899.951	4.0096
900.342	29.07423
900.734	11.02793
901.125	22.05848
901.517	-26.06452
901.908	17.04074
902.299	57.142
902.69	14.03348
903.082	-8.01932
903.473	12.02939
903.863	-50.12895
904.254	-12.02821
904.645	-19.04718
905.036	-24.05956
905.426	41.09439
905.817	20.04972
906.207	-47.11585
906.597	-44.10567
906.987	-26.06724
907.378	-40.10251
907.768	-13.03479
908.158	-7.01729
908.547	7.01849
908.937	-27.0694
909.327	-10.02452
909.717	9.02279
910.106	41.10024
910.495	-12.03012
910.885	-5.01283
911.274	33.0831
911.663	22.05573
912.052	37.09083
912.441	35.09003
912.83	8.0188
913.219	26.06775
913.608	-48.11812
913.997	14.03573
914.385	24.0581
914.774	-15.03704
915.162	14.03407
915.55	-12.02915
915.939	-14.03588
916.327	-19.04728
916.715	36.09355
917.103	28.06901
917.491	34.08441
917.878	22.05484
918.266	-21.05477
918.654	40.10226
919.041	-28.07403
919.429	-32.07647
919.816	37.09408
920.203	12.0294
920.591	-16.03994
920.978	13.03202
921.365	27.07114
921.752	-22.05316
922.139	-11.02423
922.525	36.08902
922.912	-39.09645
923.299	49.12384
923.685	-22.05782
924.072	25.05797
924.458	4.01003
924.844	34.08561
925.231	39.09186
925.617	24.06241
926.003	-13.03352
926.389	-13.03305
926.774	9.02301
927.16	28.06997
927.546	9.02323
927.931	40.10075
928.317	1.00234
928.702	-7.01665
929.088	37.08969
929.473	9.02313
929.858	12.02988
930.243	18.04371
930.628	-11.02746
931.013	-20.05038
931.398	-36.08303
931.783	-35.09212
932.167	-29.07154
932.552	-18.04509
932.937	19.04726
933.321	-10.02562
933.705	-11.02802
934.09	-51.12834
934.474	13.03124
934.858	-50.13065
935.242	1.00235
935.626	9.0233
936.009	5.01344
936.393	12.03053
936.777	-40.10312
937.16	35.09166
937.544	-10.02361
937.927	-10.02563
938.311	17.04163
938.694	19.04991
939.077	16.03898
939.46	-1.00245
939.843	-3.00634
940.226	45.1162
940.609	53.12397
940.991	28.07206
941.374	28.0688
941.757	46.11433
942.139	-60.13811
942.522	15.0354
942.904	12.02894
943.286	-18.04608
943.668	28.07321
944.05	-17.04278
944.432	41.10273
944.814	90.22278
945.196	1.00251
945.578	44.10716
945.959	14.03321
946.341	28.06799
946.722	-25.05918
947.104	31.07407
947.485	9.02148
947.866	14.03583
948.247	-9.02305
948.628	25.06133
949.009	4.01038
949.39	-23.05765
949.771	43.10054
950.152	18.0447
950.532	-7.01765
950.913	78.18996
951.293	-8.02197
951.674	17.04143
952.054	-30.07554
952.434	-27.06775
952.814	-29.06879
953.194	-30.07831
953.574	11.02703
953.954	22.05292
954.334	4.01005
954.714	-3.00744
955.093	-41.10095
955.473	-5.01265
955.853	-11.02853
956.232	-59.16261
956.611	13.03111
956.99	-17.04269
957.37	-2.00513
957.749	5.01204
958.128	3.00759
958.506	31.08096
958.885	-18.046
959.264	-12.03017
959.643	21.04873
960.021	-35.08779
960.4	-8.0184
960.778	16.03916
961.156	6.01526
961.535	15.03525
961.913	-4.0095
962.291	20.0521
962.669	-67.1706
963.047	28.07189
963.424	-18.04645
963.802	-27.06726
964.18	2.00507
964.557	51.1184
964.935	13.03084
965.312	29.07638
965.69	23.05786
966.067	46.1122
966.444	11.02721
966.821	-37.0958
967.198	-3.00726
967.575	-7.01724
967.952	-18.04236
968.329	53.12896
968.705	31.068
969.082	25.06513
969.458	-31.07602
969.835	-26.06346
970.211	3.00779
970.587	-4.01003
970.963	8.02062
971.339	9.02367
971.715	9.02266
972.091	28.06946
972.467	-4.01004
972.843	2.00507
973.219	26.06211
973.594	5.01323
973.97	29.06932
974.345	67.16113
974.721	13.03165
975.096	-4.00985
975.471	-19.04474
975.846	42.10175
976.221	28.07236
976.596	31.07529
976.971	-51.12691
977.346	-11.02587
977.72	-44.11257
978.095	-31.08052
978.469	-7.01683
978.844	-15.03773
979.218	7.0172
979.593	-37.08901
979.967	14.03458
980.341	49.11403
980.715	-19.04819
981.089	57.14329
981.463	-20.04695
981.837	-9.0224
982.21	15.03424
982.584	-1.00246
982.957	-32.08141
983.331	1.00238
983.704	17.04238
984.078	9.02231
984.451	2.00492
984.824	27.06719
985.197	-14.03444
985.57	38.09534
985.943	-13.03206
986.316	3.0074
986.688	-23.05615
987.061	24.05698
987.434	-27.07083
987.806	-1.00243
988.179	9.02178
988.551	44.11182
988.923	-11.02709
989.295	25.06285
989.667	26.06393
990.039	22.05498
990.411	-3.00701
990.783	2.00459
991.155	47.1153
991.527	-8.01949
991.898	25.06253
992.27	33.08272
992.641	-1.00252
993.012	-10.02386
993.384	3.00726
993.755	-9.02322
994.126	-13.03163
994.497	33.08227
994.868	-46.10766
995.239	-2.00491
995.61	-15.03853
995.98	-7.01736
996.351	31.07796
996.722	2.00474
997.092	-22.05298
997.462	6.01446
997.833	-34.08113
998.203	26.06308
998.573	30.07494
998.943	2.00478
999.313	-4.00961
999.683	-23.056
1000.053	-11.0256
1000.423	-20.04894
1000.792	35.09175
1001.162	-39.09779
1001.531	0
1001.901	-6.01506
1002.27	23.05227
1002.639	16.04112
1003.009	-4.00966
1003.378	16.04093
1003.747	41.09748
1004.116	23.05571
1004.485	-14.0336
1004.853	-11.02805
1005.222	33.0837
1005.591	40.09534
1005.959	75.17384
1006.328	7.0161
1006.696	-28.06837
1007.064	-8.02046
1007.433	9.02243
1007.801	-24.05884
1008.169	30.07656
1008.537	-37.08283
1008.905	-31.07407
1009.273	37.09167
1009.64	8.01948
1010.008	29.06971
1010.375	-41.09823
1010.743	41.09488
1011.11	35.08379
1011.478	-14.03479
1011.845	11.02602
1012.212	18.04163
1012.579	-3.00743
1012.946	21.05041
1013.313	-39.09326
1013.68	16.03611
1014.047	31.07571
1014.414	2.0048
1014.78	-23.05776
1015.147	12.029
1015.513	5.01219
1015.88	16.04089
1016.246	12.02973
1016.612	3.00696
1016.978	54.13298
1017.344	6.01493
1017.71	-28.06786
1018.076	-5.01186
1018.442	24.0617
1018.808	13.03282
1019.174	27.06843
1019.539	2.00458
1019.905	-32.07665
1020.27	33.08212
1020.636	-10.02411
1021.001	4.00975
1021.366	-38.09234
1021.731	8.02069
1022.096	-40.10201
1022.461	-36.08557
1022.826	28.0674
1023.191	-17.04496
1023.556	-6.01426
1023.92	6.01474
1024.285	10.02445
1024.649	11.02698
1025.014	50.12286
1025.378	45.11393
1025.742	7.01755
1026.107	7.01598
1026.471	8.01866
1026.835	-28.06979
1027.199	-36.08888
1027.562	16.03783
1027.926	-4.0098
1028.29	20.05154
1028.654	-3.00703
1029.017	-11.02714
1029.381	41.10028
1029.744	32.08236
1030.107	-38.09029
1030.471	27.06486
1030.834	-18.0415
1031.197	-5.01202
1031.56	17.0402
1031.923	-4.01041
1032.286	-29.0681
1032.648	17.0411
1033.011	15.03536
1033.374	-11.02589
1033.736	14.03734
1034.099	25.06183
1034.461	28.07216
1034.823	-25.0633
1035.185	32.08103
1035.548	-6.01481
1035.91	2.00488
1036.272	10.02311
1036.634	-4.00977
1036.995	-38.09019
1037.357	-42.10404
1037.719	13.03161
1038.08	-21.04989
1038.442	-11.02644
1038.803	38.09216
1039.165	-11.02792
1039.526	-40.09793
1039.887	19.04592
1040.248	35.08798
1040.609	21.05174
1040.97	45.1117
1041.331	-51.1305
1041.692	-19.04545
1042.053	1.00229
1042.413	37.08607
1042.774	21.05117
1043.134	-7.01664
1043.495	9.0227
1043.855	-2.00488
1044.215	-23.05728
1044.576	16.03901
1044.936	-20.04578
1045.296	38.09455
1045.656	24.05915
1046.016	14.03402
1046.375	21.05188
1046.735	4.00932
1047.095	-11.02622
1047.454	-20.04267
1047.814	-34.082
1048.173	6.01425
1048.533	-17.0397
1048.892	2.00492
1049.251	-4.01007
1049.61	-10.025
1049.969	-9.0213
1050.328	-19.04196
1050.687	62.15116
1051.046	-2.0049
1051.405	9.02255
1051.763	17.03962
1052.122	35.08871
1052.48	-3.00738
1052.839	-23.0551
1053.197	-50.11899
1053.555	-23.05191
1053.914	1.00247
1054.272	28.06735
1054.63	-4.01
1054.988	-32.0772
1055.345	71.15403
1055.703	-23.05548
1056.061	-8.02077
1056.419	15.03905
1056.776	-5.01213
1057.134	5.01177
1057.491	2.00503
1057.848	10.02505
1058.206	-7.01672
1058.563	46.1027
1058.92	21.04858
1059.277	-38.09424
1059.634	50.11844
1059.991	3.00713
1060.348	36.08346
1060.704	-17.04127
1061.061	-10.02281
1061.418	8.01973
1061.774	11.02743
1062.131	-9.02399
1062.487	-6.01416
1062.843	22.05515
1063.199	4.00997
1063.555	-28.06597
1063.911	15.03829
1064.267	-20.04229
1064.623	-31.07698
1064.979	4.00936
1065.335	-10.02367
1065.691	-31.07441
1066.046	-25.05551
1066.402	23.05321
1066.757	-37.09378
1067.112	-16.03902
1067.468	-17.04102
1067.823	-2.00487
1068.178	3.00728
1068.533	-41.10035
1068.888	16.03863
1069.243	-7.01746
1069.598	24.05895
1069.952	26.06006
1070.307	-29.07353
1070.662	4.00969
1071.016	18.04132
1071.371	0
1071.725	21.05025
1072.079	-20.04823
1072.434	4.00984
1072.788	57.13775
1073.142	30.07372
1073.496	81.19627
1073.85	-7.01636
1074.203	-56.13659
1074.557	7.01876
1074.911	44.10423
1075.265	-3.00704
1075.618	10.02458
1075.971	42.10045
1076.325	-3.00774
1076.678	30.07073
1077.031	15.03466
1077.385	30.06715
1077.738	30.06952
1078.091	25.05857
1078.444	27.0633
1078.796	5.01237
1079.149	8.01993
1079.502	13.03133
1079.855	-8.01907
1080.207	-20.04951
1080.56	25.06536
1080.912	-21.05192
1081.264	16.03886
1081.617	1.0025
1081.969	-12.03094
1082.321	53.13064
1082.673	-18.04265
1083.025	11.02613
1083.377	8.01728
1083.728	23.05401
1084.08	13.03291
1084.432	20.049
1084.783	-14.03283
1085.135	10.02532
1085.486	4.0094
1085.838	22.05454
1086.189	-9.02218
1086.54	-13.03114
1086.891	-11.0284
1087.242	26.06346
1087.593	-32.07779
1087.944	4.0093
1088.295	-47.10795
1088.646	-17.04175
1088.996	7.01721
1089.347	33.08119
1089.698	10.02431
1090.048	14.03634
1090.398	-29.06831
1090.749	-24.05792
1091.099	5.01275
1091.449	-21.05264
1091.799	-2.0051
1092.149	37.09268
1092.499	-15.03663
1092.849	18.04599
1093.199	-20.0501
1093.548	-30.07303
1093.898	70.17612
1094.248	-24.06185
1094.597	5.01302
1094.947	-17.04571
1095.296	2.00501
1095.645	12.03119
1095.994	37.08999
1096.343	-7.01775
1096.692	0
1097.041	-33.09098
1097.39	-3.00757
1097.739	-21.05464
1098.088	33.08823
1098.437	-30.08015
1098.785	15.04077
1099.134	35.09271
1099.482	-14.03862
1099.83	-44.11579
1100.179	-21.05552
1100.527	13.03488
1100.875	-21.05622
1101.223	-6.01594
1101.571	25.06955
1101.919	-10.02664
1102.267	-2.00565
1102.615	-8.02578
1102.962	2.00643
1103.31	3.00966
1103.658	-4.01288
