Data from N2 R1 sample 2_Subt2__3__13-48-51-934.txt Node

Date: Wed Aug 27 13:48:51 PDT 2025
User: uwsun
Spectrometer: HDX01956
Trigger mode: 0
Integration Time (sec): 5.000000E-1
Scans to average: 1
Nonlinearity correction enabled: true
Boxcar width: 0
Storing dark spectrum: false
XAxis mode: Wavelengths
Number of Pixels in Spectrum: 2068
>>>>>Begin Spectral Data<<<<<
194.03	222.62686
194.578	229.72733
195.127	233.72954
195.676	223.70103
196.225	217.57573
196.773	235.6466
197.321	344.92939
197.87	471.16178
198.418	563.38137
198.966	468.18028
199.513	492.1925
200.061	501.23136
200.609	493.24187
201.156	480.02129
201.704	498.21924
202.251	467.18927
202.798	518.30236
203.345	489.16366
203.892	476.15194
204.438	514.17888
204.985	521.18755
205.532	460.16709
206.078	546.28332
206.624	538.27382
207.17	552.22156
207.716	531.25117
208.262	499.94703
208.808	478.14593
209.354	535.25475
209.899	495.19417
210.445	506.20763
210.99	549.26303
211.535	512.1555
212.08	518.16383
212.625	493.18127
213.17	465.12169
213.715	487.05889
214.259	493.09828
214.804	539.26906
215.348	479.05779
215.892	490.12599
216.436	518.13906
216.98	530.12004
217.524	475.07949
218.068	467.11761
218.612	544.30388
219.155	475.07514
219.698	452.03231
220.242	423.00982
220.785	433.98038
221.328	479.14506
221.871	403.97447
222.414	461.10574
222.956	450.04793
223.499	455.99242
224.041	512.14939
224.583	403.84062
225.126	432.93408
225.668	465.0946
226.21	443.07175
226.751	417.89992
227.293	448.98729
227.835	418.98651
228.376	463.03389
228.918	436.05735
229.459	476.14459
230	425.97048
230.541	489.08711
231.082	459.07668
231.622	483.08396
232.163	442.03895
232.704	481.14854
233.244	399.94916
233.784	436.01965
234.324	401.86651
234.864	428.94283
235.404	429.97764
235.944	403.92433
236.484	432.02683
237.023	459.04896
237.563	480.06596
238.102	443.992
238.641	481.15423
239.18	432.98507
239.719	451.09114
240.258	461.99613
240.797	492.13555
241.335	430.01148
241.874	480.89786
242.412	471.08118
242.95	477.10502
243.488	479.06043
244.026	445.98909
244.564	433.85986
245.102	462.01359
245.64	519.1887
246.177	422.9148
246.715	480.09154
247.252	443.97607
247.789	362.65735
248.326	477.112
248.863	463.98333
249.4	455.98233
249.936	529.05023
250.473	471.05612
251.009	465.03495
251.546	462.99893
252.082	450.94219
252.618	517.10851
253.154	472.08672
253.69	506.09398
254.226	411.93625
254.761	511.09751
255.297	517.09276
255.832	438.99351
256.367	507.14769
256.903	477.01071
257.438	474.05262
257.972	504.0864
258.507	514.13971
259.042	444.91976
259.576	508.05189
260.111	469.03653
260.645	471.97197
261.179	496.09791
261.713	531.12437
262.247	517.13328
262.781	518.02572
263.315	471.09713
263.849	520.23541
264.382	475.03757
264.915	573.27994
265.449	538.25467
265.982	510.10076
266.515	523.20888
267.048	434.88055
267.58	514.05531
268.113	490.02043
268.646	501.18131
269.178	544.17026
269.71	455.94149
270.243	535.15259
270.775	541.30283
271.307	532.20021
271.838	460.03627
272.37	496.15705
272.902	544.17076
273.433	511.06637
273.965	487.12778
274.496	502.17427
275.027	540.27117
275.558	529.21648
276.089	554.29962
276.62	520.24535
277.15	545.26628
277.681	510.05557
278.211	530.22921
278.741	520.09935
279.272	560.20886
279.802	547.29191
280.332	534.20277
280.861	566.28066
281.391	550.18166
281.921	498.12568
282.45	558.31665
282.98	571.39327
283.509	596.2603
284.038	564.20762
284.567	536.16735
285.096	541.22824
285.625	487.04542
286.153	532.1836
286.682	594.28728
287.21	550.24542
287.739	529.18493
288.267	603.36531
288.795	606.48285
289.323	563.23998
289.851	561.22265
290.378	619.311
290.906	607.39106
291.433	605.40032
291.961	589.26476
292.488	596.3661
293.015	570.25935
293.542	609.44349
294.069	627.44268
294.596	574.32298
295.122	640.41301
295.649	587.2014
296.175	607.37827
296.702	596.3426
297.228	607.3649
297.754	596.2493
298.28	642.3577
298.806	612.35169
299.332	656.3595
299.857	636.3268
300.383	640.47993
300.908	649.47967
301.433	619.39078
301.958	669.44046
302.483	675.56185
303.008	605.36373
303.533	670.60857
304.058	623.34418
304.582	671.47875
305.107	650.56761
305.631	702.45106
306.155	693.489
306.679	671.45158
307.203	652.39751
307.727	686.5071
308.251	686.52665
308.775	684.48949
309.298	665.48079
309.822	705.61453
310.345	700.50309
310.868	708.53398
311.391	692.53365
311.914	770.75323
312.437	691.41841
312.96	743.57805
313.482	711.53164
314.005	790.79371
314.527	755.78008
315.049	784.76357
315.571	752.5122
316.093	820.79415
316.615	737.59381
317.137	741.44593
317.659	755.61747
318.18	813.72385
318.702	842.74931
319.223	768.41054
319.744	844.67564
320.265	808.7389
320.786	854.8717
321.307	877.9193
321.828	843.65927
322.348	869.7666
322.869	914.88806
323.389	870.27336
323.909	930.84574
324.43	894.84177
324.95	937.84799
325.47	964.03763
325.989	948.90683
326.509	929.78341
327.029	1030.96009
327.548	973.85727
328.067	1038.12083
328.587	951.98861
329.106	1048.02668
329.625	1014.22898
330.144	1006.93285
330.662	1051.03877
331.181	1050.02187
331.7	1042.01122
332.218	1107.94902
332.736	1093.06824
333.255	1104.11496
333.773	1089.09465
334.291	1091.20173
334.808	1061.93099
335.326	1157.09004
335.844	1156.17877
336.361	1268.54031
336.879	1213.27595
337.396	1221.32792
337.913	1265.32404
338.43	1291.23062
338.947	1355.4776
339.464	1330.19631
339.981	1297.38303
340.497	1279.45401
341.014	1378.56824
341.53	1357.31318
342.046	1329.49183
342.562	1387.59077
343.078	1421.4939
343.594	1404.52464
344.11	1445.51916
344.626	1440.69731
345.141	1509.4457
345.657	1416.29705
346.172	1520.67064
346.687	1458.454
347.202	1579.52887
347.717	1505.58475
348.232	1611.88622
348.747	1506.49992
349.261	1518.35738
349.776	1586.65091
350.29	1644.87935
350.805	1749.98156
351.319	1672.66801
351.833	1654.6123
352.347	1662.69516
352.861	1680.70954
353.374	1726.63479
353.888	1662.69815
354.401	1750.71245
354.915	1806.73607
355.428	1779.97386
355.941	1809.75434
356.454	1695.49268
356.967	1794.76712
357.48	1796.65697
357.993	1777.90186
358.505	1890.00569
359.018	1960.05925
359.53	1875.8463
360.042	1867.60174
360.554	1848.84003
361.066	1961.03559
361.578	1873.53329
362.09	1906.87465
362.602	1945.57203
363.113	1983.80502
363.625	1962.65217
364.136	2037.63001
364.647	2046.83443
365.158	2181.92326
365.669	2119.02349
366.18	2059.87172
366.691	2111.64147
367.201	2106.93427
367.712	2132.82715
368.222	2152.75811
368.733	2223.59249
369.243	2236.68852
369.753	2224.78505
370.263	2297.06346
370.773	2364.25054
371.282	2369.98292
371.792	2449.87318
372.301	2504.12935
372.811	2519.44621
373.32	2566.57394
373.829	2556.88542
374.338	2739.64921
374.847	2795.77332
375.356	2880.86472
375.865	3005.3262
376.373	3079.53972
376.882	3163.10194
377.39	3171.82176
377.898	3379.92307
378.407	3532.37446
378.915	3589.9355
379.423	3731.30534
379.93	3882.9666
380.438	4057.25758
380.946	4342.78243
381.453	4505.85939
381.96	4723.50693
382.468	4934.28854
382.975	5296.21506
383.482	5399.84067
383.989	5493.40329
384.495	5677.72114
385.002	5961.16438
385.509	6367.46401
386.015	6744.09892
386.521	7090.47043
387.028	7227.56337
387.534	7525.81277
388.04	7732.12722
388.546	8038.59276
389.051	8477.57224
389.557	9330.8743
390.063	9716.6284
390.568	10154.94606
391.073	10440.07596
391.578	10935.44911
392.084	11254.14871
392.589	11648.95738
393.093	12664.13221
393.598	13762.23248
394.103	15049.05385
394.607	16401.03144
395.112	17567.55979
395.616	18662.283
396.12	20062.55805
396.624	22426.83813
397.128	24254.7312
397.632	26689.05766
398.136	28848.11569
398.639	30731.77108
399.143	34659.25487
399.646	39032.47948
400.15	42522.48758
400.653	47297.46351
401.156	53556.73456
401.659	55246.65873
402.162	53821.55638
402.664	47275.14456
403.167	32260.27245
403.67	3851.94142
404.172	0
404.674	0
405.176	0
405.678	0
406.18	0
406.682	0
407.184	0
407.686	12367.42319
408.187	34596.90747
408.688	44563.94194
409.19	48906.19284
409.691	51236.67962
410.192	52883.26968
410.693	53713.23343
411.194	54189.54801
411.694	54767.79104
412.195	55625.98899
412.696	55971.27715
413.196	55815.15953
413.696	55802.1488
414.196	55740.09561
414.696	56340.4775
415.196	57067.59327
415.696	54446.80613
416.196	43311.92046
416.695	34498.60635
417.195	30495.16828
417.694	29195.57212
418.194	27340.40097
418.693	25805.5902
419.192	24856.56798
419.691	24592.25673
420.19	23747.72777
420.688	22976.04332
421.187	22014.84146
421.685	20413.89856
422.184	18307.63395
422.682	15823.99772
423.18	13875.61486
423.678	12436.71401
424.176	11601.2419
424.674	10864.40366
425.172	10191.32081
425.669	9559.40555
426.167	8832.29649
426.664	8103.69401
427.161	7573.93978
427.659	6995.6612
428.156	6509.08056
428.652	6201.91517
429.149	6003.72715
429.646	5666.48504
430.143	5307.04232
430.639	5059.15302
431.135	4726.73666
431.632	4545.4842
432.128	4188.79837
432.624	3975.47602
433.12	3891.82129
433.616	3853.70539
434.111	3691.34624
434.607	3584.40413
435.103	3501.83243
435.598	3293.76583
436.093	3186.44968
436.588	3042.27655
437.083	2842.47386
437.578	2687.39426
438.073	2610.99558
438.568	2534.85071
439.062	2411.27805
439.557	2387.65343
440.051	2344.57875
440.546	2302.60873
441.04	2167.7603
441.534	2126.92583
442.028	2042.66219
442.522	2051.71059
443.015	2048.41612
443.509	2089.86181
444.002	1994.78688
444.496	1943.32699
444.989	1866.69462
445.482	1895.7899
445.975	1930.50572
446.468	1943.37677
446.961	1784.17329
447.454	1859.50585
447.947	1670.45911
448.439	1726.59945
448.931	1569.2091
449.424	1701.7018
449.916	1681.55851
450.408	1600.2569
450.9	1512.37918
451.392	1525.55305
451.884	1531.27582
452.375	1470.44639
452.867	1474.1357
453.358	1387.12667
453.849	1444.0213
454.341	1324.01085
454.832	1392.00323
455.323	1418.38112
455.814	1333.09953
456.304	1372.15711
456.795	1369.17024
457.285	1268.95801
457.776	1242.96352
458.266	1318.21941
458.756	1251.18284
459.247	1240.14152
459.737	1270.21557
460.226	1241.00408
460.716	1144.02515
461.206	1138.0405
461.695	1159.1786
462.185	1177.06176
462.674	1117.91565
463.163	1095.83185
463.653	1148.77885
464.142	1067.96838
464.63	1079.99651
465.119	984.77203
465.608	1049.87351
466.096	1041.75732
466.585	1054.87619
467.073	974.82916
467.561	964.82897
468.05	976.78447
468.538	954.86003
469.026	931.7624
469.513	876.47515
470.001	984.82626
470.489	959.85787
470.976	863.59691
471.463	850.73695
471.951	860.74155
472.438	788.54615
472.925	828.63238
473.412	810.64243
473.899	790.51
474.385	807.65905
474.872	778.51932
475.359	767.60008
475.845	714.27437
476.331	737.36402
476.817	680.41746
477.303	696.38916
477.789	666.38947
478.275	659.42195
478.761	696.45856
479.247	602.17402
479.732	638.39862
480.218	619.40327
480.703	632.3709
481.188	525.99833
481.673	581.1789
482.158	616.1843
482.643	559.26814
483.128	576.18657
483.612	540.13124
484.097	509.12556
484.581	512.0583
485.066	547.19915
485.55	462.93008
486.034	494.97985
486.518	425.90932
487.002	520.17358
487.486	485.08444
487.969	453.0136
488.453	412.95348
488.936	415.87064
489.42	487.9901
489.903	383.88867
490.386	421.64886
490.869	392.79279
491.352	352.79394
491.835	356.69292
492.318	398.84843
492.8	434.8528
493.283	352.83658
493.765	357.82803
494.247	376.82031
494.73	343.7107
495.212	316.71043
495.694	337.74784
496.175	302.6848
496.657	326.7278
497.139	314.52678
497.62	291.66508
498.102	320.76231
498.583	328.78016
499.064	279.59025
499.545	320.6946
500.026	259.56257
500.507	299.66491
500.988	277.65723
501.469	252.60793
501.949	255.59734
502.43	240.55483
502.91	263.53105
503.39	261.62262
503.87	267.60483
504.35	232.52438
504.83	225.48185
505.31	250.58138
505.79	251.58198
506.269	198.44827
506.749	220.48813
507.228	254.57504
507.707	235.50152
508.187	171.39619
508.666	201.47398
509.145	163.37391
509.623	194.44831
510.102	245.57054
510.581	163.3787
511.059	224.5459
511.538	194.48125
512.016	215.50384
512.494	247.5838
512.972	149.34453
513.45	158.3628
513.928	193.4583
514.406	230.54521
514.884	181.45253
515.361	173.39939
515.839	180.4032
516.316	207.48567
516.793	159.39321
517.27	159.3751
517.747	204.51104
518.224	130.29492
518.701	179.39162
519.178	160.38717
519.654	147.34126
520.131	165.39769
520.607	158.38003
521.083	148.33412
521.56	109.25325
522.036	160.34554
522.512	132.31569
522.987	141.33044
523.463	154.36012
523.939	125.29798
524.414	169.38285
524.89	195.4543
525.365	113.2514
525.84	128.30097
526.315	136.32314
526.79	143.31511
527.265	154.34837
527.74	122.29088
528.215	191.44848
528.689	93.2051
529.164	163.35089
529.638	164.41069
530.112	120.2804
530.587	161.34479
531.061	112.26888
531.534	183.43489
532.008	163.38677
532.482	104.23431
532.956	64.16137
533.429	92.21902
533.903	138.29854
534.376	162.3566
534.849	76.17375
535.322	156.36165
535.795	94.22558
536.268	158.37353
536.741	117.27452
537.213	124.28177
537.686	92.22146
538.158	117.26257
538.631	68.16176
539.103	132.29605
539.575	87.18035
540.047	100.22068
540.519	83.1949
540.991	100.23861
541.463	138.3265
541.934	140.31231
542.406	81.1899
542.877	80.17758
543.348	98.22665
543.82	126.30088
544.291	104.23623
544.762	123.2878
545.233	143.34806
545.703	127.27774
546.174	154.35064
546.645	161.3779
547.115	164.38742
547.585	159.35257
548.056	90.21335
548.526	252.56842
548.996	200.46144
549.466	184.43078
549.935	251.57206
550.405	222.47059
550.875	182.41724
551.344	142.33063
551.814	213.47309
552.283	229.47471
552.752	179.39989
553.221	257.53609
553.69	277.57832
554.159	255.59874
554.628	313.66739
555.096	296.70542
555.565	280.6052
556.033	278.61911
556.502	267.61809
556.97	203.43004
557.438	216.48882
557.906	252.56981
558.374	288.62861
558.842	284.64582
559.31	267.57352
559.777	287.66043
560.245	260.57327
560.712	280.61219
561.18	310.65224
561.647	305.64102
562.114	355.77368
562.581	313.71565
563.048	361.77908
563.514	388.88655
563.981	416.88179
564.448	372.77406
564.914	398.84659
565.381	468.9621
565.847	484.01909
566.313	503.06869
566.779	562.14418
567.245	558.14891
567.711	611.29854
568.176	573.13351
568.642	570.26669
569.108	628.35354
569.573	689.38694
570.038	696.25434
570.504	764.45811
570.969	757.58408
571.434	764.40037
571.899	802.60547
572.363	843.57613
572.828	861.58924
573.293	945.76721
573.757	905.68311
574.222	883.62505
574.686	937.70483
575.15	929.80652
575.614	947.75702
576.078	929.7492
576.542	967.74356
577.006	945.69686
577.469	908.77357
577.933	977.75177
578.396	912.74947
578.86	917.74514
579.323	1005.92307
579.786	938.60304
580.249	910.67694
580.712	950.8496
581.175	876.77721
581.637	864.60393
582.1	867.50558
582.563	880.51733
583.025	847.69371
583.487	851.41467
583.95	733.3377
584.412	725.26175
584.874	726.49872
585.336	716.44302
585.797	700.27703
586.259	704.4045
586.721	652.3235
587.182	645.27978
587.643	625.20481
588.105	526.07659
588.566	509.92837
589.027	605.25953
589.488	494.98809
589.949	559.17911
590.41	516.89523
590.87	415.82988
591.331	489.93122
591.791	507.03178
592.252	380.78261
592.712	386.82428
593.172	367.74989
593.632	418.79967
594.092	351.70711
594.552	355.6816
595.011	372.77613
595.471	348.70736
595.931	359.72089
596.39	315.69816
596.849	361.76138
597.308	275.53615
597.768	332.77934
598.227	343.74405
598.685	329.68139
599.144	320.68987
599.603	310.67204
600.062	373.721
600.52	288.59448
600.978	318.69262
601.437	298.62396
601.895	287.5529
602.353	266.53871
602.811	327.66907
603.269	343.73865
603.727	335.73103
604.184	315.65503
604.642	328.7247
605.099	367.78082
605.557	376.82413
606.014	337.66203
606.471	368.83511
606.928	386.74739
607.385	416.91371
607.842	487.99371
608.299	393.82522
608.755	376.81128
609.212	454.90598
609.668	413.82206
610.125	445.94387
610.581	406.84255
611.037	421.84656
611.493	420.87977
611.949	328.71591
612.405	450.82468
612.861	382.79876
613.316	410.88879
613.772	379.77441
614.227	382.79912
614.683	423.8063
615.138	422.88865
615.593	392.83201
616.048	404.83503
616.503	375.81415
616.958	381.8539
617.412	373.7998
617.867	409.82774
618.321	509.94106
618.776	358.71772
619.23	391.82537
619.684	439.89537
620.138	354.73038
620.592	339.74477
621.046	372.78027
621.5	384.84805
621.954	350.71531
622.407	361.72993
622.861	307.69147
623.314	342.70911
623.768	285.61561
624.221	270.49751
624.674	319.67398
625.127	268.57877
625.58	281.58224
626.033	273.55099
626.485	293.6567
626.938	236.52145
627.39	319.68786
627.843	257.55085
628.295	226.48744
628.747	299.66049
629.199	248.52823
629.651	250.54036
630.103	206.44945
630.555	266.53896
631.006	222.49113
631.458	234.52631
631.909	177.38446
632.361	209.46613
632.812	207.45804
633.263	183.37698
633.714	247.50859
634.165	150.34554
634.616	95.21889
635.067	126.26698
635.518	186.42264
635.968	154.29931
636.419	136.28603
636.869	132.29848
637.319	214.48567
637.769	72.15809
638.219	152.35014
638.669	78.18169
639.119	78.18298
639.569	117.27495
640.019	79.17737
640.468	60.13269
640.918	57.13301
641.367	110.24336
641.816	47.10253
642.265	56.12648
642.714	68.15414
643.163	86.19312
643.612	53.12659
644.061	43.09053
644.51	32.07277
644.958	73.16046
645.406	75.17652
645.855	100.24244
646.303	90.20691
646.751	41.09322
647.199	30.06742
647.647	46.10478
648.095	19.04357
648.543	98.20193
648.99	54.12856
649.438	20.04604
649.885	45.10879
650.333	76.14884
650.78	92.21944
651.227	108.25898
651.674	69.15758
652.121	27.06577
652.568	60.14541
653.015	88.21919
653.461	35.08286
653.908	82.18784
654.354	79.18702
654.801	73.17355
655.247	20.04371
655.693	57.1458
656.139	48.11655
656.585	71.17036
657.031	74.17502
657.477	58.12762
657.922	91.21051
658.368	90.22172
658.813	61.14173
659.259	38.09161
659.704	1.00237
660.149	58.13633
660.594	20.04802
661.039	32.07339
661.484	99.23383
661.929	65.15138
662.373	58.14724
662.818	31.07723
663.262	43.10427
663.707	59.14874
664.151	-10.02453
664.595	91.22183
665.039	64.15842
665.483	86.22025
665.927	-3.0071
666.371	45.10731
666.814	44.10612
667.258	-5.01213
667.701	116.25009
668.145	68.16919
668.588	42.10397
669.031	54.12944
669.474	53.12857
669.917	31.06946
670.36	23.05767
670.803	75.18187
671.245	94.20379
671.688	46.11207
672.13	31.07225
672.573	31.07893
673.015	57.13786
673.457	47.10548
673.899	66.1605
674.341	44.10704
674.783	52.12669
675.225	37.09268
675.666	34.08382
676.108	22.04839
676.549	40.09545
676.991	54.12226
677.432	116.24364
677.873	31.07325
678.314	33.08002
678.755	61.15114
679.196	47.11153
679.637	58.14331
680.078	34.08128
680.518	35.0827
680.959	45.10793
681.399	20.05032
681.839	71.17456
682.28	33.08325
682.72	23.05466
683.16	45.11393
683.6	32.07416
684.039	26.05569
684.479	30.07494
684.919	22.053
685.358	70.17745
685.798	56.14956
686.237	57.13931
686.676	38.08831
687.115	49.11721
687.554	69.16694
687.993	63.14237
688.432	68.15827
688.871	48.11203
689.309	74.18002
689.748	61.1316
690.186	54.13112
690.625	47.1132
691.063	28.06918
691.501	92.23006
691.939	110.27815
692.377	36.09025
692.815	25.06146
693.253	60.14547
693.69	105.23487
694.128	55.13687
694.565	12.02934
695.003	58.14839
695.44	81.19501
695.877	37.08912
696.314	89.19521
696.751	29.06719
697.188	22.05157
697.625	49.11331
698.061	72.17679
698.498	61.14975
698.934	52.1273
699.371	25.06053
699.807	98.23474
700.243	23.0563
700.679	52.12027
701.115	66.15513
701.551	62.14754
701.987	90.20592
702.422	62.15049
702.858	78.18932
703.294	9.02069
703.729	83.20421
704.164	12.02941
704.599	87.19637
705.035	28.06463
705.47	16.03953
705.904	86.20521
706.339	72.16923
706.774	93.22187
707.209	92.21734
707.643	75.18221
708.078	86.21022
708.512	20.05115
708.946	49.1186
709.38	62.14981
709.814	79.18579
710.248	96.23702
710.682	73.17722
711.116	63.15575
711.549	51.13419
711.983	70.16543
712.416	75.17968
712.85	86.21685
713.283	21.05064
713.716	43.10821
714.149	49.11788
714.582	93.21351
715.015	19.04812
715.448	50.12774
715.881	-8.01774
716.313	4.00949
716.746	81.19391
717.178	51.1252
717.61	59.15033
718.043	51.12834
718.475	49.12003
718.907	59.14869
719.339	39.09169
719.77	40.09702
720.202	38.0977
720.634	56.13928
721.065	84.20312
721.497	89.22099
721.928	25.06303
722.359	45.11215
722.79	56.13755
723.221	26.06612
723.652	76.19532
724.083	106.24447
724.514	64.14867
724.945	52.1247
725.375	53.12755
725.806	-19.04781
726.236	57.14585
726.666	71.17178
727.096	55.13816
727.526	67.17252
727.956	17.04029
728.386	77.19259
728.816	81.21089
729.246	47.11645
729.675	40.09992
730.105	44.11039
730.534	80.19023
730.964	40.10208
731.393	56.13913
731.822	2.00515
732.251	49.12652
732.68	34.08085
733.109	87.21909
733.537	43.10619
733.966	39.09832
734.395	51.12036
734.823	45.10373
735.251	-21.05216
735.68	84.21082
736.108	63.16177
736.536	47.11431
736.964	53.12567
737.392	49.12433
737.82	-5.01211
738.247	21.05176
738.675	24.05764
739.102	52.1335
739.53	-11.0286
739.957	9.02347
740.384	63.15563
740.811	30.07697
741.238	18.04464
741.665	3.00716
742.092	65.15697
742.519	41.10429
742.945	15.03682
743.372	26.06575
743.798	57.14825
744.225	47.11474
744.651	36.09171
745.077	44.11126
745.503	75.1863
745.929	43.10533
746.355	-36.08931
746.781	26.06561
747.207	-1.00242
747.632	15.03768
748.058	26.06539
748.483	56.1326
748.908	38.09595
749.334	74.18498
749.759	43.10455
750.184	6.01467
750.609	3.00747
751.033	2.00475
751.458	11.02518
751.883	-39.098
752.307	27.06574
752.732	28.07239
753.156	65.16346
753.58	8.01937
754.005	26.06663
754.429	7.01696
754.853	48.12177
755.277	-19.04592
755.7	38.0954
756.124	-34.08695
756.548	-5.0123
756.971	33.08218
757.394	60.1556
757.818	30.07842
758.241	14.03622
758.664	61.15756
759.087	-6.01398
759.51	20.05041
759.933	-32.07889
760.356	-13.03373
760.778	76.19232
761.201	16.03981
761.623	41.10106
762.046	19.04545
762.468	49.11873
762.89	-15.03735
763.312	38.09341
763.734	6.01481
764.156	35.08814
764.578	-27.06377
765	59.14687
765.421	63.16526
765.843	28.07421
766.264	-10.02442
766.686	-6.01526
767.107	40.0993
767.528	12.03117
767.949	18.0461
768.37	38.0954
768.791	46.11291
769.212	40.10337
769.632	-13.03143
770.053	40.10654
770.473	8.01988
770.894	-18.04547
771.314	30.07191
771.734	2.00482
772.154	37.0962
772.575	16.03771
772.994	23.05369
773.414	14.03416
773.834	-39.09874
774.254	79.1968
774.673	33.08125
775.093	-24.06052
775.512	26.06591
775.931	46.11843
776.351	16.04046
776.77	52.13051
777.189	38.09216
777.607	-24.06213
778.026	23.05786
778.445	-47.12035
778.864	-10.02585
779.282	12.0297
779.701	31.07918
780.119	-8.0207
780.537	12.03069
780.955	31.07957
781.373	-6.01508
781.791	-11.02543
782.209	-57.1339
782.627	-2.00532
783.045	-1.00236
783.462	-2.00517
783.88	39.10251
784.297	12.03093
784.715	60.15587
785.132	-11.02718
785.549	21.05374
785.966	11.028
786.383	-19.04783
786.8	-9.02114
787.217	-14.03397
787.633	29.07428
788.05	35.08257
788.466	6.01441
788.883	-16.04155
789.299	-7.01718
789.715	80.1973
790.131	27.06836
790.547	-5.01257
790.963	52.13051
791.379	-21.05398
791.795	-31.07202
792.21	55.13081
792.626	-25.06044
793.041	14.03519
793.457	28.06982
793.872	1.00239
794.287	29.07188
794.702	-28.06994
795.117	19.0485
795.532	-18.04613
795.947	24.05832
796.362	0
796.776	54.12524
797.191	41.10247
797.605	-7.01704
798.02	4.00999
798.434	4.00907
798.848	21.05275
799.262	42.10617
799.676	17.04169
800.09	-36.08954
800.504	52.12768
800.918	6.01427
801.331	19.04974
801.745	-42.09822
802.158	19.04828
802.572	-14.0341
802.985	36.0879
803.398	23.05577
803.811	13.03333
804.224	28.06997
804.637	-6.01461
805.05	54.12697
805.462	6.01511
805.875	13.03442
806.288	-59.14581
806.7	29.07366
807.112	38.08935
807.525	-7.01748
807.937	-16.04049
808.349	20.05014
808.761	-32.07953
809.173	8.01973
809.584	2.00493
809.996	-11.02771
810.408	-8.02111
810.819	62.14907
811.231	50.13265
811.642	104.25574
812.053	117.28254
812.464	119.28433
812.875	75.19312
813.286	1.00259
813.697	6.01385
814.108	-28.06921
814.519	-3.00676
814.929	16.04063
815.34	-9.02214
815.75	20.05137
816.16	21.05266
816.571	61.15942
816.981	-15.03557
817.391	25.06128
817.801	-19.04811
818.211	-16.03859
818.62	47.11508
819.03	27.06699
819.44	25.06531
819.849	31.07905
820.259	21.05362
820.668	-8.02007
821.077	5.01272
821.486	50.12191
821.895	32.07883
822.304	-11.02939
822.713	41.09774
823.122	-25.06316
823.531	-39.0939
823.939	-1.00248
824.348	10.02459
824.756	32.0806
825.164	-20.05066
825.573	-10.02557
825.981	-2.00495
826.389	45.11377
826.797	50.12724
827.205	20.04717
827.612	27.06677
828.02	2.00483
828.428	-14.03602
828.835	-8.02124
829.243	37.08847
829.65	-9.02272
830.057	-41.10076
830.464	26.0637
830.871	-6.01443
831.278	4.00979
831.685	56.12632
832.092	41.10132
832.499	31.06897
832.905	34.08625
833.312	-6.01392
833.718	-18.04522
834.124	20.04591
834.531	23.05832
834.937	34.08738
835.343	19.04639
835.749	12.02824
836.155	28.07398
836.561	8.01976
836.966	-4.00986
837.372	41.10524
837.777	22.05525
838.183	39.08799
838.588	4.01009
838.993	-13.03173
839.399	57.14195
839.804	18.04469
840.209	5.01293
840.613	6.01362
841.018	17.04342
841.423	20.0516
841.828	-18.04607
842.232	-3.00745
842.637	23.05485
843.041	-10.02605
843.445	2.00509
843.849	8.02008
844.253	-3.0072
844.657	-9.02313
845.061	0
845.465	44.10824
845.869	55.12869
846.272	14.03479
846.676	-27.06496
847.079	13.03363
847.483	22.05478
847.886	10.02446
848.289	43.11531
848.692	-30.0767
849.095	6.0146
849.498	6.01512
849.901	-15.03504
850.304	-46.1114
850.707	-7.01797
851.109	11.0277
851.512	59.14682
851.914	27.07013
852.316	-8.02052
852.718	81.21392
853.121	30.07478
853.523	59.1421
853.925	7.01856
854.326	17.04323
854.728	19.04933
855.13	9.02344
855.531	56.13633
855.933	24.05819
856.334	6.01512
856.736	64.14755
857.137	34.08041
857.538	43.10984
857.939	31.07824
858.34	17.04181
858.741	24.0631
859.142	-8.01941
859.542	-7.01867
859.943	65.16351
860.343	53.13357
860.744	1.00246
861.144	9.02218
861.544	15.03718
861.945	19.04901
862.345	22.05412
862.745	-9.02255
863.145	20.04769
863.544	32.08141
863.944	32.07712
864.344	26.06443
864.743	23.05696
865.143	41.10645
865.542	24.05676
865.941	-20.05005
866.34	15.03595
866.74	-23.06233
867.139	7.01699
867.537	3.00772
867.936	-1.00244
868.335	-6.01539
868.734	5.01294
869.132	-14.03311
869.531	-21.05058
869.929	-3.00707
870.327	6.01473
870.726	-10.025
871.124	1.00235
871.522	-24.06168
871.92	12.02998
872.318	-9.02214
872.715	1.00246
873.113	16.03946
873.511	-58.14488
873.908	-13.0333
874.306	9.02279
874.703	20.05023
875.1	12.03058
875.497	19.04602
875.894	63.1566
876.291	-55.13602
876.688	11.02862
877.085	11.02656
877.482	-11.02794
877.878	19.04658
878.275	-9.02309
878.671	-59.13203
879.068	33.07999
879.464	49.11967
879.86	36.08659
880.256	11.02725
880.652	18.04655
881.048	32.07944
881.444	23.0547
881.84	33.08465
882.236	35.08808
882.631	30.0738
883.027	-3.00726
883.422	21.05447
883.817	19.04889
884.213	12.03115
884.608	10.02521
885.003	20.04936
885.398	21.05323
885.793	4.01018
886.188	60.15113
886.582	37.09494
886.977	71.16919
887.371	-2.00503
887.766	-42.10696
888.16	30.07546
888.554	-45.11137
888.949	36.09009
889.343	38.09313
889.737	-13.03527
890.131	39.0985
890.525	56.14437
890.918	11.02804
891.312	-8.01928
891.706	9.02369
892.099	10.02553
892.492	20.0434
892.886	48.11951
893.279	41.1059
893.672	21.05406
894.065	34.0853
894.458	4.01008
894.851	-8.01956
895.244	39.1006
895.637	-1.00243
896.029	15.03735
896.422	-6.01484
896.814	59.14842
897.206	-14.03407
897.599	11.02716
897.991	-39.09673
898.383	-37.08871
898.775	-19.04378
899.167	6.01437
899.559	-25.06357
899.951	-17.04096
900.342	90.2279
900.734	-10.02549
901.125	77.20281
901.517	6.0148
901.908	8.01921
902.299	0
902.69	41.09755
903.082	-6.01449
903.473	35.08535
903.863	-12.03074
904.254	32.07457
904.645	-3.00743
905.036	-16.03965
905.426	20.04624
905.817	13.03236
906.207	13.03169
906.597	-21.05021
906.987	-30.07764
907.378	4.01017
907.768	9.024
908.158	-6.01482
908.547	42.1103
908.937	-39.10046
909.327	4.00978
909.717	22.05557
910.106	39.09539
910.495	29.07225
910.885	-1.00257
911.274	-3.0076
911.663	8.02032
912.052	-9.02228
912.441	27.06955
912.83	34.07951
913.219	27.07035
913.608	-56.13801
913.997	1.00256
914.385	23.05569
914.774	-12.02962
915.162	-5.01221
915.55	-32.07802
915.939	7.01787
916.327	-37.09238
916.715	31.08063
917.103	21.05182
917.491	56.13847
917.878	37.09197
918.266	6.01558
918.654	-4.01031
919.041	-30.07935
919.429	-17.04051
919.816	37.09408
920.203	22.0538
920.591	-4.00996
920.978	38.09317
921.365	5.01322
921.752	-46.11165
922.139	29.06334
922.525	52.1282
922.912	-11.02706
923.299	58.14635
923.685	-26.06838
924.072	-7.01633
924.458	26.06495
924.844	31.0781
925.231	10.02369
925.617	11.02867
926.003	5.01285
926.389	-3.00761
926.774	11.02811
927.16	10.02507
927.546	-2.00517
927.931	32.08072
928.317	0
928.702	3.00712
929.088	19.04621
929.473	16.04108
929.858	37.09171
930.243	-4.00975
930.628	29.07188
931.013	22.055
931.398	1.00229
931.783	-17.04461
932.167	-18.04431
932.552	-16.04007
932.937	17.0423
933.321	49.12424
933.705	6.01524
934.09	2.00499
934.474	14.03364
934.858	-18.04678
935.242	-9.02115
935.626	8.02072
936.009	7.01881
936.393	34.08616
936.777	-39.10053
937.16	38.09946
937.544	-41.09736
937.927	12.03064
938.311	21.05138
938.694	-17.04493
939.077	7.01708
939.46	-30.07396
939.843	59.12302
940.226	2.0052
940.609	29.06815
940.991	35.08997
941.374	-10.02474
941.757	70.17321
942.139	-1.00227
942.522	11.02598
942.904	-39.09496
943.286	-8.02045
943.668	37.0966
944.05	27.06741
944.432	47.11764
944.814	47.11726
945.196	-1.00251
945.578	18.04405
945.959	4.00951
946.341	-15.03672
946.722	-15.03544
947.104	-3.00721
947.485	75.17673
947.866	30.07656
948.247	38.09654
948.628	14.03441
949.009	26.06722
949.39	19.04726
949.771	32.07498
950.152	25.06201
950.532	20.05018
950.913	44.10784
951.293	10.02738
951.674	6.01465
952.054	18.04493
952.434	10.02493
952.814	-44.10467
953.194	-4.01039
953.574	27.06616
953.954	9.0217
954.334	5.01256
954.714	0
955.093	-12.02939
955.473	9.02272
955.853	17.04388
956.232	0
956.611	-22.053
956.99	-5.01253
957.37	16.04089
957.749	14.03365
958.128	-33.08403
958.506	-15.03948
958.885	-15.03832
959.264	30.07486
959.643	18.0418
960.021	-17.0425
960.4	-9.0207
960.778	-21.05174
961.156	46.1162
961.535	9.02117
961.913	48.11287
962.291	19.0495
962.669	-75.19124
963.047	6.01546
963.424	2.00514
963.802	30.07396
964.18	-31.07902
964.557	16.0374
964.935	-4.00952
965.312	5.01322
965.69	18.04532
966.067	15.0368
966.444	36.08866
966.821	20.05128
967.198	-6.01452
967.575	13.03189
967.952	-56.13275
968.329	11.02697
968.705	62.1351
969.082	26.06773
969.458	-21.0514
969.835	-29.07082
970.211	27.06986
970.587	5.01252
970.963	32.08213
971.339	-16.04226
971.715	8.02014
972.091	17.04226
972.467	28.06987
972.843	12.03036
973.219	-2.0048
973.594	13.03434
973.97	61.14491
974.345	39.09429
974.721	12.02922
975.096	13.0319
975.471	-17.04001
975.846	-8.01956
976.221	24.06207
976.596	6.01464
976.971	-27.0669
977.346	-23.05422
977.72	-46.11773
978.095	5.01291
978.469	-20.04822
978.844	-6.01507
979.218	32.07825
979.593	15.03573
979.967	19.04689
980.341	37.0863
980.715	19.04787
981.089	40.10086
981.463	20.04659
981.837	23.05692
982.21	-21.04829
982.584	33.08059
982.957	2.00506
983.331	8.01905
983.704	23.05728
984.078	17.04207
984.451	-11.02712
984.824	29.07214
985.197	32.07805
985.57	22.05535
985.943	7.0172
986.316	38.09317
986.688	-26.06351
987.061	46.10875
987.434	-37.09722
987.806	-30.07323
988.179	11.02661
988.551	-4.01025
988.923	-46.11403
989.295	44.11023
989.667	56.13694
990.039	21.05249
990.411	-22.05159
990.783	-18.04143
991.155	14.03455
991.527	-17.04149
991.898	-42.10632
992.27	22.05525
992.641	6.01512
993.012	-5.01192
993.384	2.00484
993.755	-35.09069
994.126	-1.00243
994.497	21.05247
994.868	13.03007
995.239	-17.04181
995.61	29.07392
995.98	13.03213
996.351	-14.03549
996.722	18.04256
997.092	-26.06266
997.462	19.04568
997.833	7.01657
998.203	18.04374
998.573	-16.0403
998.943	17.04054
999.313	-28.06755
999.683	4.00969
1000.053	-3.00697
1000.423	-9.02198
1000.792	21.05518
1001.162	6.01492
1001.531	-8.01997
1001.901	-32.08072
1002.27	-4.00914
1002.639	-36.09336
1003.009	27.06483
1003.378	14.03583
1003.747	25.05962
1004.116	-9.02193
1004.485	-31.07464
1004.853	3.00763
1005.222	21.05338
1005.591	26.06213
1005.959	55.12799
1006.328	21.04817
1006.696	-35.08557
1007.064	16.04075
1007.433	-2.00499
1007.801	-31.0761
1008.169	34.08671
1008.537	9.01996
1008.905	0
1009.273	24.0596
1009.64	-1.00244
1010.008	13.03135
1010.375	-37.08857
1010.743	56.12921
1011.11	26.06235
1011.478	-22.05476
1011.845	-2.00474
1012.212	3.00696
1012.579	12.02964
1012.946	70.16645
1013.313	-12.02855
1013.68	-23.05232
1014.047	35.08541
1014.414	-10.02406
1014.78	22.0548
1015.147	10.02417
1015.513	-40.09833
1015.88	24.06125
1016.246	18.04454
1016.612	51.11718
1016.978	33.08158
1017.344	-17.04249
1017.71	-38.09227
1018.076	21.04956
1018.442	6.01547
1018.808	-16.0406
1019.174	-24.06138
1019.539	24.05476
1019.905	-16.03821
1020.27	-6.01504
1020.636	-6.01445
1021.001	9.02191
1021.366	-27.06547
1021.731	-1.00259
1022.096	-10.02537
1022.461	-33.0784
1022.826	56.13408
1023.191	-1.00264
1023.556	-3.00713
1023.92	1.00246
1024.285	-15.03685
1024.649	-16.03945
1025.014	16.03956
1025.378	6.0153
1025.742	18.04503
1026.107	-13.0298
1026.471	-35.08231
1026.835	-13.03232
1027.199	8.01959
1027.562	30.07073
1027.926	-25.06149
1028.29	34.08741
1028.654	4.00936
1029.017	23.0564
1029.381	58.14141
1029.744	57.14606
1030.107	-39.09269
1030.471	24.05768
1030.834	3.00689
1031.197	-30.07243
1031.56	16.03784
1031.923	5.013
1032.286	-15.03513
1032.648	48.11537
1033.011	24.05648
1033.374	-7.01646
1033.736	23.06125
1034.099	53.1304
1034.461	32.08241
1034.823	-16.04044
1035.185	11.02796
1035.548	32.07843
1035.91	3.00732
1036.272	52.11917
1036.634	35.0849
1036.995	-40.09497
1037.357	1.00246
1037.719	-14.03421
1038.08	-17.04035
1038.442	-4.0096
1038.803	22.05352
1039.165	-25.06361
1039.526	-28.0684
1039.887	7.01696
1040.248	43.10794
1040.609	-5.01238
1040.97	43.10677
1041.331	4.01014
1041.692	-2.00477
1042.053	-6.01379
1042.413	38.08838
1042.774	4.00978
1043.134	0
1043.495	8.02018
1043.855	-7.01711
1044.215	8.01981
1044.576	24.05843
1044.936	4.00911
1045.296	33.08218
1045.656	17.04195
1046.016	1.00244
1046.375	13.03216
1046.735	-23.05388
1047.095	42.0991
1047.454	-17.03625
1047.814	-70.16997
1048.173	-2.00476
1048.533	-37.08675
1048.892	-2.00493
1049.251	2.00503
1049.61	8.01993
1049.969	-38.09043
1050.328	0
1050.687	1.00247
1051.046	6.01468
1051.405	20.05001
1051.763	-27.06347
1052.122	-10.02555
1052.48	-16.03945
1052.839	-10.0239
1053.197	-3.00707
1053.555	-47.1066
1053.914	0
1054.272	0
1054.63	5.01247
1054.988	-32.0772
1055.345	37.08085
1055.703	2.0048
1056.061	-24.06248
1056.419	-14.03663
1056.776	-34.08293
1057.134	-22.05205
1057.491	14.03516
1057.848	46.11449
1058.206	-28.06714
1058.563	4.00901
1058.92	3.00696
1059.277	-18.04448
1059.634	27.06424
1059.991	-24.05733
1060.348	66.1521
1060.704	-1.00242
1061.061	-9.02052
1061.418	9.02219
1061.774	-12.03005
1062.131	-1.00266
1062.487	-2.00472
1062.843	12.03014
1063.199	-10.02499
1063.555	20.04668
1063.911	26.06624
1064.267	-28.0593
1064.623	23.05655
1064.979	-15.03522
1065.335	-23.05458
1065.691	-33.07924
1066.046	0
1066.402	-12.02795
1066.757	2.00503
1067.112	-13.03169
1067.468	-25.06042
1067.823	16.03879
1068.178	-2.00486
1068.533	-14.0341
1068.888	33.07942
1069.243	8.0199
1069.598	3.0074
1069.952	4.00928
1070.307	16.04024
1070.662	28.06753
1071.016	-3.00692
1071.371	-12.02773
1071.725	3.0072
1072.079	-41.09927
1072.434	17.04173
1072.788	57.13775
1073.142	-1.00247
1073.496	52.12669
1073.85	-13.03042
1074.203	-47.11444
1074.557	1.00268
1074.911	3.00716
1075.265	9.02106
1075.618	42.10263
1075.971	41.09808
1076.325	21.05392
1076.678	42.0988
1077.031	33.07597
1077.385	46.10262
1077.738	49.11313
1078.091	25.05857
1078.444	41.09586
1078.796	3.00742
1079.149	9.02241
1079.502	-34.08268
1079.855	25.05923
1080.207	-10.02471
1080.56	5.01312
1080.912	58.14131
1081.264	5.01217
1081.617	44.10896
1081.969	28.07168
1082.321	45.11109
1082.673	-5.01182
1083.025	-47.1129
1083.377	-273.62521
1083.728	7.01649
1084.08	47.11828
1084.432	1.00246
1084.783	-22.05167
1085.135	0
1085.486	1.00235
1085.838	-3.00747
1086.189	-29.07172
1086.54	14.03337
1086.891	8.02059
1087.242	7.01715
1087.593	-15.03635
1087.944	4.0093
1088.295	-12.02737
1088.646	-11.02698
1088.996	20.04905
1089.347	10.02471
1089.698	16.03885
1090.048	-4.01042
1090.398	17.03968
1090.749	-55.13352
1091.099	-21.05379
1091.449	3.00749
1091.799	9.02289
1092.149	14.03521
1092.499	-44.10804
1092.849	-29.0747
1093.199	6.01496
1093.548	10.02416
1093.898	23.05836
1094.248	-26.06703
1094.597	-14.03658
1094.947	-16.04301
1095.296	-1.0025
1095.645	-2.00521
1095.994	25.06094
1096.343	1.00253
1096.692	-5.0134
1097.041	-3.00823
1097.39	11.02769
1097.739	-41.10704
1098.088	42.11213
1098.437	-36.09627
1098.785	0
1099.134	51.13473
1099.482	12.03296
1099.83	-36.09461
1100.179	28.07341
1100.527	12.03221
1100.875	3.008
1101.223	-31.08269
1101.571	13.03624
1101.919	16.04243
1102.267	-2.00565
1102.615	-5.01611
1102.962	-4.01288
1103.31	5.0161
1103.658	11.03536
