Data from N2 R1 sample 8_Subt2__4__13-30-49-459.txt Node

Date: Wed Aug 27 13:30:49 PDT 2025
User: uwsun
Spectrometer: HDX01956
Trigger mode: 0
Integration Time (sec): 5.000000E-1
Scans to average: 1
Nonlinearity correction enabled: true
Boxcar width: 0
Storing dark spectrum: false
XAxis mode: Wavelengths
Number of Pixels in Spectrum: 2068
>>>>>Begin Spectral Data<<<<<
194.03	79.22791
194.578	76.24584
195.127	73.23312
195.676	65.20832
196.225	66.17951
196.773	38.1078
197.321	79.22259
197.87	121.31815
198.418	172.45308
198.966	139.37176
199.513	136.35219
200.061	180.46934
200.609	161.43031
201.156	122.28025
201.704	153.39915
202.251	113.3062
202.798	196.52202
203.345	189.47645
203.892	115.29766
204.438	200.48833
204.985	193.46975
205.532	148.39694
206.078	150.38024
206.624	148.3773
207.17	205.48717
207.716	180.45368
208.262	131.27096
208.808	172.43708
209.354	218.54374
209.899	181.46329
210.445	139.35554
210.99	147.3658
211.535	165.39935
212.08	193.46324
212.625	178.45281
213.17	130.33398
213.715	142.33193
214.259	167.39779
214.804	159.40255
215.348	133.31547
215.892	116.28693
216.436	139.33046
216.98	208.47129
217.524	159.38512
218.068	135.3441
218.612	161.41455
219.155	178.42797
219.698	150.36407
220.242	122.3086
220.785	165.39393
221.328	124.31701
221.871	108.27562
222.414	182.46053
222.956	157.38741
223.499	145.33702
224.041	164.39506
224.583	142.31337
225.126	176.40138
225.668	162.40451
226.21	153.39107
226.751	164.37311
227.293	137.32157
227.835	100.25052
228.376	176.41705
228.918	161.41138
229.459	127.3261
230	112.27184
230.541	166.39442
231.082	139.34702
231.622	191.45512
232.163	178.44076
232.704	172.43569
233.244	112.28109
233.784	122.30343
234.324	167.37893
234.864	152.35419
235.404	125.30231
235.944	195.4659
236.484	100.25332
237.023	164.39775
237.563	164.38877
238.102	112.26786
238.641	124.31823
239.18	134.3239
239.719	166.42393
240.258	161.37021
240.797	142.35111
241.335	150.37279
241.874	148.2996
242.412	155.37896
242.95	173.42563
243.488	174.4104
244.026	131.31012
244.564	134.28468
245.102	183.42584
245.64	179.4386
246.177	121.27912
246.715	160.38805
247.252	151.35304
247.789	143.27415
248.326	189.46636
248.863	110.25157
249.4	113.26181
249.936	167.36012
250.473	147.35216
251.009	191.45006
251.546	192.4391
252.082	118.2652
252.618	209.47865
253.154	163.39911
253.69	166.3856
254.226	162.38758
254.761	182.41925
255.297	192.43539
255.832	147.3531
256.367	130.3173
256.903	151.34332
257.438	163.38602
257.972	173.40003
258.507	166.39533
259.042	87.1946
259.576	172.38354
260.111	98.23375
260.645	159.3511
261.179	130.31019
261.713	193.43952
262.247	118.28081
262.781	155.33352
263.315	160.39619
263.849	202.51004
264.382	142.33259
264.915	206.49566
265.449	167.41843
265.982	169.39202
266.515	165.40909
267.048	86.18836
267.58	108.24242
268.113	175.39063
268.646	151.3808
269.178	173.40241
269.71	109.24301
270.243	149.34809
270.775	172.44372
271.307	114.2795
271.838	186.4433
272.37	173.42987
272.902	172.40032
273.433	144.32549
273.965	173.42626
274.496	137.34389
275.027	172.43445
275.558	204.50032
276.089	144.36529
276.62	110.28437
277.15	187.46583
277.681	182.405
278.211	152.37941
278.741	190.43138
279.272	173.40495
279.802	172.43631
280.332	183.44241
280.861	175.42801
281.391	162.37764
281.921	150.36366
282.45	220.55389
282.98	185.48444
283.509	187.43137
284.038	205.47364
284.567	162.38136
285.096	186.4533
285.625	151.34819
286.153	164.39326
286.682	206.48398
287.21	181.4412
287.739	209.49973
288.267	187.45973
288.795	219.57501
289.323	179.42653
289.851	182.4291
290.378	211.48731
290.906	232.57235
291.433	199.49824
291.961	252.58117
292.488	173.43065
293.015	222.52685
293.542	210.53666
294.069	269.66398
294.596	209.51741
295.122	243.58168
295.649	236.5221
296.175	222.54406
296.702	209.50868
297.228	175.4288
297.754	192.43893
298.28	231.53307
298.806	198.47569
299.332	208.47474
299.857	206.47131
300.383	205.51548
300.908	244.60239
301.433	235.57025
301.958	281.65617
302.483	276.68987
303.008	170.41771
303.533	269.69571
304.058	231.54091
304.582	256.61385
305.107	219.5717
305.631	224.5131
306.155	260.61131
306.679	270.63482
307.203	198.46646
307.727	293.6976
308.251	173.42626
308.775	240.57242
309.298	222.54022
309.822	216.54363
310.345	223.52851
310.868	219.52444
311.391	233.56624
311.914	287.71775
312.437	204.46523
312.96	272.63753
313.482	245.58109
314.005	289.72327
314.527	279.71907
315.049	302.74692
315.571	297.66046
316.093	262.64111
316.615	192.4639
317.137	256.55759
317.659	262.62153
318.18	292.69001
318.702	330.76436
319.223	265.54885
319.744	321.7156
320.265	302.72109
320.786	335.81498
321.307	319.7807
321.828	274.61197
322.348	248.57582
322.869	360.83647
323.389	433.71954
323.909	352.7933
324.43	262.61673
324.95	348.78172
325.47	345.82893
325.989	333.76504
326.509	362.79044
327.029	331.73728
327.548	338.74491
328.067	380.89303
328.587	324.77183
329.106	406.90673
329.625	356.89137
330.144	312.7
330.662	406.90973
331.181	367.82354
331.7	342.77171
332.218	345.72891
332.736	313.70585
333.255	355.80381
333.773	355.80414
334.291	381.89486
334.808	389.82907
335.326	432.92569
335.844	457.00786
336.361	417.99995
336.879	484.06996
337.396	454.02523
337.913	495.08407
338.43	402.85956
338.947	447.00303
339.464	459.94169
339.981	416.93405
340.497	435.00278
341.014	445.01936
341.53	481.0121
342.046	429.98316
342.562	473.08145
343.078	526.13826
343.594	474.05392
344.11	489.06595
344.626	492.1351
345.141	508.05424
345.657	460.94779
346.172	580.26812
346.687	526.10866
347.202	571.17546
347.717	528.14211
348.232	567.28631
348.747	573.1944
349.261	562.11561
349.776	575.22564
350.29	565.26776
350.805	573.28363
351.319	541.14058
351.833	583.20343
352.347	539.14879
352.861	602.26522
353.374	599.2188
353.888	566.20043
354.401	593.22904
354.915	694.39862
355.428	608.34005
355.941	611.26019
356.454	604.18407
356.967	598.24521
357.48	647.29092
357.993	622.34174
358.505	659.41527
359.018	685.46359
359.53	633.31498
360.042	624.21527
360.554	642.33578
361.066	726.52819
361.578	664.25408
362.09	695.42663
362.602	630.19963
363.113	668.3369
363.625	685.31373
364.136	713.33595
364.647	693.37709
365.158	771.51381
365.669	765.55356
366.18	740.46618
366.691	717.33486
367.201	767.52506
367.712	791.51665
368.222	774.46009
368.733	760.36714
369.243	816.48387
369.753	831.546
370.263	857.68686
370.773	866.76489
371.282	894.70089
371.792	904.66253
372.301	916.77825
372.811	885.84971
373.32	860.47881
373.829	945.71769
374.338	974.65585
374.847	1047.79998
375.356	1008.78947
375.865	1071.64876
376.373	1114.79442
376.882	1107.02679
377.39	1204.02755
377.898	1252.14981
378.407	1305.97977
378.915	1295.77633
379.423	1336.01486
379.93	1364.91488
380.438	1466.18273
380.946	1558.09122
381.453	1640.23622
381.96	1717.15551
382.468	1842.15462
382.975	1942.26548
383.482	1969.05121
383.989	1965.45838
384.495	2106.06837
385.002	2302.63581
385.509	2344.9415
386.015	2498.26817
386.521	2542.54383
387.028	2741.45204
387.534	2757.16232
388.04	2801.49146
388.546	2972.13719
389.051	3248.78765
389.557	3422.8635
390.063	3491.52476
390.568	3694.77819
391.073	3844.21986
391.578	3933.29595
392.084	4144.86976
392.589	4457.39737
393.093	4864.403
393.598	5229.07039
394.103	5514.03906
394.607	6118.30319
395.112	6481.64216
395.616	6837.24168
396.12	7596.56409
396.624	8344.67453
397.128	8897.90516
397.632	9795.19491
398.136	10720.55707
398.639	11910.05587
399.143	13509.64489
399.646	14980.0174
400.15	16526.1978
400.653	18587.92033
401.156	21175.04289
401.659	24490.61653
402.162	31917.87937
402.664	44541.40127
403.167	32073.7101
403.67	3851.94142
404.172	0
404.674	0
405.176	0
405.678	0
406.18	0
406.682	0
407.184	0
407.686	12367.42319
408.187	34596.90747
408.688	44563.94194
409.19	46622.0814
409.691	39182.46698
410.192	34073.32009
410.693	30768.32093
411.194	29402.20863
411.694	27727.13194
412.195	25408.41083
412.696	24202.72165
413.196	23356.94503
413.696	23893.26241
414.196	23391.96428
414.696	22347.30292
415.196	20372.28063
415.696	16458.55781
416.196	12926.54495
416.695	11096.39728
417.195	10586.819
417.694	9996.86507
418.194	9152.92365
418.693	8821.63923
419.192	8587.851
419.691	8420.73997
420.19	8170.22276
420.688	7892.88783
421.187	7307.51203
421.685	6642.18247
422.184	5966.19158
422.682	5125.95135
423.18	4560.4434
423.678	4156.82582
424.176	3924.04567
424.674	3700.27374
425.172	3413.78456
425.669	3146.26401
426.167	2961.22726
426.664	2611.3756
427.161	2447.60562
427.659	2316.97444
428.156	2064.4729
428.652	2045.30113
429.149	1973.10638
429.646	1880.83786
430.143	1767.08475
430.639	1689.04101
431.135	1540.16703
431.632	1552.99147
432.128	1418.95516
432.624	1399.20683
433.12	1294.79156
433.616	1342.76526
434.111	1258.95153
434.607	1204.90201
435.103	1154.59197
435.598	1043.42616
436.093	1004.64204
436.588	984.53687
437.083	874.46459
437.578	836.38164
438.073	875.65702
438.568	796.48993
439.062	736.20987
439.557	713.30572
440.051	671.22062
440.546	703.28154
441.04	699.34127
441.534	665.34716
442.028	663.26779
442.522	651.26344
443.015	646.15572
443.509	674.34706
444.002	616.2395
444.496	574.03034
444.989	603.21191
445.482	606.24287
445.975	592.1184
446.468	620.11709
446.961	528.93502
447.454	605.15222
447.947	491.98505
448.439	499.02746
448.931	466.88763
449.424	488.0433
449.916	506.03839
450.408	425.82468
450.9	426.88168
451.392	448.97157
451.884	462.91082
452.375	408.87805
452.867	402.77762
453.358	383.7627
453.849	466.85745
454.341	390.75838
454.832	408.76883
455.323	386.83142
455.814	345.6995
456.304	419.84138
456.795	372.75959
457.285	361.70684
457.776	345.68702
458.266	342.7297
458.756	369.7943
459.247	311.67061
459.737	392.84289
460.226	303.61996
460.716	273.59348
461.206	304.66269
461.695	361.81241
462.185	310.66745
462.674	363.74878
463.163	306.62312
463.653	299.57934
464.142	270.59781
464.63	284.63011
465.119	294.62348
465.608	301.64181
466.096	312.63158
466.585	305.64864
467.073	272.59947
467.561	264.58672
468.05	252.54538
468.538	298.67189
469.026	235.52086
469.513	206.4107
470.001	304.66016
470.489	287.64564
470.976	215.46262
471.463	203.47591
471.951	192.44845
472.438	212.47292
472.925	245.54958
473.412	204.47123
473.899	198.4331
474.385	229.53245
474.872	153.34336
475.359	204.4791
475.845	192.38938
476.331	171.36162
476.817	169.39264
477.303	182.40701
477.789	163.3784
478.275	197.46762
478.761	148.34799
479.247	140.30339
479.732	186.44703
480.218	155.38486
480.703	144.34518
481.188	60.12702
481.673	158.35203
482.158	172.36652
482.643	143.35222
483.128	139.31489
483.612	148.33739
484.097	86.20725
484.581	81.18387
485.066	167.39595
485.55	91.19884
486.034	96.20813
486.518	43.09959
487.002	138.3362
487.486	128.30776
487.969	115.27572
488.453	109.26739
488.936	82.18467
489.42	124.27296
489.903	90.2209
490.386	139.23208
490.869	91.19674
491.352	71.16932
491.835	75.15575
492.318	125.28225
492.8	104.22027
493.283	56.14065
493.765	55.13517
494.247	71.16489
494.73	3.00669
495.212	18.04293
495.694	14.03315
496.175	15.03599
496.657	84.1969
497.139	72.1288
497.62	66.15767
498.102	94.23362
498.583	41.10288
499.064	16.0358
499.545	41.09428
500.026	51.11568
500.507	42.09837
500.988	82.20186
501.469	29.0729
501.949	-21.05184
502.43	25.06026
502.91	22.04688
503.39	14.03497
503.87	27.06414
504.35	13.03069
504.83	66.1462
505.31	15.0365
505.79	30.0726
506.269	26.06092
506.749	8.01853
507.228	5.01189
507.707	-16.036
508.187	8.01913
508.666	-59.14613
509.145	-18.04279
509.623	-4.00961
510.102	5.01219
510.581	-34.08206
511.059	29.07324
511.538	24.06138
512.016	21.05108
512.494	67.16387
512.972	-58.13961
513.45	2.00474
513.928	8.01967
514.406	-3.00743
514.884	-3.00775
515.361	-19.04554
515.839	-33.07716
516.316	11.02679
516.793	-31.07932
517.27	-24.05862
517.747	7.01816
518.224	-31.07262
518.701	-28.06393
519.178	-36.09032
519.654	-19.04555
520.131	-55.13806
520.607	-2.00496
521.083	-7.0163
521.56	-51.12223
522.036	-44.09917
522.512	-15.03688
522.987	-49.11909
523.463	-27.06537
523.939	-47.11572
524.414	-23.05413
524.89	28.06737
525.365	-35.08026
525.84	-34.08246
526.315	14.03404
526.79	-43.09844
527.265	-1.00233
527.74	-60.14803
528.215	32.07747
528.689	-73.16659
529.164	0
529.638	-25.06473
530.112	-48.11585
530.587	8.0177
531.061	-8.01964
531.534	5.01229
532.008	5.01222
532.482	-36.08343
532.956	-49.12604
533.429	-32.07799
533.903	-41.09209
534.376	-2.00455
534.849	-44.10302
535.322	18.04287
535.795	-52.12825
536.268	0
536.741	-15.0361
537.213	-51.11999
537.686	-13.03191
538.158	-2.0046
538.631	-64.1561
539.103	-14.03234
539.575	-62.13281
540.047	-5.01128
540.519	-5.01194
540.991	-29.0709
541.463	-24.05856
541.934	-48.11124
542.406	-43.10325
542.877	-28.06355
543.348	-50.11903
543.82	3.00733
544.291	-17.03956
544.762	30.07147
545.233	6.01498
545.703	-27.06097
546.174	-18.04241
546.645	51.12228
547.115	93.22272
547.585	-29.06682
548.056	12.02887
548.526	34.0801
548.996	40.09523
549.466	59.14151
549.935	22.05246
550.405	56.12301
550.875	73.17101
551.344	83.1955
551.814	78.1781
552.283	54.11632
552.752	89.20252
553.221	94.20318
553.69	113.24451
554.159	126.3033
554.628	152.33543
555.096	138.33884
555.565	196.43126
556.033	160.36504
556.502	195.45787
556.97	149.31937
557.438	210.47582
557.906	212.48328
558.374	228.50398
558.842	248.56807
559.31	289.61783
559.777	250.57955
560.245	277.60857
560.712	315.68361
561.18	334.69902
561.647	333.69554
562.114	413.88899
562.581	409.91701
563.048	449.95069
563.514	444.00097
563.981	501.04038
564.448	480.97476
564.914	500.03807
565.381	533.07789
565.847	631.28635
566.313	674.37943
566.779	702.3843
567.245	683.36728
567.711	738.52556
568.176	734.39805
568.642	821.73023
569.108	823.70032
569.573	916.74872
570.038	888.52303
570.504	915.68323
570.969	912.84359
571.434	972.68978
571.899	1082.02602
572.363	1066.88492
572.828	1123.9393
573.293	1176.0745
573.757	1153.01323
574.222	1209.04536
574.686	1232.07607
575.15	1271.27239
575.614	1227.11953
576.078	1274.19821
576.542	1212.04991
577.006	1274.09751
577.469	1273.27365
577.933	1281.12014
578.396	1263.21999
578.86	1235.17057
579.323	1249.25001
579.786	1226.93697
580.249	1198.0501
580.712	1190.18526
581.175	1221.28317
581.637	1165.00239
582.1	1151.8517
582.563	1099.7866
583.025	1061.0163
583.487	1102.70818
583.95	1046.76054
584.412	983.59639
584.874	1037.99298
585.336	910.75317
585.797	898.5575
586.259	891.70132
586.721	802.57292
587.182	856.61585
587.643	804.4842
588.105	714.40009
588.566	697.20971
589.027	695.41829
589.488	716.3571
589.949	687.40892
590.41	661.10166
590.87	562.08393
591.331	603.11502
591.791	576.1541
592.252	528.04946
592.712	492.02461
593.172	487.968
593.632	445.84577
594.092	500.97277
594.552	437.82247
595.011	468.9556
595.471	459.90937
595.931	456.89518
596.39	413.89663
596.849	356.75166
597.308	328.63143
597.768	409.9456
598.227	343.74405
598.685	347.71578
599.144	370.78909
599.603	408.86597
600.062	385.74206
600.52	327.66907
600.978	328.71288
601.437	325.67642
601.895	281.54212
602.353	290.58409
602.811	338.68985
603.269	362.77638
603.727	333.72697
604.184	312.64922
604.642	347.76362
605.099	375.79645
605.557	369.80999
606.014	346.67827
606.471	355.80774
606.928	326.64027
607.385	381.84301
607.842	352.74028
608.299	380.80021
608.755	356.77142
609.212	399.80639
609.668	320.65074
610.125	397.85089
610.581	323.68273
611.037	312.64315
611.493	356.75627
611.949	349.75835
612.405	392.72888
612.861	356.74869
613.316	382.83305
613.772	307.63754
614.227	351.73931
614.683	373.71962
615.138	385.81733
615.593	422.88982
616.048	372.77441
616.503	315.69263
616.958	312.7092
617.412	359.77211
617.867	346.71035
618.321	406.76994
618.776	323.6528
619.23	330.70593
619.684	363.75315
620.138	331.68646
620.592	308.68108
621.046	295.62929
621.5	309.69313
621.954	274.56965
622.407	274.56507
622.861	361.80409
623.314	268.56487
623.768	263.57077
624.221	244.45254
624.674	245.52604
625.127	237.51522
625.58	183.3875
626.033	271.5472
626.485	189.43268
626.938	186.41527
627.39	240.52629
627.843	193.41939
628.295	154.33728
628.747	197.44446
629.199	179.38699
629.651	219.4765
630.103	186.40754
630.555	175.36196
631.006	155.3477
631.458	176.40057
631.909	180.39073
632.361	171.38438
632.812	142.31848
633.263	116.24257
633.714	187.39025
634.165	70.16382
634.616	86.19851
635.067	72.15436
635.518	122.28081
635.968	144.28055
636.419	122.25737
636.869	79.18057
637.319	135.31129
637.769	55.1212
638.219	113.26233
638.669	110.25461
639.119	35.08279
639.569	98.23115
640.019	104.23229
640.468	70.15448
640.918	63.14684
641.367	96.21301
641.816	36.07871
642.265	29.06586
642.714	55.125
643.163	96.21513
643.612	64.15254
644.061	56.11757
644.51	47.10656
644.958	105.22924
645.406	70.16492
645.855	94.22816
646.303	90.20691
646.751	36.08194
647.199	52.11634
647.647	5.01148
648.095	30.06864
648.543	59.12264
648.99	90.21278
649.438	-3.00694
649.885	-6.01465
650.333	75.14692
650.78	72.17239
651.227	60.14519
651.674	73.16659
652.121	84.20243
652.568	89.21452
653.015	78.19463
653.461	1.00238
653.908	62.1426
654.354	97.22884
654.801	93.22025
655.247	71.1535
655.693	54.1382
656.139	64.15493
656.585	70.16799
657.031	84.19828
657.477	45.09929
657.922	58.13505
658.368	115.282
658.813	51.11873
659.259	69.16537
659.704	32.07536
660.149	128.29674
660.594	77.18285
661.039	72.16381
661.484	73.17329
661.929	41.09594
662.373	86.21723
662.818	46.11428
663.262	28.06809
663.707	44.11122
664.151	31.07546
664.595	91.22183
665.039	21.05239
665.483	100.25548
665.927	16.03772
666.371	65.15442
666.814	70.16799
667.258	28.0675
667.701	90.19512
668.145	41.10251
668.588	41.10151
669.031	103.24459
669.474	59.14296
669.917	58.12923
670.36	61.15191
670.803	56.13628
671.245	93.20166
671.688	80.19366
672.13	122.27924
672.573	61.1545
673.015	85.20449
673.457	67.14974
673.899	64.15569
674.341	78.18854
674.783	81.19627
675.225	79.19638
675.666	79.19315
676.108	19.04182
676.549	77.18243
676.991	104.23306
677.432	149.31067
677.873	93.2171
678.314	103.24648
678.755	95.23391
679.196	99.23256
679.637	116.28356
680.078	138.32334
680.518	80.18737
680.959	36.08649
681.399	41.10277
681.839	125.30425
682.28	106.26392
682.72	102.23871
683.16	97.24331
683.6	48.11088
684.039	68.14434
684.479	79.19559
684.919	93.22102
685.358	69.17495
685.798	104.27553
686.237	79.19229
686.676	36.08369
687.115	86.20426
687.554	138.32953
687.993	64.1446
688.432	92.21312
688.871	94.2174
689.309	95.23019
689.748	89.19085
690.186	128.30647
690.625	139.32893
691.063	115.2796
691.501	145.35912
691.939	157.39366
692.377	109.26966
692.815	95.23054
693.253	95.22881
693.69	119.26541
694.128	111.2734
694.565	82.19791
695.003	81.20639
695.44	153.36332
695.877	80.19111
696.314	118.25724
696.751	121.27523
697.188	113.26015
697.625	97.22216
698.061	107.26102
698.498	71.17398
698.934	130.31363
699.371	113.26906
699.807	103.24648
700.243	95.22941
700.679	136.30928
701.115	106.2472
701.551	80.18972
701.987	104.23728
702.422	115.27635
702.858	127.30541
703.294	64.14549
703.729	130.31707
704.164	64.15534
704.599	108.24272
705.035	75.17149
705.47	76.18571
705.904	129.30527
706.339	117.27258
706.774	93.22187
707.209	93.21965
707.643	125.30083
708.078	58.14252
708.512	77.19495
708.946	93.22323
709.38	129.30775
709.814	127.29588
710.248	134.32853
710.682	129.30987
711.116	115.28158
711.549	136.35268
711.983	43.10215
712.416	87.20795
712.85	79.19944
713.283	67.16015
713.716	78.19505
714.149	93.22187
714.582	116.26508
715.015	73.18311
715.448	83.21081
715.881	91.19758
716.313	45.10587
716.746	45.10847
717.178	103.25042
717.61	51.13013
718.043	65.16316
718.475	73.17802
718.907	73.18351
719.339	69.16126
719.77	35.08497
720.202	55.14098
720.634	99.2443
721.065	82.19836
721.497	84.20877
721.928	41.10307
722.359	54.13435
722.79	83.20285
723.221	56.14166
723.652	77.19786
724.083	60.13965
724.514	55.12799
724.945	30.07224
725.375	86.20568
725.806	22.05496
726.236	43.1103
726.666	77.18609
727.096	94.23447
727.526	58.14958
727.956	73.17115
728.386	77.19259
728.816	122.3154
729.246	77.18973
729.675	29.07259
730.105	49.12282
730.534	61.14558
730.964	43.10968
731.393	49.12189
731.822	53.13519
732.251	48.12396
732.68	49.11618
733.109	74.18679
733.537	29.0718
733.966	2.00508
734.395	21.04985
734.823	40.09229
735.251	5.01236
735.68	73.18357
736.108	44.11336
736.536	78.18861
736.964	-22.05292
737.392	14.03574
737.82	-36.08771
738.247	62.15167
738.675	-34.08256
739.102	44.11312
739.53	27.06974
739.957	17.04428
740.384	64.15807
740.811	19.04884
741.238	-13.03242
741.665	17.04048
742.092	40.09705
742.519	40.10176
742.945	29.07101
743.372	60.1508
743.798	23.06017
744.225	33.08077
744.651	22.05619
745.077	11.02798
745.503	47.11734
745.929	12.02956
746.355	-53.13189
746.781	23.05807
747.207	-31.07543
747.632	24.06019
748.058	-17.04309
748.483	50.11853
748.908	32.08089
749.334	43.10809
749.759	81.19553
750.184	-8.01961
750.609	-23.05753
751.033	-37.08847
751.458	0
751.883	-19.04757
752.307	15.03661
752.732	42.10832
753.156	39.09853
753.58	22.05312
754.005	17.04364
754.429	-2.00485
754.853	16.04082
755.277	11.02643
755.7	54.13518
756.124	-3.00763
756.548	-1.00246
756.971	17.04246
757.394	-4.01049
757.818	22.05758
758.241	37.09534
758.664	37.09597
759.087	-15.035
759.51	15.03784
759.933	-22.05414
760.356	-23.05978
760.778	77.19481
761.201	35.08678
761.623	-15.03735
762.046	2.0048
762.468	12.02928
762.89	7.01736
763.312	11.02717
763.734	13.03204
764.156	10.0253
764.578	-20.04717
765	46.11478
765.421	69.18082
765.843	12.03189
766.264	1.00244
766.686	1.00254
767.107	7.01748
767.528	35.09056
767.949	-31.08007
768.37	17.04284
768.791	90.2191
769.212	7.01819
769.632	-16.0387
770.053	-2.00536
770.473	-4.00996
770.894	-18.04547
771.314	-25.06055
771.734	43.10282
772.154	49.12714
772.575	8.01888
772.994	-37.08739
773.414	30.07298
773.834	-14.03529
774.254	22.05537
774.673	1.00248
775.093	-53.13433
775.512	7.0178
775.931	22.05688
776.351	-6.01523
776.77	16.04042
777.189	11.02681
777.607	-50.13002
778.026	31.07787
778.445	-58.1488
778.864	-25.0648
779.282	44.10828
779.701	-2.00514
780.119	-8.0207
780.537	5.0128
780.955	8.02062
781.373	-20.05039
781.791	-7.01617
782.209	-48.11256
782.627	-18.04802
783.045	-9.02131
783.462	-21.05445
783.88	8.02114
784.297	25.06428
784.715	-46.12167
785.132	25.06137
785.549	-18.04637
785.966	-19.04862
786.383	-6.01507
786.8	-59.13995
787.217	-35.08525
787.633	-2.00515
788.05	-13.03095
788.466	15.03596
788.883	2.00518
789.299	-41.10125
789.715	11.02747
790.131	-10.02549
790.547	-41.10373
790.963	-2.00507
791.379	-15.03852
791.795	5.01153
792.21	17.04073
792.626	-3.00722
793.041	24.06021
793.457	5.01252
793.872	5.01192
794.287	9.02239
794.702	-22.0549
795.117	23.05867
795.532	-30.07705
795.947	8.0195
796.362	-23.05529
796.776	-9.02113
797.191	-1.00252
797.605	-20.04882
798.02	-10.02503
798.434	31.06991
798.848	17.04273
799.262	-7.01785
799.676	24.05878
800.09	-23.05707
800.504	26.06415
800.918	15.03562
801.331	10.02622
801.745	-38.08879
802.158	-12.03066
802.572	-62.15235
802.985	17.04166
803.398	20.04853
803.811	-4.01029
804.224	13.03257
804.637	-16.03902
805.05	13.03081
805.462	43.10759
805.875	5.01326
806.288	-21.05153
806.7	6.0153
807.112	15.03543
807.525	7.01744
807.937	-25.06336
808.349	-32.08098
808.761	-62.15493
809.173	10.02465
809.584	-49.12194
809.996	37.09241
810.408	18.04729
810.819	54.13004
811.231	7.0187
811.642	12.03001
812.053	20.04918
812.464	-9.02203
812.875	15.03903
813.286	-20.05205
813.697	-63.14741
814.108	-37.09161
814.519	-4.00902
814.929	-34.08711
815.34	-40.09894
815.75	5.01287
816.16	-1.00252
816.571	8.0211
816.981	-44.10491
817.391	24.05884
817.801	-7.01769
818.211	-13.03133
818.62	13.03203
819.03	-11.02748
819.44	-2.00525
819.849	11.02815
820.259	-35.09025
820.668	-3.00752
821.077	16.04063
821.486	62.15082
821.895	-19.04725
822.304	-26.06964
822.713	27.06454
823.122	-20.05048
823.531	-48.11576
823.939	-2.00496
824.348	33.0808
824.756	-11.02792
825.164	7.01765
825.573	27.06858
825.981	10.02471
826.389	-10.02553
826.797	40.10198
827.205	26.06125
827.612	7.01738
828.02	6.01447
828.428	-11.02829
828.835	-25.06656
829.243	7.01683
829.65	-38.09643
830.057	-11.02688
830.464	1.00246
830.871	-24.0579
831.278	3.00734
831.685	16.03639
832.092	32.07921
832.499	-5.01121
832.905	-19.04865
833.312	37.08512
833.718	-37.09328
834.124	-17.03931
834.531	12.03048
834.937	23.05922
835.343	0
835.749	22.05167
836.155	25.06609
836.561	-25.06212
836.966	16.0393
837.372	32.08227
837.777	-52.13233
838.183	2.00455
838.588	10.02521
838.993	-36.08823
839.399	-10.02521
839.804	-11.02745
840.209	-1.00259
840.613	-10.02278
841.018	-19.04884
841.423	-11.02853
841.828	1.00255
842.232	8.01983
842.637	19.04535
843.041	-8.02083
843.445	5.01271
843.849	-10.02518
844.253	-6.01441
844.657	-11.02828
845.061	-26.06004
845.465	17.04203
845.869	32.07521
846.272	-6.01497
846.676	-58.14035
847.079	17.04394
847.483	-34.08552
847.886	32.07796
848.289	8.02158
848.692	-28.07156
849.095	0
849.498	-19.04811
849.901	3.00698
850.304	4.0096
850.707	-8.02054
851.109	-8.02022
851.512	13.03262
851.914	34.0882
852.316	7.01791
852.718	47.12483
853.121	36.08963
853.523	41.09909
853.925	1.00265
854.326	21.05336
854.728	29.07517
855.13	-12.03137
855.531	39.09525
855.933	-10.0244
856.334	-7.01769
856.736	43.09955
857.137	27.06394
857.538	29.07426
857.939	30.07573
858.34	15.03691
858.741	24.0631
859.142	-29.07064
859.542	-32.08571
859.943	26.06586
860.343	48.12107
860.744	17.04172
861.144	17.04184
861.544	8.01985
861.945	12.03099
862.345	-17.04212
862.745	-51.12876
863.145	6.01434
863.544	-2.00512
863.944	20.04831
864.344	-13.03244
864.743	6.01491
865.143	21.05471
865.542	15.03554
865.941	0
866.34	-29.07009
866.74	13.03502
867.139	-34.08314
867.537	11.02827
867.936	-12.02934
868.335	-47.1214
868.734	-4.01037
869.132	-36.08551
869.531	-51.12353
869.929	62.14436
870.327	-1.00246
870.726	-5.01249
871.124	-17.04001
871.522	-37.09531
871.92	53.13141
872.318	-48.1189
872.715	-31.07683
873.113	15.037
873.511	-56.13984
873.908	-56.14452
874.306	11.02785
874.703	-3.00757
875.1	-17.04355
875.497	6.01457
875.894	2.00503
876.291	-31.07633
876.688	-10.02611
877.085	9.02174
877.482	-3.00761
877.878	24.05878
878.275	8.02047
878.671	-7.0155
879.068	11.02677
879.464	24.05889
879.86	-5.01212
880.256	-6.01491
880.652	28.07229
881.048	-27.06775
881.444	-12.02873
881.84	0
882.236	-9.02283
882.631	-20.04965
883.027	5.01209
883.422	8.0208
883.817	32.08216
884.213	16.04151
884.608	-2.00505
885.003	3.00743
885.398	-11.02804
885.793	-8.0204
886.188	-5.01274
886.582	29.07452
886.977	-1.00242
887.371	-40.10126
887.766	-38.09671
888.16	51.12779
888.554	-61.15141
888.949	-22.05563
889.343	12.02955
889.737	-23.06251
890.131	-21.0536
890.525	20.05188
890.918	20.0509
891.312	-10.02411
891.706	-11.02905
892.099	23.05858
892.492	-23.05036
892.886	50.12445
893.279	7.01819
893.672	8.02064
894.065	-3.00758
894.458	-28.07098
894.851	-42.10332
895.244	10.02592
895.637	12.02914
896.029	-25.06271
896.422	-25.06205
896.814	2.00508
897.206	2.00485
897.599	18.04439
897.991	-10.02467
898.383	-21.0502
898.775	-18.04147
899.167	35.08337
899.559	11.02779
899.951	8.01918
900.342	22.05638
900.734	-22.05619
901.125	44.11653
901.517	-16.03963
901.908	8.01921
902.299	20.05016
902.69	35.08337
903.082	-28.06789
903.473	-18.04433
903.863	-28.07194
904.254	-23.05418
904.645	-15.03722
905.036	-22.05458
905.426	34.07839
905.817	31.07692
906.207	52.12584
906.597	-11.02625
906.987	-45.11676
907.378	-3.00764
907.768	-4.01069
908.158	-4.00988
908.547	36.09464
908.937	-13.03333
909.327	-6.0147
909.717	15.03794
910.106	33.0808
910.495	-8.02006
910.885	48.12207
911.274	29.07308
911.663	5.0127
912.052	15.03697
912.441	51.13082
912.83	68.15796
913.219	7.0183
913.608	-67.16545
913.997	-28.07199
914.385	10.02427
914.774	3.00738
915.162	27.06555
915.55	4.00969
915.939	-4.01023
916.327	-32.07982
916.715	44.11418
917.103	16.03952
917.491	45.11149
917.878	44.10923
918.266	-9.02342
918.654	-8.02062
919.041	-56.14876
919.429	-19.04529
919.816	23.05863
920.203	7.01717
920.591	-13.03243
920.978	-8.01978
921.365	-5.01324
921.752	7.01682
922.139	-12.02644
922.525	39.09638
922.912	-2.00491
923.299	32.08112
923.685	-25.06574
924.072	-20.04679
924.458	-13.0327
924.844	5.01265
925.231	-2.00475
925.617	-2.00522
926.003	-3.00772
926.389	-11.02796
926.774	31.07893
927.16	19.04756
927.546	-4.01035
927.931	8.02027
928.317	9.02099
928.702	15.03552
929.088	37.08969
929.473	-14.03613
929.858	5.01247
930.243	0
930.628	13.03232
931.013	-6.01507
931.398	-6.01376
931.783	-22.05778
932.167	-36.08892
932.552	-18.04509
932.937	20.04974
933.321	0
933.705	-2.00509
934.09	-1.00249
934.474	-2.00482
934.858	-43.11222
935.242	-31.07316
935.626	-3.00778
936.009	5.01344
936.393	9.02291
936.777	-30.07721
937.16	-4.01054
937.544	3.00706
937.927	-10.02563
938.311	10.02452
938.694	-10.0264
939.077	21.05111
939.46	-3.00736
939.843	51.10653
940.226	14.03634
940.609	52.12165
940.991	19.04898
941.374	-60.14983
941.757	40.09952
942.139	-27.06174
942.522	-17.04037
942.904	-30.07293
943.286	17.04326
943.668	-1.00263
944.05	-24.06047
944.432	37.09278
944.814	44.10983
945.196	0
945.578	46.11199
945.959	25.05918
946.341	-18.04408
946.722	-11.02597
947.104	14.03356
947.485	10.02386
947.866	6.01538
948.247	5.01278
948.628	5.01231
949.009	-5.013
949.39	13.03237
949.771	38.08893
950.152	-27.0676
950.532	-43.1091
950.913	47.11513
951.293	14.03831
951.674	0
952.054	-8.02006
952.434	-6.015
952.814	-15.03548
953.194	-17.04428
953.574	30.07347
953.954	27.06488
954.334	-4.01007
954.714	31.07641
955.093	-40.09847
955.473	-33.08394
955.853	-25.065
956.232	-19.05204
956.611	-29.06995
956.99	-14.03514
957.37	-9.0231
957.749	-11.02656
958.128	-26.06612
958.506	26.06796
958.885	-3.00765
959.264	25.06244
959.643	42.09706
960.021	-11.02747
960.4	3.00688
960.778	-22.05422
961.156	10.02542
961.535	8.01883
961.913	-11.02616
962.291	23.05988
962.669	-51.12949
963.047	45.11519
963.424	17.04361
963.802	-15.03729
964.18	44.11067
964.557	22.05137
964.935	-12.0286
965.312	28.07376
965.69	29.07287
966.067	-1.00246
966.444	-22.05476
966.821	-21.05422
967.198	-31.07537
967.575	11.02699
967.952	-30.07076
968.329	7.01718
968.705	65.14155
969.082	14.03654
969.458	-30.07355
969.835	-16.03898
970.211	14.03631
970.587	3.00751
970.963	-22.05699
971.339	-12.03168
971.715	14.03521
972.091	-5.01248
972.467	-45.11377
972.843	17.04296
973.219	-2.0048
973.594	-1.00265
973.97	46.10959
974.345	11.02673
974.721	16.03894
975.096	1.00246
975.471	-62.1472
975.846	27.0656
976.221	11.02851
976.596	-6.01467
976.971	4.00985
977.346	-8.0188
977.72	-50.12805
978.095	-5.01293
978.469	11.02636
978.844	20.05
979.218	21.05146
979.593	-36.08659
979.967	51.12511
980.341	-2.0047
980.715	36.09042
981.089	26.06572
981.463	-28.06584
981.837	-10.0249
982.21	-36.08303
982.584	5.01227
982.957	-14.0355
983.331	15.03568
983.704	24.05976
984.078	-1.00248
984.451	-24.05932
984.824	6.01499
985.197	20.04889
985.57	31.07787
985.943	2.00492
986.316	39.0956
986.688	-5.01217
987.061	2.00477
987.434	-6.01568
987.806	-2.00486
988.179	23.05552
988.551	26.06628
988.923	-33.08161
989.295	29.07285
989.667	51.12483
990.039	2.00502
990.411	-12.02808
990.783	-22.05068
991.155	13.03209
991.527	0
991.898	7.01757
992.27	19.04775
992.641	-39.09906
993.012	43.10156
993.384	1.00242
993.755	-19.04909
994.126	-32.07814
994.497	7.01753
994.868	0
995.239	-18.04428
995.61	12.03068
995.98	-28.06972
996.351	20.05039
996.722	-11.02615
997.092	-42.10152
997.462	6.01446
997.833	5.01184
998.203	4.00975
998.573	-17.04283
998.943	-6.01437
999.313	-52.12602
999.683	0
1000.053	9.02086
1000.423	8.01948
1000.792	70.18241
1001.162	23.05703
1001.531	8.01991
1001.901	6.01503
1002.27	48.10854
1002.639	-21.05432
1003.009	-17.04116
1003.378	20.05113
1003.747	28.06674
1004.116	-4.00974
1004.485	-3.00718
1004.853	-14.03572
1005.222	4.0102
1005.591	33.07876
1005.959	34.07945
1006.328	4.00921
1006.696	-69.16977
1007.064	4.01021
1007.433	-60.1514
1007.801	-9.022
1008.169	13.03328
1008.537	-7.01557
1008.905	-20.04769
1009.273	40.09905
1009.64	-21.05142
1010.008	25.06014
1010.375	-24.05731
1010.743	2.00466
1011.11	-7.01689
1011.478	-3.00744
1011.845	-12.02851
1012.212	8.01854
1012.579	-18.0447
1012.946	31.07427
1013.313	-35.08363
1013.68	-12.02723
1014.047	25.06112
1014.414	4.0096
1014.78	-22.05523
1015.147	8.01934
1015.513	11.02678
1015.88	52.13205
1016.246	10.02478
1016.612	9.02085
1016.978	36.08895
1017.344	-34.08524
1017.71	-38.09227
1018.076	-1.00237
1018.442	8.02062
1018.808	-11.02789
1019.174	3.00764
1019.539	57.12918
1019.905	-32.07665
1020.27	13.03247
1020.636	-12.02894
1021.001	36.08722
1021.366	-69.16864
1021.731	3.00777
1022.096	-62.15873
1022.461	-49.11676
1022.826	-15.0364
1023.191	-40.10619
1023.556	14.03315
1023.92	2.00492
1024.285	11.02689
1024.649	-20.04934
1025.014	-40.09992
1025.378	4.0102
1025.742	1.00251
1026.107	-15.0344
1026.471	-33.07758
1026.835	-25.06228
1027.199	-16.03936
1027.562	-23.05479
1027.926	-40.09865
1028.29	56.14342
1028.654	20.04666
1029.017	-5.01232
1029.381	36.08813
1029.744	15.03872
1030.107	-1.00236
1030.471	-13.03146
1030.834	-4.0092
1031.197	-22.05304
1031.56	1.00237
1031.923	-13.03389
1032.286	-15.03513
1032.648	-4.00971
1033.011	28.06584
1033.374	-6.01411
1033.736	6.01602
1034.099	35.0864
1034.461	54.13854
1034.823	-12.03031
1035.185	25.06339
1035.548	11.02706
1035.91	5.01219
1036.272	10.02311
1036.634	-24.05886
1036.995	-45.10694
1037.357	24.05873
1037.719	-1.00244
1038.08	-49.11703
1038.442	20.0478
1038.803	31.07529
1039.165	-29.07384
1039.526	3.00729
1039.887	-19.04625
1040.248	19.0479
1040.609	-20.04965
1040.97	19.04738
1041.331	-18.04579
1041.692	-18.04305
1042.053	-29.06695
1042.413	-20.04705
1042.774	-17.04172
1043.134	-7.01664
1043.495	36.09035
1043.855	-17.04163
1044.215	-25.06228
1044.576	-11.02695
1044.936	21.04767
1045.296	8.02001
1045.656	26.06405
1046.016	11.02674
1046.375	61.14959
1046.735	-3.007
1047.095	-18.04297
1047.454	-42.09004
1047.814	-43.10388
1048.173	23.05445
1048.533	28.06481
1048.892	-14.03457
1049.251	-7.01763
1049.61	-18.04506
1049.969	-22.05219
1050.328	11.02414
1050.687	38.09306
1051.046	-5.01226
1051.405	-13.0327
1051.763	-9.02108
1052.122	-18.04605
1052.48	-8.01969
1052.839	-16.03828
1053.197	-42.0998
1053.555	-37.08375
1053.914	11.02713
1054.272	2.00483
1054.63	30.07451
1054.988	-32.0772
1055.345	6.0132
1055.703	-7.01683
1056.061	7.01813
1056.419	12.03126
1056.776	-1.00242
1057.134	16.03758
1057.491	5.01258
1057.848	21.05251
1058.206	-25.05992
1058.563	22.04936
1058.92	-42.09837
1059.277	10.02458
1059.634	6.01433
1059.991	-41.09826
1060.348	57.13159
1060.704	11.02656
1061.061	-17.03883
1061.418	52.12721
1061.774	0
1062.131	-35.0937
1062.487	-30.07115
1062.843	-29.07337
1063.199	0
1063.555	-20.04705
1063.911	23.05863
1064.267	19.03983
1064.623	8.01972
1064.979	-42.09914
1065.335	-13.03079
1065.691	-39.09375
1066.046	-19.04213
1066.402	3.00697
1066.757	-34.08613
1067.112	-49.12025
1067.468	-1.00241
1067.823	14.03396
1068.178	-27.06592
1068.533	-18.04387
1068.888	46.11043
1069.243	-8.01996
1069.598	45.1101
1069.952	-11.0256
1070.307	-29.07353
1070.662	21.05071
1071.016	-3.00692
1071.371	-16.03701
1071.725	17.04071
1072.079	-37.08952
1072.434	-5.01232
1072.788	34.08252
1073.142	-9.02227
1073.496	53.1291
1073.85	-21.04922
1074.203	27.06483
1074.557	10.02679
1074.911	-33.07933
1075.265	-32.07548
1075.618	7.01722
1075.971	32.07668
1076.325	-3.00774
1076.678	33.07776
1077.031	-5.0116
1077.385	-6.01353
1077.738	38.08792
1078.091	-9.02122
1078.444	17.03993
1078.796	-13.03227
1079.149	-3.00749
1079.502	19.04574
1079.855	-6.0143
1080.207	2.00493
1080.56	-1.00263
1080.912	-14.03457
1081.264	-10.02441
1081.617	3.00748
1081.969	1.00257
1082.321	14.03476
1082.673	-9.02129
1083.025	-20.0478
1083.377	-33.07193
1083.728	2.00472
1084.08	7.01774
1084.432	31.07579
1084.783	-17.03989
1085.135	21.05307
1085.486	-3.00706
1085.838	3.00746
1086.189	12.02945
1086.54	-14.03355
1086.891	21.05392
1087.242	14.03425
1087.593	-14.03392
1087.944	48.11062
1088.295	-3.00683
1088.646	-28.0689
1088.996	16.03927
1089.347	-16.03972
1089.698	16.03885
1090.048	-6.01563
1090.398	4.00936
1090.749	-37.08952
1091.099	-14.03582
1091.449	-15.03756
1091.799	40.10118
1092.149	21.05275
1092.499	-9.02196
1092.849	-11.02825
1093.199	-9.0225
1093.548	-20.0486
1093.898	25.06341
1094.248	-35.09037
1094.597	24.0623
1094.947	17.04545
1095.296	-8.02006
1095.645	-1.00261
1095.994	38.09241
1096.343	-9.02284
1096.692	8.02139
1097.041	7.01918
1097.39	19.04776
1097.739	-29.07556
1098.088	14.03755
1098.437	-23.06137
1098.785	13.03534
1099.134	-19.05078
1099.482	-18.04968
1099.83	-29.07612
1100.179	-11.02903
1100.527	51.136
1100.875	-15.04012
1101.223	-34.09074
1101.571	16.04458
1101.919	-52.13947
1102.267	-22.06239
1102.615	-6.01933
1102.962	-4.01288
1103.31	-1.00322
1103.658	-6.01933
