Data from N2 R1 sample 10_Subt2__3__14-02-16-415.txt Node

Date: Wed Aug 27 14:02:16 PDT 2025
User: uwsun
Spectrometer: HDX01956
Trigger mode: 0
Integration Time (sec): 5.000000E-1
Scans to average: 1
Nonlinearity correction enabled: true
Boxcar width: 0
Storing dark spectrum: false
XAxis mode: Wavelengths
Number of Pixels in Spectrum: 2068
>>>>>Begin Spectral Data<<<<<
194.03	64.18504
194.578	67.21695
195.127	78.24894
195.676	82.26227
196.225	70.19027
196.773	79.22272
197.321	106.29742
197.87	183.4761
198.418	186.48879
198.966	130.34821
199.513	164.42264
200.061	169.44149
200.609	171.45628
201.156	197.44573
201.704	201.52005
202.251	173.46421
202.798	201.53489
203.345	215.53946
203.892	167.42835
204.438	147.36247
204.985	178.43446
205.532	185.49314
206.078	210.52663
206.624	168.42677
207.17	188.44823
207.716	203.50954
208.262	140.28899
208.808	178.45185
209.354	189.47389
209.899	196.50036
210.445	201.50851
210.99	192.47385
211.535	194.46697
212.08	210.50241
212.625	213.53848
213.17	164.41882
213.715	200.46218
214.259	166.39548
214.804	199.50022
215.348	166.39123
215.892	180.43999
216.436	183.43137
216.98	222.50157
217.524	156.37806
218.068	178.45025
218.612	209.53363
219.155	207.49495
219.698	175.42275
220.242	157.39465
220.785	177.4216
221.328	191.48252
221.871	145.36763
222.414	185.46787
222.956	113.28109
223.499	160.37078
224.041	218.51975
224.583	145.31978
225.126	167.38155
225.668	191.47441
226.21	134.34366
226.751	165.37531
227.293	114.26878
227.835	157.38926
228.376	185.43761
228.918	170.43368
229.459	162.41342
230	148.35679
230.541	163.38751
231.082	209.51514
231.622	206.48945
232.163	179.44315
232.704	171.43323
233.244	132.33009
233.784	154.38078
234.324	112.25697
234.864	189.43719
235.404	113.27391
235.944	134.3239
236.484	119.30043
237.023	168.40714
237.563	172.4071
238.102	137.32608
238.641	172.4377
239.18	171.41044
239.719	179.45608
240.258	144.33225
240.797	186.45618
241.335	171.42335
241.874	189.379
242.412	150.36707
242.95	215.52485
243.488	212.49633
244.026	182.4266
244.564	184.38663
245.102	190.44151
245.64	165.40535
246.177	94.21801
246.715	176.42557
247.252	151.35304
247.789	145.27785
248.326	214.52562
248.863	152.34469
249.4	127.29343
249.936	174.37465
250.473	192.45601
251.009	188.44325
251.546	196.44789
252.082	163.36294
252.618	180.41464
253.154	140.34426
253.69	205.47251
254.226	140.33635
254.761	173.39923
255.297	199.45062
255.832	142.34142
256.367	208.50028
256.903	203.45669
257.438	195.45894
257.972	228.52143
258.507	202.47773
259.042	158.34823
259.576	196.43488
260.111	158.37252
260.645	183.40206
261.179	138.32878
261.713	209.47442
262.247	180.42323
262.781	160.34391
263.315	173.42736
263.849	188.47588
264.382	215.49635
264.915	245.58512
265.449	199.49572
265.982	207.47655
266.515	193.47606
267.048	73.16032
267.58	154.34241
268.113	194.43134
268.646	208.51918
269.178	200.46273
269.71	149.32943
270.243	184.4269
270.775	182.4687
271.307	177.42887
271.838	237.5593
272.37	185.45868
272.902	185.42947
273.433	185.41466
273.965	216.52798
274.496	181.45073
275.027	230.57491
275.558	202.4956
276.089	200.50228
276.62	184.46956
277.15	239.58972
277.681	221.48779
278.211	203.50201
278.741	206.46619
279.272	199.46343
279.802	234.58702
280.332	225.53963
280.861	209.50792
281.391	208.48047
281.921	134.32585
282.45	217.54663
282.98	243.63
283.509	190.43802
284.038	240.55063
284.567	147.34706
285.096	217.52578
285.625	167.38385
286.153	236.55813
286.682	233.54453
287.21	197.47876
287.739	217.51806
288.267	242.58888
288.795	260.6779
289.323	190.45179
289.851	219.51261
290.378	253.57941
290.906	220.54395
291.433	219.54633
291.961	232.53719
292.488	179.4451
293.015	226.53593
293.542	238.6052
294.069	242.6003
294.596	238.58607
295.122	230.55193
295.649	212.47136
296.175	263.63961
296.702	201.48995
297.228	242.58558
297.754	252.56912
298.28	285.65059
298.806	186.44788
299.332	262.59146
299.857	234.53235
300.383	248.61878
300.908	256.63062
301.433	234.56793
301.958	297.69135
302.483	246.61823
303.008	229.55652
303.533	243.63131
304.058	247.57656
304.582	288.68635
305.107	238.61927
305.631	276.6256
306.155	289.67564
306.679	270.63482
307.203	271.62934
307.727	278.6638
308.251	243.59098
308.775	255.60644
309.298	248.60054
309.822	272.67766
310.345	290.67838
310.868	270.64026
311.391	244.59175
311.914	292.72959
312.437	254.5734
312.96	310.72118
313.482	295.69291
314.005	307.76581
314.527	294.75575
315.049	309.76324
315.571	270.60379
316.093	274.66898
316.615	297.70332
317.137	297.64125
317.659	304.7153
318.18	281.66544
318.702	334.77301
319.223	324.66218
319.744	356.78786
320.265	280.67138
320.786	371.89645
321.307	304.74607
321.828	334.73672
322.348	313.71737
322.869	358.83216
323.389	419.69896
323.909	334.75551
324.43	329.76431
324.95	379.84592
325.47	355.85133
325.989	349.79922
326.509	380.82658
327.029	359.795
327.548	325.71822
328.067	370.87123
328.587	345.81853
329.106	480.05359
329.625	362.90541
330.144	386.85282
330.662	417.93226
331.181	370.82976
331.7	435.96286
332.218	443.91584
332.736	444.97437
333.255	459.01523
333.773	393.88332
334.291	406.94891
334.808	422.89294
335.326	472.00075
335.844	420.93528
336.361	449.06792
336.879	472.04599
337.396	457.03139
337.913	544.17928
338.43	467.98447
338.947	536.18117
339.464	485.98918
339.981	475.05156
340.497	519.1768
341.014	555.24377
341.53	463.9799
342.046	538.20389
342.562	537.21225
343.078	547.17848
343.594	573.24831
344.11	575.23095
344.626	539.2321
345.141	570.16681
345.657	500.01912
346.172	600.30638
346.687	595.23538
347.202	598.22367
347.717	598.27446
348.232	610.37194
348.747	594.23248
349.261	605.1891
349.776	652.36684
350.29	657.44666
350.805	692.51265
351.319	644.32746
351.833	617.26404
352.347	697.43525
352.861	676.39788
353.374	653.31256
353.888	592.24855
354.401	713.43861
354.915	740.47574
355.428	706.52444
355.941	687.39306
356.454	697.33678
356.967	731.47768
357.48	728.42557
357.993	734.54572
358.505	738.55824
359.018	809.68256
359.53	699.43098
360.042	735.39419
360.554	727.48435
361.066	744.55994
361.578	784.43782
362.09	769.55246
362.602	766.41109
363.113	821.58562
363.625	760.43154
364.136	779.43617
364.647	761.48853
365.158	842.62586
365.669	818.64132
366.18	835.61809
366.691	831.50394
367.201	811.5962
367.712	898.67792
368.222	864.59439
368.733	810.43868
369.243	931.64433
369.753	872.60597
370.263	1007.91301
370.773	920.85215
371.282	946.77735
371.792	989.7806
372.301	1007.91301
372.811	1003.04045
373.32	1083.75359
373.829	993.78326
374.338	1116.82602
374.847	1102.86721
375.356	1084.88709
375.865	1172.75193
376.373	1197.88386
376.882	1247.20426
377.39	1287.11963
377.898	1347.25569
378.407	1430.09033
378.915	1408.8631
379.423	1454.11803
379.93	1530.0383
380.438	1589.28122
380.946	1713.18744
381.453	1774.31863
381.96	1826.21017
382.468	1986.20802
382.975	2141.32788
383.482	2150.08951
383.989	2185.53895
384.495	2284.09
385.002	2359.63021
385.509	2500.93275
386.015	2665.21831
386.521	2836.46234
387.028	2786.43783
387.534	2945.08736
388.04	3123.37066
388.546	3133.06505
389.051	3315.75265
389.557	3691.71623
390.063	3830.33323
390.568	4159.51533
391.073	4075.09098
391.578	4431.02697
392.084	4565.66708
392.589	4655.32469
393.093	4887.39641
393.598	5310.07254
394.103	5738.10835
394.607	6457.61739
395.112	6900.18449
395.616	7394.30806
396.12	8035.94715
396.624	8972.47001
397.128	9617.86114
397.632	10768.3822
398.136	11600.4504
398.639	12041.42386
399.143	13486.35484
399.646	15227.46016
400.15	16770.74956
400.653	18421.56233
401.156	20952.27345
401.659	24056.48168
402.162	28957.57025
402.664	36545.81317
403.167	30784.35325
403.67	3851.94142
404.172	0
404.674	0
405.176	0
405.678	0
406.18	0
406.682	0
407.184	0
407.686	12367.42319
408.187	34596.90747
408.688	44563.94194
409.19	48906.19284
409.691	51236.67962
410.192	46072.4834
410.693	39785.99717
411.194	36272.51479
411.694	34745.82848
412.195	32217.76399
412.696	29176.57418
413.196	26978.12565
413.696	26185.67995
414.196	26925.24229
414.696	26655.43292
415.196	25960.15218
415.696	23881.79883
416.196	19276.25814
416.695	14816.1981
417.195	12510.11051
417.694	11978.51822
418.194	11385.74499
418.693	10367.32463
419.192	10142.83054
419.691	9829.25693
420.19	9662.51943
420.688	9479.95996
421.187	9162.06643
421.685	8452.0466
422.184	7780.01913
422.682	6733.91872
423.18	5668.28152
423.678	5095.45554
424.176	4649.68401
424.674	4396.89524
425.172	4271.30522
425.669	3996.8174
426.167	3645.89066
426.664	3378.06227
427.161	3115.40511
427.659	2940.88221
428.156	2618.38837
428.652	2529.37644
429.149	2461.17237
429.646	2350.88647
430.143	2141.20732
430.639	2032.17462
431.135	1901.38592
431.632	1867.15226
432.128	1663.1194
432.624	1577.36467
433.12	1580.99508
433.616	1484.8628
434.111	1440.11793
434.607	1367.0602
435.103	1377.76789
435.598	1281.62074
436.093	1238.89578
436.588	1146.70767
437.083	1147.78195
437.578	975.55058
438.073	1029.8764
438.568	943.70192
439.062	922.4388
439.557	924.60356
440.051	911.55801
440.546	848.48999
441.04	804.50419
441.534	789.55357
442.028	757.41506
442.522	786.47698
443.015	807.38485
443.509	750.47287
444.002	739.44544
444.496	717.24056
444.989	749.45535
445.482	621.26937
445.975	648.20766
446.468	703.24016
446.961	602.04418
447.454	709.31667
447.947	591.15662
448.439	579.17109
448.931	535.00038
449.424	627.30077
449.916	610.2229
450.408	547.02893
450.9	482.98507
451.392	517.10278
451.884	504.98382
452.375	492.03779
452.867	464.88425
453.358	468.91354
453.849	504.91855
454.341	471.89824
454.832	428.80256
455.323	490.02994
455.814	479.94145
456.304	426.85405
456.795	463.92587
457.285	440.84543
457.776	427.8341
458.266	458.95257
458.756	483.0123
459.247	466.97137
459.737	451.95743
460.226	417.83118
460.716	395.83637
461.206	372.79921
461.695	451.99618
462.185	392.82911
462.674	369.76013
463.163	365.73328
463.653	378.71859
464.142	383.82797
464.63	352.76991
465.119	337.70795
465.608	389.81358
466.096	359.7189
466.585	382.79876
467.073	328.71439
467.561	323.70903
468.05	338.71804
468.538	312.70144
469.026	217.48277
469.513	231.45786
470.001	333.71866
470.489	325.72542
470.976	300.6337
471.463	348.79261
471.951	232.53761
472.438	252.55749
472.925	301.66741
473.412	288.65412
473.899	249.53877
474.385	244.56564
474.872	210.46575
475.359	235.54855
475.845	231.46429
476.331	251.52148
476.817	225.51695
477.303	228.50503
477.789	201.4631
478.275	195.46305
478.761	257.5914
479.247	217.46251
479.732	225.53675
480.218	197.48539
480.703	137.32883
481.188	125.26086
481.673	180.39922
482.158	180.3829
482.643	209.50849
483.128	195.43671
483.612	186.42076
484.097	204.48059
484.581	113.25484
485.066	160.37987
485.55	188.40235
486.034	133.28606
486.518	92.211
487.002	167.40464
487.486	156.37308
487.969	136.32476
488.453	149.3628
488.936	127.28337
489.42	139.30501
489.903	65.16028
490.386	132.22082
490.869	102.22
491.352	88.20917
491.835	61.12708
492.318	88.20021
492.8	162.33875
493.283	77.19266
493.765	126.30559
494.247	114.26251
494.73	73.16039
495.212	65.15364
495.694	94.21913
496.175	22.05272
496.657	90.21071
497.139	81.14457
497.62	64.15295
498.102	112.27744
498.583	86.21405
499.064	18.04025
499.545	106.24057
500.026	88.1981
500.507	55.12849
500.988	98.24054
501.469	60.14999
501.949	12.02944
502.43	53.12707
502.91	61.12889
503.39	45.11178
503.87	55.12995
504.35	33.07761
504.83	51.11333
505.31	32.07761
505.79	31.075
506.269	46.10736
506.749	53.12168
507.228	34.08041
507.707	27.06022
508.187	17.04059
508.666	28.06824
509.145	26.06128
509.623	14.03351
510.102	28.06799
510.581	-8.01921
511.059	35.0883
511.538	40.10201
512.016	23.05592
512.494	48.11782
512.972	2.00476
513.45	-43.1027
513.928	13.03194
514.406	65.15898
514.884	10.02577
515.361	-53.12784
515.839	-1.00232
516.316	6.01463
516.793	32.08098
517.27	-15.03658
517.747	30.0775
518.224	0
518.701	11.02492
519.178	19.0472
519.654	-39.09386
520.131	-38.0951
520.607	-30.07472
521.083	-24.05608
521.56	-35.08363
522.036	8.01784
522.512	-22.05416
522.987	-10.02413
523.463	18.04321
523.939	7.01706
524.414	21.049
524.89	45.10793
525.365	-25.05721
525.84	-23.05567
526.315	-6.01465
526.79	-30.0685
527.265	26.06035
527.74	-56.13806
528.215	68.1635
528.689	-10.02253
529.164	-10.02233
529.638	-17.04396
530.112	11.02625
530.587	26.05731
531.061	-6.01473
531.534	37.0904
532.008	-6.0147
532.482	-8.01844
532.956	-46.11826
533.429	1.00242
533.903	-73.16504
534.376	27.06112
534.849	-47.1101
535.322	-1.00239
535.795	-26.06382
536.268	7.01703
536.741	-15.0361
537.213	-11.02568
537.686	-56.13857
538.158	-19.04383
538.631	-31.07514
539.103	-26.0602
539.575	-14.02968
540.047	28.06272
540.519	-18.0431
540.991	-11.0268
541.463	-24.05856
541.934	-58.13468
542.406	-39.09358
542.877	-66.15095
543.348	-99.2379
543.82	10.02441
544.291	-36.08409
544.762	-31.07472
545.233	-8.02002
545.703	-18.04057
546.174	18.04211
546.645	-9.02182
547.115	73.17549
547.585	7.01601
548.056	-13.03143
548.526	48.11278
548.996	14.0335
549.466	64.15336
549.935	92.21641
550.405	25.05527
550.875	67.15714
551.344	66.15598
551.814	99.2251
552.283	87.18608
552.752	91.20699
553.221	123.26421
553.69	106.22971
554.159	149.35709
554.628	158.34823
555.096	147.36033
555.565	200.43969
556.033	176.40024
556.502	145.3438
556.97	184.39141
557.438	183.41692
557.906	232.52673
558.374	198.44041
558.842	239.54845
559.31	281.60177
559.777	300.68855
560.245	309.6743
560.712	258.56671
561.18	383.79287
561.647	327.68392
562.114	458.97631
562.581	431.96196
563.048	469.98869
563.514	515.14453
563.981	548.12626
564.448	511.0286
564.914	601.2201
565.381	670.31306
565.847	675.36246
566.313	758.52218
566.779	777.50553
567.245	767.50595
567.711	870.74578
568.176	797.49511
568.642	898.86077
569.108	959.92147
569.573	1062.9567
570.038	1032.70304
570.504	1122.95858
570.969	1110.14177
571.434	1218.98269
571.899	1269.2688
572.363	1308.16925
572.828	1305.14591
573.293	1350.27605
573.757	1456.34535
574.222	1537.37684
574.686	1491.34115
575.15	1584.61038
575.614	1581.48242
576.078	1569.50142
576.542	1607.43742
577.006	1583.39071
577.469	1533.55961
577.933	1616.43609
578.396	1643.61022
578.86	1651.59642
579.323	1623.65253
579.786	1600.26538
580.249	1549.40947
580.712	1517.56289
581.175	1560.67909
581.637	1473.32986
582.1	1429.12262
582.563	1430.11455
583.025	1453.50416
583.487	1387.97644
583.95	1389.12478
584.412	1332.95725
584.874	1286.32456
585.336	1279.24824
585.797	1273.99388
586.259	1202.12385
586.721	1114.02485
587.182	1106.96193
587.643	1027.79179
588.105	989.81511
588.566	965.55827
589.027	988.88367
589.488	863.57785
589.949	949.83235
590.41	882.38253
590.87	804.462
591.331	810.42158
591.791	787.50099
592.252	709.35068
592.712	672.3443
593.172	671.27506
593.632	682.22027
594.092	629.18466
594.552	604.08876
595.011	630.23745
595.471	586.1249
595.931	578.10044
596.39	582.21615
596.849	551.11181
597.308	423.79573
597.768	554.24178
598.227	480.00888
598.685	491.98004
599.144	488.0122
599.603	464.97278
600.062	448.85043
600.52	457.90752
600.978	471.99247
601.437	448.90688
601.895	390.73274
602.353	410.80298
602.811	465.92168
603.269	421.89141
603.727	470.99623
604.184	384.78622
604.642	375.82038
605.099	453.94574
605.557	446.96311
606.014	401.77587
606.471	449.00009
606.928	390.75441
607.385	431.94366
607.842	485.99008
608.299	473.97566
608.755	411.88013
609.212	454.90598
609.668	447.88269
610.125	396.84893
610.581	466.9541
611.037	392.79352
611.493	410.86072
611.949	415.88908
612.405	472.86021
612.861	390.81404
613.316	460.98653
613.772	341.70277
614.227	340.71788
614.683	482.90562
615.138	421.88674
615.593	447.93735
616.048	461.94066
616.503	404.87168
616.958	428.94993
617.412	401.85464
617.867	401.81304
618.321	462.86419
618.776	384.76522
619.23	397.83693
619.684	436.88986
620.138	339.70179
620.592	336.73865
621.046	327.6927
621.5	361.80109
621.954	321.66036
622.407	315.64364
622.861	351.78344
623.314	357.73773
623.768	301.64794
624.221	323.58727
624.674	289.61462
625.127	278.59907
625.58	250.52161
626.033	269.54341
626.485	254.57387
626.938	269.59025
627.39	276.60064
627.843	224.48354
628.295	215.46481
628.747	224.50258
629.199	228.48775
629.651	200.43692
630.103	246.53217
630.555	267.54086
631.006	174.3888
631.458	242.54341
631.909	157.34248
632.361	229.50862
632.812	212.46862
633.263	197.40454
633.714	228.47148
634.165	138.31866
634.616	130.29743
635.067	110.23389
635.518	124.2853
635.968	156.30306
636.419	174.36288
636.869	58.13313
637.319	177.40472
637.769	88.19257
638.219	164.37688
638.669	107.24781
639.119	91.21293
639.569	131.307
640.019	94.21039
640.468	121.26417
640.918	69.16063
641.367	114.252
641.816	85.18392
642.265	63.14208
642.714	103.23182
643.163	63.14214
643.612	90.21343
644.061	66.13826
644.51	82.18459
644.958	108.23564
645.406	65.15328
645.855	111.26856
646.303	80.18429
646.751	80.18046
647.199	96.21283
647.647	48.10929
648.095	64.14543
648.543	121.24803
648.99	71.16847
649.438	75.17074
649.885	74.17793
650.333	89.17376
650.78	59.14162
651.227	53.12842
651.674	96.21805
652.121	52.12607
652.568	82.19791
653.015	85.21183
653.461	61.14368
653.908	95.21705
654.354	90.21261
654.801	93.22025
655.247	42.09137
655.693	62.15845
656.139	77.18595
656.585	93.22221
657.031	90.2122
657.477	50.1102
657.922	122.28048
658.368	118.2892
658.813	98.22602
659.259	55.13217
659.704	84.19582
660.149	79.18492
660.594	94.22249
661.039	94.21291
661.484	93.21991
661.929	84.19489
662.373	66.16731
662.818	57.14133
663.262	86.20686
663.707	64.1612
664.151	51.12367
664.595	103.25051
665.039	17.04244
665.483	135.34276
665.927	22.05181
666.371	47.11204
666.814	71.17036
667.258	63.15087
667.701	96.20786
668.145	95.2352
668.588	69.16995
669.031	72.172
669.474	80.19308
669.917	51.1138
670.36	58.14452
670.803	95.2295
671.245	97.21016
671.688	44.10724
672.13	59.13675
672.573	96.24163
673.015	121.28911
673.457	121.26741
673.899	94.22738
674.341	81.19568
674.783	53.1291
675.225	74.18411
675.666	128.31009
676.108	6.01324
676.549	44.10491
676.991	74.16686
677.432	164.34081
677.873	67.1572
678.314	72.17331
678.755	107.26287
679.196	85.20022
679.637	102.24998
680.078	88.20821
680.518	70.16427
680.959	74.17651
681.399	79.19666
681.839	88.21567
682.28	105.26148
682.72	109.25475
683.16	111.27773
683.6	108.2465
684.039	55.11707
684.479	71.17604
684.919	104.24663
685.358	82.20743
685.798	146.38408
686.237	92.22338
686.676	87.20021
687.115	93.22059
687.554	130.31091
687.993	92.20668
688.432	103.23808
688.871	73.16954
689.309	157.37598
689.748	131.27836
690.186	136.32513
690.625	76.18204
691.063	114.27722
691.501	135.33496
691.939	153.38391
692.377	129.31797
692.815	130.3134
693.253	120.28765
693.69	119.26541
694.128	102.25165
694.565	118.28285
695.003	134.33823
695.44	94.22576
695.877	80.19111
696.314	123.26785
696.751	97.22171
697.188	82.18995
697.625	85.19514
698.061	99.24187
698.498	170.40889
698.934	135.32539
699.371	91.21759
699.807	112.26755
700.243	101.24363
700.679	146.33135
701.115	72.16903
701.551	103.24318
701.987	125.28398
702.422	123.29512
702.858	118.28425
703.294	83.18795
703.729	104.25489
704.164	87.21025
704.599	149.33205
705.035	108.24531
705.47	43.10572
705.904	113.26824
706.339	144.3337
706.774	138.32638
707.209	115.27046
707.643	132.31726
708.078	95.23184
708.512	79.19994
708.946	67.16161
709.38	140.33329
709.814	144.33436
710.248	119.29257
710.682	94.2273
711.116	144.35069
711.549	126.32731
711.983	139.32409
712.416	110.26177
712.85	103.25892
713.283	113.26772
713.716	108.26861
714.149	71.1701
714.582	107.24496
715.015	97.24226
715.448	114.28796
715.881	113.2442
716.313	36.08485
716.746	100.23852
717.178	105.25519
717.61	90.22807
718.043	94.23472
718.475	106.25689
718.907	52.13121
719.339	65.15203
719.77	64.15452
720.202	68.17391
720.634	83.20542
721.065	76.18405
721.497	114.28177
721.928	59.14783
722.359	82.20298
722.79	73.17875
723.221	46.11657
723.652	89.22821
724.083	141.32293
724.514	-2.00471
724.945	22.05306
725.375	93.22212
725.806	27.06739
726.236	65.16609
726.666	73.17655
727.096	84.20991
727.526	29.07517
727.956	82.19191
728.386	84.20983
728.816	99.25696
729.246	79.19459
729.675	39.09744
730.105	75.18711
730.534	74.17617
730.964	73.18522
731.393	82.20276
731.822	25.06408
732.251	77.19786
732.68	31.07376
733.109	104.2611
733.537	37.09147
733.966	53.13328
734.395	73.17155
734.823	87.19885
735.251	21.05176
735.68	58.14625
736.108	63.16177
736.536	55.13357
736.964	50.11862
737.392	52.13187
737.82	28.0674
738.247	63.15409
738.675	50.11949
739.102	63.16143
739.53	46.11843
739.957	23.05984
740.384	45.11153
740.811	39.0999
741.238	4.00994
741.665	22.05233
742.092	48.11629
742.519	52.13201
742.945	45.10986
743.372	25.06323
743.798	40.10434
744.225	83.20127
744.651	43.10941
745.077	13.03305
745.503	62.15437
745.929	22.0541
746.355	7.01723
746.781	32.08066
747.207	-2.00484
747.632	15.03768
748.058	27.0679
748.483	38.09029
748.908	-16.04079
749.334	37.09311
749.759	72.1741
750.184	-4.0098
750.609	29.07185
751.033	-21.05006
751.458	36.082
751.883	12.02988
752.307	50.12122
752.732	58.14917
753.156	32.08095
753.58	10.0242
754.005	47.12001
754.429	31.07475
754.853	64.16189
755.277	-3.00723
755.7	37.09291
756.124	11.02791
756.548	-19.04687
756.971	34.08466
757.394	46.11958
757.818	-22.05801
758.241	39.10046
758.664	33.08565
759.087	13.03017
759.51	43.10794
759.933	-18.04426
760.356	-13.03373
760.778	114.28652
761.201	55.13587
761.623	45.11084
762.046	1.0024
762.468	26.06327
762.89	0
763.312	-1.00248
763.734	25.06149
764.156	41.10314
764.578	8.01877
765	23.05763
765.421	50.13145
765.843	16.04249
766.264	7.01704
766.686	13.03296
767.107	43.10669
767.528	18.04671
767.949	-8.02058
768.37	52.13022
768.791	39.09585
769.212	18.0467
769.632	2.00482
770.053	24.0641
770.473	43.10619
770.894	2.00503
771.314	-15.03626
771.734	10.02406
772.154	30.07809
772.575	16.03771
772.994	6.01405
773.414	33.08023
773.834	-30.07583
774.254	30.0754
774.673	1.00248
775.093	-43.10879
775.512	-24.06138
775.931	36.09284
776.351	-7.01777
776.77	64.16028
777.189	10.02438
777.607	-47.12216
778.026	13.03276
778.445	-59.15139
778.864	-25.0648
779.282	50.12291
779.701	23.05883
780.119	-4.01034
780.537	23.05871
780.955	34.08723
781.373	12.03006
781.791	-5.01154
782.209	-3.00697
782.627	-9.02398
783.045	27.06347
783.462	9.02322
783.88	22.05799
784.297	45.11531
784.715	-8.02102
785.132	4.00986
785.549	8.02052
785.966	-7.01787
786.383	35.08726
786.8	-68.16157
787.217	-45.10982
787.633	37.09464
788.05	-13.03095
788.466	6.01441
788.883	15.03875
789.299	-13.03194
789.715	19.04738
790.131	37.09351
790.547	-20.05041
790.963	22.05551
791.379	-7.01795
791.795	-37.08607
792.21	4.00961
792.626	9.02162
793.041	-15.0379
793.457	-19.04778
793.872	2.00477
794.287	17.04223
794.702	16.03965
795.117	36.09162
795.532	-31.07963
795.947	30.07282
796.362	-7.01678
796.776	12.02806
797.191	16.04017
797.605	-35.08567
798.02	-33.08296
798.434	7.01586
798.848	27.06775
799.262	-7.01785
799.676	-8.01971
800.09	-44.10959
800.504	29.07151
800.918	14.03325
801.331	-22.05799
801.745	-50.11711
802.158	-5.01276
802.572	-25.06101
802.985	43.10486
803.398	-4.00975
803.811	-13.03349
804.224	4.01004
804.637	0
805.05	31.07322
805.462	58.14473
805.875	22.05817
806.288	-54.13333
806.7	21.05341
807.112	-8.01898
807.525	-6.01498
807.937	-32.08121
808.349	-13.03279
808.761	-7.01732
809.173	-39.09702
809.584	-29.0719
809.996	-3.00755
810.408	33.08648
810.819	-1.00243
811.231	48.12738
811.642	8.02002
812.053	61.14886
812.464	36.08738
812.875	46.11905
813.286	45.11579
813.697	-7.0162
814.108	-44.10908
814.519	22.04934
814.929	-2.0051
815.34	13.03184
815.75	4.0103
816.16	7.0176
816.571	39.1023
816.981	-38.0905
817.391	16.03929
817.801	-7.01769
818.211	21.05029
818.62	37.09077
819.03	45.11129
819.44	12.03142
819.849	15.03836
820.259	-12.03082
820.668	3.00751
821.077	12.0305
821.486	49.11949
821.895	1.00248
822.304	14.03725
822.713	-1.0024
823.122	-13.03277
823.531	-54.13038
823.939	-11.0273
824.348	20.04909
824.756	-26.06617
825.164	21.05281
825.573	-37.09504
825.981	-20.04969
826.389	-6.01531
826.797	35.08931
827.205	29.06828
827.612	-24.05991
828.02	10.0241
828.428	1.00257
828.835	19.05021
829.243	10.02404
829.65	-8.02019
830.057	-21.05142
830.464	-48.11921
830.871	-7.01683
831.278	-10.02454
831.685	53.11963
832.092	23.05703
832.499	33.07339
832.905	17.04326
833.312	1.00232
833.718	-11.0276
834.124	-31.07188
834.531	-8.0204
834.937	12.03096
835.343	3.00735
835.749	24.05634
836.155	9.02386
836.561	-27.06712
836.966	-5.01233
837.372	8.02065
837.777	-10.02526
838.183	11.02496
838.588	-1.00253
838.993	-7.01706
839.399	19.04764
839.804	-22.05502
840.209	34.08747
840.613	23.05204
841.018	-22.05658
841.423	-13.03373
841.828	3.00765
842.232	18.04454
842.637	8.01913
843.041	-21.05481
843.445	5.01271
843.849	34.08493
844.253	16.03827
844.657	-6.01541
845.061	-1.0023
845.465	35.08624
845.869	23.05416
846.272	-32.0802
846.676	-69.16732
847.079	-32.08341
847.483	-1.0025
847.886	25.06099
848.289	-13.03518
848.692	-1.00254
849.095	12.02917
849.498	29.0728
849.901	33.07637
850.304	-25.0603
850.707	-8.02054
851.109	24.0603
851.512	19.04763
851.914	25.06496
852.316	20.05104
852.718	40.10637
853.121	23.0574
853.523	56.13495
853.925	24.06344
854.326	-33.08465
854.728	8.02081
855.13	-29.07602
855.531	32.07825
855.933	20.04853
856.334	14.03524
856.736	32.07425
857.137	6.01427
857.538	28.07171
857.939	28.0707
858.34	6.01479
858.741	0
859.142	-9.02184
859.542	-36.09649
859.943	25.06334
860.343	13.033
860.744	33.08074
861.144	47.11504
861.544	38.09379
861.945	2.00517
862.345	-14.03467
862.745	-57.14406
863.145	9.0215
863.544	12.03064
863.944	37.08908
864.344	10.02485
864.743	-1.00249
865.143	9.0235
865.542	-12.02858
865.941	31.07686
866.34	-3.00721
866.74	-9.02433
867.139	-30.07331
867.537	10.0257
867.936	11.02678
868.335	-2.00513
868.734	3.00777
869.132	14.03293
869.531	-46.11132
869.929	34.0796
870.327	36.0879
870.726	-4.00999
871.124	3.00703
871.522	-33.08494
871.92	50.12404
872.318	-38.09396
872.715	5.01231
873.113	19.04683
873.511	-62.15499
873.908	-39.10035
874.306	18.04552
874.703	19.04773
875.1	12.03058
875.497	-40.09796
875.894	7.01758
876.291	1.00245
876.688	-24.06282
877.085	-13.03154
877.482	27.06812
877.878	-10.02464
878.275	-35.09022
878.671	-3.00664
879.068	-22.05388
879.464	6.01477
879.86	40.09614
880.256	13.0322
880.652	22.05686
881.048	37.09177
881.444	5.01193
881.84	3.00774
882.236	18.04544
882.631	20.04929
883.027	-14.03397
883.422	60.15458
883.817	34.08726
884.213	4.0104
884.608	-2.00505
885.003	37.09103
885.398	-3.00764
885.793	24.06086
886.188	23.05832
886.582	51.13055
886.977	44.10539
887.371	-6.0151
887.766	2.00505
888.16	15.03783
888.554	26.06351
888.949	-19.04802
889.343	25.06142
889.737	9.02433
890.131	-21.0536
890.525	36.09313
890.918	21.05343
891.312	-24.05801
891.706	-16.04229
892.099	-3.00768
892.492	-4.00872
892.886	43.10716
893.279	27.06991
893.672	8.02064
894.065	-15.03796
894.458	-16.04047
894.851	1.00244
895.244	-3.00779
895.637	10.02429
896.029	39.0967
896.422	28.06883
896.814	39.09846
897.206	-6.01458
897.599	-26.06464
897.991	-31.07678
898.383	-54.12989
898.775	-28.06463
899.167	-8.01921
899.559	-4.01013
899.951	35.0835
900.342	71.1804
900.734	9.02286
901.125	10.02664
901.517	-22.05456
901.908	-5.01203
902.299	57.142
902.69	-28.0675
903.082	-43.10455
903.473	-13.03199
903.863	-30.0771
904.254	-18.04236
904.645	-34.08466
905.036	-7.01732
905.426	16.03702
905.817	10.02491
906.207	9.02196
906.597	-43.10325
906.987	-15.03872
907.378	-30.07675
907.768	-8.02139
908.158	-15.03711
908.547	41.1077
908.937	-26.06682
909.327	7.01711
909.717	6.0152
910.106	-3.00739
910.495	1.0025
910.885	17.04347
911.274	9.02276
911.663	1.00254
912.052	-9.02228
912.441	8.02068
912.83	3.00706
913.219	17.04437
913.608	-32.07851
913.997	21.05353
914.385	82.19634
914.774	-5.01232
915.162	7.01706
915.55	-36.08784
915.939	-16.04102
916.327	-44.10999
916.715	-9.02357
917.103	24.05919
917.491	42.10412
917.878	38.09444
918.266	-17.04431
918.654	19.04875
919.041	-28.07403
919.429	-32.07647
919.816	0
920.203	-5.01229
920.591	-1.00249
920.978	-10.02474
921.365	5.01322
921.752	-11.02652
922.139	1.0022
922.525	97.23716
922.912	-25.06167
923.299	55.13885
923.685	-23.06046
924.072	6.01397
924.458	-5.01256
924.844	33.0831
925.231	-3.00712
925.617	21.05464
926.003	-16.04128
926.389	-54.1383
926.774	17.04339
927.16	8.02006
927.546	-9.0233
927.931	45.11324
928.317	5.01167
928.702	-8.01903
929.088	26.06315
929.473	1.00257
929.858	-12.03001
930.243	-11.02685
930.628	24.05954
931.013	-20.05038
931.398	8.01829
931.783	-23.06042
932.167	-23.05667
932.552	-30.07532
932.937	37.09174
933.321	12.03063
933.705	-7.01782
934.09	-26.06514
934.474	31.07424
934.858	-11.02855
935.242	-31.07316
935.626	0
936.009	-13.03505
936.393	-16.04091
936.777	-39.10053
937.16	7.01842
937.544	-1.00236
937.927	-37.09527
938.311	-43.10646
938.694	-8.02111
939.077	20.04869
939.46	-7.01718
939.843	21.04416
940.226	-1.0026
940.609	30.07049
940.991	-17.04409
941.374	12.02957
941.757	35.08716
942.139	-4.0091
942.522	-23.05468
942.904	-11.02664
943.286	-2.00511
943.668	30.07842
944.05	43.10704
944.432	30.07532
944.814	60.14934
945.196	12.03008
945.578	7.01717
945.959	16.03794
946.341	-8.01956
946.722	-18.04256
947.104	-27.06523
947.485	50.11839
947.866	-23.05925
948.247	8.02043
948.628	36.08813
949.009	-8.0208
949.39	-47.11832
949.771	17.03995
950.152	5.01245
950.532	-1.00252
950.913	35.08592
951.293	19.05195
951.674	-30.07374
952.054	15.03746
952.434	-1.0025
952.814	-59.14076
953.194	-16.04166
953.574	0
953.954	54.1291
954.334	-15.03783
954.714	-22.05476
955.093	5.01221
955.473	-18.04566
955.853	-33.08592
956.232	-16.0438
956.611	-2.0048
956.99	-25.06287
957.37	-27.06952
957.749	22.0528
958.128	-48.12254
958.506	14.03667
958.885	7.01781
959.264	-26.06554
959.643	26.06028
960.021	15.03729
960.4	-27.06233
960.778	9.02205
961.156	17.04316
961.535	-22.05207
961.913	36.08485
962.291	-5.01308
962.669	-48.12181
963.047	1.00258
963.424	-41.10623
963.802	-17.04227
964.18	14.0354
964.557	20.04672
964.935	-13.03099
965.312	48.12602
965.69	14.03528
966.067	-30.07421
966.444	2.00496
966.821	12.03081
967.198	-23.05584
967.575	-7.01724
967.952	-35.08263
968.329	6.01473
968.705	25.0549
969.082	23.05994
969.458	-31.07602
969.835	-11.02677
970.211	32.08273
970.587	7.01752
970.963	-6.0155
971.339	-27.07145
971.715	8.02014
972.091	43.10638
972.467	-15.03772
972.843	18.04548
973.219	19.04545
973.594	-3.00795
973.97	14.03356
974.345	-25.06117
974.721	14.03408
975.096	2.00492
975.471	-72.17128
975.846	12.02924
976.221	73.18719
976.596	-30.07369
976.971	-30.07437
977.346	-42.09937
977.72	-61.15653
978.095	-40.10405
978.469	2.0048
978.844	33.0823
979.218	9.0221
979.593	-61.14742
979.967	17.04197
980.341	35.08167
980.715	-15.03802
981.089	37.09334
981.463	-16.03753
981.837	-23.0574
982.21	-71.16489
982.584	-41.10151
982.957	-14.0355
983.331	-26.06232
983.704	58.14352
984.078	-42.10507
984.451	-64.15935
984.824	40.0993
985.197	1.00245
985.57	23.05786
985.943	-35.08665
986.316	31.0761
986.688	-7.01704
987.061	31.0735
987.434	-2.00522
987.806	-26.06342
988.179	18.04349
988.551	24.06121
988.923	-30.07415
989.295	82.20402
989.667	27.06638
990.039	-18.04531
990.411	-8.01871
990.783	-2.00459
991.155	13.03209
991.527	-19.04639
991.898	-40.10122
992.27	21.05275
992.641	-6.01515
993.012	39.09219
993.384	12.029
993.755	-34.08808
994.126	8.01939
994.497	14.03502
994.868	-3.00696
995.239	12.02936
995.61	10.02557
995.98	25.06165
996.351	7.01768
996.722	-19.04524
997.092	-39.09422
997.462	-13.03144
997.833	-24.05716
998.203	-46.11312
998.573	-14.03525
998.943	15.03579
999.313	-37.08942
999.683	-9.02186
1000.053	0
1000.423	7.01704
1000.792	52.13592
1001.162	-12.02994
1001.531	9.0224
1001.901	-19.04781
1002.27	24.05454
1002.639	-1.00258
1003.009	6.01446
1003.378	-21.05407
1003.747	24.05725
1004.116	-10.02437
1004.485	-35.08433
1004.853	11.02794
1005.222	28.07108
1005.591	42.10006
1005.959	51.11877
1006.328	6.01381
1006.696	7.01698
1007.064	-16.04098
1007.433	-19.04759
1007.801	-28.0687
1008.169	33.08417
1008.537	-49.10997
1008.905	-12.02857
1009.273	10.0249
1009.64	4.00975
1010.008	53.12683
1010.375	-53.12726
1010.743	15.03489
1011.11	41.09804
1011.478	-6.01489
1011.845	7.01657
1012.212	10.02316
1012.579	-1.00248
1012.946	46.10989
1013.313	-7.01664
1013.68	-28.06375
1014.047	12.02941
1014.414	11.02636
1014.78	-22.05523
1015.147	0
1015.513	-1.00244
1015.88	14.03579
1016.246	21.05194
1016.612	24.05544
1016.978	31.07667
1017.344	-6.01497
1017.71	-5.01207
1018.076	0
1018.442	-26.06743
1018.808	3.00759
1019.174	14.03557
1019.539	43.09773
1019.905	-34.08147
1020.27	-21.05277
1020.636	11.02641
1021.001	45.10883
1021.366	-53.12915
1021.731	21.05419
1022.096	-49.12516
1022.461	1.00236
1022.826	-9.02182
1023.191	-1.00264
1023.556	-48.11502
1023.92	22.0539
1024.285	-28.06895
1024.649	-38.09406
1025.014	11.02722
1025.378	25.06352
1025.742	12.03005
1026.107	30.06817
1026.471	20.04653
1026.835	-46.11503
1027.199	11.02692
1027.562	21.0496
1027.926	-46.11357
1028.29	30.07718
1028.654	-27.06357
1029.017	-18.04448
1029.381	30.07353
1029.744	0
1030.107	27.06335
1030.471	17.04091
1030.834	-1.0023
1031.197	11.02635
1031.56	-5.01187
1031.923	4.0104
1032.286	-10.02339
1032.648	45.10822
1033.011	5.01181
1033.374	-33.078
1033.736	10.02669
1034.099	19.04704
1034.461	-9.02334
1034.823	1.00252
1035.185	6.01526
1035.548	10.02461
1035.91	35.08487
1036.272	2.00463
1036.634	-12.02937
1036.995	-2.00471
1037.357	-38.09406
1037.719	-52.12796
1038.08	-27.06422
1038.442	-30.07238
1038.803	0
1039.165	6.01518
1039.526	-30.07331
1039.887	20.04833
1040.248	57.14272
1040.609	-7.01734
1040.97	80.1973
1041.331	-18.04579
1041.692	11.02616
1042.053	-23.05304
1042.413	-51.12069
1042.774	11.02685
1043.134	17.04023
1043.495	-5.01264
1043.855	-10.02445
1044.215	-50.12513
1044.576	-6.01469
1044.936	-16.03659
1045.296	25.06235
1045.656	-5.01239
1046.016	55.13262
1046.375	21.05188
1046.735	5.01165
1047.095	31.0733
1047.454	-56.12042
1047.814	-29.06987
1048.173	-1.00238
1048.533	-4.00932
1048.892	-2.00493
1049.251	38.09496
1049.61	20.04972
1049.969	-29.06889
1050.328	-20.04417
1050.687	-1.00247
1051.046	26.06339
1051.405	-11.02766
1051.763	9.02101
1052.122	-7.01787
1052.48	-27.0667
1052.839	-20.04789
1053.197	-26.06159
1053.555	-13.02928
1053.914	14.03452
1054.272	1.00242
1054.63	-6.015
1054.988	-26.06266
1055.345	13.02855
1055.703	-67.16296
1056.061	-11.02857
1056.419	8.02085
1056.776	-4.0097
1057.134	-20.0473
1057.491	-21.05307
1057.848	4.01003
1058.206	-27.06473
1058.563	11.02474
1058.92	-24.05601
1059.277	-21.05192
1059.634	17.04053
1059.991	-36.0862
1060.348	3.007
1060.704	-28.06811
1061.061	-25.05719
1061.418	4.00987
1061.774	-28.07032
1062.131	0
1062.487	-10.02362
1062.843	-1.00252
1063.199	-20.05007
1063.555	-11.02583
1063.911	11.0281
1064.267	-12.02533
1064.623	6.0148
1064.979	-45.10629
1065.335	-23.05458
1065.691	-36.08649
1066.046	-62.13871
1066.402	11.02551
1066.757	-12.03028
1067.112	-37.0906
1067.468	-31.075
1067.823	5.01215
1068.178	7.01698
1068.533	-4.00972
1068.888	-11.02669
1069.243	14.03479
1069.598	23.05651
1069.952	-39.09126
1070.307	22.05527
1070.662	13.03144
1071.016	5.01151
1071.371	-13.03005
1071.725	44.10483
1072.079	-22.05308
1072.434	7.01722
1072.788	65.15685
1073.142	32.0786
1073.496	31.07582
1073.85	-2.00467
1074.203	-5.01208
1074.557	1.00268
1074.911	5.01193
1075.265	11.02573
1075.618	-6.01479
1075.971	16.03846
1076.325	20.05137
1076.678	38.08946
1077.031	-9.02089
1077.385	55.12247
1077.738	47.10855
1078.091	4.00941
1078.444	11.02587
1078.796	-35.08722
1079.149	3.00748
1079.502	17.04094
1079.855	20.04743
1080.207	-9.02223
1080.56	-12.03157
1080.912	-3.00739
1081.264	32.0775
1081.617	23.05717
1081.969	-16.04128
1082.321	36.08902
1082.673	38.08907
1083.025	-10.02385
1083.377	-241.54838
1083.728	4.00943
1084.08	36.09077
1084.432	58.14109
1084.783	-31.07293
1085.135	1.00254
1085.486	38.08872
1085.838	17.04218
1086.189	31.07582
1086.54	-22.0528
1086.891	10.02573
1087.242	-6.01473
1087.593	-36.08758
1087.944	75.17191
1088.295	-45.10331
1088.646	-19.04668
1088.996	-12.02961
1089.347	13.0321
1089.698	2.00487
1090.048	11.02857
1090.398	19.04434
1090.749	-35.08465
1091.099	-2.00511
1091.449	-19.04761
1091.799	35.08861
1092.149	-3.00757
1092.499	-34.08333
1092.849	-2.00513
1093.199	9.02243
1093.548	12.02898
1093.898	-6.0153
1094.248	-13.03344
1094.597	-24.06282
1094.947	2.00536
1095.296	23.05736
1095.645	-46.12077
1095.994	37.08999
1096.343	6.01518
1096.692	23.06135
1097.041	0
1097.39	5.0126
1097.739	-29.07556
1098.088	-1.00269
1098.437	-17.04532
1098.785	31.08403
1099.134	3.00799
1099.482	-15.04138
1099.83	-20.05242
1100.179	-11.02903
1100.527	21.05628
1100.875	-35.09392
1101.223	7.01856
1101.571	10.02789
1101.919	-3.00798
1102.267	-15.0425
1102.615	-9.02901
1102.962	-4.01288
1103.31	0
1103.658	-9.029
