Data from N2 R1 sample 5_Subt2__0__13-45-45-439.txt Node

Date: Wed Aug 27 13:45:45 PDT 2025
User: uwsun
Spectrometer: HDX01956
Trigger mode: 0
Integration Time (sec): 5.000000E-1
Scans to average: 1
Nonlinearity correction enabled: true
Boxcar width: 0
Storing dark spectrum: false
XAxis mode: Wavelengths
Number of Pixels in Spectrum: 2068
>>>>>Begin Spectral Data<<<<<
194.03	195.55289
194.578	205.65301
195.127	191.6012
195.676	205.64589
196.225	203.53985
196.773	196.54263
197.321	347.93703
197.87	402.00381
198.418	446.1175
198.966	478.20339
199.513	427.04729
200.061	482.18873
200.609	438.11393
201.156	411.88925
201.704	466.14753
202.251	431.10439
202.798	527.32289
203.345	445.0677
203.892	442.07634
204.438	446.03656
204.985	459.05905
205.532	435.10843
206.078	479.14027
206.624	524.24397
207.17	445.0063
207.716	477.1355
208.262	458.8779
208.808	493.17858
209.354	514.21036
209.899	478.15678
210.445	431.04306
210.99	435.02306
211.535	535.20183
212.08	480.08669
212.625	471.13319
213.17	445.0774
213.715	444.97601
214.259	454.01939
214.804	471.12334
215.348	483.06575
215.892	421.9826
216.436	443.99118
216.98	525.11067
217.524	439.00478
218.068	424.02281
218.612	511.23235
219.155	424.97151
219.698	419.96525
220.242	412.98778
220.785	400.91175
221.328	435.04841
221.871	371.90253
222.414	459.10135
222.956	379.89675
223.499	414.91085
224.041	415.95185
224.583	403.84062
225.126	464.99639
225.668	430.01893
226.21	432.04724
226.751	414.89402
227.293	405.90058
227.835	391.92764
228.376	392.88992
228.918	367.90346
229.459	421.02263
230	374.86282
230.541	454.01647
231.082	407.96632
231.622	473.06365
232.163	435.02386
232.704	448.07634
233.244	399.94916
233.784	373.88495
234.324	411.88621
234.864	418.92273
235.404	400.9169
235.944	420.96003
236.484	394.94536
237.023	459.04896
237.563	457.01963
238.102	360.81994
238.641	378.92659
239.18	404.92644
239.719	406.99261
240.258	469.00974
240.797	442.03007
241.335	426.00283
241.874	478.89456
242.412	373.87471
242.95	442.03088
243.488	470.04242
244.026	427.95264
244.564	430.8545
245.102	468.02548
245.64	432.00633
246.177	438.94624
246.715	429.98749
247.252	446.98206
247.789	384.69341
248.326	488.13523
248.863	450.95843
249.4	427.92741
249.936	449.90952
250.473	446.00508
251.009	455.01474
251.546	481.03385
252.082	466.97223
252.618	463.00405
253.154	458.05737
253.69	466.01594
254.226	428.97162
254.761	432.94525
255.297	473.0092
255.832	384.88059
256.367	460.05104
256.903	456.97247
257.438	415.93467
257.972	492.06321
258.507	448.00672
259.042	452.93465
259.576	483.00561
260.111	495.08817
260.645	431.89742
261.179	456.0176
261.713	501.06767
262.247	462.02422
262.781	419.85031
263.315	452.05672
263.849	493.17724
264.382	472.03165
264.915	538.21031
265.449	480.13194
265.982	441.96759
266.515	478.11456
267.048	379.77862
267.58	463.96318
268.113	475.9943
268.646	486.14921
269.178	499.08365
269.71	438.90976
270.243	490.06565
270.775	496.20446
271.307	452.03604
271.838	462.04036
272.37	463.08692
272.902	541.16504
273.433	445.94387
273.965	508.17161
274.496	478.12329
275.027	523.23516
275.558	530.21854
276.089	531.25117
276.62	483.16474
277.15	518.20986
277.681	459.96251
278.211	535.2396
278.741	484.03116
279.272	501.09493
279.802	541.2792
280.332	569.27257
280.861	517.18127
281.391	506.09725
281.921	456.03938
282.45	560.32086
282.98	562.37358
283.509	515.10801
284.038	480.04608
284.567	509.11478
285.096	500.14443
285.625	512.09328
286.153	499.11764
286.682	593.28539
287.21	539.2232
287.739	510.14676
288.267	536.2299
288.795	568.39955
289.323	568.2497
289.851	530.16256
290.378	572.22372
290.906	562.29941
291.433	545.27624
291.961	602.28911
292.488	527.22441
293.015	574.26714
293.542	594.41196
294.069	579.34484
294.596	563.30043
295.122	539.21479
295.649	540.11678
296.175	626.416
296.702	579.30878
297.228	600.35107
297.754	568.19786
298.28	620.31741
298.806	538.20636
299.332	604.26609
299.857	575.21556
300.383	608.41477
300.908	603.38741
301.433	615.38291
301.958	641.38838
302.483	589.38584
303.008	579.31197
303.533	620.50253
304.058	615.32917
304.582	661.45973
305.107	626.51651
305.631	657.37158
306.155	657.42247
306.679	623.3614
307.203	645.38457
307.727	682.49956
308.251	613.3846
308.775	664.45201
309.298	625.40312
309.822	626.45612
310.345	690.48477
310.868	683.48762
311.391	677.50505
311.914	752.71843
312.437	649.34467
312.96	711.52051
313.482	750.60226
314.005	750.7166
314.527	704.67615
315.049	717.63481
315.571	727.47025
316.093	782.72462
316.615	666.4619
317.137	740.44432
317.659	688.49504
318.18	736.58656
318.702	787.6549
319.223	761.40011
319.744	792.59128
320.265	719.57668
320.786	807.78608
321.307	839.85076
321.828	803.59525
322.348	814.67533
322.869	853.78593
323.389	1049.45305
323.909	897.79381
324.43	879.81692
324.95	874.74898
325.47	891.91474
325.989	920.86232
326.509	952.81756
327.029	919.79551
327.548	905.75561
328.067	972.01526
328.587	873.85677
329.106	973.91639
329.625	973.15705
330.144	901.77441
330.662	987.94491
331.181	999.94835
331.7	1016.97453
332.218	1056.88363
332.736	1001.93751
333.255	1043.02705
333.773	1030.00883
334.291	1041.12458
334.808	1080.95625
335.326	1071.97774
335.844	1184.2165
336.361	1079.25476
336.879	1185.23847
337.396	1176.26618
337.913	1218.26361
338.43	1194.11511
338.947	1218.30265
339.464	1269.13011
339.981	1232.29986
340.497	1236.39567
341.014	1262.41842
341.53	1228.16438
342.046	1280.42839
342.562	1301.48084
343.078	1326.38383
343.594	1309.40993
344.11	1394.46215
344.626	1315.53769
345.141	1386.32203
345.657	1316.19333
346.172	1387.51987
346.687	1324.30781
347.202	1457.41209
347.717	1427.50059
348.232	1518.78305
348.747	1459.45239
349.261	1462.30639
349.776	1565.6304
350.29	1571.8028
350.805	1583.8157
351.319	1554.56056
351.833	1582.54865
352.347	1567.60689
352.861	1620.6556
353.374	1591.52254
353.888	1611.65161
354.401	1640.62086
354.915	1742.68747
355.428	1629.83154
355.941	1658.63355
356.454	1673.47622
356.967	1658.65586
357.48	1697.58317
357.993	1750.87855
358.505	1738.8805
359.018	1799.93492
359.53	1807.79629
360.042	1844.58767
360.554	1788.79442
361.066	1867.96693
361.578	1873.53329
362.09	1850.83492
362.602	1803.4919
363.113	1867.73315
363.625	1922.63038
364.136	1954.59016
364.647	1981.79866
365.158	1982.82182
365.669	1957.92772
366.18	1989.83286
366.691	1947.56798
367.201	1969.85743
367.712	2089.80741
368.222	2038.70794
368.733	2060.53773
369.243	2127.65125
369.753	2154.75891
370.263	2207.02553
370.773	2216.1837
371.282	2234.93581
371.792	2317.84007
372.301	2384.09471
372.811	2442.41823
373.32	2379.55545
373.829	2490.87493
374.338	2699.65014
374.847	2732.77435
375.356	2724.86693
375.865	2889.34972
376.373	2973.5602
376.882	2993.11919
377.39	3142.82743
377.898	3292.94467
378.407	3416.41806
378.915	3363.03275
379.423	3639.34569
379.93	3723.04541
380.438	3981.2961
380.946	4142.89335
381.453	4268.99224
381.96	4396.69214
382.468	4861.32802
382.975	5156.28397
383.482	5193.93163
383.989	5333.47927
384.495	5524.77345
385.002	5791.18281
385.509	6139.46329
386.015	6557.00307
386.521	6853.31868
387.028	7086.449
387.534	7150.39707
388.04	7473.82118
388.546	7644.97597
389.051	8085.726
389.557	8938.67263
390.063	9467.67304
390.568	9681.04034
391.073	10122.54336
391.578	10555.40931
392.084	10814.51126
392.589	11357.9401
393.093	12282.03262
393.598	13409.75748
394.103	14556.46056
394.607	15791.29098
395.112	16952.22862
395.616	17893.40896
396.12	19544.01756
396.624	21689.42775
397.128	23382.23045
397.632	25854.63451
398.136	28263.54905
398.639	30024.81224
399.143	33908.06375
399.646	37964.45197
400.15	41541.92956
400.653	46277.69204
401.156	52604.36222
401.659	55132.42318
402.162	53761.05199
402.664	47275.14456
403.167	32260.27245
403.67	3851.94142
404.172	0
404.674	0
405.176	0
405.678	0
406.18	0
406.682	0
407.184	0
407.686	12367.42319
408.187	34596.90747
408.688	44563.94194
409.19	48906.19284
409.691	51236.67962
410.192	52883.26968
410.693	53713.23343
411.194	54189.54801
411.694	54767.79104
412.195	55625.98899
412.696	55971.27715
413.196	55815.15953
413.696	55802.1488
414.196	55740.09561
414.696	56340.4775
415.196	57067.59327
415.696	51336.90071
416.196	40632.62807
416.695	32326.25263
417.195	29009.02842
417.694	27538.72464
418.194	26037.18975
418.693	24283.95511
419.192	23716.94093
419.691	23335.8197
420.19	22552.4671
420.688	22107.94479
421.187	20926.31313
421.685	19302.7518
422.184	17510.53141
422.682	15336.0512
423.18	13166.85674
423.678	11881.50661
424.176	11063.82022
424.674	10490.38899
425.172	9806.6962
425.669	9108.9869
426.167	8557.62325
426.664	7747.12603
427.161	7103.50181
427.659	6554.51746
428.156	6075.99447
428.652	5952.96606
429.149	5599.83958
429.646	5368.58355
430.143	5042.17165
430.639	4805.28803
431.135	4518.85469
431.632	4312.61635
432.128	3983.9092
432.624	3828.54462
433.12	3765.88543
433.616	3623.82082
434.111	3492.42751
434.607	3413.46863
435.103	3345.89965
435.598	3086.84443
436.093	3045.48423
436.588	2832.31982
437.083	2691.48728
437.578	2549.39888
438.073	2483.97342
438.568	2382.82172
439.062	2280.26646
439.557	2247.6217
440.051	2116.51908
440.546	2120.5564
441.04	2059.71432
441.534	1989.85206
442.028	1995.63983
442.522	1875.61639
443.015	1908.35969
443.509	1956.78921
444.002	1785.6539
444.496	1764.24256
444.989	1698.57487
445.482	1720.66233
445.975	1744.40047
446.468	1692.24618
446.961	1675.11614
447.454	1652.37222
447.947	1487.30812
448.439	1562.46421
448.931	1493.15096
449.424	1560.57474
449.916	1590.48315
450.408	1490.1724
450.9	1444.31546
451.392	1406.42846
451.884	1441.19861
452.375	1370.34106
452.867	1358.03618
453.358	1364.10518
453.849	1336.93338
454.341	1308.99669
454.832	1272.89796
455.323	1324.27889
455.814	1252.01686
456.304	1297.08221
456.795	1327.12831
457.285	1231.92103
457.776	1192.91099
458.266	1205.09014
458.756	1212.13606
459.247	1190.08192
459.737	1185.11263
460.226	1129.88074
460.716	1148.03016
461.206	1017.88062
461.695	1056.03442
462.185	1064.91939
462.674	1046.82743
463.163	1059.78878
463.653	1009.62595
464.142	1021.90492
464.63	996.88062
465.119	975.75981
465.608	991.79603
466.096	959.65439
466.585	945.72897
467.073	885.698
467.561	896.72781
468.05	895.66942
468.538	912.79569
469.026	827.60486
469.513	812.39085
470.001	927.74457
470.489	878.73351
470.976	779.47134
471.463	794.64291
471.951	765.5825
472.438	759.49932
472.925	778.55163
473.412	716.48268
473.899	705.37493
474.385	686.44833
474.872	703.39699
475.359	719.51576
475.845	697.24941
476.331	632.19995
476.817	618.30574
477.303	646.30414
477.789	652.36444
478.275	588.2878
478.761	667.40664
479.247	601.17234
479.732	558.24358
480.218	536.23529
480.703	565.24283
481.188	525.99833
481.673	489.0127
482.158	516.01555
482.643	520.18884
483.128	512.06965
483.612	510.07535
484.097	509.12556
484.581	430.90668
485.066	475.05681
485.55	437.88481
486.034	411.83103
486.518	370.80107
487.002	510.15332
487.486	490.09452
487.969	447.00138
488.453	379.88287
488.936	388.81885
489.42	427.87999
489.903	352.82176
490.386	376.58716
490.869	361.73529
491.352	332.7519
491.835	393.75821
492.318	349.7519
492.8	384.76344
493.283	310.74273
493.765	347.80644
494.247	346.75967
494.73	317.66065
495.212	275.62346
495.694	309.68971
496.175	282.64205
496.657	338.75271
497.139	284.48035
497.62	263.60449
498.102	310.7399
498.583	269.6471
499.064	245.52218
499.545	300.65397
500.026	245.53374
500.507	242.54453
500.988	276.65499
501.469	269.64685
501.949	236.55489
502.43	250.57679
502.91	238.48333
503.39	210.50586
503.87	264.5984
504.35	223.50496
504.83	197.42444
505.31	209.48998
505.79	230.53551
506.269	234.52588
506.749	207.46053
507.228	225.51239
507.707	174.37626
508.187	232.531
508.666	184.43533
509.145	146.33605
509.623	227.52112
510.102	222.51933
510.581	214.49217
511.059	251.60861
511.538	205.50751
512.016	269.62371
512.494	247.5838
512.972	178.40922
513.45	172.39384
513.928	214.50611
514.406	193.46077
514.884	210.52227
515.361	169.39047
515.839	242.53515
516.316	163.38572
516.793	198.48614
517.27	157.37052
517.747	214.53512
518.224	168.37818
518.701	115.255
519.178	137.33296
519.654	200.45942
520.131	122.29645
520.607	165.39634
521.083	184.41233
521.56	178.40791
522.036	127.27621
522.512	128.30636
522.987	187.43429
523.463	194.4501
523.939	107.25595
524.414	158.35873
524.89	172.40253
525.365	122.27092
525.84	123.2895
526.315	137.32545
526.79	133.29369
527.265	170.38331
527.74	135.32107
528.215	169.39853
528.689	109.23959
529.164	133.28815
529.638	156.39123
530.112	113.26441
530.587	135.29074
531.061	151.35982
531.534	158.37729
532.008	138.32903
532.482	96.21664
532.956	75.18874
533.429	147.34625
533.903	117.25425
534.376	146.32246
534.849	114.25862
535.322	184.42419
535.795	102.24441
536.268	137.3252
536.741	112.26304
537.213	116.26402
537.686	135.32231
538.158	145.32353
538.631	85.20154
539.103	156.34815
539.575	141.28876
540.047	117.25728
540.519	87.20413
540.991	131.31072
541.463	151.35636
541.934	133.29713
542.406	131.30412
542.877	59.13154
543.348	65.15132
543.82	144.34268
544.291	111.25177
544.762	166.38514
545.233	181.43741
545.703	147.32012
546.174	185.41858
546.645	186.43444
547.115	228.5319
547.585	166.36755
548.056	190.44169
548.526	240.54268
548.996	207.47693
549.466	247.57112
549.935	283.64081
550.405	225.47664
550.875	240.54379
551.344	264.59986
551.814	296.64607
552.283	325.65925
552.752	267.58562
553.221	348.71123
553.69	291.60566
554.159	356.81934
554.628	372.78302
555.096	312.74126
555.565	386.81535
556.033	335.73722
556.502	330.75436
556.97	284.59096
557.438	259.58098
557.906	307.68638
558.374	290.63271
558.842	266.6071
559.31	276.5917
559.777	297.68207
560.245	284.62303
560.712	271.59364
561.18	297.62668
561.647	264.55986
562.114	362.78777
562.581	307.70278
563.048	350.75713
563.514	330.76285
563.981	350.75259
564.448	336.70476
564.914	320.69224
565.381	361.76004
565.847	363.78608
566.313	420.91008
566.779	483.0007
567.245	392.83854
567.711	372.83287
568.176	376.77925
568.642	386.89191
569.108	379.86163
569.573	475.00252
570.038	427.82341
570.504	475.97099
570.969	421.9474
571.434	414.82654
571.899	487.04497
572.363	474.96785
572.828	494.99633
573.293	513.0606
573.757	502.02599
574.222	485.98244
574.686	515.03619
575.15	520.10847
575.614	561.13981
576.078	486.01344
576.542	476.96664
577.006	463.93488
577.469	429.93374
577.933	477.9658
578.396	433.92723
578.86	422.90036
579.323	496.06455
579.786	493.94386
580.249	435.89769
580.712	384.84876
581.175	424.94966
581.637	398.82521
582.1	348.688
582.563	404.78561
583.025	386.85496
583.487	388.7279
583.95	360.71973
584.412	378.71894
584.874	351.78635
585.336	348.76149
585.797	332.66283
586.259	362.7804
586.721	343.74627
587.182	321.68594
587.643	276.57738
588.105	289.62425
588.566	285.54931
589.027	301.66991
589.488	264.5562
589.949	338.74866
590.41	268.49556
590.87	211.4419
591.331	280.56031
591.791	325.68997
592.252	231.4917
592.712	245.53918
593.172	279.58146
593.632	282.55725
594.092	296.60386
594.552	223.4418
595.011	284.60412
595.471	301.61838
595.931	266.54562
596.39	334.73733
596.849	266.57272
597.308	240.47181
597.768	309.72862
598.227	251.55517
598.685	331.68523
599.144	332.71389
599.603	355.76219
600.062	330.64446
600.52	332.67853
600.978	375.80686
601.437	364.75101
601.895	365.68998
602.353	351.69702
602.811	407.81766
603.269	391.83333
603.727	409.8785
604.184	414.84189
604.642	404.8784
605.099	443.92692
605.557	520.10319
606.014	452.86389
606.471	521.14351
606.928	526.98442
607.385	585.23727
607.842	609.20655
608.299	634.25879
608.755	531.10573
609.212	624.19452
609.668	585.11622
610.125	599.226
610.581	599.18781
611.037	595.14688
611.493	610.22234
611.949	549.14024
612.405	673.16301
612.861	616.21958
613.316	670.36999
613.772	577.12438
614.227	591.17738
614.683	662.18745
615.138	637.27624
615.593	674.34083
616.048	675.30885
616.503	622.27745
616.958	645.36495
617.412	666.33597
617.867	704.32717
618.321	682.20522
618.776	611.15182
619.23	623.24642
619.684	643.24907
620.138	581.13595
620.592	573.19493
621.046	590.1762
621.5	578.22271
621.954	552.07481
622.407	568.09238
622.861	550.17507
623.314	546.07874
623.768	508.04297
624.221	514.8894
624.674	508.02701
625.127	483.99495
625.58	482.95382
626.033	470.90569
626.485	533.13353
626.938	402.85733
627.39	491.01776
627.843	470.96099
628.295	462.94591
628.747	436.93547
629.199	398.82005
629.651	401.83867
630.103	411.85768
630.555	410.80336
631.006	354.76152
631.458	400.86897
631.909	394.81619
632.361	370.79765
632.812	314.67926
633.263	339.67382
633.714	376.75172
634.165	362.79847
634.616	292.64624
635.067	277.56754
635.518	339.74634
635.968	322.60079
636.419	298.60434
636.869	260.57255
637.319	362.7968
637.769	267.56215
638.219	340.75372
638.669	234.52825
639.119	246.55806
639.569	251.57437
640.019	245.53125
640.468	281.59266
640.918	274.61197
641.367	232.50017
641.816	220.46228
642.265	217.47395
642.714	245.53533
643.163	215.46998
643.612	226.52184
644.061	251.50426
644.51	262.56799
644.958	292.61221
645.406	283.63899
645.855	280.65576
646.303	290.63994
646.751	267.5792
647.199	202.43792
647.647	217.47716
648.095	274.59603
648.543	304.59734
648.99	288.65465
649.438	275.60062
649.885	247.57429
650.333	260.48703
650.78	263.60666
651.227	275.63838
651.674	278.60807
652.121	288.6671
652.568	283.65695
653.015	314.74974
653.461	207.47369
653.908	271.59714
654.354	265.60469
654.801	270.61747
655.247	206.43248
655.693	244.6035
656.139	257.59943
656.585	270.62318
657.031	248.56671
657.477	298.62258
657.922	271.6044
658.368	299.70805
658.813	274.6097
659.259	228.52981
659.704	232.52502
660.149	259.5848
660.594	249.57162
661.039	224.4939
661.484	262.59918
661.929	213.48154
662.373	245.60119
662.818	245.58647
663.262	211.49544
663.707	234.57133
664.151	200.47135
664.595	253.59798
665.039	231.55422
665.483	251.6241
665.927	216.48941
666.371	217.50036
666.814	212.49497
667.258	196.45743
667.701	239.50165
668.145	228.55067
668.588	193.46447
669.031	183.42785
669.474	204.48078
669.917	182.39507
670.36	212.51338
670.803	200.47355
671.245	252.52788
671.688	207.48908
672.13	196.44193
672.573	233.57196
673.015	178.42065
673.457	247.53148
673.899	182.43293
674.341	158.37613
674.783	210.49646
675.225	174.42501
675.666	174.41788
676.108	182.38682
676.549	205.47364
676.991	190.41823
677.432	269.54591
677.873	205.46798
678.314	179.42211
678.755	200.48287
679.196	231.52861
679.637	235.56167
680.078	195.45179
680.518	240.54445
680.959	105.24896
681.399	144.35422
681.839	208.49838
682.28	184.45161
682.72	201.46126
683.16	201.4947
683.6	160.36135
684.039	136.28439
684.479	160.39023
684.919	173.40479
685.358	135.33826
685.798	178.46571
686.237	177.4229
686.676	127.28993
687.115	154.36097
687.554	163.38737
687.993	169.37365
688.432	158.3612
688.871	160.36519
689.309	171.40841
689.748	157.33172
690.186	182.43127
690.625	162.38165
691.063	153.36933
691.501	169.41671
691.939	181.45187
692.377	136.33479
692.815	142.34155
693.253	138.32966
693.69	147.32596
694.128	127.31189
694.565	148.35274
695.003	85.21643
695.44	176.41608
695.877	148.34894
696.314	168.36235
696.751	114.25967
697.188	74.17169
697.625	112.25574
698.061	132.3205
698.498	139.3363
698.934	127.30657
699.371	110.26207
699.807	131.3118
700.243	95.22941
700.679	144.32695
701.115	71.16672
701.551	107.25243
701.987	175.39354
702.422	113.27164
702.858	96.23222
703.294	77.17458
703.729	111.27169
704.164	63.15294
704.599	125.27995
705.035	66.15119
705.47	58.1422
705.904	103.24497
706.339	89.20849
706.774	103.24525
707.209	104.24511
707.643	88.21327
708.078	85.20782
708.512	62.15739
708.946	95.22794
709.38	114.27275
709.814	142.32985
710.248	114.28053
710.682	138.33092
711.116	118.28877
711.549	95.2481
711.983	65.15376
712.416	116.27573
712.85	136.33984
713.283	118.27929
713.716	70.1753
714.149	83.19839
714.582	132.30067
715.015	110.27408
715.448	113.28548
715.881	65.14191
716.313	-4.0095
716.746	87.20803
717.178	74.18089
717.61	62.15789
718.043	66.16564
718.475	50.12245
718.907	70.17606
719.339	96.22318
719.77	57.13781
720.202	92.23429
720.634	107.26365
721.065	111.26704
721.497	115.28419
721.928	69.17258
722.359	25.06253
722.79	65.15939
723.221	60.15167
723.652	87.22316
724.083	49.1143
724.514	76.17612
724.945	86.20489
725.375	119.2828
725.806	23.05744
726.236	67.17114
726.666	82.19798
727.096	107.26627
727.526	83.21313
727.956	76.17808
728.386	100.24907
728.816	118.30527
729.246	28.06961
729.675	21.05264
730.105	72.17972
730.534	71.16912
730.964	67.17018
731.393	114.28022
731.822	56.14277
732.251	62.15973
732.68	75.17694
733.109	60.15183
733.537	38.09393
733.966	55.13826
734.395	70.16459
734.823	68.15602
735.251	30.07383
735.68	87.21823
736.108	102.26013
736.536	84.20289
736.964	72.17009
737.392	71.17944
737.82	11.02656
738.247	113.27381
738.675	97.22972
739.102	97.24707
739.53	41.10565
739.957	36.09346
740.384	80.19701
740.811	52.1329
741.238	48.11838
741.665	77.18123
742.092	75.18077
742.519	64.16212
742.945	60.14607
743.372	65.16322
743.798	40.10434
744.225	104.25119
744.651	48.12203
745.077	84.21089
745.503	92.22781
745.929	48.11747
746.355	58.14141
746.781	77.19252
747.207	40.09603
747.632	35.0876
748.058	29.0729
748.483	68.16064
748.908	65.16334
749.334	91.22678
749.759	92.22162
750.184	34.08268
750.609	72.17698
751.033	23.05437
751.458	55.1248
751.883	78.19187
752.307	76.18336
752.732	116.29531
753.156	105.26214
753.58	73.17455
754.005	82.20809
754.429	76.18169
754.853	73.18436
755.277	37.08847
755.7	38.0954
756.124	68.17078
756.548	107.25781
756.971	34.08466
757.394	110.2828
757.818	51.13283
758.241	92.23479
758.664	101.25907
759.087	56.12885
759.51	86.2142
759.933	8.01958
760.356	51.13087
760.778	139.34778
761.201	107.2618
761.623	84.20541
762.046	71.16815
762.468	69.16656
762.89	77.18854
763.312	34.08364
763.734	76.18516
764.156	72.18012
764.578	72.16679
765	108.26645
765.421	108.28113
765.843	74.19461
766.264	68.16362
766.686	24.06073
767.107	73.18014
767.528	35.09056
767.949	51.12986
768.37	90.22384
768.791	77.18791
769.212	83.2129
769.632	8.01926
770.053	44.11712
770.473	57.1404
770.894	18.04518
771.314	40.0957
771.734	23.05521
772.154	63.16307
772.575	53.12401
772.994	25.05834
773.414	54.13077
773.834	-1.00251
774.254	84.20907
774.673	64.15668
775.093	10.02506
775.512	70.17606
775.931	69.17693
776.351	30.07567
776.77	56.14044
777.189	61.14731
777.607	20.05138
778.026	52.13013
778.445	8.02029
778.864	24.06168
779.282	41.10095
779.701	51.12981
780.119	-2.00517
780.537	26.06633
780.955	66.16838
781.373	-32.0808
781.791	21.04823
782.209	17.03936
782.627	32.08467
783.045	64.14937
783.462	5.01291
783.88	57.14937
784.297	41.10513
784.715	4.01049
785.132	1.00247
785.549	76.19259
785.966	16.04069
786.383	48.11938
786.8	42.09768
787.217	24.05782
787.633	5.01286
788.05	-24.05727
788.466	54.12851
788.883	9.02327
789.299	5.01224
789.715	56.13872
790.131	59.14853
790.547	-7.0176
790.963	52.13051
791.379	24.06121
791.795	-7.01619
792.21	32.07644
792.626	12.02881
793.041	-7.01766
793.457	30.07478
793.872	-22.05274
794.287	70.1722
794.702	30.07415
795.117	33.08403
795.532	19.04838
795.947	34.08246
796.362	32.07612
796.776	9.02106
797.191	44.10991
797.605	14.03396
798.02	5.01248
798.434	33.07439
798.848	31.07773
799.262	5.01272
799.676	-39.09663
800.09	-35.08703
800.504	12.02968
800.918	15.03562
801.331	10.02622
801.745	-26.06061
802.158	30.07608
802.572	16.03875
802.985	22.05386
803.398	35.08468
803.811	-9.02317
804.224	5.01255
804.637	-12.02925
805.05	32.07557
805.462	62.1546
805.875	25.06607
806.288	-6.01468
806.7	-22.05638
807.112	0
807.525	10.0249
807.937	2.00504
808.349	-4.01007
808.761	-9.02227
809.173	2.00494
809.584	18.04425
809.996	24.06008
810.408	5.01316
810.819	68.16331
811.231	93.24495
811.642	90.22188
812.053	95.23037
812.464	96.23038
812.875	75.19312
813.286	3.00778
813.697	10.02306
814.108	38.09279
814.519	21.04711
814.929	-31.07938
815.34	17.04161
815.75	-8.02065
816.16	1.00252
816.571	42.11012
816.981	-16.03794
817.391	21.05152
817.801	-13.03288
818.211	30.07172
818.62	-30.07451
819.03	43.10638
819.44	34.08869
819.849	29.07397
820.259	-3.00769
820.668	18.04495
821.077	34.08607
821.486	71.17243
821.895	-4.00992
822.304	-4.01068
822.713	11.02637
823.122	-12.03025
823.531	-2.00478
823.939	24.05919
824.348	32.07837
824.756	16.04042
825.164	19.0478
825.573	24.06099
825.981	22.05424
826.389	28.07101
826.797	32.0817
827.205	50.11725
827.612	-12.02989
828.02	9.02169
828.428	32.08167
828.835	-1.00265
829.243	-7.01688
829.65	9.02265
830.057	-14.03424
830.464	13.03193
830.871	-5.01202
831.278	-22.0541
831.685	14.03185
832.092	26.06443
832.499	-12.02694
832.905	5.01275
833.312	9.02082
833.718	7.01751
834.124	10.023
834.531	46.11615
834.937	22.05666
835.343	5.01224
835.749	42.09826
836.155	56.14727
836.561	-18.04467
836.966	10.02459
837.372	45.11543
837.777	-7.01767
838.183	62.13923
838.588	36.09032
838.993	-20.04887
839.399	60.14934
839.804	19.04716
840.209	20.05158
840.613	10.02269
841.018	27.06885
841.423	39.10028
841.828	-13.03324
842.232	8.01983
842.637	22.05248
843.041	-5.01301
843.445	33.08349
843.849	2.00502
844.253	-14.03367
844.657	10.02561
845.061	-3.0069
845.465	19.04695
845.869	11.02596
846.272	13.03232
846.676	-48.11594
847.079	-16.04159
847.483	25.06221
847.886	33.08038
848.289	-12.03247
848.692	-30.0767
849.095	5.01217
849.498	24.0603
849.901	33.07637
850.304	9.02157
850.707	23.05873
851.109	9.02267
851.512	26.06509
851.914	59.1524
852.316	-1.00256
852.718	29.07726
853.121	17.04247
853.523	78.18719
853.925	-7.0186
854.326	2.0051
854.728	13.03379
855.13	-29.07602
855.531	2.00492
855.933	32.07747
856.334	-4.0101
856.736	51.11788
857.137	17.04034
857.538	43.10984
857.939	23.05813
858.34	14.03445
858.741	12.03161
859.142	2.00484
859.542	8.02129
859.943	4.01017
860.343	-5.01273
860.744	23.05638
861.144	-16.03962
861.544	20.04953
861.945	10.02583
862.345	-11.02722
862.745	-57.14406
863.145	44.10443
863.544	59.14938
863.944	67.16039
864.344	-34.08518
864.743	0
865.143	28.07286
865.542	-18.04292
865.941	37.09164
866.34	8.0192
866.74	-13.03517
867.139	-7.01703
867.537	42.10734
867.936	24.0583
868.335	22.05615
868.734	-2.00518
869.132	27.06335
869.531	-76.18495
869.929	16.03759
870.327	33.08062
870.726	39.09663
871.124	1.00235
871.522	-6.01537
871.92	28.06974
872.318	13.03184
872.715	1.00246
873.113	-5.01238
873.511	-51.12724
873.908	-26.06675
874.306	-6.01524
874.703	-3.00757
875.1	-17.04355
875.497	10.02426
875.894	-1.00251
876.291	-27.06643
876.688	15.039
877.085	4.00967
877.482	23.05807
877.878	-6.01478
878.275	6.01536
878.671	-46.10266
879.068	33.07999
879.464	47.11483
879.86	14.03382
880.256	15.03714
880.652	41.10561
881.048	14.03487
881.444	-27.06483
881.84	9.02318
882.236	0
882.631	-4.0099
883.027	-22.05346
883.422	45.11624
883.817	12.03092
884.213	12.03115
884.608	28.07035
885.003	23.05674
885.398	-4.01018
885.793	18.04569
886.188	-22.05623
886.582	7.01806
886.977	16.03853
887.371	-29.07327
887.766	-6.01518
888.16	15.03783
888.554	-42.10389
888.949	-11.02776
889.343	10.02464
889.737	-3.00813
890.131	23.05825
890.525	16.04154
890.918	13.03312
891.312	23.0551
891.706	1.00264
892.099	5.01278
892.492	-15.03279
892.886	25.06251
893.279	20.05185
893.672	6.01548
894.065	29.07282
894.458	-20.05063
894.851	2.00488
895.244	11.02851
895.637	7.01701
896.029	18.0448
896.422	9.0222
896.814	53.13347
897.206	-19.04628
897.599	13.03209
897.991	44.10748
898.383	-24.0574
898.775	25.0571
899.167	30.07153
899.559	-6.0152
899.951	23.055
900.342	43.1098
900.734	-6.01528
901.125	57.15064
901.517	-21.05207
901.908	9.0216
902.299	31.07759
902.69	19.0454
903.082	-28.06789
903.473	38.09261
903.863	-27.06935
904.254	-16.03764
904.645	-4.00991
905.036	-16.03965
905.426	61.13988
905.817	39.09663
906.207	45.10904
906.597	18.04272
906.987	-3.00773
907.378	-17.04339
907.768	32.08501
908.158	-1.00247
908.547	34.08942
908.937	-22.0565
909.327	-2.0049
909.717	17.04298
910.106	58.14136
910.495	28.06977
910.885	-18.04631
911.274	6.01518
911.663	0
912.052	9.02221
912.441	54.13844
912.83	26.0609
913.219	-2.00524
913.608	-25.06126
913.997	3.00767
914.385	46.1109
914.774	21.05152
915.162	59.14237
915.55	-10.02428
915.939	-6.01536
916.327	-29.0723
916.715	19.04952
917.103	32.07881
917.491	25.06217
917.878	45.1117
918.266	-26.06787
918.654	32.08193
919.041	-49.13002
919.429	-22.05248
919.816	9.023
920.203	21.05136
920.591	4.00995
920.978	50.12232
921.365	10.02642
921.752	-5.01204
922.139	3.00659
922.525	51.12576
922.912	-21.05176
923.299	62.15633
923.685	-24.0631
924.072	25.05797
924.458	3.00753
924.844	20.05048
925.231	14.03314
925.617	-14.03664
926.003	-21.05422
926.389	-11.02796
926.774	12.03066
927.16	56.13923
927.546	6.0155
927.931	35.08824
928.317	36.08353
928.702	-6.01427
929.088	7.01706
929.473	13.03339
929.858	-6.01499
930.243	-7.01708
930.628	14.03479
931.013	42.10461
931.398	-1.00229
931.783	-26.06833
932.167	-33.08146
932.552	-42.10567
932.937	41.10158
933.321	3.00767
933.705	4.01016
934.09	-24.0601
934.474	63.14995
934.858	-38.09909
935.242	-14.03293
935.626	8.02072
936.009	1.00269
936.393	-9.02298
936.777	-5.01281
937.16	31.08124
937.544	30.07027
937.927	-4.01024
938.311	40.09753
938.694	9.02368
939.077	-8.01958
939.46	3.00735
939.843	-22.0467
940.226	11.02857
940.609	8.01888
940.991	11.02839
941.374	-36.0895
941.757	58.14383
942.139	-31.07094
942.522	3.0071
942.904	-4.00968
943.286	9.02293
943.668	-1.00263
944.05	16.04003
944.432	16.04027
944.814	37.09248
945.196	9.02258
945.578	0
945.959	-16.03818
946.341	1.00244
946.722	-55.13096
947.104	-8.01926
947.485	32.07603
947.866	-14.03601
948.247	9.02298
948.628	37.09056
949.009	-3.00779
949.39	8.01994
949.771	8.01883
950.152	2.00498
950.532	-57.14498
950.913	41.10054
951.293	37.10088
951.674	31.07534
952.054	-6.01504
952.434	24.05967
952.814	-37.0879
953.194	-23.05996
953.574	51.12441
953.954	26.06249
954.334	8.02009
954.714	-10.02484
955.093	-5.01223
955.473	-10.02533
955.853	-9.02334
956.232	-12.03283
956.611	-10.02404
956.99	-45.11357
957.37	9.02303
957.749	-30.07271
958.128	-39.09941
958.506	27.07056
958.885	-22.05626
959.264	9.02254
959.643	-11.02569
960.021	-6.01497
960.4	-28.06466
960.778	2.00491
961.156	24.06086
961.535	24.0563
961.913	29.06844
962.291	34.08836
962.669	-67.1706
963.047	11.02832
963.424	-12.03094
963.802	1.00248
964.18	60.15048
964.557	16.0374
964.935	8.01899
965.312	34.08948
965.69	-4.01011
966.067	5.01229
966.444	15.03708
966.821	10.02568
967.198	-33.08026
967.575	-4.00984
967.952	-19.04472
968.329	18.04408
968.705	25.0549
969.082	57.14769
969.458	-5.0122
969.835	-30.07328
970.211	-19.04955
970.587	24.05989
970.963	-6.0155
971.339	-14.03697
971.715	34.08521
972.091	5.01246
972.467	8.02003
972.843	-3.00761
973.219	4.0096
973.594	-13.03449
973.97	39.09304
974.345	8.01945
974.721	10.02436
975.096	-17.04195
975.471	-31.07316
975.846	42.10175
976.221	42.10828
976.596	5.0122
976.971	-6.01481
977.346	20.04675
977.72	-36.09197
978.095	-35.09097
978.469	-8.01924
978.844	-17.04278
979.218	18.04413
979.593	-23.05519
979.967	31.07633
980.341	25.05845
980.715	-30.07624
981.089	11.02788
981.463	1.00234
981.837	5.01242
982.21	-17.03906
982.584	-2.00492
982.957	-17.04313
983.331	14.0333
983.704	59.14597
984.078	-13.03235
984.451	-27.06677
984.824	31.07709
985.197	28.06834
985.57	35.08786
985.943	-14.03453
986.316	26.06389
986.688	58.13946
987.061	23.05462
987.434	-27.07083
987.806	-6.01458
988.179	40.09625
988.551	20.05104
988.923	-52.12905
989.295	92.22848
989.667	25.06149
990.039	-7.01758
990.411	1.00233
990.783	-33.07619
991.155	16.03948
991.527	-34.08324
991.898	-23.05803
992.27	-19.04807
992.641	12.0302
993.012	20.04745
993.384	69.16493
993.755	-10.0258
994.126	-30.07323
994.497	-31.07818
994.868	3.00695
995.239	22.05372
995.61	8.02047
995.98	5.01237
996.351	-2.00506
996.722	15.03548
997.092	-57.13817
997.462	-3.00724
997.833	-18.04282
998.203	49.11837
998.573	-13.03273
998.943	5.01195
999.313	7.01678
999.683	-11.02672
1000.053	23.05316
1000.423	21.051
1000.792	45.11776
1001.162	5.01244
1001.531	17.04224
1001.901	-18.04529
1002.27	54.12196
1002.639	12.03086
1003.009	-5.01208
1003.378	-18.04633
1003.747	31.07384
1004.116	11.0267
1004.485	-38.09161
1004.853	-13.03316
1005.222	12.03055
1005.591	3.0072
1005.959	55.12799
1006.328	8.0184
1006.696	-1.00243
1007.064	49.12406
1007.433	0
1007.801	-1.00244
1008.169	29.07402
1008.537	46.10122
1008.905	5.01186
1009.273	54.13338
1009.64	20.0486
1010.008	7.0169
1010.375	-22.05252
1010.743	52.12008
1011.11	5.01204
1011.478	-7.01738
1011.845	27.06367
1012.212	26.06004
1012.579	4.00989
1012.946	22.0528
1013.313	-27.06441
1013.68	29.06527
1014.047	43.10478
1014.414	7.01679
1014.78	12.02994
1015.147	-15.03643
1015.513	39.09447
1015.88	57.14462
1016.246	13.0322
1016.612	20.04624
1016.978	37.0914
1017.344	8.0199
1017.71	-9.02173
1018.076	2.00474
1018.442	11.02834
1018.808	-8.02027
1019.174	10.02542
1019.539	27.06156
1019.905	-13.03103
1020.27	61.15102
1020.636	14.0336
1021.001	44.10644
1021.366	-23.05573
1021.731	34.08753
1022.096	-42.10715
1022.461	5.01179
1022.826	11.02656
1023.191	8.02107
1023.556	54.12687
1023.92	35.08554
1024.285	-43.10619
1024.649	-2.00492
1025.014	-14.03481
1025.378	24.06099
1025.742	37.09224
1026.107	-11.0252
1026.471	14.03261
1026.835	-30.0748
1027.199	-12.0295
1027.562	31.07308
1027.926	8.01956
1028.29	39.10018
1028.654	13.03037
1029.017	-16.03952
1029.381	7.01723
1029.744	26.06698
1030.107	-2.00472
1030.471	5.01206
1030.834	-24.0554
1031.197	17.04068
1031.56	-21.05002
1031.923	0
1032.286	-4.00935
1032.648	40.09629
1033.011	57.13327
1033.374	0
1033.736	17.04532
1034.099	34.08395
1034.461	9.02327
1034.823	11.02767
1035.185	20.05075
1035.548	37.0906
1035.91	41.09931
1036.272	36.08277
1036.634	-5.01222
1036.995	-4.00943
1037.357	-48.11903
1037.719	-49.12051
1038.08	-40.09537
1038.442	-14.03367
1038.803	25.06078
1039.165	12.03033
1039.526	-17.04144
1039.887	12.02904
1040.248	17.04287
1040.609	29.07135
1040.97	54.13382
1041.331	-47.12018
1041.692	-12.02867
1042.053	-1.0023
1042.413	7.01638
1042.774	44.10676
1043.134	-21.05006
1043.495	-1.00253
1043.855	-44.10828
1044.215	10.02475
1044.576	-24.05895
1044.936	-34.07804
1045.296	20.04992
1045.656	7.01731
1046.016	23.05579
1046.375	24.05926
1046.735	26.06032
1047.095	30.07095
1047.454	-20.04267
1047.814	-14.03364
1048.173	-19.04535
1048.533	15.03481
1048.892	-16.03952
1049.251	-5.01259
1049.61	3.00748
1049.969	-13.03079
1050.328	-10.02204
1050.687	53.12944
1051.046	27.06582
1051.405	43.10708
1051.763	-6.01405
1052.122	20.05083
1052.48	-15.03697
1052.839	-6.01433
1053.197	-21.0497
1053.555	-18.04059
1053.914	57.13941
1054.272	0
1054.63	10.02493
1054.988	-26.06266
1055.345	25.05477
1055.703	-16.03854
1056.061	3.00777
1056.419	5.01304
1056.776	2.00485
1057.134	-4.00943
1057.491	17.04267
1057.848	17.04254
1058.206	41.09703
1058.563	50.11154
1058.92	12.02781
1059.277	-15.03704
1059.634	21.05002
1059.991	-13.03099
1060.348	47.10872
1060.704	-25.06078
1061.061	-40.09178
1061.418	8.01973
1061.774	-14.03507
1062.131	-15.04003
1062.487	-59.1407
1062.843	19.04766
1063.199	-3.00749
1063.555	-17.03997
1063.911	29.07384
1064.267	106.21792
1064.623	9.02218
1064.979	-27.06355
1065.335	-18.04267
1065.691	7.01668
1066.046	-15.03323
1066.402	-2.00465
1066.757	9.02262
1067.112	-35.08567
1067.468	2.00481
1067.823	20.04845
1068.178	-12.02921
1068.533	10.02424
1068.888	46.11043
1069.243	10.02487
1069.598	-41.10192
1069.952	-14.0326
1070.307	1.00252
1070.662	34.08191
1071.016	17.03903
1071.371	-17.03933
1071.725	13.03116
1072.079	-47.11393
1072.434	11.02703
1072.788	75.18064
1073.142	35.08592
1073.496	31.07582
1073.85	-32.07516
1074.203	-6.0145
1074.557	-3.00805
1074.911	29.06889
1075.265	11.02573
1075.618	33.08077
1075.971	21.05043
1076.325	8.02059
1076.678	51.11976
1077.031	47.1079
1077.385	13.0292
1077.738	47.10855
1078.091	6.01411
1078.444	30.07029
1078.796	-10.02481
1079.149	19.04723
1079.502	1.00242
1079.855	54.12722
1080.207	4.00986
1080.56	5.01312
1080.912	10.02458
1081.264	22.05338
1081.617	34.08435
1081.969	69.17538
1082.321	42.10374
1082.673	17.04001
1083.025	-27.06461
1083.377	-228.51744
1083.728	19.04465
1084.08	28.0707
1084.432	37.09036
1084.783	-36.08478
1085.135	-13.03305
1085.486	0
1085.838	3.00746
1086.189	14.03435
1086.54	9.02147
1086.891	-8.02065
1087.242	-30.07399
1087.593	-68.16641
1087.944	41.09462
1088.295	-6.01367
1088.646	30.07303
1088.996	24.05882
1089.347	-9.02232
1089.698	2.00487
1090.048	22.05703
1090.398	-2.00469
1090.749	0
1091.099	22.05593
1091.449	-11.02752
1091.799	40.10118
1092.149	33.08272
1092.499	-18.04398
1092.849	7.01792
1093.199	16.03982
1093.548	-20.0486
1093.898	22.05583
1094.248	-29.0748
1094.597	-11.02873
1094.947	-19.0511
1095.296	47.1167
1095.645	15.03897
1095.994	35.08516
1096.343	-33.08409
1096.692	59.15644
1097.041	-13.03573
1097.39	50.12499
1097.739	-43.1123
1098.088	41.10948
1098.437	-8.02129
1098.785	31.08403
1099.134	35.09271
1099.482	8.02199
1099.83	-20.05242
1100.179	-19.05021
1100.527	65.17293
1100.875	0
1101.223	-22.0586
1101.571	25.06955
1101.919	-34.09092
1102.267	0
1102.615	1.00322
1102.962	-5.0161
1103.31	12.0386
1103.658	-7.02255
