Data from N2 R1 sample 8_Subt2__1__13-30-46-459.txt Node

Date: Wed Aug 27 13:30:46 PDT 2025
User: uwsun
Spectrometer: HDX01956
Trigger mode: 0
Integration Time (sec): 5.000000E-1
Scans to average: 1
Nonlinearity correction enabled: true
Boxcar width: 0
Storing dark spectrum: false
XAxis mode: Wavelengths
Number of Pixels in Spectrum: 2068
>>>>>Begin Spectral Data<<<<<
194.03	77.2222
194.578	80.25866
195.127	66.21095
195.676	87.2781
196.225	68.18489
196.773	61.17245
197.321	104.2919
197.87	131.34386
198.418	150.3966
198.966	144.38481
199.513	175.45013
200.061	173.45163
200.609	128.34398
201.156	144.32933
201.704	211.54498
202.251	141.38034
202.798	216.57337
203.345	169.42756
203.892	148.38088
204.438	194.47421
204.985	159.38946
205.532	167.44649
206.078	181.45628
206.624	209.52705
207.17	188.44823
207.716	210.52644
208.262	145.29897
208.808	161.40993
209.354	162.40817
209.899	219.5568
210.445	181.45955
210.99	167.41405
211.535	194.46697
212.08	221.52761
212.625	158.40336
213.17	170.43368
213.715	164.3817
214.259	166.39548
214.804	207.51958
215.348	133.31547
215.892	112.27724
216.436	140.33277
216.98	184.41895
217.524	100.2449
218.068	132.33663
218.612	161.41455
219.155	140.33904
219.698	137.33333
220.242	120.30365
220.785	150.35915
221.328	132.33699
221.871	119.3031
222.414	170.43108
222.956	151.37302
223.499	142.33024
224.041	204.48768
224.583	143.31551
225.126	181.41236
225.668	187.46482
226.21	131.33614
226.751	155.35328
227.293	168.39194
227.835	134.33363
228.376	174.41247
228.918	177.45098
229.459	165.42085
230	116.28134
230.541	119.28531
231.082	179.44364
231.622	176.42059
232.163	139.34665
232.704	164.41602
233.244	116.29092
233.784	125.31072
234.324	142.32384
234.864	122.28597
235.404	140.33763
235.944	141.34036
236.484	128.32263
237.023	205.49335
237.563	163.38647
238.102	103.24676
238.641	180.45741
239.18	127.30738
239.719	209.52969
240.258	137.31654
240.797	182.4467
241.335	130.32426
241.874	127.25832
242.412	128.31452
242.95	131.3248
243.488	170.40128
244.026	127.30089
244.564	156.32982
245.102	200.46383
245.64	160.39343
246.177	126.29037
246.715	155.37628
247.252	147.34396
247.789	118.22759
248.326	173.42814
248.863	154.34908
249.4	83.19345
249.936	166.35804
250.473	161.38467
251.009	165.39076
251.546	155.35713
252.082	152.33922
252.618	183.4213
253.154	177.43226
253.69	194.44814
254.226	113.27288
254.761	194.44582
255.297	183.41574
255.832	104.25186
256.367	187.45157
256.903	115.26338
257.438	142.33766
257.972	189.43563
258.507	185.43897
259.042	105.23399
259.576	137.30771
260.111	148.34962
260.645	142.31468
261.179	144.34268
261.713	163.37346
262.247	120.28546
262.781	139.30012
263.315	171.42257
263.849	176.44646
264.382	168.39147
264.915	220.52794
265.449	179.44753
265.982	221.50735
266.515	198.48794
267.048	98.21409
267.58	169.37459
268.113	168.37555
268.646	178.44671
269.178	180.41811
269.71	113.25172
270.243	160.37298
270.775	184.47369
271.307	194.46856
271.838	185.441
272.37	168.41782
272.902	181.42052
273.433	187.41897
273.965	163.40236
274.496	164.40966
275.027	217.5437
275.558	167.41239
276.089	182.45856
276.62	139.35754
277.15	197.48985
277.681	187.41569
278.211	167.41571
278.741	158.36106
279.272	174.40721
279.802	173.43877
280.332	173.41902
280.861	170.41617
281.391	176.40915
281.921	135.32822
282.45	177.44907
282.98	202.52742
283.509	212.48659
284.038	174.4045
284.567	149.35164
285.096	227.54898
285.625	155.35713
286.153	209.49686
286.682	228.53336
287.21	175.42705
287.739	221.52721
288.267	207.50702
288.795	234.61283
289.323	136.32674
289.851	181.42683
290.378	199.46069
290.906	208.51541
291.433	201.50307
291.961	237.54822
292.488	160.39923
293.015	212.50409
293.542	208.53173
294.069	222.55271
294.596	185.46002
295.122	216.51972
295.649	178.39856
296.175	247.60251
296.702	201.48995
297.228	214.52056
297.754	161.37036
298.28	218.50437
298.806	158.38248
299.332	235.53343
299.857	206.47131
300.383	229.57334
300.908	230.56929
301.433	199.48616
301.958	281.65617
302.483	238.59899
303.008	176.43197
303.533	258.66854
304.058	197.46437
304.582	268.64115
305.107	223.58174
305.631	212.48679
306.155	214.50767
306.679	271.63705
307.203	253.58964
307.727	306.72672
308.251	188.46194
308.775	249.59286
309.298	218.53088
309.822	256.63966
310.345	280.65627
310.868	217.51985
311.391	245.59406
311.914	263.66059
312.437	301.67296
312.96	213.50501
313.482	236.56072
314.005	258.64931
314.527	295.75818
315.049	298.73757
315.571	287.63955
316.093	312.75634
316.615	280.66524
317.137	251.54728
317.659	302.71087
318.18	279.66096
318.702	334.77301
319.223	294.60496
319.744	297.66539
320.265	298.71209
320.786	342.83091
321.307	350.85162
321.828	313.69344
322.348	315.72167
322.869	305.7164
323.389	441.73123
323.909	354.79748
324.43	317.73818
324.95	316.71451
325.47	364.87141
325.989	331.76075
326.509	403.87232
327.029	357.7909
327.548	325.71822
328.067	377.8865
328.587	313.74721
329.106	438.97172
329.625	366.91475
330.144	348.77498
330.662	354.80171
331.181	322.72926
331.7	400.89186
332.218	346.73086
332.736	382.84927
333.255	376.84772
333.773	341.77463
334.291	374.87962
334.808	401.85241
335.326	373.80946
335.844	435.96567
336.361	439.04609
336.879	483.06797
337.396	472.06205
337.913	503.09977
338.43	465.98069
338.947	469.04775
339.464	466.95454
339.981	434.97085
340.497	474.08439
341.014	492.11661
341.53	460.97419
342.046	500.12746
342.562	484.1042
343.078	499.08595
343.594	521.14734
344.11	500.08744
344.626	496.14344
345.141	449.9457
345.657	508.03358
346.172	535.18068
346.687	542.13844
347.202	576.18444
347.717	564.21075
348.232	576.30437
348.747	541.13559
349.261	560.11215
349.776	550.17862
350.29	586.30929
350.805	611.35819
351.319	595.23978
351.833	595.22494
352.347	547.16385
352.861	619.29615
353.374	576.17805
353.888	521.11566
354.401	627.28976
354.915	679.37306
355.428	640.40124
355.941	614.26554
356.454	603.18238
356.967	598.24521
357.48	620.2447
357.993	617.33236
358.505	657.41157
359.018	691.47451
359.53	670.38051
360.042	678.30372
360.554	716.4655
361.066	695.4728
361.578	714.33223
362.09	704.44221
362.602	708.32297
363.113	743.4615
363.625	719.36777
364.136	711.33285
364.647	696.38209
365.158	731.44866
365.669	763.55019
366.18	767.51019
366.691	758.39703
367.201	764.52014
367.712	805.53834
368.222	778.46622
368.733	818.44992
369.243	832.5069
369.753	822.53263
370.263	854.68213
370.773	881.78939
371.282	863.65414
371.792	905.66396
372.301	926.79342
372.811	911.89318
373.32	938.57989
373.829	1000.79265
374.338	1038.73473
374.847	1044.79624
375.356	1017.8013
375.865	1110.68962
376.373	1119.79997
376.882	1168.10624
377.39	1145.95967
377.898	1289.19197
378.407	1328.00031
378.915	1319.79562
379.423	1382.05644
379.93	1380.9278
380.438	1493.2054
380.946	1549.08506
381.453	1691.26921
381.96	1821.20785
382.468	1942.19323
382.975	1949.26814
383.482	2043.06942
383.989	1984.46668
384.495	2147.07508
385.002	2309.63522
385.509	2341.94153
386.015	2523.26141
386.521	2616.5267
387.028	2738.45296
387.534	2840.1306
388.04	2840.47874
388.546	3120.07113
389.051	3302.7595
389.557	3543.79824
390.063	3559.48673
390.568	3897.6637
391.073	3989.13847
391.578	4071.21866
392.084	4244.81819
392.589	4489.38473
393.093	4906.39113
393.598	5285.07147
394.103	5768.12034
394.607	6274.43516
395.112	6679.87792
395.616	7067.64214
396.12	7738.98627
396.624	8450.10739
397.128	9321.14453
397.632	9915.00964
398.136	11048.38022
398.639	12129.35077
399.143	13833.7295
399.646	15345.10729
400.15	16911.80017
400.653	19123.44093
401.156	21509.13284
401.659	24904.45349
402.162	32232.13067
402.664	44590.10069
403.167	32227.45343
403.67	3851.94142
404.172	0
404.674	0
405.176	0
405.678	0
406.18	0
406.682	0
407.184	0
407.686	12367.42319
408.187	34596.90747
408.688	44563.94194
409.19	47703.21602
409.691	40221.66684
410.192	34645.87881
410.693	31190.37456
411.194	29965.03597
411.694	28230.13753
412.195	25796.7279
412.696	24373.32367
413.196	23783.09496
413.696	24190.06327
414.196	23709.04074
414.696	22834.54673
415.196	20885.77628
415.696	16969.99628
416.196	13288.92842
416.695	11483.01596
417.195	10679.59246
417.694	10061.35794
418.194	9392.40106
418.693	8934.23362
419.192	8870.23527
419.691	8439.82382
420.19	8266.60393
420.688	7932.02246
421.187	7547.23932
421.685	6882.61156
422.184	6014.226
422.682	5373.97599
423.18	4655.40822
423.678	4227.78945
424.176	4008.99877
424.674	3831.19946
425.172	3403.78991
425.669	3207.23631
426.167	2883.25827
426.664	2646.36556
427.161	2461.60334
427.659	2340.97457
428.156	2169.46861
428.652	2076.31044
429.149	2051.12697
429.646	1932.84995
430.143	1789.09465
430.639	1767.07872
431.135	1585.19978
431.632	1544.98641
432.128	1353.90348
432.624	1391.19912
433.12	1404.87747
433.616	1276.71451
434.111	1359.04682
434.607	1260.95919
435.103	1161.5981
435.598	1082.4612
436.093	1048.69335
436.588	968.51879
437.083	954.56431
437.578	832.37653
438.073	863.63903
438.568	796.48993
439.062	825.3232
439.557	735.33865
440.051	790.39437
440.546	707.28755
441.04	689.32523
441.534	645.31255
442.028	675.28704
442.522	686.3204
443.015	697.23083
443.509	673.34537
444.002	642.28419
444.496	589.05326
444.989	576.16474
445.482	560.16028
445.975	545.04126
446.468	603.09112
446.961	524.9289
447.454	577.10625
447.947	528.04848
448.439	537.09642
448.931	487.9229
449.424	474.01637
449.916	488.00544
450.408	428.8299
450.9	452.93005
451.392	433.94204
451.884	442.87548
452.375	414.88981
452.867	360.70338
453.358	408.80776
453.849	421.78339
454.341	377.73537
454.832	409.77052
455.323	424.90581
455.814	370.7459
456.304	392.79207
456.795	403.81709
457.285	409.79173
457.776	374.73975
458.266	444.92634
458.756	385.82588
459.247	356.76022
459.737	328.715
460.226	371.7474
460.716	341.73056
461.206	333.72143
461.695	358.80615
462.185	343.73326
462.674	322.67033
463.163	346.69816
463.653	345.66112
464.142	323.70724
464.63	280.62176
465.119	315.66495
465.608	349.73639
466.096	302.61274
466.585	299.63671
467.073	264.58282
467.561	252.56145
468.05	269.58005
468.538	286.64642
469.026	245.5419
469.513	232.45974
470.001	321.69455
470.489	292.65621
470.976	195.4214
471.463	251.5829
471.951	195.45519
472.438	223.49633
472.925	241.54106
473.412	219.50437
473.899	251.54287
474.385	259.59862
474.872	207.45938
475.359	231.53964
475.845	178.36214
476.331	220.46024
476.817	224.51475
477.303	188.41991
477.789	180.41646
478.275	159.38019
478.761	223.51666
479.247	168.36188
479.732	166.40048
480.218	165.40894
480.703	214.50611
481.188	88.18516
481.673	89.20113
482.158	198.41954
482.643	142.34982
483.128	188.42164
483.612	159.36166
484.097	180.42603
484.581	129.28998
485.066	135.32206
485.55	137.29644
486.034	115.24831
486.518	82.18844
487.002	151.36698
487.486	122.29367
487.969	95.22863
488.453	85.20944
488.936	114.25505
489.42	82.1821
489.903	80.19672
490.386	123.20627
490.869	117.25154
491.352	51.12209
491.835	47.09822
492.318	106.24028
492.8	107.22647
493.283	89.2222
493.765	96.23415
494.247	102.23544
494.73	50.11039
495.212	29.06903
495.694	81.18931
496.175	49.11681
496.657	45.10629
497.139	51.09173
497.62	63.15059
498.102	105.26043
498.583	66.16487
499.064	-18.04055
499.545	65.14875
500.026	47.10669
500.507	45.10534
500.988	61.15075
501.469	43.10782
501.949	32.07822
502.43	18.04344
502.91	54.11427
503.39	16.03995
503.87	33.07831
504.35	39.09161
504.83	15.03358
505.31	17.04135
505.79	45.10859
506.269	2.00471
506.749	2.00464
507.228	17.04034
507.707	34.07572
508.187	8.01913
508.666	-13.03193
509.145	-43.1027
509.623	51.1212
510.102	-30.07363
510.581	7.01676
511.059	42.10583
511.538	-4.01028
512.016	72.17345
512.494	53.12997
512.972	-63.15179
513.45	15.03543
513.928	46.11232
514.406	40.09829
514.884	6.01547
515.361	-44.10595
515.839	-17.03962
516.316	16.03894
516.793	-10.02549
517.27	-18.04392
517.747	3.00779
518.224	-29.06791
518.701	-25.05705
519.178	-40.10043
519.654	-35.08417
520.131	-35.08754
520.607	-21.05222
521.083	15.03478
521.56	-65.1562
522.036	-41.09235
522.512	-13.03195
522.987	-20.04834
523.463	-38.0922
523.939	-30.07363
524.414	13.03038
524.89	12.02896
525.365	-57.13128
525.84	-30.07271
526.315	-15.03667
526.79	-37.0846
527.265	-28.06568
527.74	-42.10328
528.215	36.08708
528.689	-47.10669
529.164	-55.12394
529.638	8.0206
530.112	-18.0432
530.587	-2.00443
531.061	-19.04675
531.534	26.06365
532.008	4.00978
532.482	-32.0741
532.956	-43.11049
533.429	-30.07309
533.903	-36.08078
534.376	25.05661
534.849	-49.11483
535.322	-39.0939
535.795	-55.13572
536.268	20.04854
536.741	-49.11869
537.213	20.0464
537.686	-22.0541
538.158	-7.01611
538.631	-44.10692
539.103	-21.04858
539.575	5.01056
540.047	36.08051
540.519	-13.0311
540.991	-9.02192
541.463	-30.07328
541.934	15.03433
542.406	-42.10083
542.877	-40.091
543.348	-40.09504
543.82	12.02928
544.291	0
544.762	22.0525
545.233	-3.0075
545.703	-18.04057
546.174	-10.02352
546.645	17.04102
547.115	51.12311
547.585	-1.00229
548.056	43.10286
548.526	47.11045
548.996	69.16335
549.466	53.12726
549.935	85.20022
550.405	94.20483
550.875	48.113
551.344	60.14196
551.814	131.29592
552.283	142.30009
552.752	121.27356
553.221	121.26003
553.69	142.30535
554.159	187.44491
554.628	190.41595
555.096	197.47841
555.565	237.51698
556.033	190.43086
556.502	202.47366
556.97	196.41584
557.438	251.56397
557.906	305.68219
558.374	255.56048
558.842	288.65439
559.31	332.70314
559.777	311.71222
560.245	309.6743
560.712	352.75787
561.18	445.90843
561.647	399.82119
562.114	484.02401
562.581	481.06044
563.048	543.12424
563.514	554.2214
563.981	605.22768
564.448	599.18172
564.914	647.29989
565.381	641.26472
565.847	712.42509
566.313	836.64895
566.779	829.58658
567.245	806.56813
567.711	882.765
568.176	917.67005
568.642	994.01434
569.108	1006.99397
569.573	976.83651
570.038	1086.76587
570.504	1139.97951
570.969	1130.17007
571.434	1162.92063
571.899	1288.29174
572.363	1321.18315
572.828	1350.1929
573.293	1395.32393
573.757	1370.25907
574.222	1460.30715
574.686	1386.24053
575.15	1518.54606
575.614	1509.41716
576.078	1538.47301
576.542	1490.33622
577.006	1524.34085
577.469	1535.56159
577.933	1533.36648
578.396	1524.50113
578.86	1494.45287
579.323	1510.54347
579.786	1405.10796
580.249	1503.36827
580.712	1380.41595
581.175	1424.53223
581.637	1325.1826
582.1	1286.99178
582.563	1311.00683
583.025	1292.32011
583.487	1311.91149
583.95	1233.97206
584.412	1199.83189
584.874	1175.18292
585.336	1179.12561
585.797	1109.81804
586.259	1063.94635
586.721	1028.90997
587.182	976.78895
587.643	922.6525
588.105	906.69706
588.566	859.42801
589.027	875.71347
589.488	806.49458
589.949	798.59598
590.41	796.27835
590.87	732.35508
591.331	748.33382
591.791	751.44469
592.252	661.27372
592.712	644.29653
593.172	661.25908
593.632	570.04888
594.092	620.17025
594.552	550.0049
595.011	541.0846
595.471	547.05975
595.931	514.99525
596.39	585.22161
596.849	509.0368
597.308	433.81254
597.768	527.18771
598.227	423.90191
598.685	441.89046
599.144	447.93735
599.603	513.06203
600.062	398.76472
600.52	455.90397
600.978	441.93539
601.437	462.93222
601.895	438.81321
602.353	447.86778
602.811	465.92168
603.269	435.91823
603.727	439.93683
604.184	489.97741
604.642	409.88833
605.099	468.9738
605.557	416.9041
606.014	459.87578
606.471	463.02836
606.928	454.86477
607.385	454.98919
607.842	469.9609
608.299	500.02328
608.755	447.94976
609.212	500.98712
609.668	439.86852
610.125	470.99145
610.581	502.01764
611.037	455.90776
611.493	500.02698
611.949	462.97971
612.405	531.95331
612.861	485.99098
613.316	516.09136
613.772	452.90827
614.227	446.91977
614.683	487.91389
615.138	447.93611
615.593	524.0783
616.048	480.97521
616.503	408.87955
616.958	463.01813
617.412	417.88565
617.867	467.93257
618.321	545.99858
618.776	457.89524
619.23	394.83115
619.684	499.00209
620.138	417.84818
620.592	403.87343
621.046	361.75904
621.5	416.91256
621.954	368.74903
622.407	364.73549
622.861	407.89789
623.314	325.67642
623.768	386.81571
624.221	321.58393
624.674	322.67987
625.127	279.6011
625.58	307.63242
626.033	286.5755
626.485	302.67562
626.938	296.6458
627.39	294.63736
627.843	298.63307
628.295	254.54454
628.747	258.57481
629.199	281.59422
629.651	288.61742
630.103	243.52602
630.555	261.52943
631.006	241.53105
631.458	264.59013
631.909	219.47143
632.361	207.46186
632.812	193.42831
633.263	236.48036
633.714	216.44787
634.165	190.43418
634.616	166.37705
635.067	137.28959
635.518	161.36769
635.968	190.36611
636.419	195.40478
636.869	115.26095
637.319	208.47263
637.769	125.2714
638.219	138.31878
638.669	86.20001
639.119	140.32443
639.569	119.27954
640.019	112.24975
640.468	163.3527
640.918	73.16981
641.367	129.28426
641.816	81.17542
642.265	80.1798
642.714	105.23622
643.163	94.21074
643.612	110.25986
644.061	24.05074
644.51	90.20227
644.958	103.22497
645.406	84.19736
645.855	107.25907
646.303	106.24291
646.751	88.19818
647.199	95.21066
647.647	47.10704
648.095	107.24102
648.543	141.28772
648.99	89.21045
649.438	13.02997
649.885	61.14703
650.333	115.22314
650.78	91.2171
651.227	95.22837
651.674	103.23362
652.121	86.20717
652.568	114.27347
653.015	111.27531
653.461	47.11101
653.908	105.23942
654.354	109.25655
654.801	120.28271
655.247	51.11073
655.693	79.20129
656.139	144.34333
656.585	104.24797
657.031	112.26294
657.477	110.23939
657.922	118.2715
658.368	145.35359
658.813	118.27107
659.259	94.22421
659.704	47.11036
660.149	81.18953
660.594	112.26417
661.039	74.16829
661.484	147.34396
661.929	124.28542
662.373	83.20977
662.818	53.13151
663.262	72.17364
663.707	81.2034
664.151	74.17867
664.595	156.37565
665.039	126.30834
665.483	133.3378
665.927	102.23647
666.371	114.26826
666.814	103.24563
667.258	64.15324
667.701	121.26059
668.145	116.28609
668.588	76.18695
669.031	76.18142
669.474	55.13337
669.917	62.13803
670.36	106.26181
670.803	110.26498
671.245	137.29428
671.688	110.26478
672.13	102.23441
672.573	107.26878
673.015	87.20922
673.457	125.27602
673.899	127.3053
674.341	113.27133
674.783	103.24854
675.225	123.30329
675.666	95.23158
676.108	73.15884
676.549	78.18476
676.991	117.26149
677.432	161.3348
677.873	86.20103
678.314	99.23709
678.755	133.32517
679.196	168.38931
679.637	124.30266
680.078	120.28216
680.518	136.31504
680.959	84.19997
681.399	98.24312
681.839	149.36103
682.28	118.29316
682.72	132.30711
683.16	125.31196
683.6	118.26878
684.039	105.22107
684.479	96.23694
684.919	128.30214
685.358	97.24471
685.798	171.44793
686.237	140.33687
686.676	125.28548
687.115	135.31761
687.554	133.3179
687.993	141.31357
688.432	93.21539
688.871	104.24005
689.309	165.39453
689.748	151.31946
690.186	136.32513
690.625	155.36566
691.063	178.42764
691.501	165.40715
691.939	173.43253
692.377	167.40875
692.815	139.33452
693.253	143.34128
693.69	135.3001
694.128	127.31189
694.565	142.33883
695.003	136.34316
695.44	183.43204
695.877	137.3237
696.314	184.3955
696.751	111.25299
697.188	101.23308
697.625	127.28911
698.061	176.4238
698.498	153.36919
698.934	170.40703
699.371	95.22699
699.807	139.33033
700.243	112.2696
700.679	136.30928
701.115	122.28362
701.551	140.32816
701.987	160.36091
702.422	113.27164
702.858	156.37308
703.294	162.36094
703.729	104.25489
704.164	125.29992
704.599	138.30823
705.035	80.18274
705.47	68.16641
705.904	150.35352
706.339	158.36513
706.774	149.35164
707.209	118.27735
707.643	170.40563
708.078	105.25576
708.512	112.28179
708.946	109.26083
709.38	149.3541
709.814	146.33887
710.248	127.31177
710.682	89.21541
711.116	128.31266
711.549	132.34254
711.983	64.15142
712.416	165.38849
712.85	129.32276
713.283	120.28392
713.716	137.33893
714.149	76.1819
714.582	130.29624
715.015	134.33242
715.448	107.27061
715.881	67.14622
716.313	39.09186
716.746	85.20333
717.178	71.17366
717.61	85.21559
718.043	79.1978
718.475	79.19243
718.907	90.22555
719.339	82.19116
719.77	76.18308
720.202	88.22427
720.634	70.17366
721.065	119.28585
721.497	149.36591
721.928	85.21198
722.359	72.17855
722.79	72.17633
723.221	81.20398
723.652	98.25089
724.083	115.26476
724.514	45.10492
724.945	67.16021
725.375	59.14183
725.806	29.07235
726.236	46.11793
726.666	89.2146
727.096	90.22466
727.526	68.17507
727.956	77.18038
728.386	65.16293
728.816	117.30273
729.246	35.08691
729.675	69.17146
730.105	88.21903
730.534	79.18789
730.964	33.08432
731.393	76.18813
731.822	24.06153
732.251	30.07772
732.68	50.11853
733.109	75.18928
733.537	57.1404
733.966	62.15566
734.395	58.1367
734.823	33.07625
735.251	46.11286
735.68	49.12375
736.108	83.21238
736.536	98.23608
736.964	35.08328
737.392	5.01279
737.82	36.08653
738.247	74.18062
738.675	42.10053
739.102	42.10802
739.53	5.01296
739.957	43.11149
740.384	50.12381
740.811	24.06164
741.238	-5.01245
741.665	-25.06001
742.092	31.07534
742.519	56.14206
742.945	9.02212
743.372	30.07581
743.798	22.05756
744.225	50.122
744.651	30.07651
745.077	39.09871
745.503	78.19364
745.929	37.09073
746.355	-29.07185
746.781	34.08567
747.207	-27.06565
747.632	-8.02018
748.058	13.03277
748.483	56.1326
748.908	38.09595
749.334	31.0781
749.759	24.05856
750.184	-1.00245
750.609	11.02734
751.033	14.03315
751.458	20.0457
751.883	15.03733
752.307	38.09234
752.732	25.06467
753.156	24.0608
753.58	40.09625
754.005	7.018
754.429	27.06515
754.853	50.12679
755.277	-18.04349
755.7	35.08792
756.124	2.00508
756.548	-2.00492
756.971	27.06731
757.394	13.03399
757.818	5.01312
758.241	34.08766
758.664	68.17543
759.087	1.00233
759.51	0
759.933	-18.04426
760.356	-32.0833
760.778	104.26186
761.201	39.09663
761.623	70.17162
762.046	22.0526
762.468	23.056
762.89	-7.01741
763.312	19.04687
763.734	-29.07204
764.156	15.03791
764.578	-41.0971
765	0
765.421	11.02911
765.843	24.06365
766.264	9.0219
766.686	-37.09464
767.107	16.0399
767.528	7.0182
767.949	-37.09567
768.37	21.05288
768.791	48.11777
769.212	50.12899
769.632	-21.05085
770.053	12.03211
770.473	-15.03744
770.894	-55.13985
771.314	-8.01932
771.734	12.02886
772.154	-1.00262
772.575	-14.03319
772.994	-10.0235
773.414	-20.04911
773.834	-55.13965
774.254	32.0804
774.673	-20.04972
775.093	-20.05039
775.512	44.11118
775.931	82.20979
776.351	-34.08674
776.77	27.06807
777.189	-16.0392
777.607	-26.06733
778.026	1.00253
778.445	-35.08943
778.864	-27.07001
779.282	11.02723
779.701	7.01796
780.119	14.03609
780.537	5.0128
780.955	-1.00258
781.373	-11.02767
781.791	-36.08363
782.209	-13.03028
782.627	-46.1233
783.045	21.04943
783.462	-49.12766
783.88	22.05799
784.297	30.07707
784.715	-7.01839
785.132	-9.02223
785.549	3.0077
785.966	-4.01021
786.383	22.05498
786.8	-38.08977
787.217	19.04581
787.633	27.06919
788.05	-30.07167
788.466	21.05029
788.883	-14.03634
789.299	-30.07393
789.715	46.11416
790.131	33.08346
790.547	-43.10883
790.963	10.02529
791.379	-14.03594
791.795	-16.03706
792.21	38.09067
792.626	-18.04346
793.041	15.03769
793.457	-20.0503
793.872	-21.05033
794.287	23.05707
794.702	-40.10014
795.117	62.15706
795.532	-20.05128
795.947	47.11371
796.362	-8.01918
796.776	-9.02113
797.191	31.07762
797.605	-46.11282
798.02	9.02245
798.434	10.02265
798.848	65.16199
799.262	-8.0204
799.676	-1.00246
800.09	-76.1904
800.504	26.06415
800.918	16.03799
801.331	-23.06064
801.745	-66.15507
802.158	15.03814
802.572	-36.08803
802.985	40.0976
803.398	22.05336
803.811	-10.02575
804.224	4.01004
804.637	-24.05862
805.05	28.06617
805.462	31.07773
805.875	-20.05325
806.288	-35.08611
806.7	-30.07699
807.112	4.00947
807.525	-8.01998
807.937	-14.03541
808.349	0
808.761	-44.10959
809.173	-4.00989
809.584	-39.09687
809.996	-35.08855
810.408	28.07344
810.819	34.08218
811.231	35.09309
811.642	37.09211
812.053	48.11742
812.464	28.06806
812.875	13.03384
813.286	-18.04682
813.697	-55.12849
814.108	-9.02217
814.519	-31.07029
814.929	-11.02807
815.34	-15.03693
815.75	-15.03876
816.16	-30.07591
816.571	35.09187
816.981	-7.01657
817.391	12.02949
817.801	23.0578
818.211	-21.05069
818.62	2.00494
819.03	37.09164
819.44	-6.01576
819.849	29.07397
820.259	-14.03597
820.668	2.00501
821.077	33.08355
821.486	56.13638
821.895	-18.04475
822.304	-11.02939
822.713	-9.02166
823.122	0
823.531	-24.05762
823.939	16.03952
824.348	23.05642
824.756	-12.03046
825.164	11.02771
825.573	17.04326
825.981	-39.09723
826.389	16.04066
826.797	41.10451
827.205	-29.06905
827.612	-13.03239
828.02	9.02169
828.428	-5.01284
828.835	-21.05587
829.243	-13.03138
829.65	-16.04044
830.057	0
830.464	-13.03208
830.871	-39.09436
831.278	11.02688
831.685	36.08154
832.092	25.06196
832.499	29.06455
832.905	-3.00766
833.312	8.01851
833.718	20.04991
834.124	-43.09994
834.531	12.03048
834.937	-8.02071
835.343	28.06824
835.749	33.07734
836.155	-24.06397
836.561	-9.0223
836.966	-20.04945
837.372	42.10779
837.777	-38.09647
838.183	35.07903
838.588	-5.01264
838.993	-8.01951
839.399	13.03263
839.804	-61.15362
840.209	-11.02852
840.613	-3.00682
841.018	8.02047
841.423	-1.00259
841.828	-12.03068
842.232	-14.03485
842.637	-21.0505
843.041	-37.09683
843.445	18.04566
843.849	-19.04792
844.253	34.08104
844.657	15.03838
845.061	8.01835
845.465	14.03463
845.869	46.10783
846.272	26.06448
846.676	-59.1428
847.079	12.03104
847.483	-25.06278
847.886	2.0049
848.289	-3.00811
848.692	-29.07413
849.095	23.05579
849.498	-19.04811
849.901	-9.021
850.304	-24.05788
850.707	-16.04114
851.109	-11.02781
851.512	50.12463
851.914	28.07271
852.316	18.04595
852.718	26.0693
853.121	43.10693
853.523	100.23898
853.925	-3.00797
854.326	13.03308
854.728	8.02081
855.13	-22.0576
855.531	14.03435
855.933	8.01945
856.334	-4.0101
856.736	3.007
857.137	22.05215
857.538	19.04874
857.939	19.04805
858.34	3.0074
858.741	27.07095
859.142	-23.05596
859.542	6.01597
859.943	20.05072
860.343	19.04817
860.744	-6.01479
861.144	-36.08947
861.544	-1.00249
861.945	37.09514
862.345	0
862.745	1.0025
863.145	-11.02638
863.544	10.02554
863.944	24.05792
864.344	-11.02744
864.743	3.00746
865.143	6.01567
865.542	52.12232
865.941	-30.07521
866.34	-25.06037
866.74	41.10995
867.139	-15.03655
867.537	13.03339
867.936	25.06071
868.335	-4.01026
868.734	9.02327
869.132	14.03293
869.531	-77.18742
869.929	8.01883
870.327	30.07333
870.726	7.01744
871.124	-37.08742
871.522	9.023
871.92	0
872.318	-44.10892
872.715	-35.08681
873.113	5.01236
873.511	-64.16005
873.908	-44.11332
874.306	-16.0407
874.703	-12.03031
875.1	-41.10546
875.497	18.04361
875.894	-27.06821
876.291	-29.07138
876.688	-15.0392
877.085	35.08414
877.482	0
877.878	-2.00492
878.275	-42.10839
878.671	-23.05109
879.068	23.05586
879.464	-28.06936
879.86	-6.01455
880.256	10.02478
880.652	-9.02338
881.048	-12.03003
881.444	-23.05519
881.84	15.0386
882.236	-11.02791
882.631	-31.07712
883.027	0
883.422	30.07769
883.817	51.1305
884.213	41.1059
884.608	33.08284
885.003	14.03459
885.398	8.02032
885.793	10.02542
886.188	-2.00509
886.582	4.01032
886.977	-6.01451
887.371	-57.14473
887.766	-14.03548
888.16	25.06294
888.554	-39.09642
888.949	-32.08106
889.343	34.08339
889.737	2.00541
890.131	9.02285
890.525	44.11367
890.918	-18.04612
891.312	-21.05073
891.706	35.09172
892.099	15.03826
892.492	-43.09456
892.886	36.08983
893.279	-8.02084
893.672	-11.02847
894.065	-8.02022
894.458	-36.09139
894.851	-4.00977
895.244	-13.03384
895.637	-40.09807
896.029	-2.005
896.422	-6.01484
896.814	26.06579
897.206	-7.01701
897.599	-21.05216
897.991	3.00738
898.383	-8.01907
898.775	20.04572
899.167	-2.0048
899.559	-24.06101
899.951	-5.01202
900.342	7.01799
900.734	-8.02038
901.125	66.17416
901.517	-33.082
901.908	0
902.299	49.12225
902.69	13.0311
903.082	-7.0169
903.473	33.0805
903.863	-22.05646
904.254	4.00937
904.645	4.00989
905.036	-44.10959
905.426	20.04624
905.817	10.02491
906.207	14.03412
906.597	5.0119
906.987	-23.05945
907.378	6.01525
907.768	-10.02675
908.158	19.04671
908.547	-1.00265
908.937	-49.12644
909.327	-18.0442
909.717	17.04298
910.106	32.07837
910.495	18.04493
910.885	16.04092
911.274	-20.05084
911.663	-15.03825
912.052	-14.03469
912.441	43.11045
912.83	22.05157
913.219	5.01308
913.608	-44.1082
913.997	10.02554
914.385	55.13237
914.774	-4.00986
915.162	28.06796
915.55	-33.08047
915.939	-3.00767
916.327	-18.04478
916.715	52.13476
917.103	15.03706
917.491	23.05721
917.878	45.1117
918.266	-45.11784
918.654	-6.01546
919.041	-13.03429
919.429	-43.10298
919.816	19.04846
920.203	-25.06167
920.591	-58.14588
920.978	12.02956
921.365	-11.02917
921.752	-28.06773
922.139	-19.04192
922.525	62.15257
922.912	12.0294
923.299	25.06345
923.685	-36.09484
924.072	4.00931
924.458	32.07985
924.844	3.0076
925.231	-27.06441
925.617	14.03647
926.003	4.01028
926.389	-3.00761
926.774	-3.00768
927.16	7.01756
927.546	-22.05709
927.931	41.10325
928.317	1.00234
928.702	48.11295
929.088	9.02193
929.473	42.10734
929.858	35.08678
930.243	-12.0293
930.628	-1.00249
931.013	6.01504
931.398	-18.04137
931.783	-18.04724
932.167	-22.0542
932.552	-25.06271
932.937	10.02492
933.321	-2.00512
933.705	-5.01272
934.09	-33.08278
934.474	8.01924
934.858	-39.10171
935.242	-1.00235
935.626	-5.01298
936.009	18.04828
936.393	4.01019
936.777	-18.04623
937.16	12.03155
937.544	-35.08302
937.927	-21.05392
938.311	8.01962
938.694	17.04467
939.077	14.03412
939.46	-11.02702
939.843	13.02738
940.226	14.03634
940.609	62.14476
940.991	9.02324
941.374	6.0148
941.757	40.09952
942.139	-46.10559
942.522	8.01891
942.904	6.01449
943.286	4.0102
943.668	13.03408
944.05	2.00502
944.432	30.07532
944.814	31.07756
945.196	39.0973
945.578	12.0294
945.959	-37.08864
946.341	18.04379
946.722	2.00471
947.104	41.09778
947.485	22.05237
947.866	11.02817
948.247	13.03317
948.628	46.1124
949.009	-4.01039
949.39	-18.04508
949.771	0
950.152	7.01742
950.532	-16.0404
950.913	63.15386
951.293	12.03285
951.674	6.01465
952.054	-32.0806
952.434	-35.08795
952.814	-58.13834
953.194	-22.05735
953.574	-24.05937
953.954	37.08874
954.334	17.04263
954.714	1.00248
955.093	-4.00978
955.473	-28.07116
955.853	-26.06761
956.232	-32.08782
956.611	2.0048
956.99	-46.11611
957.37	-43.11103
957.749	-13.03141
958.128	-9.02282
958.506	1.00262
958.885	7.01781
959.264	-8.0201
959.643	15.03485
960.021	-35.08779
960.4	-27.06233
960.778	34.08293
961.156	3.00764
961.535	-2.00472
961.913	5.01186
962.291	8.02088
962.669	-85.21712
963.047	12.03089
963.424	-12.03094
963.802	-19.04726
964.18	6.01519
964.557	4.00937
964.935	-19.04535
965.312	1.00265
965.69	16.0403
966.067	28.06852
966.444	4.00991
966.821	13.03337
967.198	-11.02664
967.575	4.00983
967.952	-41.09691
968.329	-10.02462
968.705	33.07235
969.082	24.06254
969.458	0
969.835	-33.08065
970.211	31.08016
970.587	-3.00752
970.963	-13.03363
971.339	-7.01846
971.715	31.07773
972.091	19.04721
972.467	1.00251
972.843	55.13806
973.219	1.0024
973.594	15.03961
973.97	29.06932
974.345	-2.00487
974.721	23.0559
975.096	-6.01478
975.471	-9.02115
975.846	17.04138
976.221	34.08778
976.596	11.02681
976.971	-9.02223
977.346	22.05141
977.72	-43.10999
978.095	7.01806
978.469	17.0407
978.844	-6.01507
979.218	14.03435
979.593	-16.03834
979.967	41.10076
980.341	-5.01176
980.715	0
981.089	9.02282
981.463	-41.09665
981.837	-39.09762
982.21	-53.12265
982.584	42.1024
982.957	23.05794
983.331	-2.00477
983.704	25.06224
984.078	5.0124
984.451	-34.08419
984.824	-4.01001
985.197	-12.02951
985.57	14.03528
985.943	-34.08416
986.316	46.11261
986.688	-13.03168
987.061	-10.0239
987.434	-6.01568
987.806	-3.00729
988.179	29.06993
988.551	3.00768
988.923	7.01718
989.295	6.01513
989.667	21.05169
990.039	6.01504
990.411	0
990.783	-43.09947
991.155	6.01483
991.527	-26.06356
991.898	-31.07832
992.27	13.0327
992.641	0
993.012	15.03562
993.384	21.05066
993.755	-7.01805
994.126	-39.09535
994.497	31.07731
994.868	-21.04891
995.239	25.06101
995.61	-22.05658
995.98	-10.02482
996.351	4.01011
996.722	29.06842
997.092	-30.07235
997.462	13.03129
997.833	-10.02375
998.203	20.04858
998.573	-56.14206
998.943	17.04054
999.313	-23.05544
999.683	0
1000.053	14.03242
1000.423	-26.0637
1000.792	18.04732
1001.162	-36.09022
1001.531	-5.01247
1001.901	0
1002.27	14.03188
1002.639	-12.03099
1003.009	20.04809
1003.378	-21.05407
1003.747	-7.0168
1004.116	5.01215
1004.485	-13.03119
1004.853	-3.00764
1005.222	15.03817
1005.591	-10.02406
1005.959	69.16012
1006.328	-14.03234
1006.696	-27.06592
1007.064	10.02549
1007.433	-22.05514
1007.801	22.05348
1008.169	42.10696
1008.537	15.03322
1008.905	7.0166
1009.273	16.03979
1009.64	-32.07851
1010.008	5.01207
1010.375	-40.09581
1010.743	72.1656
1011.11	29.0695
1011.478	-27.06726
1011.845	-5.01186
1012.212	9.02085
1012.579	-35.08719
1012.946	29.0695
1013.313	17.04021
1013.68	30.06751
1014.047	2.00491
1014.414	21.05023
1014.78	-3.00751
1015.147	-9.02183
1015.513	-12.02934
1015.88	16.04089
1016.246	21.05194
1016.612	-9.02093
1016.978	46.11345
1017.344	-5.01247
1017.71	-29.0703
1018.076	1.00237
1018.442	-2.00517
1018.808	6.01517
1019.174	17.04316
1019.539	0
1019.905	-44.10563
1020.27	8.02
1020.636	15.03599
1021.001	22.05344
1021.366	-12.02902
1021.731	1.00259
1022.096	-39.09944
1022.461	12.02826
1022.826	44.10559
1023.191	-25.0662
1023.556	54.12687
1023.92	12.02945
1024.285	4.00979
1024.649	-21.05182
1025.014	-21.05228
1025.378	9.02293
1025.742	10.02505
1026.107	-13.0298
1026.471	5.01167
1026.835	-38.09489
1027.199	3.00735
1027.562	31.07308
1027.926	-27.06643
1028.29	74.18892
1028.654	48.11137
1029.017	10.02458
1029.381	34.08327
1029.744	-19.04933
1030.107	-25.05925
1030.471	-5.01208
1030.834	-14.03225
1031.197	10.02396
1031.56	-26.06199
1031.923	-31.08107
1032.286	-41.0965
1032.648	10.02421
1033.011	21.04945
1033.374	-17.04006
1033.736	-14.03751
1034.099	45.11088
1034.461	25.06446
1034.823	29.07272
1035.185	17.04316
1035.548	39.09546
1035.91	27.06557
1036.272	41.09417
1036.634	4.00976
1036.995	-10.02361
1037.357	-13.03203
1037.719	8.01947
1038.08	-34.08097
1038.442	-15.03609
1038.803	12.02925
1039.165	-1.00253
1039.526	-3.00729
1039.887	8.01937
1040.248	-18.04568
1040.609	-1.00247
1040.97	30.07467
1041.331	-20.0509
1041.692	0
1042.053	7.01604
1042.413	-18.04232
1042.774	-13.03188
1043.134	-27.06444
1043.495	-13.03291
1043.855	-34.08351
1044.215	-51.12765
1044.576	16.03901
1044.936	-10.02284
1045.296	57.14133
1045.656	7.01731
1046.016	23.05579
1046.375	10.02475
1046.735	22.05108
1047.095	25.05918
1047.454	-23.04911
1047.814	-72.17489
1048.173	11.0261
1048.533	3.00698
1048.892	17.04173
1049.251	1.00252
1049.61	-8.01999
1049.969	-40.09523
1050.328	3.00659
1050.687	16.03934
1051.046	13.03177
1051.405	6.01504
1051.763	-6.01405
1052.122	31.07863
1052.48	-30.07415
1052.839	-31.07438
1053.197	-16.03783
1053.555	-28.06326
1053.914	21.05171
1054.272	-8.01937
1054.63	-11.02752
1054.988	-13.03125
1055.345	31.06782
1055.703	-8.01924
1056.061	2.00518
1056.419	-6.01568
1056.776	-1.00242
1057.134	37.08654
1057.491	-12.03028
1057.848	15.03754
1058.206	6.01429
1058.563	5.01126
1058.92	-25.05836
1059.277	-12.02962
1059.634	56.1325
1059.991	-34.08138
1060.348	42.09725
1060.704	-30.07301
1061.061	-1.00228
1061.418	3.00741
1061.774	-2.005
1062.131	-32.08563
1062.487	-31.07353
1062.843	18.04516
1063.199	-12.03
1063.555	-37.08732
1063.911	8.02045
1064.267	62.12873
1064.623	0
1064.979	-13.03051
1065.335	-5.01182
1065.691	-34.08166
1066.046	-32.07115
1066.402	2.00465
1066.757	-11.02775
1067.112	-46.11282
1067.468	6.01442
1067.823	17.04121
1068.178	-5.01216
1068.533	-36.08803
1068.888	62.14839
1069.243	18.0447
1069.598	26.06384
1069.952	-54.12673
1070.307	1.00252
1070.662	17.04108
1071.016	48.10951
1071.371	-44.10233
1071.725	-9.02166
1072.079	-75.18276
1072.434	-10.02467
1072.788	41.09938
1073.142	27.06638
1073.496	60.14596
1073.85	-26.06099
1074.203	-58.14152
1074.557	-5.01343
1074.911	24.05707
1075.265	-31.07311
1075.618	26.06372
1075.971	9.02166
1076.325	-13.03358
1076.678	58.13601
1077.031	13.03005
1077.385	-9.02031
1077.738	14.03255
1078.091	-27.06389
1078.444	0
1078.796	-45.11235
1079.149	11.02738
1079.502	5.01207
1079.855	20.04743
1080.207	-14.03462
1080.56	-4.01051
1080.912	-4.00986
1081.264	-10.02441
1081.617	25.06212
1081.969	-7.01803
1082.321	35.08656
1082.673	31.07276
1083.025	-42.10079
1083.377	5.01081
1083.728	-6.01417
1084.08	27.06819
1084.432	20.049
1084.783	-16.03753
1085.135	14.03543
1085.486	10.02348
1085.838	-22.05498
1086.189	-8.01971
1086.54	-37.08905
1086.891	27.06926
1087.242	-29.07151
1087.593	10.02412
1087.944	30.06938
1088.295	-23.05257
1088.646	45.10924
1088.996	14.03438
1089.347	-9.02232
1089.698	5.01217
1090.048	-17.04437
1090.398	-3.00703
1090.749	-22.05308
1091.099	-13.03325
1091.449	-14.03505
1091.799	12.03051
1092.149	26.06525
1092.499	-71.1752
1092.849	0
1093.199	10.02492
1093.548	-22.05348
1093.898	29.0735
1094.248	-17.04376
1094.597	-23.06019
1094.947	8.02142
1095.296	1.0025
1095.645	-11.02871
1095.994	33.08032
1096.343	-37.09434
1096.692	-13.03488
1097.041	4.01096
1097.39	-3.00757
1097.739	-20.05203
1098.088	44.11743
1098.437	7.01859
1098.785	45.1217
1099.134	33.08744
1099.482	1.00275
1099.83	-31.0814
1100.179	-19.05021
1100.527	27.07229
1100.875	-6.01602
1101.223	-24.06395
1101.571	34.09446
1101.919	-27.07212
1102.267	4.0113
1102.615	-1.00322
1102.962	-5.0161
1103.31	-5.01612
1103.658	0
