Data from N2 R1 sample 9_Subt2__4__14-03-07-916.txt Node

Date: Wed Aug 27 14:03:07 PDT 2025
User: uwsun
Spectrometer: HDX01956
Trigger mode: 0
Integration Time (sec): 5.000000E-1
Scans to average: 1
Nonlinearity correction enabled: true
Boxcar width: 0
Storing dark spectrum: false
XAxis mode: Wavelengths
Number of Pixels in Spectrum: 2068
>>>>>Begin Spectral Data<<<<<
194.03	254.7137
194.578	232.73659
195.127	230.72042
195.676	231.72545
196.225	264.6949
196.773	233.6413
197.321	335.90641
197.87	472.16403
198.418	518.28138
198.966	487.22411
199.513	532.27992
200.061	490.20672
200.609	532.33091
201.156	533.12123
201.704	515.25696
202.251	503.27296
202.798	574.42884
203.345	523.23659
203.892	502.20903
204.438	512.17475
204.985	501.14649
205.532	539.34868
206.078	521.23043
206.624	541.28019
207.17	540.19794
207.716	526.24057
208.262	461.88301
208.808	547.2944
209.354	553.29247
209.899	490.1832
210.445	517.23133
210.99	527.21766
211.535	521.17369
212.08	584.29461
212.625	517.23321
213.17	545.29513
213.715	519.12094
214.259	530.17183
214.804	560.3132
215.348	509.11713
215.892	529.2063
216.436	530.16256
216.98	624.29194
217.524	502.13474
218.068	492.17193
218.612	537.28879
219.155	532.19044
219.698	478.0861
220.242	470.11217
220.785	514.14254
221.328	453.08817
221.871	416.00121
222.414	479.14506
222.956	475.10082
223.499	478.03554
224.041	489.10284
224.583	480.9841
225.126	425.92032
225.668	473.11173
226.21	496.18824
226.751	435.93514
227.293	481.0507
227.835	450.05327
228.376	513.13395
228.918	498.19395
229.459	500.19693
230	401.92011
230.541	504.11704
231.082	485.13201
231.622	523.16426
232.163	456.06901
232.704	479.14419
233.244	405.96232
233.784	456.06234
234.324	449.96024
234.864	437.96083
235.404	488.09677
235.944	460.04091
236.484	429.02027
237.023	434.9988
237.563	424.95435
238.102	436.97773
238.641	517.23227
239.18	424.96839
239.719	453.09557
240.258	487.04452
240.797	511.17503
241.335	494.14786
241.874	476.89126
242.412	513.16788
242.95	489.13018
243.488	525.15133
244.026	497.09075
244.564	422.84017
245.102	481.05114
245.64	508.16602
246.177	469.00455
246.715	479.08948
247.252	479.04544
247.789	442.78634
248.326	521.20425
248.863	517.08322
249.4	477.02304
249.936	485.97436
250.473	533.18019
251.009	521.14638
251.546	566.19468
252.082	413.8718
252.618	504.08361
253.154	523.19212
253.69	533.14582
254.226	436.98817
254.761	485.04738
255.297	497.055
255.832	478.07338
256.367	532.19826
256.903	498.05046
257.438	461.02645
257.972	498.07482
258.507	532.17528
259.042	437.90667
259.576	482.00374
260.111	552.19919
260.645	489.00321
261.179	483.07197
261.713	490.04667
262.247	526.15086
262.781	473.94806
263.315	499.15607
263.849	543.28443
264.382	522.12911
264.915	575.28389
265.449	550.27967
265.982	534.14674
266.515	574.31352
267.048	525.0413
267.58	514.05531
268.113	527.08863
268.646	551.28679
269.178	555.19114
269.71	448.92846
270.243	531.14494
270.775	531.28113
271.307	565.26621
271.838	558.23229
272.37	498.16126
272.902	531.14592
273.433	564.16337
273.965	539.23555
274.496	535.24351
275.027	530.25002
275.558	565.29005
276.089	546.28282
276.62	531.26907
277.15	543.26213
277.681	519.07207
278.211	554.27886
278.741	576.20306
279.272	586.25804
279.802	593.38823
280.332	623.37802
280.861	599.34635
281.391	519.12237
281.921	539.20836
282.45	624.45374
282.98	523.28738
283.509	599.26582
284.038	568.21515
284.567	588.26668
285.096	603.35202
285.625	568.19838
286.153	585.28742
286.682	605.30809
287.21	523.19068
287.739	620.36311
288.267	631.42066
288.795	647.57122
289.323	594.29987
289.851	591.27996
290.378	702.46013
290.906	639.4551
291.433	596.38192
291.961	590.26664
292.488	581.33568
293.015	572.26324
293.542	620.46647
294.069	623.43461
294.596	636.44797
295.122	635.40342
295.649	600.22444
296.175	684.5291
296.702	607.36435
297.228	665.47774
297.754	591.24016
298.28	687.43872
298.806	656.4357
299.332	652.3524
299.857	673.3926
300.383	642.48397
300.908	710.599
301.433	626.40451
301.958	727.54605
302.483	694.59981
303.008	649.4499
303.533	728.72867
304.058	684.45672
304.582	713.55761
305.107	695.66198
305.631	718.47887
306.155	746.58477
306.679	734.56669
307.203	743.56161
307.727	790.69796
308.251	684.52282
308.775	748.60694
309.298	731.6057
309.822	752.70604
310.345	759.60926
310.868	741.59428
311.391	711.56959
311.914	826.85958
312.437	786.57921
312.96	786.65388
313.482	764.62726
314.005	783.78033
314.527	766.80218
315.049	746.69105
315.571	770.54205
316.093	855.857
316.615	839.77515
317.137	858.62833
317.659	811.71661
318.18	813.72385
318.702	882.81622
319.223	862.54631
319.744	907.77454
320.265	847.80768
320.786	901.95528
321.307	937.02308
321.828	918.77537
322.348	896.81039
322.869	962.96602
323.389	906.31168
323.909	971.90887
324.43	969.96294
324.95	1005.95081
325.47	989.07919
325.989	1010.00131
326.509	1030.92979
327.029	1101.05817
327.548	1049.96594
328.067	1049.13804
328.587	968.01497
329.106	1044.02084
329.625	1081.34319
330.144	1095.05797
330.662	1073.0707
331.181	1110.10712
331.7	1179.20225
332.218	1182.03983
332.736	1130.11927
333.255	1199.24521
333.773	1172.21009
334.291	1160.30447
334.808	1182.08513
335.326	1237.1899
335.844	1291.35427
336.361	1245.50729
336.879	1322.41523
337.396	1297.42809
337.913	1359.43906
338.43	1331.27588
338.947	1365.48972
339.464	1440.3077
339.981	1364.46486
340.497	1350.54674
341.014	1451.65645
341.53	1392.35107
342.046	1440.6277
342.562	1414.62394
343.078	1485.56367
343.594	1484.61515
344.11	1500.57815
344.626	1521.79341
345.141	1495.43227
345.657	1497.37488
346.172	1590.7439
346.687	1480.47654
347.202	1582.53158
347.717	1586.66666
348.232	1657.93452
348.747	1711.68569
349.261	1681.4912
349.776	1644.70564
350.29	1735.96847
350.805	1767.99816
351.319	1713.70266
351.833	1779.7128
352.347	1775.7905
352.861	1785.79684
353.374	1779.67484
353.888	1763.78402
354.401	1895.81837
354.915	1870.78143
355.428	1874.05358
355.941	1896.81569
356.454	1881.61669
356.967	1944.87274
357.48	1899.72558
357.993	1982.05894
358.505	1970.0646
359.018	2022.10198
359.53	1970.9101
360.042	1991.67068
360.554	1962.91886
361.066	1965.03839
361.578	1989.59381
362.09	2049.96506
362.602	2111.64689
363.113	2073.85378
363.625	2099.71786
364.136	2136.67106
364.647	2123.87275
365.158	2210.93563
365.669	2207.06765
366.18	2273.96826
366.691	2275.69606
367.201	2204.98072
367.712	2299.89136
368.222	2204.77793
368.733	2269.60469
369.243	2345.71777
369.753	2356.8252
370.263	2499.1281
370.773	2459.28526
371.282	2528.02246
371.792	2521.88649
372.301	2639.15703
372.811	2679.49145
373.32	2707.57441
373.829	2764.90122
374.338	2938.63196
374.847	2946.76218
375.356	2951.85935
375.865	3218.26789
376.373	3299.48155
376.882	3417.05023
377.39	3353.77771
377.898	3507.88563
378.407	3761.27623
378.915	3753.85692
379.423	3950.20075
379.93	4039.88459
380.438	4289.13412
380.946	4507.68906
381.453	4687.75608
381.96	4916.40012
382.468	5213.14546
382.975	5669.05599
383.482	5832.6946
383.989	5830.26641
384.495	6088.62835
385.002	6238.16827
385.509	6648.50828
386.015	7198.44967
386.521	7314.65689
387.028	7601.95229
387.534	7981.50106
388.04	8058.60708
388.546	8474.46741
389.051	8841.51624
389.557	9634.93829
390.063	10316.2647
390.568	10749.76091
391.073	10928.7027
391.578	11513.93566
392.084	11725.27143
392.589	12329.12465
393.093	13185.67604
393.598	14381.70089
394.103	15673.49948
394.607	17299.9592
395.112	18400.16316
395.616	19556.15433
396.12	21074.23642
396.624	23875.5889
397.128	25659.22833
397.632	28497.79744
398.136	30793.30535
398.639	32525.27138
399.143	36075.55405
399.646	40828.02164
400.15	44909.46157
400.653	49274.63734
401.156	55322.29847
401.659	55545.80668
402.162	53821.55638
402.664	47275.14456
403.167	32260.27245
403.67	3851.94142
404.172	0
404.674	0
405.176	0
405.678	0
406.18	0
406.682	0
407.184	0
407.686	12367.42319
408.187	34596.90747
408.688	44563.94194
409.19	48906.19284
409.691	51236.67962
410.192	52883.26968
410.693	53713.23343
411.194	54189.54801
411.694	54767.79104
412.195	55625.98899
412.696	55971.27715
413.196	55815.15953
413.696	55802.1488
414.196	55740.09561
414.696	56340.4775
415.196	57067.59327
415.696	58258.21704
416.196	48765.30849
416.695	37934.04363
417.195	32853.39801
417.694	31081.84773
418.194	29212.79098
418.693	27393.29112
419.192	26527.42704
419.691	26175.5021
420.19	25665.054
420.688	24779.9502
421.187	23856.00999
421.685	22083.97043
422.184	20004.00348
422.682	17415.76312
423.18	14989.45577
423.678	13406.05047
424.176	12451.4674
424.674	11652.2782
425.172	11362.49754
425.669	10359.56417
426.167	9723.10664
426.664	8932.54778
427.161	8092.6631
427.659	7470.98155
428.156	7076.39786
428.652	6662.90511
429.149	6357.69079
429.646	6085.41074
430.143	5746.87007
430.639	5414.98491
431.135	5085.53833
431.632	4874.30072
432.128	4463.64379
432.624	4417.24445
433.12	4084.71806
433.616	4044.60281
434.111	4013.19249
434.607	3695.35733
435.103	3668.75346
435.598	3476.68549
436.093	3381.38861
436.588	3276.20634
437.083	3133.41675
437.578	2868.3731
438.073	2706.00563
438.568	2671.86456
439.062	2687.27049
439.557	2585.67727
440.051	2483.59875
440.546	2354.61967
441.04	2335.81565
441.534	2237.97551
442.028	2171.71542
442.522	2159.75718
443.015	2176.45584
443.509	2104.86918
444.002	2026.80431
444.496	1997.34795
444.989	2001.77503
445.482	1886.78393
445.975	2003.54003
446.468	1977.39092
446.961	1800.18094
447.454	1887.52141
447.947	1747.51462
448.439	1761.62551
448.931	1746.3269
449.424	1723.72015
449.916	1811.65466
450.408	1630.27828
450.9	1594.45094
451.392	1608.63287
451.884	1677.38717
452.375	1583.55526
452.867	1485.14457
453.358	1534.25369
453.849	1511.07167
454.341	1512.17263
454.832	1494.08428
455.323	1466.43041
455.814	1421.18309
456.304	1425.2072
456.795	1419.21822
457.285	1420.09707
457.776	1351.06979
458.266	1327.22923
458.756	1341.28576
459.247	1359.27468
459.737	1259.2026
460.226	1239.00195
460.716	1217.11438
461.206	1225.14845
461.695	1186.21482
462.185	1208.09922
462.674	1139.94209
463.163	1169.91686
463.653	1233.86424
464.142	1151.07811
464.63	1083.00058
465.119	1031.83467
465.608	1162.0147
466.096	1103.83123
466.585	1071.8982
467.073	1053.9396
467.561	1003.8851
468.05	1058.89496
468.538	1020.95792
469.026	947.78577
469.513	938.55336
470.001	1030.89005
470.489	1048.98766
470.976	864.59836
471.463	896.81204
471.951	858.73828
472.438	856.65293
472.925	854.67347
473.412	813.6474
473.899	801.52699
474.385	787.62515
474.872	812.57308
475.359	809.67211
475.845	766.3491
476.331	752.38664
476.817	771.575
477.303	732.44895
477.789	649.35905
478.275	663.42937
478.761	693.45322
479.247	649.25176
479.732	661.44209
480.218	598.36138
480.703	636.37842
481.188	602.12177
481.673	588.19122
482.158	628.20393
482.643	602.35392
483.128	570.17577
483.612	588.21893
484.097	590.28295
484.581	493.02328
485.066	575.25321
485.55	484.96943
486.034	492.97634
486.518	469.9939
487.002	546.22583
487.486	550.21358
487.969	431.97069
488.453	431.99368
488.936	456.94799
489.42	469.95742
489.903	417.96103
490.386	443.67836
490.869	420.84397
491.352	399.89129
491.835	372.72131
492.318	409.86979
492.8	433.85103
493.283	404.95052
493.765	417.95567
494.247	388.84434
494.73	368.75824
495.212	309.69569
495.694	324.72094
496.175	354.79421
496.657	357.79189
497.139	331.55272
497.62	341.77149
498.102	368.86854
498.583	343.81348
499.064	285.60215
499.545	325.70471
500.026	309.66401
500.507	289.64401
500.988	300.70864
501.469	285.68324
501.949	237.55713
502.43	270.62045
502.91	300.60061
503.39	290.68794
503.87	320.71706
504.35	272.60977
504.83	240.5123
505.31	301.69292
505.79	260.60177
506.269	262.58542
506.749	210.46691
507.228	236.53625
507.707	196.42183
508.187	261.59389
508.666	185.43761
509.145	243.54846
509.623	199.45941
510.102	234.54611
510.581	204.47011
511.059	267.64545
511.538	201.49798
512.016	316.72584
512.494	275.64645
512.972	192.44016
513.45	222.50321
513.928	233.54901
514.406	239.56555
514.884	254.62661
515.361	196.45041
515.839	216.48025
516.316	201.47214
516.793	171.42195
517.27	178.41837
517.747	222.55432
518.224	174.39121
518.701	198.43145
519.178	151.36602
519.654	185.42624
520.131	150.36257
520.607	156.37536
521.083	138.31218
521.56	159.36576
522.036	149.32254
522.512	142.33895
522.987	152.35545
523.463	176.40979
523.939	162.38343
524.414	164.3719
524.89	224.51887
525.365	121.26876
525.84	158.36933
526.315	173.40812
526.79	145.31938
527.265	162.36587
527.74	118.28156
528.215	205.48004
528.689	125.27383
529.164	180.38607
529.638	175.43737
530.112	125.2918
530.587	156.33445
531.061	128.30636
531.534	171.40731
532.008	151.35913
532.482	129.28914
532.956	107.26772
533.429	129.30492
533.903	117.25425
534.376	150.33102
534.849	80.18274
535.322	141.32785
535.795	85.20433
536.268	150.35517
536.741	88.20764
537.213	99.2261
537.686	141.33625
538.158	156.34728
538.631	80.18987
539.103	170.37829
539.575	125.25692
540.047	130.28508
540.519	120.27974
540.991	118.28059
541.463	131.31036
541.934	96.21611
542.406	54.12727
542.877	80.17758
543.348	91.21076
543.82	129.30787
544.291	89.20277
544.762	117.27409
545.233	148.35989
545.703	112.24571
546.174	170.38582
546.645	144.33912
547.115	135.3207
547.585	117.26171
548.056	96.22731
548.526	183.41861
548.996	185.42811
549.466	170.3991
549.935	203.46715
550.405	212.45038
550.875	212.48308
551.344	181.41819
551.814	215.47733
552.283	177.37119
552.752	173.38696
553.221	229.48066
553.69	182.388
554.159	227.53591
554.628	236.51163
555.096	229.55277
555.565	298.64162
556.033	214.48291
556.502	211.49389
556.97	148.3173
557.438	206.46714
557.906	153.35294
558.374	179.39972
558.842	111.26125
559.31	144.31751
559.777	142.33623
560.245	108.24571
560.712	127.28665
561.18	113.24806
561.647	112.2454
562.114	140.31902
562.581	137.32433
563.048	160.36017
563.514	158.37772
563.981	192.42689
564.448	192.41553
564.914	152.34062
565.381	181.39616
565.847	183.41153
566.313	256.57414
566.779	253.55211
567.245	215.47753
567.711	225.51902
568.176	215.46163
568.642	220.52512
569.108	289.66901
569.573	299.65663
570.038	358.70179
570.504	356.74737
570.969	347.79273
571.434	296.60715
571.899	362.79914
572.363	409.84745
572.828	395.81478
573.293	470.98275
573.757	416.86831
574.222	541.0801
574.686	485.98424
575.15	583.22604
575.614	563.14336
576.078	551.13269
576.542	565.12236
577.006	611.19019
577.469	565.19231
577.933	562.11405
578.396	606.24734
578.86	644.30605
579.323	635.32266
579.786	579.0839
580.249	612.21108
580.712	589.24412
581.175	596.28558
581.637	567.12948
582.1	530.00153
582.563	547.0259
583.025	584.23812
583.487	566.01386
583.95	558.0628
584.412	521.95652
584.874	541.16255
585.336	530.11319
585.797	505.96777
586.259	493.03102
586.721	521.08872
587.182	542.10089
587.643	419.84876
588.105	393.82995
588.566	416.77659
589.027	422.91558
589.488	382.7839
589.949	446.96558
590.41	388.69598
590.87	302.61974
591.331	400.7782
591.791	342.72337
592.252	315.65824
592.712	302.65665
593.172	321.66274
593.632	270.53504
594.092	265.54443
594.552	284.55462
595.011	283.60212
595.471	235.48998
595.931	263.53983
596.39	306.67948
596.849	276.59298
597.308	248.48661
597.768	263.6257
598.227	307.67107
598.685	260.54681
599.144	283.61495
599.603	284.61909
600.062	302.59369
600.52	284.58675
600.978	279.61271
601.437	260.54897
601.895	247.48042
602.353	278.56146
602.811	296.60989
603.269	253.55538
603.727	280.61814
604.184	290.6064
604.642	256.57414
605.099	342.7316
605.557	301.67019
606.014	275.54814
606.471	323.73969
606.928	357.69603
607.385	385.85114
607.842	488.99553
608.299	448.92929
608.755	336.73119
609.212	447.89346
609.668	393.78589
610.125	394.84501
610.581	432.8913
611.037	344.70401
611.493	433.90439
611.949	327.71388
612.405	381.71036
612.861	383.80068
613.316	405.87889
613.772	377.77067
614.227	357.75096
614.683	376.72489
615.138	463.96619
615.593	439.92221
616.048	399.82562
616.503	362.7881
616.958	383.85803
617.412	396.8449
617.867	450.90217
618.321	451.8459
618.776	360.7214
619.23	381.80602
619.684	433.88434
620.138	316.65755
620.592	328.72227
621.046	341.72015
621.5	382.84398
621.954	382.77505
622.407	353.71506
622.861	326.73141
623.314	301.62982
623.768	300.64592
624.221	273.50266
624.674	300.63648
625.127	264.57062
625.58	263.54714
626.033	244.49574
626.485	256.57815
626.938	260.57159
627.39	307.66369
627.843	230.49586
628.295	201.43585
628.747	246.54944
629.199	267.56635
629.651	245.53012
630.103	213.46404
630.555	217.44461
631.006	224.49535
631.458	215.48546
631.909	177.38446
632.361	169.38004
632.812	177.39411
633.263	172.3552
633.714	183.38224
634.165	156.35893
634.616	111.25493
635.067	132.27933
635.518	149.34111
635.968	160.31053
636.419	114.24092
636.869	146.3292
637.319	210.47698
637.769	90.19687
638.219	142.32776
638.669	71.16561
639.119	93.21752
639.569	136.31841
640.019	109.24321
640.468	107.2343
640.918	68.15833
641.367	109.2412
641.816	61.13267
642.265	71.15986
642.714	70.15861
643.163	46.10415
643.612	89.2111
644.061	35.07382
644.51	100.22428
644.958	113.24629
645.406	57.13463
645.855	122.29456
646.303	79.18202
646.751	68.15377
647.199	75.167
647.647	67.15197
648.095	32.07319
648.543	135.27585
648.99	132.30953
649.438	28.06435
649.885	37.08959
650.333	129.24947
650.78	88.21006
651.227	88.21183
651.674	109.24693
652.121	99.2379
652.568	85.20503
653.015	108.26802
653.461	40.0946
653.908	87.19909
654.354	88.20797
654.801	88.20861
655.247	23.05024
655.693	34.08732
656.139	123.29445
656.585	81.19398
657.031	50.1188
657.477	93.20313
657.922	126.28944
658.368	82.20231
658.813	87.20109
659.259	43.10357
659.704	43.10105
660.149	86.20103
660.594	84.19921
661.039	69.15708
661.484	79.18731
661.929	64.14908
662.373	83.20977
662.818	70.17315
663.262	79.19027
663.707	90.22563
664.151	22.05364
664.595	91.22183
665.039	41.10192
665.483	89.22781
665.927	8.01889
666.371	79.18717
666.814	86.20576
667.258	83.19801
667.701	103.22268
668.145	75.18636
668.588	68.16752
669.031	82.19551
669.474	36.08761
669.917	20.04491
670.36	49.12229
670.803	105.25318
671.245	152.32545
671.688	53.12896
672.13	47.1092
672.573	47.11934
673.015	48.11629
673.457	63.14092
673.899	80.19403
674.341	28.06832
674.783	81.19627
675.225	103.25491
675.666	79.19315
676.108	24.05276
676.549	50.11908
676.991	80.18016
677.432	111.2334
677.873	59.13865
678.314	104.24882
678.755	73.18047
679.196	98.23025
679.637	86.2114
680.078	98.23142
680.518	62.14573
680.959	38.09126
681.399	52.13008
681.839	82.20119
682.28	54.13572
682.72	108.25246
683.16	68.17146
683.6	48.11088
684.039	51.10865
684.479	62.15398
684.919	83.19763
685.358	60.15237
685.798	85.22591
686.237	63.1538
686.676	65.15024
687.115	67.15972
687.554	97.23345
687.993	53.12002
688.432	68.15827
688.871	38.08886
689.309	48.11734
689.748	53.11454
690.186	53.12871
690.625	94.22438
691.063	81.19819
691.501	97.24235
691.939	97.24585
692.377	104.25753
692.815	65.15863
693.253	71.17178
693.69	74.16658
694.128	54.1344
694.565	86.20741
695.003	40.10266
695.44	111.26572
695.877	44.10583
696.314	90.19737
696.751	81.18574
697.188	10.0235
697.625	73.168
698.061	90.22025
698.498	91.22216
698.934	52.1273
699.371	46.11094
699.807	66.15905
700.243	39.09518
700.679	95.21784
701.115	11.02613
701.551	57.13578
701.987	110.25066
702.422	61.14809
702.858	60.14612
703.294	23.05272
703.729	74.18237
704.164	62.15054
704.599	80.18083
705.035	72.16473
705.47	68.16641
705.904	83.19816
706.339	83.19467
706.774	103.24525
707.209	76.18009
707.643	85.20612
708.078	26.06427
708.512	25.06388
708.946	39.09457
709.38	35.085
709.814	77.18116
710.248	79.19566
710.682	72.17482
711.116	60.14841
711.549	99.25837
711.983	80.18869
712.416	75.17968
712.85	74.18699
713.283	64.15306
713.716	82.20491
714.149	75.17954
714.582	72.16599
715.015	37.09341
715.448	80.2033
715.881	40.08779
716.313	-4.0095
716.746	44.10608
717.178	17.042
717.61	69.1755
718.043	28.07075
718.475	24.05906
718.907	78.1959
719.339	77.17968
719.77	99.23745
720.202	59.15113
720.634	70.17366
721.065	62.15054
721.497	97.2405
721.928	69.17258
722.359	84.20785
722.79	38.09365
723.221	18.04584
723.652	81.20799
724.083	53.12353
724.514	53.12338
724.945	72.172
725.375	93.22212
725.806	5.01253
726.236	55.14078
726.666	69.167
727.096	80.20006
727.526	63.16234
727.956	75.17577
728.386	76.19012
728.816	114.29512
729.246	24.05971
729.675	35.08751
730.105	50.12531
730.534	53.12668
730.964	56.14251
731.393	34.08481
731.822	48.12254
732.251	102.26095
732.68	7.01673
733.109	80.20172
733.537	81.19863
733.966	47.11832
734.395	58.1367
734.823	37.08542
735.251	26.06403
735.68	68.17115
736.108	51.13123
736.536	85.20527
736.964	45.10686
737.392	68.17195
737.82	11.02656
738.247	66.16134
738.675	17.04088
739.102	76.1943
739.53	39.10053
739.957	59.15256
740.384	83.20429
740.811	55.14049
741.238	35.08653
741.665	26.0618
742.092	71.17126
742.519	62.15711
742.945	68.1653
743.372	46.11591
743.798	57.14825
744.225	40.09778
744.651	31.07905
745.077	36.09116
745.503	87.21563
745.929	42.1029
746.355	-13.03211
746.781	65.16287
747.207	29.06977
747.632	31.07765
748.058	8.02019
748.483	91.21401
748.908	13.03297
749.334	44.11059
749.759	27.06584
750.184	45.1092
750.609	64.15755
751.033	20.0473
751.458	58.13153
751.883	22.05468
752.307	68.16431
752.732	75.19231
753.156	58.14604
753.58	34.08191
754.005	45.11495
754.429	37.08912
754.853	66.16689
755.277	0
755.7	50.12526
756.124	18.04561
756.548	42.10244
756.971	62.15358
757.394	43.11184
757.818	48.12508
758.241	30.0774
758.664	58.14989
759.087	37.08546
759.51	18.04539
759.933	-26.06403
760.356	20.0516
760.778	85.21475
761.201	64.15784
761.623	58.14252
762.046	29.06924
762.468	30.07295
762.89	72.17646
763.312	22.05424
763.734	54.1321
764.156	48.1206
764.578	52.12094
765	51.12714
765.421	90.235
765.843	39.10317
766.264	70.16837
766.686	57.14339
767.107	44.10916
767.528	-9.02346
767.949	-12.03089
768.37	31.07793
768.791	41.10073
769.212	27.06994
769.632	30.07194
770.053	25.06676
770.473	23.05701
770.894	-6.01512
771.314	27.06476
771.734	32.07668
772.154	50.12971
772.575	16.03771
772.994	24.05601
773.414	47.11397
773.834	-28.07075
774.254	39.09786
774.673	54.13244
775.093	20.05003
775.512	25.06339
775.931	47.12098
776.351	45.1132
776.77	58.14541
777.189	28.06804
777.607	-7.01807
778.026	-1.00253
778.445	-25.06377
778.864	12.03091
779.282	45.11072
779.701	-7.018
780.119	-23.05968
780.537	22.05617
780.955	51.13045
781.373	18.04505
781.791	-7.01617
782.209	-4.0093
782.627	7.0186
783.045	25.0588
783.462	-27.07008
783.88	46.12077
784.297	56.14322
784.715	5.01311
785.132	-17.04206
785.549	17.04353
785.966	15.03815
786.383	17.04252
786.8	-19.04472
787.217	-7.01696
787.633	19.04875
788.05	11.02607
788.466	54.12851
788.883	33.08497
789.299	7.01713
789.715	27.06724
790.131	7.01779
790.547	-32.08083
790.963	27.06807
791.379	-13.03337
791.795	-32.07436
792.21	30.07169
792.626	-31.07503
793.041	15.03769
793.457	-13.03266
793.872	13.03095
794.287	43.1063
794.702	-2.00497
795.117	39.0992
795.532	36.09139
795.947	-14.03426
796.362	2.00479
796.776	28.06527
797.191	53.13218
797.605	-17.04147
798.02	29.07209
798.434	1.00227
798.848	62.1546
799.262	24.06086
799.676	-21.05186
800.09	-3.00742
800.504	36.08866
800.918	3.00714
801.331	7.01836
801.745	-21.04891
802.158	13.03307
802.572	0
802.985	41.10002
803.398	25.0606
803.811	11.02822
804.224	19.04756
804.637	27.06533
805.05	-2.00475
805.462	56.13979
805.875	13.03442
806.288	-24.05893
806.7	35.0888
807.112	-4.00948
807.525	0
807.937	3.00757
808.349	2.00503
808.761	-33.08203
809.173	15.03695
809.584	-25.06194
809.996	12.03011
810.408	-5.01319
810.819	32.07738
811.231	74.19553
811.642	77.19029
812.053	137.32958
812.464	131.31228
812.875	119.30407
813.286	14.03622
813.697	-7.0162
814.108	-12.02957
814.519	17.03817
814.929	-37.09484
815.34	17.04161
815.75	-20.05172
816.16	20.05016
816.571	21.05526
816.981	-32.07612
817.391	23.0564
817.801	3.00757
818.211	1.0024
818.62	-5.01236
819.03	23.05711
819.44	40.10423
819.849	44.11194
820.259	2.00512
820.668	-25.06291
821.077	-9.02296
821.486	69.16763
821.895	-3.00744
822.304	3.008
822.713	34.08116
823.122	-6.01511
823.531	19.04524
823.939	-1.00248
824.348	34.08324
824.756	44.11059
825.164	-31.07868
825.573	5.01275
825.981	-27.06717
826.389	30.07605
826.797	2.00513
827.205	16.03777
827.612	18.04459
828.02	1.00241
828.428	6.01538
828.835	-29.07726
829.243	29.06945
829.65	-2.00504
830.057	-6.01465
830.464	1.00246
830.871	5.012
831.278	-4.0098
831.685	85.1906
832.092	20.04962
832.499	15.03348
832.905	15.03818
833.312	1.00232
833.718	9.0225
834.124	-9.02078
834.531	39.0986
834.937	21.05409
835.343	48.11655
835.749	26.06102
836.155	9.02386
836.561	-2.00495
836.966	4.00985
837.372	26.06691
837.777	-18.04553
838.183	8.01816
838.588	3.00757
838.993	-19.04642
839.399	39.09744
839.804	17.04221
840.209	15.03872
840.613	-3.00682
841.018	33.08406
841.423	15.03873
841.828	0
842.232	23.05686
842.637	-4.00959
843.041	-4.01041
843.445	11.02794
843.849	8.02008
844.253	0
844.657	5.01282
845.061	-34.07864
845.465	81.19789
845.869	0
846.272	21.05213
846.676	-29.06979
847.079	16.04136
847.483	-12.03006
847.886	34.0828
848.289	-5.01351
848.692	-51.13087
849.095	18.04371
849.498	18.04527
849.901	33.07637
850.304	-34.08215
850.707	-3.0077
851.109	9.02267
851.512	12.03012
851.914	59.1524
852.316	-9.02309
852.718	38.10108
853.121	10.02502
853.523	81.19428
853.925	28.07396
854.326	40.10129
854.728	-13.03394
855.13	-13.03399
855.531	2.00492
855.933	37.08949
856.334	-16.04049
856.736	59.13616
857.137	26.06159
857.538	41.10476
857.939	37.09328
858.34	25.0614
858.741	-3.00792
859.142	-14.03401
859.542	31.08217
859.943	61.15356
860.343	21.05323
860.744	35.08561
861.144	6.0148
861.544	45.11092
861.945	8.02068
862.345	21.05167
862.745	-29.07293
863.145	13.03104
863.544	31.07888
863.944	11.02661
864.344	-12.02994
864.743	1.00249
865.143	36.09355
865.542	25.05912
865.941	0
866.34	6.0144
866.74	19.05114
867.139	-9.02191
867.537	6.01543
867.936	-23.05636
868.335	9.02302
868.734	-4.01037
869.132	27.06335
869.531	-28.06753
869.929	11.02587
870.327	21.05142
870.726	4.00997
871.124	22.05139
871.522	-8.0205
871.92	15.03745
872.318	9.02206
872.715	17.04177
873.113	-18.04467
873.511	-34.08456
873.908	-36.09259
874.306	19.04804
874.703	28.07022
875.1	4.01021
875.497	5.01214
875.894	17.04261
876.291	-52.12853
876.688	-1.00261
877.085	1.00242
877.482	11.02783
877.878	45.10978
878.275	8.02047
878.671	-44.09816
879.068	8.01948
879.464	38.09299
879.86	5.0121
880.256	16.03961
880.652	24.062
881.048	23.05719
881.444	-16.03834
881.84	7.01804
882.236	-5.01267
882.631	5.01236
883.027	-11.02667
883.422	31.08027
883.817	45.11527
884.213	32.08279
884.608	17.0428
885.003	31.07636
885.398	16.04059
885.793	29.07348
886.188	38.09609
886.582	23.05916
886.977	55.13146
887.371	5.01256
887.766	-10.02532
888.16	46.11537
888.554	-18.04433
888.949	-21.05309
889.343	39.09557
889.737	5.01353
890.131	11.02792
890.525	17.04412
890.918	27.06863
891.312	2.00481
891.706	12.03157
892.099	70.17682
892.492	10.02174
892.886	70.17359
893.279	33.08536
893.672	26.06687
894.065	14.03525
894.458	-15.03794
894.851	15.03651
895.244	53.13638
895.637	-11.02682
896.029	51.12617
896.422	38.09324
896.814	30.07586
897.206	15.03631
897.599	22.05422
897.991	44.10748
898.383	-9.02146
898.775	9.02062
899.167	-31.07478
899.559	-33.08403
899.951	51.1213
900.342	15.03849
900.734	3.00763
901.125	56.14802
901.517	-18.04461
901.908	33.07885
902.299	61.15185
902.69	52.12346
903.082	-9.02174
903.473	33.0805
903.863	-28.07194
904.254	19.04439
904.645	29.07138
905.036	-30.07453
905.426	43.09896
905.817	-5.01249
906.207	17.04141
906.597	4.00952
906.987	-3.00773
907.378	-14.03572
907.768	14.0373
908.158	10.02463
908.547	42.1103
908.937	-9.02306
909.327	9.02199
909.717	31.07818
910.106	19.04664
910.495	1.0025
910.885	59.14975
911.274	40.10061
911.663	-6.01527
912.052	-8.0198
912.441	18.04644
912.83	-20.04727
913.219	5.01308
913.608	0
913.997	-5.0128
914.385	34.08215
914.774	11.02703
915.162	57.1376
915.55	-36.08784
915.939	-13.03331
916.327	-31.07731
916.715	82.2114
917.103	44.10812
917.491	10.02493
917.878	8.01999
918.266	-1.0026
918.654	-27.06984
919.041	23.06029
919.429	-48.11506
919.816	11.0281
920.203	-13.032
920.591	-4.00996
920.978	16.03939
921.365	13.03433
921.752	-50.12145
922.139	13.02849
922.525	27.06687
922.912	25.0611
923.299	28.07103
923.685	-13.03411
924.072	41.09477
924.458	33.08233
924.844	-1.00253
925.231	34.08016
925.617	67.17294
926.003	24.06149
926.389	-38.09705
926.774	8.02045
927.16	28.06997
927.546	15.03868
927.931	50.12571
928.317	9.02099
928.702	17.04025
929.088	58.14004
929.473	-4.01031
929.858	13.03236
930.243	-16.0391
930.628	25.06201
931.013	38.09472
931.398	28.06375
931.783	-29.07625
932.167	3.00736
932.552	-15.03756
932.937	50.12368
933.321	36.09149
933.705	17.04309
934.09	-5.01248
934.474	51.12167
934.858	-33.08598
935.242	-2.00469
935.626	8.02072
936.009	1.00269
936.393	-7.01787
936.777	-36.09275
937.16	4.01053
937.544	-32.07586
937.927	-38.09787
938.311	2.00491
938.694	16.04205
939.077	26.06323
939.46	-1.00245
939.843	29.06087
940.226	45.1162
940.609	7.01652
940.991	22.05668
941.374	-15.03715
941.757	8.02002
942.139	-36.08247
942.522	-7.01659
942.904	-31.07537
943.286	22.05593
943.668	34.08881
944.05	18.04501
944.432	50.12508
944.814	47.11726
945.196	-2.00503
945.578	-6.01475
945.959	16.03794
946.341	29.0704
946.722	-18.04256
947.104	17.04073
947.485	14.03338
947.866	8.0205
948.247	-5.0128
948.628	20.04911
949.009	-12.03123
949.39	39.09666
949.771	19.04463
950.152	33.08173
950.532	-14.03534
950.913	29.07127
951.293	43.11713
951.674	-9.02204
952.054	22.05488
952.434	-13.03254
952.814	-51.12148
953.194	-25.0652
953.574	8.01967
953.954	22.05292
954.334	44.10979
954.714	12.02968
955.093	-20.04905
955.473	-10.02533
955.853	6.01552
956.232	-48.13207
956.611	-10.02404
956.99	-52.1314
957.37	-6.01539
957.749	2.00482
958.128	-31.07891
958.506	20.05233
958.885	-21.0537
959.264	-4.01004
959.643	55.12678
960.021	-11.02747
960.4	-30.0693
960.778	-19.0468
961.156	9.02288
961.535	-15.03546
961.913	-15.0357
962.291	24.06248
962.669	-70.17833
963.047	-21.05438
963.424	-3.00772
963.802	17.04201
964.18	34.08567
964.557	32.07457
964.935	-3.00714
965.312	-5.01324
965.69	26.06537
966.067	18.04413
966.444	-8.01986
966.821	-24.062
967.198	-57.13926
967.575	-5.01231
967.952	2.00469
968.329	15.03676
968.705	30.06582
969.082	42.10911
969.458	-33.08095
969.835	-58.14241
970.211	-10.02604
970.587	-23.05788
970.963	31.07957
971.339	-33.08742
971.715	7.01763
972.091	5.01246
972.467	13.03253
972.843	21.05304
973.219	76.17982
973.594	20.05278
973.97	13.03117
974.345	-6.01463
974.721	25.06074
975.096	6.01474
975.471	-38.0898
975.846	5.0122
976.221	56.14402
976.596	18.04382
976.971	3.00739
977.346	58.13457
977.72	-1.00254
978.095	-7.01811
978.469	-26.06275
978.844	16.04003
979.218	12.02945
979.593	-45.10842
979.967	5.01237
980.341	19.04448
980.715	8.02019
981.089	19.04809
981.463	-6.01405
981.837	-19.04738
982.21	-17.03906
982.584	18.04408
982.957	14.03533
983.331	36.08528
983.704	35.08697
984.078	7.01736
984.451	-34.08419
984.824	31.07709
985.197	6.01471
985.57	25.06287
985.943	29.07096
986.316	14.03448
986.688	-22.0537
987.061	34.08057
987.434	-22.05766
987.806	-16.03895
988.179	35.0843
988.551	36.09162
988.923	-9.02216
989.295	43.10774
989.667	-20.0496
990.039	14.03504
990.411	10.0233
990.783	-37.08549
991.155	34.08361
991.527	3.00729
991.898	-32.08086
992.27	15.03772
992.641	21.05277
993.012	25.05925
993.384	6.01451
993.755	-10.0258
994.126	4.0097
994.497	3.00752
994.868	30.06916
995.239	35.08525
995.61	24.06123
995.98	17.04198
996.351	32.08046
996.722	5.01185
997.092	5.01198
997.462	25.06003
997.833	-49.11726
998.203	28.06791
998.573	-37.09355
998.943	16.03816
999.313	-61.14809
999.683	3.00727
1000.053	22.05086
1000.423	-29.07109
1000.792	37.09696
1001.162	19.04714
1001.531	12.02985
1001.901	-8.02009
1002.27	21.04775
1002.639	-31.08032
1003.009	1.00241
1003.378	-25.06442
1003.747	13.03107
1004.116	-12.02926
1004.485	-21.05046
1004.853	-12.0306
1005.222	17.04324
1005.591	45.10715
1005.959	56.13029
1006.328	19.0436
1006.696	-23.05611
1007.064	36.09136
1007.433	-19.04759
1007.801	2.00488
1008.169	28.07148
1008.537	22.04865
1008.905	-45.10781
1009.273	25.06208
1009.64	18.04376
1010.008	20.04816
1010.375	-35.08375
1010.743	74.17013
1011.11	7.01685
1011.478	-15.03729
1011.845	17.04017
1012.212	23.05314
1012.579	26.06405
1012.946	-12.02898
1013.313	-15.0357
1013.68	4.00905
1014.047	4.00982
1014.414	1.0024
1014.78	5.01249
1015.147	3.00726
1015.513	-4.00977
1015.88	16.04089
1016.246	4.00992
1016.612	3.00696
1016.978	19.04709
1017.344	24.05954
1017.71	-15.03626
1018.076	-7.01661
1018.442	45.11527
1018.808	-8.02027
1019.174	46.1162
1019.539	48.10898
1019.905	-17.0406
1020.27	-33.0831
1020.636	21.05033
1021.001	30.07276
1021.366	-25.0606
1021.731	17.0439
1022.096	-32.08149
1022.461	-60.14328
1022.826	23.05542
1023.191	1.00264
1023.556	-11.02617
1023.92	-5.01231
1024.285	-9.02209
1024.649	-4.00984
1025.014	26.06417
1025.378	3.00765
1025.742	10.02505
1026.107	-25.05744
1026.471	23.05348
1026.835	-15.0373
1027.199	26.06346
1027.562	24.05665
1027.926	4.00979
1028.29	42.10783
1028.654	23.05363
1029.017	-9.0222
1029.381	54.13176
1029.744	52.13336
1030.107	11.02589
1030.471	27.06486
1030.834	19.04348
1031.197	-19.04578
1031.56	-53.12702
1031.923	-24.06269
1032.286	-41.0965
1032.648	22.05314
1033.011	19.04475
1033.374	25.05843
1033.736	4.01069
1034.099	46.11332
1034.461	32.08241
1034.823	42.10507
1035.185	36.0911
1035.548	23.05646
1035.91	-5.01222
1036.272	6.01388
1036.634	-14.03427
1036.995	4.00942
1037.357	9.02209
1037.719	-1.00244
1038.08	-12.02846
1038.442	-12.02885
1038.803	50.121
1039.165	3.0076
1039.526	-24.05858
1039.887	-22.05358
1040.248	7.01769
1040.609	-21.05214
1040.97	17.04241
1041.331	-8.02032
1041.692	-13.03106
1042.053	25.0571
1042.413	5.0117
1042.774	-17.04172
1043.134	22.05201
1043.495	8.02018
1043.855	-8.01956
1044.215	-25.06228
1044.576	48.11633
1044.936	-60.13844
1045.296	23.05738
1045.656	42.10316
1046.016	-4.00975
1046.375	34.08379
1046.735	30.06955
1047.095	18.04267
1047.454	2.00425
1047.814	-10.02401
1048.173	-9.02144
1048.533	0
1048.892	-11.02714
1049.251	4.01006
1049.61	32.07939
1049.969	-30.07128
1050.328	12.02633
1050.687	29.07114
1051.046	-27.06648
1051.405	27.06743
1051.763	3.00701
1052.122	22.05589
1052.48	-6.01477
1052.839	27.06407
1053.197	-46.10938
1053.555	-45.10203
1053.914	33.08107
1054.272	24.05777
1054.63	25.06214
1054.988	15.03587
1055.345	24.05259
1055.703	-13.0313
1056.061	1.00259
1056.419	-2.00522
1056.776	0
1057.134	-7.01651
1057.491	17.04267
1057.848	4.01003
1058.206	-2.00477
1058.563	-6.01354
1058.92	11.0255
1059.277	-52.12928
1059.634	52.12313
1059.991	-38.09102
1060.348	20.04651
1060.704	11.02656
1061.061	26.05887
1061.418	23.05657
1061.774	-4.01
1062.131	2.00532
1062.487	-21.04972
1062.843	9.02262
1063.199	1.00249
1063.555	-15.03525
1063.911	1.00256
1064.267	-9.01898
1064.623	-2.00494
1064.979	14.03269
1065.335	-52.12408
1065.691	-39.09375
1066.046	-37.08235
1066.402	18.04168
1066.757	-25.06323
1067.112	-35.08567
1067.468	-17.04102
1067.823	-30.07336
1068.178	-9.0219
1068.533	-17.04143
1068.888	5.0121
1069.243	8.0199
1069.598	15.03691
1069.952	-4.0093
1070.307	20.05027
1070.662	13.03144
1071.016	-6.01384
1071.371	25.05735
1071.725	-15.03614
1072.079	-47.11393
1072.434	-5.01232
1072.788	35.08494
1073.142	-5.01237
1073.496	36.08797
1073.85	-37.08698
1074.203	-1.00241
1074.557	-3.00805
1074.911	-3.00717
1075.265	27.06295
1075.618	1.00246
1075.971	37.08857
1076.325	12.03086
1076.678	88.20514
1077.031	-18.04186
1077.385	62.13785
1077.738	45.10397
1078.091	19.04456
1078.444	7.01648
1078.796	16.0395
1079.149	0
1079.502	18.04335
1079.855	18.0427
1080.207	8.0197
1080.56	21.05494
1080.912	-2.00493
1081.264	41.09912
1081.617	39.09666
1081.969	24.06149
1082.321	48.11843
1082.673	41.09605
1083.025	-6.0143
1083.377	-3.0065
1083.728	14.03293
1084.08	23.05813
1084.432	-8.0197
1084.783	-15.03518
1085.135	30.0757
1085.486	0
1085.838	24.05947
1086.189	47.11461
1086.54	-9.02155
1086.891	26.0667
1087.242	-9.02211
1087.593	-27.06557
1087.944	67.15382
1088.295	-9.02051
1088.646	0
1088.996	22.05394
1089.347	47.11534
1089.698	24.05819
1090.048	-32.08373
1090.398	23.05363
1090.749	-12.0289
1091.099	-14.03582
1091.449	9.02244
1091.799	32.08106
1092.149	8.02014
1092.499	-8.01951
1092.849	5.0128
1093.199	-8.02
1093.548	-22.05348
1093.898	18.04571
1094.248	-3.0077
1094.597	-13.03396
1094.947	15.04012
1095.296	23.05736
1095.645	14.03638
1095.994	40.09723
1096.343	26.06556
1096.692	13.03474
1097.041	-11.03022
1097.39	0
1097.739	-18.04681
1098.088	39.10417
1098.437	-7.01863
1098.785	12.03263
1099.134	6.01597
1099.482	-4.01102
1099.83	6.01566
1100.179	17.04465
1100.527	23.06162
1100.875	-5.01335
1101.223	-17.04524
1101.571	2.00558
1101.919	-14.03731
1102.267	-29.08233
1102.615	13.04179
1102.962	3.00965
1103.31	0
1103.658	-2.00644
