Data from N2 R1 sample 6_Subt2__4__13-33-07-956.txt Node

Date: Wed Aug 27 13:33:07 PDT 2025
User: uwsun
Spectrometer: HDX01956
Trigger mode: 0
Integration Time (sec): 5.000000E-1
Scans to average: 1
Nonlinearity correction enabled: true
Boxcar width: 0
Storing dark spectrum: false
XAxis mode: Wavelengths
Number of Pixels in Spectrum: 2068
>>>>>Begin Spectral Data<<<<<
194.03	181.51429
194.578	194.6188
195.127	183.57659
195.676	186.58742
196.225	148.3972
196.773	186.51576
197.321	291.79301
197.87	411.02466
198.418	436.09437
198.966	412.04917
199.513	410.00866
200.061	451.11848
200.609	408.04298
201.156	371.80958
201.704	452.11586
202.251	420.07822
202.798	481.21722
203.345	479.14201
203.892	440.07186
204.438	406.953
204.985	449.03799
205.532	415.0611
206.078	459.09676
206.624	491.1729
207.17	473.06365
207.716	487.15712
208.262	421.81418
208.808	446.07558
209.354	443.05726
209.899	427.04303
210.445	419.01624
210.99	418.98842
211.535	460.04893
212.08	448.0207
212.625	395.96591
213.17	412.00353
213.715	412.91177
214.259	420.95153
214.804	410.99121
215.348	452.00367
215.892	427.99543
216.436	394.89047
216.98	409.8887
217.524	367.85391
218.068	391.95116
218.612	410.00718
219.155	401.92306
219.698	397.91859
220.242	389.93674
220.785	385.88023
221.328	453.08817
221.871	348.85023
222.414	412.99941
222.956	342.81501
223.499	408.89878
224.041	438.99995
224.583	337.71326
225.126	393.85685
225.668	431.02111
226.21	370.90934
226.751	384.83457
227.293	359.80593
227.835	337.80787
228.376	414.93566
228.918	384.94234
229.459	379.9299
230	342.79403
230.541	398.90317
231.082	356.85356
231.622	371.85334
232.163	366.87486
232.704	406.98523
233.244	346.83149
233.784	362.86068
234.324	327.71781
234.864	364.81262
235.404	394.90424
235.944	391.89897
236.484	400.95866
237.023	383.89043
237.563	397.89852
238.102	356.81148
238.641	390.95387
239.18	376.86708
239.719	359.8854
240.258	405.88563
240.797	426.99797
241.335	357.85352
241.874	390.74574
242.412	408.95021
242.95	359.85272
243.488	443.98996
244.026	364.82268
244.564	389.78042
245.102	427.94555
245.64	388.9136
246.177	367.80492
246.715	402.93034
247.252	424.93793
247.789	334.61082
248.326	422.99633
248.863	429.91787
249.4	382.83764
249.936	426.86747
250.473	417.94723
251.009	449.00257
251.546	425.92621
252.082	387.82158
252.618	437.95478
253.154	424.98746
253.69	425.93642
254.226	342.78995
254.761	401.88318
255.297	464.99382
255.832	392.89749
256.367	443.01558
256.903	423.90856
257.438	394.89119
257.972	490.05933
258.507	437.98621
259.042	365.76947
259.576	365.7813
260.111	411.92112
260.645	400.83862
261.179	397.89852
261.713	417.90647
262.247	426.95335
262.781	378.77429
263.315	463.08016
263.849	466.11839
264.382	393.87499
264.915	498.12934
265.449	448.06289
265.982	445.97554
266.515	447.04848
267.048	433.87872
267.58	424.88972
268.113	451.94908
268.646	475.12554
269.178	471.02881
269.71	422.87966
270.243	428.9448
270.775	432.06133
271.307	420.97083
271.838	487.09116
272.37	433.0223
272.902	439.96766
273.433	468.98766
273.965	440.02822
274.496	448.0588
275.027	498.18171
275.558	460.0721
276.089	470.12031
276.62	461.11621
277.15	444.05176
277.681	468.97943
278.211	490.14527
278.741	485.03307
279.272	460.01385
279.802	476.1394
280.332	490.11342
280.861	491.12762
281.391	428.9452
281.921	456.03938
282.45	510.21441
282.98	480.19072
283.509	492.06366
284.038	460.00665
284.567	468.03367
285.096	485.11337
285.625	431.93809
286.153	492.10351
286.682	524.15227
287.21	489.12078
287.739	533.19293
288.267	527.21139
288.795	491.22668
289.323	493.10146
289.851	475.05375
290.378	536.15549
290.906	517.20587
291.433	524.23203
291.961	523.13875
292.488	494.15508
293.015	520.16068
293.542	567.35469
294.069	576.33866
294.596	523.21749
295.122	572.2806
295.649	541.1186
296.175	535.23225
296.702	517.18316
297.228	591.33323
297.754	552.16814
298.28	552.19004
298.806	539.20836
299.332	565.19439
299.857	522.11612
300.383	533.25832
300.908	563.30558
301.433	537.22653
301.958	653.41079
302.483	606.42118
303.008	544.2413
303.533	611.4832
304.058	573.24937
304.582	599.33974
305.107	543.33569
305.631	594.25716
306.155	623.35853
306.679	625.3652
307.203	594.28893
307.727	633.40598
308.251	578.31474
308.775	662.44824
309.298	640.43242
309.822	611.42538
310.345	685.47558
310.868	627.38169
311.391	638.4297
311.914	669.55407
312.437	596.2493
312.96	617.346
313.482	680.47451
314.005	672.56196
314.527	643.54868
315.049	738.67561
315.571	657.34974
316.093	721.61022
316.615	689.50514
317.137	700.37906
317.659	678.47641
318.18	664.45323
318.702	737.56665
319.223	732.35643
319.744	730.48745
320.265	729.59528
320.786	777.73036
321.307	792.76414
321.828	800.59039
322.348	734.5376
322.869	776.65213
323.389	968.37508
323.909	846.71161
324.43	808.69649
324.95	847.70543
325.47	882.89904
325.989	827.70935
326.509	875.70137
327.029	883.73974
327.548	839.65294
328.067	954.98743
328.587	846.80983
329.106	967.90723
329.625	883.99558
330.144	861.71142
330.662	934.86315
331.181	926.83694
331.7	926.83779
332.218	1071.9031
332.736	980.90628
333.255	1052.04023
333.773	1029.00735
334.291	965.00295
334.808	954.78275
335.326	1048.94625
335.844	1063.04843
336.361	1029.17378
336.879	1155.19754
337.396	1114.17814
337.913	1167.19582
338.43	1089.98208
338.947	1121.1687
339.464	1213.06651
339.981	1168.2143
340.497	1156.28272
341.014	1177.30104
341.53	1157.07628
342.046	1207.32993
342.562	1248.40983
343.078	1216.24652
343.594	1275.36696
344.11	1249.28769
344.626	1306.52566
345.141	1231.14779
345.657	1321.19872
346.172	1360.48739
346.687	1330.31468
347.202	1387.33943
347.717	1372.43811
348.232	1378.61357
348.747	1370.35724
349.261	1407.25378
349.776	1423.4819
350.29	1544.77333
350.805	1431.64319
351.319	1480.48725
351.833	1487.45808
352.347	1410.44438
352.861	1541.58003
353.374	1460.39928
353.888	1492.53457
354.401	1554.54234
354.915	1669.62802
355.428	1524.72062
355.941	1597.57949
356.454	1615.43097
356.967	1592.59642
357.48	1636.53379
357.993	1608.74606
358.505	1636.78534
359.018	1709.85586
359.53	1614.63406
360.042	1667.46574
360.554	1626.65674
361.066	1679.80684
361.578	1657.39344
362.09	1708.72298
362.602	1712.43248
363.113	1736.63943
363.625	1740.51592
364.136	1809.50828
364.647	1816.69344
365.158	1871.75233
365.669	1900.88904
366.18	1857.74946
366.691	1891.5384
367.201	1876.79713
367.712	1907.70878
368.222	1913.64203
368.733	2025.52356
369.243	2007.60058
369.753	2046.71177
370.263	2129.98844
370.773	2067.10012
371.282	2142.89638
371.792	2238.81468
372.301	2269.05227
372.811	2252.33116
373.32	2350.55067
373.829	2447.86662
374.338	2424.63168
374.847	2553.76493
375.356	2519.8485
375.865	2668.37663
376.373	2846.57766
376.882	2845.1217
377.39	2858.86127
377.898	3024.98947
378.407	3208.48411
378.915	3301.05659
379.423	3427.42898
379.93	3509.14121
380.438	3682.43511
380.946	3855.04418
381.453	4099.08432
381.96	4310.74066
382.468	4693.42105
382.975	4801.47369
383.482	4915.07081
383.989	4902.70749
384.495	5230.8956
385.002	5453.26032
385.509	5839.50459
386.015	6217.89453
386.521	6505.17411
387.028	6807.27119
387.534	6834.14415
388.04	7189.5549
388.546	7401.67162
389.051	7999.56266
389.557	8547.65907
390.063	8868.69768
390.568	9165.2945
391.073	9585.25725
391.578	9998.77596
392.084	10294.73601
392.589	10868.81299
393.093	11971.66026
393.598	12847.53747
394.103	13933.77326
394.607	15345.84217
395.112	16214.58373
395.616	17195.77825
396.12	18640.95271
396.624	20439.428
397.128	22199.99814
397.632	24198.47574
398.136	26231.43755
398.639	29126.93379
399.143	33236.65221
399.646	36472.23426
400.15	40153.67189
400.653	45469.2569
401.156	52077.58156
401.659	55209.93359
402.162	53708.77139
402.664	47275.14456
403.167	32260.27245
403.67	3851.94142
404.172	0
404.674	0
405.176	0
405.678	0
406.18	0
406.682	0
407.184	0
407.686	12367.42319
408.187	34596.90747
408.688	44563.94194
409.19	48906.19284
409.691	51236.67962
410.192	52883.26968
410.693	53713.23343
411.194	54189.54801
411.694	54767.79104
412.195	55625.98899
412.696	55971.27715
413.196	55815.15953
413.696	55679.11484
414.196	55701.12383
414.696	55889.82509
415.196	52009.07469
415.696	42768.9456
416.196	33383.83991
416.695	28311.71365
417.195	26285.53299
417.694	25077.76511
418.194	23361.2735
418.693	22032.76381
419.192	21669.85957
419.691	21017.42322
420.19	20541.82736
420.688	19833.18737
421.187	18852.21553
421.685	17250.61239
422.184	15185.53055
422.682	13375.66716
423.18	11780.53388
423.678	10543.10738
424.176	9736.06564
424.674	9473.86805
425.172	8740.18416
425.669	8010.52934
426.167	7417.70725
426.664	6777.19118
427.161	6325.1684
427.659	5922.52479
428.156	5570.03429
428.652	5320.20369
429.149	5070.07133
429.646	4781.85599
430.143	4563.43336
430.639	4301.57184
431.135	3934.17216
431.632	3852.86634
432.128	3596.09882
432.624	3500.67563
433.12	3367.06418
433.616	3289.96569
434.111	3280.49949
434.607	3184.53837
435.103	3040.00882
435.598	2791.92913
436.093	2690.52999
436.588	2529.34418
437.083	2475.48499
437.578	2291.3783
438.073	2252.90611
438.568	2119.73543
439.062	2099.23302
439.557	1998.53265
440.051	1982.46752
440.546	1925.47494
441.04	1879.61879
441.534	1832.75001
442.028	1792.52441
442.522	1713.50889
443.015	1785.29847
443.509	1773.66727
444.002	1690.58217
444.496	1671.18936
444.989	1670.55274
445.482	1610.56957
445.975	1640.3301
446.468	1635.20993
446.961	1454.97335
447.454	1614.34406
447.947	1498.31797
448.439	1474.38255
448.931	1398.07174
449.424	1404.41479
449.916	1398.30176
450.408	1364.06358
450.9	1291.15787
451.392	1338.35182
451.884	1317.08127
452.375	1235.18522
452.867	1261.94542
453.358	1248.99111
453.849	1263.86803
454.341	1124.80754
454.832	1228.85607
455.323	1168.09236
455.814	1162.91958
456.304	1177.95356
456.795	1191.9834
457.285	1050.72331
457.776	1088.79484
458.266	1117.98303
458.756	1050.92876
459.247	1017.86007
459.737	1121.03094
460.226	1035.76794
460.716	946.76081
461.206	987.83864
461.695	975.91584
462.185	1036.88206
462.674	1001.76921
463.163	968.67483
463.653	942.54628
464.142	916.75293
464.63	937.79448
465.119	900.65516
465.608	887.64957
466.096	868.53319
466.585	886.64485
467.073	840.62896
467.561	863.67721
468.05	817.55303
468.538	844.6881
469.026	752.48513
469.513	781.34871
470.001	826.59263
470.489	831.65862
470.976	731.39671
471.463	739.54774
471.951	698.46533
472.438	645.30778
472.925	722.45846
473.412	683.42466
473.899	689.34876
474.385	681.43934
474.872	641.29196
475.359	682.44931
475.845	617.12844
476.331	590.1315
476.817	579.23365
477.303	547.129
477.789	599.26803
478.275	536.18659
478.761	577.24056
479.247	486.97524
479.732	545.21782
480.218	520.20218
480.703	495.10457
481.188	403.78908
481.673	474.98672
482.158	458.91524
482.643	476.09769
483.128	496.03983
483.612	482.02244
484.097	465.03751
484.581	413.87409
485.066	453.01235
485.55	419.85186
486.034	420.84747
486.518	346.75295
487.002	431.99209
487.486	409.93057
487.969	356.8141
488.453	371.8656
488.936	380.80338
489.42	362.75695
489.903	303.7142
490.386	362.56759
490.869	308.6349
491.352	287.65594
491.835	323.63363
492.318	321.69574
492.8	365.72888
493.283	358.84986
493.765	319.74547
494.247	274.61071
494.73	288.60409
495.212	249.5675
495.694	289.64774
496.175	263.6011
496.657	288.64802
497.139	281.47566
497.62	231.53434
498.102	270.64938
498.583	231.5597
499.064	200.43044
499.545	238.52564
500.026	229.50058
500.507	272.60826
500.988	238.56895
501.469	185.45196
501.949	208.49173
502.43	264.60739
502.91	183.3763
503.39	214.5151
503.87	230.52494
504.35	212.48113
504.83	205.44092
505.31	205.48097
505.79	190.44587
506.269	175.39805
506.749	169.37895
507.228	171.39367
507.707	155.33654
508.187	181.41852
508.666	134.3201
509.145	158.3628
509.623	164.38125
510.102	170.40174
510.581	168.38993
511.059	174.42801
511.538	153.38239
512.016	192.45197
512.494	228.54088
512.972	123.28589
513.45	191.43567
513.928	168.40086
514.406	159.38207
514.884	151.37957
515.361	124.28906
515.839	156.35117
516.316	150.35586
516.793	121.30132
517.27	156.36823
517.747	166.4187
518.224	122.27722
518.701	133.29381
519.178	127.30923
519.654	96.22511
520.131	86.21038
520.607	102.24794
521.083	147.33193
521.56	116.26914
522.036	73.16059
522.512	111.26653
522.987	108.25474
523.463	145.33968
523.939	93.22306
524.414	106.24321
524.89	157.36851
525.365	80.1792
525.84	84.19921
526.315	127.30228
526.79	42.09451
527.265	193.43312
527.74	72.17331
528.215	186.43717
528.689	100.22022
529.164	148.31963
529.638	136.3423
530.112	91.21385
530.587	111.24029
531.061	126.30169
531.534	124.29803
532.008	119.28476
532.482	97.21885
532.956	105.26281
533.429	69.16499
533.903	57.12545
534.376	128.28377
534.849	31.07151
535.322	86.20214
535.795	87.20906
536.268	70.16831
536.741	35.08344
537.213	82.18792
537.686	61.1477
538.158	70.15861
538.631	85.20154
539.103	90.2036
539.575	100.2067
540.047	107.23578
540.519	94.22025
540.991	47.11329
541.463	78.18669
541.934	75.16956
542.406	53.12494
542.877	56.12493
543.348	50.11674
543.82	105.25174
544.291	67.15333
544.762	146.34008
545.233	107.26219
545.703	98.21563
546.174	153.34844
546.645	183.42768
547.115	194.45561
547.585	134.29868
548.056	168.39224
548.526	184.42081
548.996	181.41919
549.466	206.4802
549.935	229.52424
550.405	212.45038
550.875	229.52003
551.344	173.40034
551.814	256.5635
552.283	274.56228
552.752	224.49576
553.221	271.56353
553.69	240.50519
554.159	307.71349
554.628	319.6793
555.096	355.83641
555.565	324.6937
556.033	288.64005
556.502	319.73083
556.97	218.4603
557.438	275.61484
557.906	283.63586
558.374	244.53754
558.842	286.65011
559.31	310.65971
559.777	301.6907
560.245	304.66409
560.712	364.78168
561.18	363.75483
561.647	342.71291
562.114	461.98206
562.581	398.89437
563.048	463.97733
563.514	441.99686
563.981	443.93348
564.448	468.953
564.914	496.03066
565.381	562.12912
565.847	516.07897
566.313	627.29671
566.779	618.24239
567.245	579.1866
567.711	637.34623
568.176	608.19304
568.642	645.41131
569.108	674.43851
569.573	644.30962
570.038	703.26472
570.504	771.469
570.969	710.50102
571.434	745.37199
571.899	830.65088
572.363	784.48694
572.828	831.54523
573.293	876.66578
573.757	849.60066
574.222	907.6593
574.686	838.56252
575.15	899.76053
575.614	908.70081
576.078	890.69162
576.542	867.60273
577.006	905.6415
577.469	867.70977
577.933	892.63386
578.396	878.6979
578.86	876.68353
579.323	909.7793
579.786	807.42704
580.249	809.5281
580.712	772.56601
581.175	785.62536
581.637	758.44384
582.1	678.23557
582.563	769.36464
583.025	726.49202
583.487	737.26308
583.95	676.25122
584.412	646.1474
584.874	703.45865
585.336	639.31035
585.797	609.13624
586.259	589.20604
586.721	558.15664
587.182	605.21147
587.643	483.96408
588.105	510.04756
588.566	486.89157
589.027	454.97828
589.488	436.8838
589.949	471.01232
590.41	483.84529
590.87	377.76053
591.331	428.82713
591.791	406.84669
592.252	367.75805
592.712	358.76913
593.172	373.76111
593.632	334.65196
594.092	326.66052
594.552	300.58364
595.011	307.64977
595.471	353.7167
595.931	361.72458
596.39	354.77821
596.849	311.66313
597.308	222.43827
597.768	281.66621
598.227	260.57399
598.685	324.67179
599.144	345.73977
599.603	334.72036
600.062	303.59552
600.52	353.71801
600.978	286.62715
601.437	333.69184
601.895	244.47492
602.353	337.67141
602.811	377.76263
603.269	360.77243
603.727	352.76536
604.184	374.76748
604.642	351.77178
605.099	380.80619
605.557	354.77952
606.014	427.82104
606.471	439.98183
606.928	415.79797
607.385	491.05946
607.842	505.02443
608.299	490.00504
608.755	468.98983
609.212	575.11357
609.668	479.93878
610.125	453.95916
610.581	452.92837
611.037	449.89704
611.493	434.90628
611.949	441.93947
612.405	532.95486
612.861	475.97275
613.316	526.11012
613.772	476.95121
614.227	456.93828
614.683	547.00975
615.138	495.02378
615.593	530.0892
616.048	530.06275
616.503	466.99207
616.958	469.03005
617.412	483.00918
617.867	483.96094
618.321	543.99542
618.776	500.96953
619.23	436.91126
619.684	547.08654
620.138	434.87934
620.592	463.99061
621.046	448.92389
621.5	464.00558
621.954	474.9415
622.407	442.87712
622.861	431.94605
623.314	396.81116
623.768	423.88664
624.221	406.72265
624.674	416.86022
625.127	379.79898
625.58	383.77548
626.033	369.72832
626.485	391.85863
626.938	386.82607
627.39	364.77731
627.843	346.72734
628.295	330.69585
628.747	354.77298
629.199	307.6455
629.651	307.65545
630.103	333.70695
630.555	343.68272
631.006	291.63449
631.458	331.72964
631.909	305.64441
632.361	292.64004
632.812	253.55445
633.263	243.49382
633.714	308.62548
634.165	230.52134
634.616	241.53905
635.067	215.44669
635.518	232.52224
635.968	260.49257
636.419	220.45412
636.869	160.35973
637.319	238.5375
637.769	163.35104
638.219	181.41453
638.669	154.35333
639.119	151.34916
639.569	182.42226
640.019	164.36176
640.468	172.37146
640.918	114.26303
641.367	158.34604
641.816	136.29107
642.265	125.27833
642.714	146.3257
643.163	116.25888
643.612	170.39691
644.061	128.26445
644.51	75.16908
644.958	111.24203
645.406	145.33662
645.855	163.39049
646.303	178.40201
646.751	138.3076
647.199	122.269
647.647	158.35174
648.095	134.30017
648.543	220.44086
648.99	95.22438
649.438	118.26628
649.885	156.36923
650.333	135.26069
650.78	128.3032
651.227	154.36605
651.674	147.33044
652.121	133.31753
652.568	159.37815
653.015	134.33096
653.461	145.33595
653.908	152.34329
654.354	146.34115
654.801	140.32854
655.247	107.22955
655.693	83.21134
656.139	165.39182
656.585	146.3453
657.031	142.33141
657.477	118.25637
657.922	122.28048
658.368	146.35596
658.813	118.27107
659.259	135.31947
659.704	127.29355
660.149	106.24681
660.594	98.23178
661.039	62.14134
661.484	126.29604
661.929	87.20173
662.373	122.30618
662.818	121.29649
663.262	112.26806
663.707	110.27478
664.151	71.17152
664.595	99.24097
665.039	124.30356
665.483	146.36997
665.927	76.1771
666.371	101.23827
666.814	81.19398
667.258	109.25874
667.701	127.27316
668.145	100.24735
668.588	105.25691
669.031	95.22594
669.474	93.22391
669.917	82.18179
670.36	75.1863
670.803	107.2579
671.245	143.30678
671.688	96.2317
672.13	89.20506
672.573	67.16951
673.015	86.20686
673.457	90.20019
673.899	97.23451
674.341	22.05374
674.783	65.15797
675.225	109.26946
675.666	83.20278
676.108	30.06587
676.549	95.22429
676.991	64.1446
677.432	152.31672
677.873	81.18953
678.314	74.17806
678.755	99.24358
679.196	105.24636
679.637	99.24277
680.078	107.25223
680.518	82.19198
680.959	41.09841
681.399	95.2358
681.839	85.20844
682.28	75.18779
682.72	57.13458
683.16	140.34844
683.6	116.26434
684.039	45.096
684.479	31.07742
684.919	67.16002
685.358	47.11963
685.798	127.33517
686.237	48.11751
686.676	51.11821
687.115	61.14558
687.554	97.23345
687.993	53.12002
688.432	90.20857
688.871	103.23779
689.309	81.19679
689.748	106.22647
690.186	114.27368
690.625	95.22673
691.063	67.16436
691.501	72.1807
691.939	89.22589
692.377	95.23563
692.815	68.16585
693.253	42.10217
693.69	32.07266
694.128	94.23226
694.565	29.07069
695.003	43.1103
695.44	71.17126
695.877	69.16518
696.314	47.104
696.751	83.19025
697.188	0
697.625	45.10414
698.061	56.13791
698.498	81.19811
698.934	43.10545
699.371	53.12765
699.807	55.13282
700.243	13.03188
700.679	54.12484
701.115	38.0898
701.551	38.09085
701.987	107.24398
702.422	65.15768
702.858	68.16536
703.294	34.07776
703.729	71.17507
704.164	2.00491
704.599	33.07531
705.035	52.11945
705.47	43.10572
705.904	77.18405
706.339	77.18081
706.774	87.20779
707.209	78.18476
707.643	63.1534
708.078	33.08146
708.512	5.01282
708.946	40.09698
709.38	62.14981
709.814	88.2066
710.248	55.13682
710.682	61.14842
711.116	93.22865
711.549	86.22494
711.983	11.02629
712.416	56.13465
712.85	86.21685
713.283	60.14361
713.716	-13.03304
714.149	52.12503
714.582	100.22926
715.015	72.18064
715.448	71.18072
715.881	39.08562
716.313	10.02369
716.746	34.08212
717.178	52.12763
717.61	73.18555
718.043	43.10837
718.475	37.09083
718.907	34.08607
719.339	59.13816
719.77	43.10423
720.202	43.11045
720.634	70.17366
721.065	75.18166
721.497	80.19897
721.928	72.17999
722.359	69.17121
722.79	41.10099
723.221	42.10651
723.652	52.1342
724.083	75.17405
724.514	62.14408
724.945	43.10329
725.375	57.13708
725.806	22.05496
726.236	23.0592
726.666	80.19323
727.096	92.22956
727.526	73.18778
727.956	69.1619
728.386	99.24663
728.816	120.31033
729.246	20.0498
729.675	25.06262
730.105	45.11288
730.534	94.22292
730.964	73.18522
731.393	79.19545
731.822	44.11241
732.251	51.13164
732.68	59.13962
733.109	88.22157
733.537	51.12576
733.966	67.16806
734.395	73.17155
734.823	52.11969
735.251	35.08605
735.68	64.1612
736.108	72.18459
736.536	102.24553
736.964	22.05248
737.392	55.1394
737.82	10.02415
738.247	103.25005
738.675	56.13368
739.102	81.2069
739.53	24.06203
739.957	32.08313
740.384	81.19944
740.811	41.10499
741.238	49.12083
741.665	55.13
742.092	72.17364
742.519	65.16463
742.945	53.1292
743.372	70.17562
743.798	61.15855
744.225	66.16056
744.651	56.14216
745.077	53.13381
745.503	79.19609
745.929	39.0956
746.355	-7.01727
746.781	0
747.207	18.04339
747.632	21.0527
748.058	6.01515
748.483	90.2117
748.908	36.09094
749.334	58.14541
749.759	71.17172
750.184	27.06574
750.609	56.13806
751.033	-6.01426
751.458	43.09781
751.883	37.09171
752.307	76.18336
752.732	77.19737
753.156	63.15848
753.58	47.11294
754.005	26.06663
754.429	23.05554
754.853	52.13182
755.277	21.05037
755.7	47.11781
756.124	18.04561
756.548	65.15786
756.971	55.13642
757.394	52.13504
757.818	44.11473
758.241	65.16667
758.664	49.12683
759.087	-12.02799
759.51	28.07048
759.933	13.03178
760.356	76.19416
760.778	145.3624
761.201	26.06457
761.623	83.203
762.046	35.08347
762.468	45.10912
762.89	5.01241
763.312	43.1056
763.734	56.13694
764.156	29.07311
764.578	29.06775
765	34.08502
765.421	80.20925
765.843	24.06365
766.264	38.09196
766.686	26.06577
767.107	25.06224
767.528	40.10341
767.949	27.06904
768.37	67.16734
768.791	61.14931
769.212	41.10594
769.632	26.0624
770.053	27.07207
770.473	54.13308
770.894	21.05268
771.314	-12.029
771.734	62.14771
772.154	23.05994
772.575	6.01417
772.994	24.05601
773.414	34.08265
773.834	-7.01762
774.254	39.09786
774.673	55.13487
775.093	18.04505
775.512	20.05075
775.931	8.02073
776.351	23.05809
776.77	14.03538
777.189	34.08252
777.607	-8.02065
778.026	-13.03291
778.445	-38.09715
778.864	9.02319
779.282	65.15933
779.701	27.06902
780.119	11.02837
780.537	-13.03339
780.955	29.07447
781.373	20.05003
781.791	-10.02311
782.209	-7.01628
782.627	-20.05338
783.045	-16.03793
783.462	-18.04665
783.88	14.03696
784.297	51.13055
784.715	15.03927
785.132	3.00739
785.549	36.09188
785.966	13.03308
786.383	-14.03521
786.8	-36.08501
787.217	0
787.633	24.06153
788.05	-29.06926
788.466	34.08122
788.883	25.06446
789.299	-17.0418
789.715	35.08703
790.131	17.04312
790.547	-12.0302
790.963	18.04545
791.379	-10.02566
791.795	6.01384
792.21	62.14726
792.626	-23.05558
793.041	-3.00756
793.457	4.01002
793.872	-6.01434
794.287	57.14055
794.702	24.05939
795.117	38.09667
795.532	-5.01279
795.947	-9.022
796.362	-5.01198
796.776	-12.02819
797.191	28.07015
797.605	23.05569
798.02	19.04732
798.434	-23.05244
798.848	46.11503
799.262	7.0178
799.676	38.09282
800.09	-44.10959
800.504	-6.01489
800.918	10.02377
801.331	-25.06594
801.745	-46.10766
802.158	17.04321
802.572	-45.11023
802.985	18.0441
803.398	39.09429
803.811	5.01284
804.224	9.02257
804.637	8.01942
805.05	32.07557
805.462	58.14473
805.875	-7.0186
806.288	-35.08611
806.7	11.02803
807.112	10.02364
807.525	-8.01998
807.937	16.04026
808.349	-9.02268
808.761	-38.09455
809.173	29.07125
809.584	-5.01234
809.996	13.03261
810.408	49.12806
810.819	125.29695
811.231	98.2579
811.642	94.23157
812.053	49.11985
812.464	44.10664
812.875	15.03903
813.286	-18.04682
813.697	-20.0464
814.108	-7.01724
814.519	-28.06344
814.929	-34.08711
815.34	-27.06663
815.75	8.02059
816.16	43.10739
816.571	10.02636
816.981	-59.14108
817.391	26.06372
817.801	-14.03541
818.211	-36.08715
818.62	14.03449
819.03	16.03978
819.44	33.0861
819.849	14.0358
820.259	-1.00256
820.668	-1.00251
821.077	30.076
821.486	25.06124
821.895	11.0272
822.304	-4.01068
822.713	20.04787
823.122	7.01758
823.531	-33.07936
823.939	-18.04474
824.348	24.05886
824.756	4.01013
825.164	-1.00252
825.573	-2.00511
825.981	-4.00991
826.389	57.1438
826.797	30.07662
827.205	71.16581
827.612	16.03965
828.02	10.0241
828.428	-9.02313
828.835	-7.01858
829.243	3.00722
829.65	-19.04805
830.057	25.06069
830.464	-34.08422
830.871	-14.03371
831.278	5.01223
831.685	37.08379
832.092	10.02485
832.499	-3.00672
832.905	10.02548
833.312	12.02774
833.718	-21.05279
834.124	31.071
834.531	41.10362
834.937	-15.03888
835.343	10.02445
835.749	25.05868
836.155	16.04236
836.561	-32.07962
836.966	31.07593
837.372	37.09504
837.777	34.08521
838.183	33.07455
838.588	35.08783
838.993	-29.07098
839.399	76.18861
839.804	-6.01496
840.209	9.02326
840.613	-4.0091
841.018	-20.05142
841.423	12.031
841.828	2.0051
842.232	25.06178
842.637	22.05248
843.041	-21.05481
843.445	-4.01019
843.849	-16.04033
844.253	23.05493
844.657	4.01026
845.061	-11.02532
845.465	50.12286
845.869	21.04947
846.272	34.08419
846.676	-97.23645
847.079	28.07224
847.483	-5.01251
847.886	51.12381
848.289	-14.03789
848.692	-27.06899
849.095	26.06304
849.498	-6.01516
849.901	23.05333
850.304	-7.01683
850.707	10.02559
851.109	-23.05827
851.512	8.02009
851.914	14.03644
852.316	5.01279
852.718	41.10901
853.121	7.01752
853.523	56.13495
853.925	-7.0186
854.326	12.03054
854.728	11.0286
855.13	-21.05498
855.531	32.07825
855.933	23.05577
856.334	28.0703
856.736	36.08346
857.137	60.14119
857.538	8.02056
857.939	33.08325
858.34	46.11253
858.741	42.11008
859.142	-27.06574
859.542	-22.05883
859.943	10.0254
860.343	37.09351
860.744	28.06857
861.144	54.132
861.544	15.03718
861.945	33.08492
862.345	10.02465
862.745	-19.04769
863.145	-4.00958
863.544	31.07888
863.944	56.13434
864.344	22.05456
864.743	19.04709
865.143	55.14246
865.542	31.07322
865.941	10.02489
866.34	25.0598
866.74	28.07525
867.139	-21.05123
867.537	53.13519
867.936	13.03164
868.335	3.00768
868.734	28.07216
869.132	0
869.531	-65.15786
869.929	51.11901
870.327	27.06604
870.726	32.07939
871.124	-43.10172
871.522	-21.05394
871.92	16.03994
872.318	-41.10143
872.715	-19.04699
873.113	5.01236
873.511	-58.14488
873.908	-70.18109
874.306	29.07319
874.703	21.05273
875.1	1.00255
875.497	4.00972
875.894	18.04511
876.291	-27.06643
876.688	13.03381
877.085	-28.06811
877.482	35.08817
877.878	30.07339
878.275	-4.01026
878.671	0
879.068	12.0292
879.464	43.10513
879.86	-22.0535
880.256	1.00248
880.652	42.10817
881.048	10.02493
881.444	-18.04315
881.84	12.03089
882.236	20.05047
882.631	11.02715
883.027	-28.06811
883.422	13.03377
883.817	54.1381
884.213	-10.02606
884.608	35.08783
885.003	33.08125
885.398	17.04312
885.793	-5.01274
886.188	13.03302
886.582	19.04891
886.977	25.0601
887.371	-45.11401
887.766	-28.07113
888.16	-2.00506
888.554	-8.01967
888.949	0
889.343	16.03937
889.737	2.00541
890.131	1.00254
890.525	17.04412
890.918	-7.0179
891.312	-21.05073
891.706	25.06562
892.099	20.05097
892.492	-23.05036
892.886	53.13184
893.279	41.1059
893.672	39.10007
894.065	-2.00505
894.458	-46.11698
894.851	-22.05392
895.244	29.07493
895.637	16.03882
896.029	61.15064
896.422	42.10297
896.814	34.08591
897.206	-18.04384
897.599	12.02963
897.991	32.07834
898.383	-3.00715
898.775	-3.00689
899.167	5.01198
899.559	-6.0152
899.951	64.15183
900.342	30.07678
900.734	-10.02549
901.125	47.12442
901.517	-21.05207
901.908	6.01441
902.299	52.12966
902.69	35.08337
903.082	-33.08008
903.473	16.03916
903.863	-22.05646
904.254	-14.03292
904.645	-15.03722
905.036	11.02712
905.426	24.05544
905.817	16.03981
906.207	11.02682
906.597	9.0214
906.987	-28.07244
907.378	-18.04595
907.768	-6.01604
908.158	3.0074
908.547	29.07633
908.937	-17.04362
909.327	48.11642
909.717	-3.00761
910.106	37.09053
910.495	16.03995
910.885	49.12459
911.274	17.04293
911.663	-15.03825
912.052	30.07374
912.441	49.12573
912.83	5.01176
913.219	-18.04726
913.608	-30.07358
913.997	5.01278
914.385	56.13475
914.774	27.06616
915.162	26.06313
915.55	-41.10013
915.939	-9.02305
916.327	-22.05478
916.715	27.07027
917.103	9.02226
917.491	15.03737
917.878	8.01999
918.266	1.0026
918.654	-3.00773
919.041	-16.04222
919.429	-5.01189
919.816	31.07891
920.203	-4.00983
920.591	49.12087
920.978	20.0492
921.365	22.05801
921.752	-25.06044
922.139	17.03723
922.525	64.15744
922.912	-3.00737
923.299	46.11632
923.685	-34.08954
924.072	-34.07976
924.458	36.08977
924.844	47.11806
925.231	14.03314
925.617	37.096
926.003	38.09712
926.389	-20.05092
926.774	-1.00256
927.16	36.08983
927.546	19.04896
927.931	51.1282
928.317	1.00234
928.702	-7.01665
929.088	46.11132
929.473	-3.00773
929.858	-13.03252
930.243	-20.04891
930.628	13.03232
931.013	17.04254
931.398	20.04561
931.783	-12.03146
932.167	-18.04431
932.552	-4.01
932.937	5.01247
933.321	-1.00256
933.705	2.00508
934.09	-16.04001
934.474	-1.00241
934.858	-48.12538
935.242	-4.00939
935.626	-18.04682
936.009	10.02686
936.393	-13.03322
936.777	-35.09016
937.16	22.05774
937.544	-15.03544
937.927	5.01278
938.311	36.08784
938.694	19.04991
939.077	29.07048
939.46	43.10459
939.843	11.02318
940.226	15.03893
940.609	16.0377
940.991	39.10018
941.374	14.03449
941.757	32.07973
942.139	-40.0917
942.522	-26.06185
942.904	-11.02664
943.286	19.04833
943.668	7.01837
944.05	34.08478
944.432	18.04529
944.814	51.12714
945.196	3.00753
945.578	12.0294
945.959	42.0991
946.341	0
946.722	-2.00471
947.104	-9.02167
947.485	64.15113
947.866	59.1498
948.247	27.06872
948.628	31.07596
949.009	26.06722
949.39	-1.0025
949.771	48.11212
950.152	9.02239
950.532	-34.08613
950.913	63.15386
951.293	39.1063
951.674	-7.01713
952.054	-14.03515
952.434	-10.02502
952.814	-31.07356
953.194	-34.08881
953.574	6.01476
953.954	15.03613
954.334	5.01256
954.714	-27.06726
955.093	9.02196
955.473	-31.07882
955.853	-14.03633
956.232	-16.0438
956.611	-2.0048
956.99	-73.18515
957.37	-33.08506
957.749	0
958.128	-14.03553
958.506	20.05233
958.885	17.04318
959.264	3.00752
959.643	75.17219
960.021	-13.03248
960.4	-17.03917
960.778	16.03916
961.156	4.01018
961.535	5.01177
961.913	34.08016
962.291	-1.00261
962.669	-69.17575
963.047	39.09993
963.424	6.01542
963.802	-7.01738
964.18	29.07314
964.557	50.1161
964.935	0
965.312	28.07376
965.69	0
966.067	39.09525
966.444	-32.07979
966.821	-3.00772
967.198	-2.00484
967.575	5.01228
967.952	17.03973
968.329	-1.00246
968.705	23.05053
969.082	54.13999
969.458	-23.05632
969.835	-8.01946
970.211	-20.05217
970.587	-30.07559
970.963	18.04631
971.339	-3.00791
971.715	24.06026
972.091	7.01743
972.467	-34.08579
972.843	17.04296
973.219	21.05021
973.594	-18.0478
973.97	82.19401
974.345	-7.01707
974.721	36.08728
975.096	-11.02711
975.471	-75.17851
975.846	-15.03673
976.221	29.07493
976.596	5.0122
976.971	-3.0074
977.346	-3.00704
977.72	-42.10741
978.095	-22.05705
978.469	5.012
978.844	9.02254
979.218	28.06852
979.593	-17.04074
979.967	-6.01487
980.341	43.10018
980.715	17.04284
981.089	18.04557
981.463	-2.00468
981.837	-39.09762
982.21	-16.03676
982.584	-6.01476
982.957	5.01264
983.331	-32.0768
983.704	22.0548
984.078	-4.00994
984.451	10.02456
984.824	59.14597
985.197	27.06592
985.57	27.06787
985.943	5.01229
986.316	42.1029
986.688	14.03394
987.061	30.07115
987.434	-9.02354
987.806	-40.09782
988.179	34.08191
988.551	28.07136
988.923	-52.12905
989.295	39.09779
989.667	28.06883
990.039	26.06492
990.411	16.03724
990.783	-21.04837
991.155	-2.00495
991.527	-10.02437
991.898	12.03008
992.27	-18.04553
992.641	11.02769
993.012	43.10156
993.384	13.03141
993.755	-2.00515
994.126	-39.09535
994.497	16.04001
994.868	1.00232
995.239	-1.00245
995.61	14.03578
995.98	10.02473
996.351	19.04788
996.722	4.00948
997.092	-45.10883
997.462	-5.01207
997.833	11.02602
998.203	-13.03177
998.573	4.01004
998.943	10.02388
999.313	-43.10404
999.683	-16.03891
1000.053	-36.08419
1000.423	5.01218
1000.792	43.11257
1001.162	-3.00747
1001.531	35.08669
1001.901	-21.05287
1002.27	24.05454
1002.639	5.01287
1003.009	-5.01208
1003.378	-23.05925
1003.747	-5.01199
1004.116	-17.04149
1004.485	-17.04082
1004.853	-4.01019
1005.222	52.13145
1005.591	34.08113
1005.959	25.05852
1006.328	-18.04161
1006.696	-50.12259
1007.064	12.03058
1007.433	-34.08539
1007.801	-2.00488
1008.169	46.11707
1008.537	8.01774
1008.905	13.0308
1009.273	42.10397
1009.64	15.03648
1010.008	28.06732
1010.375	-56.13454
1010.743	58.13377
1011.11	11.02645
1011.478	-9.02235
1011.845	-10.02375
1012.212	21.04854
1012.579	-5.01239
1012.946	29.0695
1013.313	-17.04048
1013.68	-20.04547
1014.047	27.06599
1014.414	-8.01924
1014.78	-35.08808
1015.147	25.06026
1015.513	20.04862
1015.88	36.09168
1016.246	23.05686
1016.612	16.03702
1016.978	34.08404
1017.344	26.06448
1017.71	-14.03384
1018.076	-1.00237
1018.442	12.03092
1018.808	-7.01774
1019.174	19.04822
1019.539	19.04339
1019.905	-23.055
1020.27	-27.06792
1020.636	-3.00722
1021.001	34.0824
1021.366	-41.09968
1021.731	0
1022.096	-41.10458
1022.461	-34.08079
1022.826	32.07697
1023.191	-23.06089
1023.556	29.06847
1023.92	-32.07918
1024.285	-21.05165
1024.649	15.03677
1025.014	-13.03232
1025.378	13.0331
1025.742	38.09472
1026.107	28.06365
1026.471	11.02564
1026.835	-21.05228
1027.199	-22.05418
1027.562	1.00237
1027.926	4.00979
1028.29	20.05154
1028.654	20.04666
1029.017	-16.03952
1029.381	41.10028
1029.744	24.06185
1030.107	-42.09987
1030.471	23.05529
1030.834	-10.02302
1031.197	-30.07243
1031.56	-12.02854
1031.923	-42.11004
1032.286	-68.16089
1032.648	7.01696
1033.011	64.14943
1033.374	-43.10184
1033.736	5.01336
1034.099	41.1011
1034.461	6.01552
1034.823	-11.02778
1035.185	34.08607
1035.548	-46.11437
1035.91	62.14958
1036.272	3.00694
1036.634	-22.05394
1036.995	-31.07347
1037.357	-9.02216
1037.719	-9.02197
1038.08	16.03774
1038.442	11.02633
1038.803	43.10419
1039.165	-10.02538
1039.526	-10.02434
1039.887	20.04833
1040.248	21.05292
1040.609	-9.0223
1040.97	30.07467
1041.331	-9.02286
1041.692	14.03328
1042.053	1.00229
1042.413	-9.02113
1042.774	13.03173
1043.134	-12.02856
1043.495	8.02018
1043.855	58.14004
1044.215	-11.02733
1044.576	20.04873
1044.936	-58.13377
1045.296	23.05738
1045.656	12.02964
1046.016	34.08231
1046.375	50.12286
1046.735	6.01398
1047.095	-13.031
1047.454	-12.02556
1047.814	-22.05294
1048.173	16.03793
1048.533	37.08549
1048.892	-15.03704
1049.251	-7.01763
1049.61	31.07692
1049.969	-52.12408
1050.328	21.04598
1050.687	26.06382
1051.046	-21.05165
1051.405	-7.01759
1051.763	8.01868
1052.122	2.0051
1052.48	-34.0841
1052.839	-25.05992
1053.197	-40.09501
1053.555	-60.13645
1053.914	12.0296
1054.272	9.02173
1054.63	30.07451
1054.988	-56.13572
1055.345	7.01539
1055.703	-27.06518
1056.061	-19.04942
1056.419	13.03386
1056.776	-20.04865
1057.134	32.07492
1057.491	7.0176
1057.848	12.03005
1058.206	-8.01911
1058.563	-22.04981
1058.92	9.02087
1059.277	0
1059.634	32.07606
1059.991	-4.00952
1060.348	-9.02105
1060.704	-12.0291
1061.061	-43.09872
1061.418	13.03203
1061.774	10.02494
1062.131	5.0133
1062.487	-20.04734
1062.843	-3.00755
1063.199	-20.05007
1063.555	-5.01173
1063.911	29.07384
1064.267	-34.07211
1064.623	4.00987
1064.979	-32.07539
1065.335	-17.04029
1065.691	-30.072
1066.046	-42.09358
1066.402	-10.02328
1066.757	-35.08868
1067.112	-53.13016
1067.468	-45.10916
1067.823	16.03879
1068.178	-8.01946
1068.533	-23.05611
1068.888	22.05306
1069.243	18.0447
1069.598	-5.01235
1069.952	-3.00697
1070.307	5.0126
1070.662	30.07232
1071.016	-14.03234
1071.371	-15.03469
1071.725	9.02159
1072.079	-14.03373
1072.434	20.04907
1072.788	31.07529
1073.142	4.00988
1073.496	54.13151
1073.85	9.02097
1074.203	-47.11444
1074.557	-7.0188
1074.911	-23.05519
1075.265	15.03506
1075.618	29.07104
1075.971	2.00482
1076.325	2.00515
1076.678	15.03547
1077.031	51.11699
1077.385	27.06047
1077.738	43.09939
1078.091	12.02818
1078.444	24.0563
1078.796	-21.0522
1079.149	-29.07272
1079.502	-7.01694
1079.855	29.06865
1080.207	17.0418
1080.56	0
1080.912	22.05396
1081.264	47.1135
1081.617	25.06212
1081.969	41.10473
1082.321	18.04465
1082.673	5.0118
1083.025	-31.07424
1083.377	-20.04347
1083.728	-52.12389
1084.08	14.03544
1084.432	10.02454
1084.783	-27.06347
1085.135	-9.02287
1085.486	23.05386
1085.838	6.01492
1086.189	9.0221
1086.54	15.03574
1086.891	45.11507
1087.242	-24.05913
1087.593	14.03374
1087.944	70.16061
1088.295	-3.00683
1088.646	-60.14852
1088.996	-6.01479
1089.347	-5.01239
1089.698	23.05577
1090.048	21.05445
1090.398	29.06754
1090.749	-36.08708
1091.099	-30.07697
1091.449	0
1091.799	32.08106
1092.149	3.00756
1092.499	-45.11051
1092.849	7.01792
1093.199	-38.09551
1093.548	-52.12711
1093.898	12.03051
1094.248	5.01282
1094.597	-12.03134
1094.947	36.09595
1095.296	-15.03767
1095.645	-22.05752
1095.994	17.0415
1096.343	0
1096.692	-16.04296
1097.041	-13.03573
1097.39	14.03523
1097.739	-16.04159
1098.088	21.05626
1098.437	-39.10434
1098.785	1.00272
1099.134	4.01065
1099.482	33.09035
1099.83	-37.09726
1100.179	-5.01318
1100.527	-12.03233
1100.875	24.06378
1101.223	-20.05325
1101.571	4.01117
1101.919	-23.06139
1102.267	-19.05386
1102.615	-4.01288
1102.962	-5.0161
1103.31	2.00644
1103.658	-6.01933
