Data from N2 R1 sample 9_Subt2__2__14-03-05-914.txt Node

Date: Wed Aug 27 14:03:05 PDT 2025
User: uwsun
Spectrometer: HDX01956
Trigger mode: 0
Integration Time (sec): 5.000000E-1
Scans to average: 1
Nonlinearity correction enabled: true
Boxcar width: 0
Storing dark spectrum: false
XAxis mode: Wavelengths
Number of Pixels in Spectrum: 2068
>>>>>Begin Spectral Data<<<<<
194.03	223.62959
194.578	242.76739
195.127	225.7052
195.676	233.73154
196.225	241.63683
196.773	249.68359
197.321	335.90641
197.87	476.17305
198.418	524.29482
198.966	517.29264
199.513	498.20571
200.061	522.27808
200.609	491.23727
201.156	456.97711
201.704	542.3163
202.251	515.30059
202.798	550.37499
203.345	506.20026
203.892	477.15414
204.438	557.26666
204.985	532.20998
205.532	526.31919
206.078	551.29383
206.624	523.24183
207.17	541.19992
207.716	544.27861
208.262	511.96697
208.808	538.27529
209.354	515.21248
209.899	508.22257
210.445	536.27201
210.99	539.24246
211.535	563.25758
212.08	552.23171
212.625	517.23321
213.17	450.08851
213.715	524.13055
214.259	552.21495
214.804	525.23941
215.348	522.14258
215.892	544.23681
216.436	536.17426
216.98	545.14802
217.524	483.09593
218.068	475.13505
218.612	533.28015
219.155	464.05254
219.698	471.07168
220.242	449.06669
220.785	482.07839
221.328	484.15593
221.871	412.99454
222.414	480.14724
222.956	452.05218
223.499	452.9865
224.041	523.17147
224.583	471.96761
225.126	475.01567
225.668	431.02111
226.21	450.08728
226.751	463.98932
227.293	453.99726
227.835	467.08951
228.376	472.05207
228.918	497.19177
229.459	474.1402
230	435.99131
230.541	529.16645
231.082	473.10655
231.622	513.14433
232.163	476.11162
232.704	476.13766
233.244	400.95136
233.784	502.15913
234.324	480.01774
234.864	475.03407
235.404	434.98803
235.944	465.05118
236.484	439.0421
237.023	473.07798
237.563	486.07797
238.102	449.00216
238.641	472.13453
239.18	447.01411
239.719	501.20092
240.258	479.0291
240.797	500.15221
241.335	476.10988
241.874	482.90116
242.412	489.11854
242.95	482.11552
243.488	515.13174
244.026	488.07298
244.564	494.96704
245.102	550.1847
245.64	509.16809
246.177	407.88511
246.715	489.11002
247.252	488.06309
247.789	415.74346
248.326	528.21877
248.863	510.07017
249.4	483.03459
249.936	514.02396
250.473	532.17821
251.009	518.14049
251.546	572.20578
252.082	455.9516
252.618	492.06049
253.154	504.15314
253.69	502.08624
254.226	473.06191
254.761	497.07059
255.297	493.04741
255.832	503.12384
256.367	586.30552
256.903	535.11951
257.438	465.03452
257.972	532.13999
258.507	505.12181
259.042	502.0246
259.576	506.04821
260.111	507.1118
260.645	468.96643
261.179	471.04789
261.713	506.07718
262.247	534.16643
262.781	482.96409
263.315	489.1351
263.849	574.34973
264.382	522.12911
264.915	594.32118
265.449	553.2859
265.982	559.19407
266.515	569.30337
267.048	452.9133
267.58	481.99662
268.113	527.08863
268.646	550.2847
269.178	583.2438
269.71	535.08541
270.243	520.12382
270.775	541.30283
271.307	517.16988
271.838	507.13139
272.37	550.26961
272.902	564.20867
273.433	547.13254
273.965	551.26007
274.496	547.26844
275.027	596.38791
275.558	547.25342
276.089	569.33095
276.62	491.18227
277.15	577.33228
277.681	552.13195
278.211	583.33814
278.741	571.19392
279.272	561.21076
279.802	567.33403
280.332	598.32954
280.861	566.28066
281.391	570.21944
281.921	548.2263
282.45	556.31243
282.98	581.41506
283.509	582.23441
284.038	557.19441
284.567	525.14601
285.096	597.3402
285.625	564.19097
286.153	600.31633
286.682	635.36425
287.21	576.2975
287.739	617.35736
288.267	602.36332
288.795	600.46978
289.323	602.31518
289.851	592.28185
290.378	679.41944
290.906	643.46304
291.433	616.4227
291.961	633.34653
292.488	557.28656
293.015	643.39923
293.542	656.54092
294.069	612.41234
294.596	651.47767
295.122	669.46818
295.649	613.24733
296.175	656.47489
296.702	667.48096
297.228	673.49306
297.754	612.27836
298.28	639.35223
298.806	672.46581
299.332	705.44523
299.857	672.39084
300.383	688.5759
300.908	658.49749
301.433	657.46478
301.958	695.48818
302.483	709.62954
303.008	644.4402
303.533	714.69997
304.058	663.41837
304.582	696.52589
305.107	687.64534
305.631	711.46674
306.155	705.51091
306.679	727.55409
307.203	689.46516
307.727	768.65842
308.251	646.44942
308.775	693.50623
309.298	765.66848
309.822	730.66346
310.345	697.4976
310.868	766.63929
311.391	710.5677
311.914	783.77818
312.437	725.47691
312.96	764.6153
313.482	771.6397
314.005	838.88429
314.527	773.81618
315.049	797.78807
315.571	785.56669
316.093	814.78326
316.615	807.71929
317.137	823.57507
317.659	771.64609
318.18	828.74995
318.702	876.80628
319.223	884.57693
319.744	876.72633
320.265	851.81465
320.786	907.9658
321.307	948.04207
321.828	918.77537
322.348	892.80395
322.869	997.01997
323.389	863.26578
323.909	1014.97344
324.43	939.91509
324.95	941.85416
325.47	995.08908
325.989	989.97071
326.509	1015.90863
327.029	1081.03059
327.548	1002.89935
328.067	1105.22394
328.587	1041.13223
329.106	1022.98997
329.625	1100.37482
330.144	1033.97198
330.662	1129.15002
331.181	1049.02042
331.7	1078.06305
332.218	1084.91981
332.736	1102.08077
333.255	1155.18589
333.773	1119.13709
334.291	1161.30593
334.808	1183.08636
335.326	1232.18382
335.844	1267.32425
336.361	1260.52888
336.879	1316.40784
337.396	1288.4165
337.913	1382.46603
338.43	1346.29249
338.947	1338.45679
339.464	1400.26838
339.981	1354.4529
340.497	1388.59454
341.014	1375.56452
341.53	1367.32411
342.046	1382.55805
342.562	1463.6825
343.078	1498.57741
343.594	1482.61296
344.11	1485.56232
344.626	1536.81059
345.141	1467.40491
345.657	1455.33521
346.172	1518.66849
346.687	1560.55505
347.202	1602.54949
347.717	1603.68316
348.232	1659.93658
348.747	1645.62967
349.261	1600.42739
349.776	1697.75322
350.29	1678.91346
350.805	1728.96186
351.319	1740.72473
351.833	1776.71053
352.347	1747.76784
352.861	1819.8232
353.374	1800.6901
353.888	1727.75436
354.401	1823.76786
354.915	1892.79628
355.428	1871.05115
355.941	1888.8103
356.454	1849.59726
356.967	1795.76788
357.48	1855.69728
357.993	1881.98609
358.505	1905.01712
359.018	2032.10859
359.53	1996.92635
360.042	2015.6827
360.554	2007.9472
361.066	2009.06837
361.578	2015.60602
362.09	2021.94859
362.602	2014.60556
363.113	2063.84866
363.625	2007.67526
364.136	2075.64659
364.647	2140.88063
365.158	2228.94301
365.669	2242.08364
366.18	2325.98681
366.691	2207.67566
367.201	2245.9981
367.712	2302.89234
368.222	2198.77574
368.733	2305.61326
369.243	2343.7173
369.753	2436.8439
370.263	2494.12683
370.773	2518.3037
371.282	2548.02631
371.792	2594.89666
372.301	2646.15815
372.811	2646.48351
373.32	2730.57344
373.829	2687.89835
374.338	2852.64193
374.847	2968.75957
375.356	2990.85529
375.865	3158.28618
376.373	3298.48186
376.882	3413.05127
377.39	3447.74957
377.898	3513.88372
378.407	3719.29534
378.915	3783.84192
379.423	4030.16
379.93	4106.84846
380.438	4218.17271
380.946	4497.69474
381.453	4716.73965
381.96	4874.42305
382.468	5156.1735
382.975	5532.10968
383.482	5841.69234
383.989	5794.27929
384.495	6096.62732
385.002	6322.17849
385.509	6725.52948
386.015	7179.43144
386.521	7305.64856
387.028	7654.01667
387.534	7893.3514
388.04	8257.95385
388.546	8391.2843
389.051	8869.59561
389.557	9672.07634
390.063	10231.86457
390.568	10829.17298
391.073	11048.39616
391.578	11351.91255
392.084	11800.80055
392.589	12087.21469
393.093	13189.7126
393.598	14479.76554
394.103	15871.94311
394.607	17133.71192
395.112	18354.51882
395.616	19831.14375
396.12	21372.5354
396.624	23546.19369
397.128	25501.32813
397.632	28290.76491
398.136	30577.48367
398.639	32368.02022
399.143	35980.6981
399.646	40857.41509
400.15	44543.46568
400.653	49349.77329
401.156	55258.25646
401.659	55456.93374
402.162	53821.55638
402.664	47275.14456
403.167	32260.27245
403.67	3851.94142
404.172	0
404.674	0
405.176	0
405.678	0
406.18	0
406.682	0
407.184	0
407.686	12367.42319
408.187	34596.90747
408.688	44563.94194
409.19	48906.19284
409.691	51236.67962
410.192	52883.26968
410.693	53713.23343
411.194	54189.54801
411.694	54767.79104
412.195	55625.98899
412.696	55971.27715
413.196	55815.15953
413.696	55802.1488
414.196	55740.09561
414.696	56340.4775
415.196	57067.59327
415.696	58258.21704
416.196	48862.90723
416.695	37768.41735
417.195	32711.26748
417.694	30706.72739
418.194	29182.51096
418.693	27285.14252
419.192	26500.11841
419.691	26092.53716
420.19	25430.20524
420.688	24740.44758
421.187	23620.89374
421.685	21965.28122
422.184	19940.07493
422.682	17370.14317
423.18	15048.11806
423.678	13279.89583
424.176	12486.74703
424.674	11618.0486
425.172	11123.08206
425.669	10480.11321
426.167	9764.26057
426.664	8743.05482
427.161	8220.8839
427.659	7552.05512
428.156	7076.39786
428.652	6685.90784
429.149	6329.69124
429.646	6184.40611
430.143	5707.88268
430.639	5365.00661
431.135	5071.5458
431.632	4917.27749
432.128	4458.64663
432.624	4316.29988
433.12	4091.71423
433.616	4070.5885
434.111	4008.19505
434.607	3790.31454
435.103	3763.7058
435.598	3592.63014
436.093	3332.40531
436.588	3252.21451
437.083	3088.42807
437.578	2754.38836
438.073	2807.01046
438.568	2692.86569
439.062	2669.27223
439.557	2499.66985
440.051	2355.58077
440.546	2402.62824
441.04	2313.8095
441.534	2184.95289
442.028	2200.72577
442.522	2133.74673
443.015	2119.43953
443.509	2109.8716
444.002	2093.83834
444.496	1987.34422
444.989	1997.77284
445.482	1912.80101
445.975	1976.52779
446.468	2001.40042
446.961	1766.16446
447.454	1885.52032
447.947	1769.52963
448.439	1766.62916
448.931	1756.33283
449.424	1764.75331
449.916	1735.60008
450.408	1623.27336
450.9	1611.46513
451.392	1582.60849
451.884	1628.35169
452.375	1481.45746
452.867	1508.1628
453.358	1459.19109
453.849	1531.08602
454.341	1491.15599
454.832	1487.07899
455.323	1470.43443
455.814	1412.17484
456.304	1361.14642
456.795	1414.21351
457.285	1389.07006
457.776	1380.09666
458.266	1383.28879
458.756	1350.29566
459.247	1365.28107
459.737	1280.22726
460.226	1288.05313
460.716	1221.11913
461.206	1239.1652
461.695	1218.25692
462.185	1232.12764
462.674	1203.01547
463.163	1191.94122
463.653	1151.78197
464.142	1103.0154
464.63	1083.00058
465.119	1102.92558
465.608	1127.97301
466.096	1057.77671
466.585	1036.85261
467.073	1033.91216
467.561	1007.89078
468.05	1053.8884
468.538	1037.98249
469.026	946.78431
469.513	961.58152
470.001	1056.92526
470.489	1024.95336
470.976	883.62587
471.463	945.88991
471.951	818.67225
472.438	850.64368
472.925	878.71085
473.412	839.69008
473.899	850.60138
474.385	817.67586
474.872	798.55107
475.359	780.62255
475.845	789.38138
476.331	740.36856
476.817	666.39254
477.303	696.38916
477.789	682.41786
478.275	685.4699
478.761	714.49039
479.247	706.34332
479.732	656.43268
480.218	593.35134
480.703	593.29686
481.188	540.02147
481.673	603.21748
482.158	584.1313
482.643	605.35985
483.128	575.18477
483.612	591.22434
484.097	589.28105
484.581	506.04727
485.066	598.29707
485.55	516.02413
486.034	431.86747
486.518	464.98438
487.002	529.19174
487.486	554.2214
487.969	463.03389
488.453	450.03145
488.936	471.9759
489.42	444.91153
489.903	439.00518
490.386	440.67437
490.869	426.85484
491.352	403.89948
491.835	382.73893
492.318	439.92749
492.8	389.77248
493.283	449.04498
493.765	374.86453
494.247	389.84633
494.73	350.72407
495.212	308.69358
495.694	347.76843
496.175	325.7335
496.657	389.85711
497.139	302.5083
497.62	324.73557
498.102	334.79351
498.583	308.73541
499.064	263.55835
499.545	348.75087
500.026	292.62978
500.507	315.69816
500.988	293.69304
501.469	272.65369
501.949	305.70745
502.43	280.64214
502.91	268.54052
503.39	286.67897
503.87	274.6198
504.35	230.52007
504.83	262.55659
505.31	225.52583
505.79	264.61054
506.269	275.61281
506.749	185.41346
507.228	210.47969
507.707	215.46083
508.187	243.55495
508.666	183.43305
509.145	213.48369
509.623	226.51893
510.102	184.43365
510.581	214.49217
511.059	249.60399
511.538	212.52417
512.016	248.57742
512.494	253.59729
512.972	177.407
513.45	206.46846
513.928	210.49703
514.406	193.46077
514.884	191.47666
515.361	167.386
515.839	240.53095
516.316	210.49242
516.793	257.62409
517.27	202.47255
517.747	202.50621
518.224	149.33672
518.701	153.33658
519.178	144.34951
519.654	161.37272
520.131	175.421
520.607	182.43576
521.083	208.46381
521.56	109.25325
522.036	167.36012
522.512	164.38982
522.987	187.43429
523.463	171.39854
523.939	147.34894
524.414	197.44373
524.89	252.58048
525.365	154.3397
525.84	130.30555
526.315	165.38985
526.79	148.32578
527.265	194.43528
527.74	127.30251
528.215	230.53593
528.689	114.25031
529.164	217.4617
529.638	168.42041
530.112	148.34392
530.587	142.30535
531.061	159.3783
531.534	183.43489
532.008	190.44848
532.482	128.28696
532.956	78.19618
533.429	132.31183
533.903	128.2775
534.376	174.38205
534.849	87.19845
535.322	116.27105
535.795	101.24206
536.268	125.29741
536.741	106.24924
537.213	135.30608
537.686	120.28732
538.158	161.35804
538.631	67.15941
539.103	148.33084
539.575	95.19658
540.047	177.3843
540.519	114.26607
540.991	109.25964
541.463	111.264
541.934	89.20064
542.406	65.15287
542.877	105.23186
543.348	61.14212
543.82	104.24939
544.291	101.22955
544.762	140.32649
545.233	129.31481
545.703	100.21994
546.174	166.37705
546.645	126.29777
547.115	166.39199
547.585	96.21567
548.056	138.3241
548.526	202.4603
548.996	180.41696
549.466	203.47349
549.935	192.44281
550.405	178.38095
550.875	230.52219
551.344	189.43598
551.814	215.47733
552.283	190.3973
552.752	163.36535
553.221	236.49458
553.69	209.44294
554.159	243.5719
554.628	283.60736
555.096	258.61935
555.565	277.5991
556.033	218.49153
556.502	243.56522
556.97	157.33594
557.438	179.40814
557.906	206.47017
558.374	185.41261
558.842	166.38651
559.31	148.32606
559.777	110.26207
560.245	156.35146
560.712	97.22028
561.18	139.30347
561.647	129.28164
562.114	171.38722
562.581	130.30817
563.048	220.48914
563.514	161.38467
563.981	197.43755
564.448	167.36336
564.914	201.44588
565.381	166.36449
565.847	228.50798
566.313	260.58263
566.779	235.51479
567.245	213.47329
567.711	243.55852
568.176	231.49427
568.642	244.57973
569.108	293.67773
569.573	322.70371
570.038	332.65483
570.504	345.72604
570.969	337.77144
571.434	339.68859
571.899	436.94756
572.363	432.8905
572.828	449.91493
573.293	493.02373
573.757	504.02962
574.222	524.05021
574.686	524.05215
575.15	555.17424
575.614	606.21879
576.078	591.20414
576.542	566.12409
577.006	616.19853
577.469	602.26022
577.933	625.22097
578.396	641.30913
578.86	631.28343
579.323	640.33161
579.786	677.23717
580.249	631.24321
580.712	598.26067
581.175	642.37132
581.637	652.27351
582.1	588.09563
582.563	623.14691
583.025	599.26582
583.487	622.09839
583.95	571.08418
584.412	566.02585
584.874	568.21358
585.336	509.07394
585.797	500.95934
586.259	554.14322
586.721	534.11273
587.182	538.09374
587.643	469.93917
588.105	464.96462
588.566	429.79828
589.027	398.86793
589.488	423.85999
589.949	423.92029
590.41	468.82226
590.87	384.77341
591.331	401.77996
591.791	354.74678
592.252	358.74095
592.712	315.68302
593.172	339.69708
593.632	325.63575
594.092	304.61905
594.552	289.56372
595.011	307.64977
595.471	302.6203
595.931	317.64273
596.39	313.69401
596.849	314.66909
597.308	255.49952
597.768	285.67517
598.227	266.5865
598.685	311.64671
599.144	313.67579
599.603	288.62728
600.062	263.52178
600.52	280.579
600.978	306.66818
601.437	275.57873
601.895	245.47675
602.353	283.57091
602.811	300.61758
603.269	298.64796
603.727	291.64094
604.184	303.63176
604.642	279.62275
605.099	342.7316
605.557	312.69309
606.014	334.6566
606.471	335.76532
606.928	347.67814
607.385	347.77323
607.842	460.94438
608.299	465.96089
608.755	398.85469
609.212	461.91845
609.668	400.79859
610.125	391.83912
610.581	417.86325
611.037	396.80088
611.493	423.88546
611.949	402.86365
612.405	471.8586
612.861	384.80259
613.316	426.92032
613.772	373.76318
614.227	350.73737
614.683	443.84032
615.138	408.86181
615.593	443.92979
616.048	418.86125
616.503	407.87759
616.958	401.89502
617.412	422.89529
617.867	441.88596
618.321	488.90697
618.776	382.76159
619.23	399.84077
619.684	418.85661
620.138	393.80374
620.592	363.79346
621.046	376.78796
621.5	417.91456
621.954	390.78983
622.407	375.7558
622.861	344.76893
623.314	324.67449
623.768	299.64391
624.221	334.60557
624.674	293.62258
625.127	306.65544
625.58	275.57058
626.033	284.57174
626.485	237.53732
626.938	293.63966
627.39	317.68384
627.843	225.4856
628.295	238.512
628.747	240.53671
629.199	248.52823
629.651	263.56687
630.103	227.49306
630.555	237.48339
631.006	198.44023
631.458	239.53701
631.909	195.42194
632.361	237.52552
632.812	195.43257
633.263	160.33131
633.714	201.41816
634.165	116.26903
634.616	140.31967
635.067	139.29369
635.518	145.33222
635.968	158.30679
636.419	93.19745
636.869	79.18057
637.319	182.41573
637.769	101.22041
638.219	132.30529
638.669	57.13332
639.119	101.23586
639.569	119.27954
640.019	67.15079
640.468	90.19778
640.918	90.20865
641.367	45.10091
641.816	49.10684
642.265	76.17095
642.714	69.15638
643.163	54.12206
643.612	37.08864
644.061	26.05495
644.51	107.23964
644.958	93.20356
645.406	99.23192
645.855	90.21861
646.303	90.20691
646.751	52.11797
647.199	82.18232
647.647	45.10252
648.095	42.09586
648.543	152.30939
648.99	120.28205
649.438	64.14602
649.885	27.0655
650.333	43.08487
650.78	105.24982
651.227	72.17384
651.674	69.15758
652.121	122.29189
652.568	98.23581
653.015	147.3622
653.461	73.17155
653.908	77.17656
654.354	110.25885
654.801	123.28961
655.247	63.13644
655.693	5.01291
656.139	71.17165
656.585	77.18454
657.031	113.26523
657.477	115.25001
657.922	109.25124
658.368	110.26999
658.813	96.2215
659.259	35.08443
659.704	51.11966
660.149	81.18953
660.594	55.13116
661.039	56.12782
661.484	75.17797
661.929	67.15597
662.373	82.20728
662.818	34.08466
663.262	70.16888
663.707	26.06593
664.151	24.05849
664.595	67.16405
665.039	91.22414
665.483	111.28303
665.927	58.13563
666.371	88.20813
666.814	98.23393
667.258	48.11528
667.701	96.20786
668.145	93.23033
668.588	66.16266
669.031	103.24459
669.474	69.16688
669.917	6.01351
670.36	58.14452
670.803	87.21049
671.245	146.31301
671.688	75.18173
672.13	65.15048
672.573	79.19944
673.015	98.23518
673.457	85.18927
673.899	79.19164
674.341	77.18616
674.783	35.08554
675.225	114.28157
675.666	62.15207
676.108	47.10283
676.549	115.27046
676.991	59.13344
677.432	148.30866
677.873	66.15489
678.314	80.19228
678.755	115.28211
679.196	137.31943
679.637	138.33595
680.078	105.24761
680.518	70.16427
680.959	30.07216
681.399	48.12016
681.839	88.21567
682.28	101.2517
682.72	78.18341
683.16	115.28753
683.6	84.19265
684.039	43.09177
684.479	70.17359
684.919	120.2837
685.358	74.18746
685.798	139.3661
686.237	103.24958
686.676	70.16164
687.115	98.23223
687.554	95.22872
687.993	77.17351
688.432	92.21312
688.871	81.18782
689.309	110.26579
689.748	57.12307
690.186	86.20756
690.625	94.22438
691.063	92.22464
691.501	107.26685
691.939	127.32016
692.377	129.31797
692.815	80.19469
693.253	75.18132
693.69	103.23049
694.128	78.19329
694.565	97.23345
695.003	40.10266
695.44	129.30775
695.877	75.17934
696.314	81.17797
696.751	59.13589
697.188	62.14419
697.625	62.143
698.061	105.25624
698.498	98.23893
698.934	74.18042
699.371	73.17515
699.807	92.22062
700.243	39.09518
700.679	97.22233
701.115	71.16672
701.551	70.16633
701.987	77.17663
702.422	76.18398
702.858	78.18932
703.294	58.13201
703.729	61.15069
704.164	33.08056
704.599	89.2008
705.035	66.15119
705.47	35.08618
705.904	70.16754
706.339	86.20159
706.774	70.16773
707.209	80.18943
707.643	69.16782
708.078	47.11572
708.512	75.18995
708.946	68.164
709.38	62.14981
709.814	124.28906
710.248	108.26606
710.682	58.1412
711.116	79.19473
711.549	90.23524
711.983	29.06908
712.416	127.30123
712.85	120.30073
713.283	69.16486
713.716	95.23683
714.149	105.24992
714.582	104.23824
715.015	91.22752
715.448	98.24825
715.881	14.0309
716.313	29.06844
716.746	90.21508
717.178	59.14463
717.61	79.20058
718.043	64.16068
718.475	59.14425
718.907	86.21568
719.339	88.2049
719.77	50.12104
720.202	98.24931
720.634	57.14174
721.065	94.22687
721.497	101.25024
721.928	93.2316
722.359	73.181
722.79	80.19563
723.221	60.15167
723.652	97.24838
724.083	89.20596
724.514	46.10723
724.945	49.11757
725.375	75.17975
725.806	39.09712
726.236	64.16356
726.666	74.17894
727.096	111.27602
727.526	63.16234
727.956	49.11542
728.386	110.27348
728.816	80.20832
729.246	41.10169
729.675	66.16409
730.105	69.17233
730.534	50.11958
730.964	53.13495
731.393	55.13667
731.822	39.09972
732.251	89.22821
732.68	76.17926
733.109	114.28569
733.537	81.19863
733.966	49.12331
734.395	72.16923
734.823	88.2011
735.251	87.21184
735.68	89.22316
736.108	71.18206
736.536	105.2526
736.964	67.15843
737.392	74.18692
737.82	-14.03397
738.247	128.30928
738.675	62.14783
739.102	72.1842
739.53	68.1744
739.957	46.11921
740.384	73.18001
740.811	42.10753
741.238	24.05945
741.665	69.16265
742.092	75.18077
742.519	74.18712
742.945	29.07101
743.372	72.18057
743.798	58.15083
744.225	93.22509
744.651	64.16224
745.077	41.10373
745.503	45.11239
745.929	61.14892
746.355	8.01969
746.781	91.22695
747.207	12.02896
747.632	11.02765
748.058	28.0704
748.483	83.1955
748.908	30.07586
749.334	56.14044
749.759	86.20741
750.184	2.00489
750.609	24.05952
751.033	21.04966
751.458	74.16727
751.883	25.0621
752.307	24.05847
752.732	75.19231
753.156	74.18579
753.58	49.1177
754.005	55.14024
754.429	43.10345
754.853	54.13684
755.277	21.05037
755.7	35.08792
756.124	34.08591
756.548	37.09033
756.971	120.2941
757.394	23.06003
757.818	39.10178
758.241	34.08766
758.664	81.2085
759.087	24.05557
759.51	14.03533
759.933	41.09972
760.356	28.07214
760.778	117.2939
761.201	93.22814
761.623	71.17404
762.046	30.07161
762.468	87.2093
762.89	3.00745
763.312	6.01484
763.734	40.09811
764.156	57.14298
764.578	46.10711
765	83.20572
765.421	124.3219
765.843	30.07948
766.264	35.08474
766.686	68.17072
767.107	58.14352
767.528	43.11111
767.949	-25.06451
768.37	31.07793
768.791	77.18791
769.212	68.17488
769.632	-10.02416
770.053	33.088
770.473	33.08164
770.894	-21.05307
771.314	24.0576
771.734	57.13593
772.154	24.06254
772.575	34.07985
772.994	7.01639
773.414	51.12358
773.834	-18.0454
774.254	72.17959
774.673	1.00248
775.093	-39.0986
775.512	30.076
775.931	52.13374
776.351	19.04802
776.77	61.15285
777.189	16.03897
777.607	17.0437
778.026	14.03528
778.445	-27.06889
778.864	3.00774
779.282	44.10828
779.701	18.04608
780.119	37.09501
780.537	25.06379
780.955	58.14818
781.373	50.1244
781.791	13.02991
782.209	-24.05601
782.627	6.01594
783.045	-6.0142
783.462	9.02322
783.88	5.01322
784.297	16.04121
784.715	-14.03683
785.132	-31.07689
785.549	6.01539
785.966	1.00255
786.383	28.06989
786.8	25.05834
787.217	-8.01939
787.633	22.05642
788.05	12.02844
788.466	54.12851
788.883	-14.03634
789.299	-8.01964
789.715	41.10184
790.131	57.14354
790.547	17.04257
790.963	26.06556
791.379	-12.0308
791.795	3.00692
792.21	23.05504
792.626	-23.05558
793.041	7.01762
793.457	15.03749
793.872	-15.03591
794.287	52.12834
794.702	-1.00249
795.117	13.03322
795.532	2.00511
795.947	2.00488
796.362	3.00718
796.776	26.06063
797.191	40.09999
797.605	-14.03413
798.02	45.11153
798.434	72.16102
798.848	46.11503
799.262	33.08355
799.676	21.05146
800.09	-19.04711
800.504	23.05678
800.918	23.05453
801.331	13.03407
801.745	-14.03256
802.158	21.05334
802.572	-21.05121
802.985	22.05386
803.398	55.13257
803.811	-7.01801
804.224	-1.00251
804.637	-6.01461
805.05	52.12232
805.462	82.20372
805.875	16.04235
806.288	-35.08611
806.7	-2.00511
807.112	14.03307
807.525	-18.04505
807.937	0
808.349	9.02261
808.761	-66.16505
809.173	14.03449
809.584	-8.01976
809.996	-3.00755
810.408	11.02893
810.819	43.10376
811.231	37.09837
811.642	92.22673
812.053	127.30611
812.464	136.32389
812.875	100.25637
813.286	18.04653
813.697	6.01385
814.108	12.02944
814.519	-4.00902
814.929	-19.04855
815.34	-8.01967
815.75	22.05648
816.16	0
816.571	19.05001
816.981	-13.03081
817.391	3.00738
817.801	33.08278
818.211	-12.02892
818.62	27.06636
819.03	25.06205
819.44	40.10423
819.849	40.10183
820.259	-15.03854
820.668	-3.00752
821.077	9.02288
821.486	53.12915
821.895	-25.06224
822.304	11.02928
822.713	30.07167
823.122	-25.06316
823.531	-4.00957
823.939	-16.03975
824.348	42.10267
824.756	-3.0076
825.164	15.03776
825.573	-22.05636
825.981	-20.04969
826.389	34.08613
826.797	31.07916
827.205	49.11492
827.612	11.02728
828.02	-13.03146
828.428	1.00257
828.835	-25.06656
829.243	5.01203
829.65	8.02014
830.057	-13.03178
830.464	5.0123
830.871	-8.01924
831.278	1.00245
831.685	43.09725
832.092	27.0669
832.499	6.01342
832.905	3.00765
833.312	-1.00232
833.718	-1.0025
834.124	-14.03235
834.531	33.08352
834.937	-6.01553
835.343	21.05125
835.749	12.02824
836.155	28.07398
836.561	-33.08212
836.966	-1.00246
837.372	53.13576
837.777	-1.00252
838.183	41.09247
838.588	59.14741
838.993	-11.02683
839.399	57.14195
839.804	-1.00249
840.209	17.04387
840.613	-38.08705
841.018	13.03323
841.423	11.02842
841.828	-3.00766
842.232	30.07407
842.637	36.08564
843.041	-8.02083
843.445	-16.04083
843.849	-7.01762
844.253	-18.04333
844.657	2.00513
845.061	9.02064
845.465	23.0568
845.869	-8.01895
846.272	5.01245
846.676	-23.05529
847.079	8.02071
847.483	24.05973
847.886	5.01224
848.289	24.06456
848.692	-36.09213
849.095	28.06786
849.498	9.02267
849.901	8.01861
850.304	18.04307
850.707	-6.0154
851.109	-17.04303
851.512	25.0626
851.914	25.06496
852.316	18.04595
852.718	44.11692
853.121	41.10199
853.523	102.24366
853.925	14.03707
854.326	-3.00765
854.728	24.06226
855.13	-4.01044
855.531	49.11945
855.933	10.02431
856.334	-33.08376
856.736	49.11331
857.137	-18.043
857.538	26.06661
857.939	53.13323
858.34	0
858.741	-5.01321
859.142	-23.05596
859.542	16.04252
859.943	36.09103
860.343	23.05827
860.744	6.01475
861.144	20.0492
861.544	40.09869
861.945	27.06955
862.345	25.06146
862.745	-56.14151
863.145	14.03342
863.544	20.05099
863.944	45.10818
864.344	-16.03995
864.743	12.02978
865.143	59.15272
865.542	22.05205
865.941	2.00499
866.34	15.03595
866.74	9.02426
867.139	-6.0146
867.537	43.10988
867.936	33.08002
868.335	1.00256
868.734	-9.02334
869.132	-22.05211
869.531	-58.14067
869.929	-4.00943
870.327	51.12418
870.726	20.04972
871.124	-23.0542
871.522	-17.04364
871.92	34.08459
872.318	14.03429
872.715	-44.10931
873.113	-8.01982
873.511	-33.08206
873.908	-43.11072
874.306	9.02279
874.703	3.00756
875.1	-6.01534
875.497	-6.0146
875.894	3.00754
876.291	-15.03682
876.688	-16.04182
877.085	0
877.482	44.11067
877.878	2.00492
878.275	2.00512
878.671	-20.0444
879.068	38.09203
879.464	13.03196
879.86	20.04825
880.256	-5.01242
880.652	20.05171
881.048	2.00499
881.444	4.00955
881.84	7.01804
882.236	7.0177
882.631	8.01976
883.027	29.06979
883.422	-7.01824
883.817	42.10764
884.213	-2.0052
884.608	27.06785
885.003	9.02226
885.398	-3.00764
885.793	11.02796
886.188	57.14365
886.582	56.14322
886.977	56.13383
887.371	-44.11146
887.766	-4.01012
888.16	16.04034
888.554	-31.07653
888.949	-22.05563
889.343	52.12711
889.737	11.02973
890.131	9.02285
890.525	51.1316
890.918	31.07874
891.312	20.04794
891.706	8.02106
892.099	12.03063
892.492	-6.01309
892.886	53.13184
893.279	44.11359
893.672	57.1458
894.065	56.13994
894.458	-14.0354
894.851	9.02193
895.244	22.05692
895.637	12.02914
896.029	24.05967
896.422	13.03204
896.814	56.14095
897.206	-20.04873
897.599	42.10313
897.991	36.08807
898.383	-18.043
898.775	15.03433
899.167	30.07153
899.559	9.02275
899.951	60.14246
900.342	21.05383
900.734	-6.01528
901.125	61.1611
901.517	-11.02722
901.908	2.00481
902.299	35.08754
902.69	54.12816
903.082	-42.1021
903.473	12.02939
903.863	6.01532
904.254	-7.01644
904.645	0
905.036	-32.07953
905.426	14.03241
905.817	-6.01499
906.207	-9.02203
906.597	-15.03583
906.987	-19.04908
907.378	-1.00255
907.768	-7.01872
908.158	4.00986
908.547	19.05009
908.937	-37.09527
909.327	42.10198
909.717	-1.00254
910.106	36.0881
910.495	23.05736
910.885	72.18232
911.274	12.03033
911.663	14.03552
912.052	14.03452
912.441	30.07724
912.83	63.14649
913.219	-1.00262
913.608	-15.03669
913.997	-4.01024
914.385	13.03154
914.774	21.05152
915.162	38.09206
915.55	3.00727
915.939	10.02552
916.327	-47.11755
916.715	5.01306
917.103	36.08859
917.491	28.06959
917.878	-10.02507
918.266	22.05695
918.654	31.07938
919.041	-8.02108
919.429	-24.05727
919.816	7.01789
920.203	33.08053
920.591	-12.02993
920.978	2.00494
921.365	-9.02386
921.752	-23.05558
922.139	-7.01541
922.525	79.1938
922.912	34.08296
923.299	49.12384
923.685	-20.05254
924.072	21.04873
924.458	-19.04785
924.844	12.03033
925.231	22.05199
925.617	22.05723
926.003	-13.03352
926.389	12.03038
926.774	30.0764
927.16	38.09479
927.546	1.00258
927.931	22.05559
928.317	49.1134
928.702	1.00237
929.088	22.05348
929.473	-11.02837
929.858	18.04477
930.243	20.04854
930.628	21.05213
931.013	-26.06556
931.398	-1.00229
931.783	15.03915
932.167	8.0196
932.552	18.0448
932.937	30.07448
933.321	68.17183
933.705	18.04561
934.09	-4.00998
934.474	-11.02655
934.858	-13.03375
935.242	-23.0542
935.626	10.02589
936.009	24.06431
936.393	-6.01531
936.777	-30.07721
937.16	24.06297
937.544	-1.00236
937.927	-11.0282
938.311	11.02696
938.694	-4.01055
939.077	14.03412
939.46	2.0049
939.843	9.01897
940.226	14.03634
940.609	29.06815
940.991	34.08741
941.374	-16.03963
941.757	61.15119
942.139	-8.01822
942.522	0
942.904	8.01931
943.286	19.04833
943.668	27.07061
944.05	47.11692
944.432	52.13004
944.814	-7.01763
945.196	2.00502
945.578	44.10716
945.959	58.13643
946.341	5.01219
946.722	13.03055
947.104	16.03834
947.485	23.05474
947.866	-3.0077
948.247	4.01022
948.628	4.00985
949.009	20.05176
949.39	-11.02751
949.771	4.00942
950.152	-3.00748
950.532	-40.10144
950.913	52.12726
951.293	15.04104
951.674	23.05598
952.054	-7.01755
952.434	16.03984
952.814	-43.10227
953.194	-10.02601
953.574	-14.03457
953.954	-21.05092
954.334	8.02009
954.714	-5.01241
955.093	3.00733
955.473	-31.07882
955.853	-21.05456
956.232	-10.02735
956.611	-15.03609
956.99	-49.12375
957.37	-20.05144
957.749	-31.07514
958.128	-71.18199
958.506	34.08875
958.885	1.00255
959.264	22.05498
959.643	21.04873
960.021	-5.01247
960.4	8.01834
960.778	6.01471
961.156	-24.06138
961.535	14.03291
961.913	28.06609
962.291	15.03911
962.669	-26.06572
963.047	17.04373
963.424	-1.00257
963.802	14.03462
964.18	40.10068
964.557	57.13217
964.935	10.02373
965.312	30.079
965.69	40.10032
966.067	-6.01478
966.444	27.0666
966.821	-21.05422
967.198	-28.06804
967.575	-6.01477
967.952	3.00703
968.329	-21.0518
968.705	66.1437
969.082	55.14256
969.458	-38.09331
969.835	-11.02677
970.211	29.07501
970.587	66.16343
970.963	-7.01809
971.339	9.02367
971.715	1.00252
972.091	47.11619
972.467	28.06987
972.843	30.07564
973.219	43.10239
973.594	-3.00795
973.97	54.12846
974.345	29.07024
974.721	14.03408
975.096	30.07339
975.471	-54.12801
975.846	51.12335
976.221	34.08778
976.596	12.02925
976.971	-36.08934
977.346	-3.00704
977.72	-21.05351
978.095	-20.05185
978.469	18.04308
978.844	-15.03773
979.218	40.09767
979.593	14.03335
979.967	34.08367
980.341	22.05147
980.715	-27.06858
981.089	31.07829
981.463	45.1043
981.837	-8.01991
982.21	-51.11798
982.584	-8.01969
982.957	-45.11474
983.331	24.05698
983.704	7.01748
984.078	-5.01242
984.451	-43.10666
984.824	15.03741
985.197	-33.08146
985.57	64.15981
985.943	17.04169
986.316	19.04675
986.688	3.00729
987.061	4.00953
987.434	-32.08401
987.806	-11.02675
988.179	54.12959
988.551	53.13447
988.923	-49.12154
989.295	29.07285
989.667	13.03204
990.039	30.07486
990.411	-26.06102
990.783	11.02517
991.155	-2.00495
991.527	2.00486
991.898	15.03759
992.27	15.03772
992.641	1.00252
993.012	37.08749
993.384	-6.01455
993.755	7.01801
994.126	22.05318
994.497	27.06739
994.868	7.01621
995.239	11.02691
995.61	-11.02824
995.98	3.00743
996.351	13.0328
996.722	2.00474
997.092	-25.06024
997.462	2.00482
997.833	-10.02375
998.203	-5.0122
998.573	11.02757
998.943	57.13489
999.313	-45.10892
999.683	2.00485
1000.053	-9.02094
1000.423	-10.02443
1000.792	42.10997
1001.162	-3.00747
1001.531	6.01494
1001.901	31.07731
1002.27	6.01368
1002.639	-4.01032
1003.009	11.02649
1003.378	-16.04116
1003.747	42.09983
1004.116	-16.03904
1004.485	-11.02638
1004.853	6.01525
1005.222	36.09126
1005.591	5.012
1005.959	25.05852
1006.328	24.05502
1006.696	-35.08557
1007.064	15.03821
1007.433	12.02989
1007.801	-38.09341
1008.169	20.05113
1008.537	5.0111
1008.905	-18.0429
1009.273	25.06208
1009.64	38.09203
1010.008	7.0169
1010.375	-25.05971
1010.743	41.09488
1011.11	-19.04595
1011.478	-33.0823
1011.845	-15.03566
1012.212	19.04393
1012.579	-11.02728
1012.946	43.10278
1013.313	-30.07161
1013.68	3.00679
1014.047	20.04894
1014.414	-5.01202
1014.78	-34.08555
1015.147	17.04104
1015.513	16.03892
1015.88	-25.06435
1016.246	15.03714
1016.612	-5.01162
1016.978	27.06682
1017.344	37.09157
1017.71	-17.04112
1018.076	12.02837
1018.442	-11.02845
1018.808	23.05796
1019.174	19.04822
1019.539	39.08871
1019.905	-44.10563
1020.27	20.04989
1020.636	34.08128
1021.001	32.07758
1021.366	-33.08011
1021.731	0
1022.096	-24.06103
1022.461	-23.05453
1022.826	45.10797
1023.191	36.09435
1023.556	-12.02856
1023.92	-1.00246
1024.285	11.02689
1024.649	-35.08659
1025.014	-8.01987
1025.378	42.10639
1025.742	31.07737
1026.107	28.06365
1026.471	-16.03749
1026.835	8.01981
1027.199	-3.00736
1027.562	22.05195
1027.926	23.05607
1028.29	28.07206
1028.654	17.03968
1029.017	-9.0222
1029.381	31.07596
1029.744	17.04387
1030.107	-6.01417
1030.471	16.03851
1030.834	17.03892
1031.197	-14.0337
1031.56	-36.086
1031.923	-12.03128
1032.286	-56.13219
1032.648	36.08672
1033.011	60.1402
1033.374	-36.08514
1033.736	17.04532
1034.099	15.03716
1034.461	9.02327
1034.823	-23.05821
1035.185	23.05834
1035.548	4.00985
1035.91	57.13765
1036.272	-23.0535
1036.634	-8.01956
1036.995	-20.0473
1037.357	1.00246
1037.719	-47.11555
1038.08	-13.03084
1038.442	-29.06995
1038.803	29.07046
1039.165	-11.02792
1039.526	-18.04389
1039.887	-13.03161
1040.248	31.07798
1040.609	20.04929
1040.97	10.02498
1041.331	-2.00507
1041.692	-21.05025
1042.053	53.12036
1042.413	-11.02583
1042.774	12.02929
1043.134	27.06377
1043.495	-5.01264
1043.855	0
1044.215	-25.06228
1044.576	45.10912
1044.936	-9.02055
1045.296	30.07475
1045.656	26.06405
1046.016	27.06545
1046.375	42.10336
1046.735	44.10172
1047.095	35.0827
1047.454	11.02331
1047.814	-11.02641
1048.173	-4.00952
1048.533	0
1048.892	25.06128
1049.251	-10.02521
1049.61	30.07445
1049.969	-30.07128
1050.328	-17.03752
1050.687	11.02707
1051.046	11.02689
1051.405	20.05001
1051.763	19.04427
1052.122	-1.00255
1052.48	-5.0123
1052.839	24.05698
1053.197	18.04228
1053.555	-13.02928
1053.914	16.03943
1054.272	18.04338
1054.63	22.05472
1054.988	-49.1186
1055.345	30.06565
1055.703	19.04547
1056.061	8.02071
1056.419	-8.02091
1056.776	-17.04133
1057.134	23.05394
1057.491	9.02262
1057.848	-3.00753
1058.206	-12.02869
1058.563	22.04936
1058.92	-7.01628
1059.277	-9.0222
1059.634	9.02149
1059.991	-34.08138
1060.348	60.13844
1060.704	19.04581
1061.061	-13.02967
1061.418	3.00741
1061.774	4.00999
1062.131	-12.03201
1062.487	0
1062.843	-8.02016
1063.199	-9.02249
1063.555	-20.04705
1063.911	20.05101
1064.267	22.04609
1064.623	-7.01731
1064.979	-22.05173
1065.335	-25.05935
1065.691	-40.09618
1066.046	-36.08011
1066.402	-10.02328
1066.757	36.09006
1067.112	-14.03413
1067.468	-31.075
1067.823	23.05569
1068.178	1.00243
1068.533	-17.04143
1068.888	40.09614
1069.243	-7.01746
1069.598	10.02463
1069.952	17.03934
1070.307	-19.04809
1070.662	15.03626
1071.016	4.00921
1071.371	10.02301
1071.725	40.09537
1072.079	-35.08465
1072.434	38.09293
1072.788	59.14253
1073.142	41.10054
1073.496	77.18672
1073.85	-12.02807
1074.203	-20.04845
1074.557	20.05348
1074.911	11.02622
1075.265	2.00469
1075.618	38.09293
1075.971	10.02406
1076.325	6.01545
1076.678	61.14296
1077.031	-4.00928
1077.385	40.08934
1077.738	77.17678
1078.091	24.05623
1078.444	31.07262
1078.796	11.02718
1079.149	-31.07776
1079.502	-5.01209
1079.855	-8.01907
1080.207	10.02462
1080.56	12.03144
1080.912	9.02213
1081.264	34.08231
1081.617	44.10896
1081.969	26.06659
1082.321	44.10864
1082.673	-25.05932
1083.025	-10.02385
1083.377	-5.01083
1083.728	-5.0118
1084.08	36.09077
1084.432	3.00737
1084.783	3.00701
1085.135	-17.04326
1085.486	-24.05672
1085.838	-24.06
1086.189	10.02455
1086.54	-16.03835
1086.891	14.03599
1087.242	-8.01965
1087.593	11.02652
1087.944	35.08087
1088.295	-24.05487
1088.646	8.01956
1088.996	4.00984
1089.347	4.00989
1089.698	29.07024
1090.048	12.03116
1090.398	-6.01407
1090.749	18.0431
1091.099	-35.08987
1091.449	-31.07784
1091.799	24.06088
1092.149	20.05025
1092.499	-22.0538
1092.849	10.02558
1093.199	-15.03754
1093.548	-18.04372
1093.898	-1.00255
1094.248	-24.06185
1094.597	-17.04444
1094.947	38.10125
1095.296	11.02749
1095.645	-24.06278
1095.994	54.13092
1096.343	55.13796
1096.692	0
1097.041	17.0465
1097.39	11.02769
1097.739	-27.07032
1098.088	18.04825
1098.437	-15.03997
1098.785	57.15386
1099.134	-24.0642
1099.482	-7.01929
1099.83	-31.0814
1100.179	-6.01582
1100.527	11.02953
1100.875	3.008
1101.223	-16.04257
1101.571	22.06124
1101.919	-31.08286
1102.267	2.00565
1102.615	-6.01933
1102.962	-6.01932
1103.31	9.02896
1103.658	-4.01288
