Data from N2 R1 sample 7_Subt2__0__13-33-21-456.txt Node

Date: Wed Aug 27 13:33:21 PDT 2025
User: uwsun
Spectrometer: HDX01956
Trigger mode: 0
Integration Time (sec): 5.000000E-1
Scans to average: 1
Nonlinearity correction enabled: true
Boxcar width: 0
Storing dark spectrum: false
XAxis mode: Wavelengths
Number of Pixels in Spectrum: 2068
>>>>>Begin Spectral Data<<<<<
194.03	201.56938
194.578	200.63747
195.127	206.6472
195.676	203.63975
196.225	231.61144
196.773	221.60943
197.321	329.89105
197.87	404.00845
198.418	443.11057
198.966	473.19185
199.513	455.11032
200.061	452.12076
200.609	414.05724
201.156	420.90697
201.704	503.23036
202.251	411.05672
202.798	500.2611
203.345	482.14852
203.892	443.07858
204.438	452.04929
204.985	501.14649
205.532	444.12962
206.078	486.15541
206.624	469.12496
207.17	500.11827
207.716	504.19367
208.262	439.84534
208.808	474.13719
209.354	498.17627
209.899	522.25299
210.445	460.10731
210.99	429.0101
211.535	466.06136
212.08	470.06617
212.625	495.18562
213.17	415.01028
213.715	378.84247
214.259	459.02958
214.804	488.16017
215.348	456.01173
215.892	372.87662
216.436	468.0397
216.98	441.9517
217.524	426.97961
218.068	408.98934
218.612	465.13097
219.155	440.00284
219.698	375.87149
220.242	411.98557
220.785	397.90546
221.328	400.9725
221.871	368.89573
222.414	439.05727
222.956	390.92081
223.499	358.79691
224.041	411.94343
224.583	422.87653
225.126	391.85285
225.668	444.04933
226.21	408.99565
226.751	397.86043
227.293	367.82253
227.835	358.85476
228.376	449.00546
228.918	426.03499
229.459	399.97533
230	388.89261
230.541	433.97559
231.082	439.03369
231.622	401.9168
232.163	426.00438
232.704	423.02097
233.244	336.809
233.784	355.84517
234.324	408.88031
234.864	376.83732
235.404	387.88942
235.944	437.99546
236.484	404.9675
237.023	451.0323
237.563	428.96256
238.102	416.93673
238.641	420.01924
239.18	383.88199
239.719	398.97451
240.258	427.92939
240.797	409.96135
241.335	394.93529
241.874	413.78532
242.412	414.96304
242.95	418.98154
243.488	484.07041
244.026	394.88502
244.564	418.83298
245.102	454.99967
245.64	440.02339
246.177	393.85721
246.715	409.94523
247.252	433.95604
247.789	389.70154
248.326	454.06306
248.863	418.89647
249.4	458.98817
249.936	465.93849
250.473	420.95346
251.009	448.00054
251.546	418.91231
252.082	383.8138
252.618	438.95676
253.154	447.03418
253.69	408.90217
254.226	363.83495
254.761	456.9927
255.297	450.96675
255.832	380.87212
256.367	462.0552
256.903	473.00309
257.438	438.98181
257.972	475.03013
258.507	462.03526
259.042	410.85579
259.576	420.88832
260.111	432.96399
260.645	433.90118
261.179	428.96256
261.713	449.96938
262.247	467.03425
262.781	402.81898
263.315	444.03961
263.849	479.14681
264.382	470.02771
264.915	525.18416
265.449	494.16185
265.982	464.01114
266.515	446.04634
267.048	454.91692
267.58	441.92191
268.113	448.94339
268.646	477.12985
269.178	476.03866
269.71	366.77243
270.243	479.04411
270.775	475.15791
271.307	421.97295
271.838	434.98484
272.37	497.15916
272.902	505.09577
273.433	476.0009
273.965	452.05383
274.496	452.06745
275.027	517.22238
275.558	469.09118
276.089	477.1355
276.62	502.20629
277.15	481.13145
277.681	481.00188
278.211	507.18112
278.741	494.05022
279.272	521.13391
279.802	500.19147
280.332	520.17454
280.861	521.18946
281.391	488.06219
281.921	429.98513
282.45	528.253
282.98	538.3207
283.509	486.05201
284.038	479.04411
284.567	469.03567
285.096	491.12582
285.625	454.98332
286.153	518.15574
286.682	529.16207
287.21	529.2029
287.739	512.1508
288.267	522.20107
288.795	569.40176
289.323	525.16534
289.851	508.11937
290.378	590.25739
290.906	568.31174
291.433	538.26155
291.961	642.36303
292.488	503.17409
293.015	512.14468
293.542	588.39929
294.069	584.35514
294.596	518.20702
295.122	558.2528
295.649	564.16024
296.175	609.38226
296.702	610.37026
297.228	585.32129
297.754	575.21079
298.28	611.3008
298.806	527.18432
299.332	612.28062
299.857	546.16147
300.383	600.39833
300.908	585.35077
301.433	624.40059
301.958	649.40334
302.483	594.39626
303.008	585.32397
303.533	614.48965
304.058	588.27806
304.582	645.42911
305.107	637.54
305.631	599.26637
306.155	617.34714
306.679	644.40111
307.203	612.32296
307.727	630.40018
308.251	584.32679
308.775	696.5118
309.298	668.48656
309.822	639.48258
310.345	632.37672
310.868	672.46704
311.391	676.50313
311.914	692.60025
312.437	693.42188
312.96	678.46018
313.482	690.49304
314.005	724.66568
314.527	705.67821
315.049	752.70259
315.571	724.46518
316.093	754.67254
316.615	731.58284
317.137	720.41187
317.659	734.57954
318.18	720.55735
318.702	795.6688
319.223	769.41203
319.744	789.58634
320.265	766.66326
320.786	780.73597
321.307	814.80494
321.828	788.57087
322.348	771.60203
322.869	825.73791
323.389	993.39973
323.909	802.63877
324.43	893.84012
324.95	843.69892
325.47	863.86566
325.989	902.83333
326.509	916.7639
327.029	869.71773
327.548	903.75256
328.067	942.96762
328.587	904.90984
329.106	968.90876
329.625	961.13571
330.144	901.77441
330.662	986.94339
331.181	1003.95431
331.7	992.93879
332.218	976.7764
332.736	1036.98868
333.255	1068.06348
333.773	1035.01622
334.291	1026.10099
334.808	1068.94034
335.326	1112.03139
335.844	1097.09698
336.361	1184.4174
336.879	1169.21674
337.396	1144.22117
337.913	1244.29728
338.43	1183.10149
338.947	1177.24706
339.464	1230.0861
339.981	1200.25754
340.497	1270.44193
341.014	1262.41842
341.53	1279.22493
342.046	1263.40589
342.562	1290.46631
343.078	1312.36694
343.594	1325.42981
344.11	1319.3742
344.626	1279.48915
345.141	1330.26147
345.657	1310.18684
346.172	1362.48982
346.687	1403.39586
347.202	1437.39176
347.717	1403.47365
348.232	1434.68342
348.747	1444.43683
349.261	1529.36709
349.776	1537.60247
350.29	1512.7376
350.805	1588.82103
351.319	1530.53729
351.833	1553.5218
352.347	1512.55234
352.861	1597.63414
353.374	1612.54097
353.888	1537.58023
354.401	1627.60938
354.915	1700.65379
355.428	1659.86151
355.941	1634.61265
356.454	1604.42208
356.967	1663.66021
357.48	1635.53295
357.993	1745.87417
358.505	1754.89465
359.018	1801.9366
359.53	1780.77541
360.042	1807.5642
360.554	1797.80144
361.066	1763.88193
361.578	1804.49252
362.09	1824.81563
362.602	1850.5201
363.113	1848.72039
363.625	1908.62247
364.136	1956.59117
364.647	1940.77447
365.158	1984.82299
365.669	1992.95022
366.18	1959.81508
366.691	2043.61334
367.201	2002.87723
367.712	2048.78734
368.222	2062.71928
368.733	2066.54007
369.243	2122.64934
369.753	2180.76901
370.263	2255.04647
370.773	2202.17655
371.282	2241.93856
371.792	2393.86053
372.301	2399.09957
372.811	2367.38697
373.32	2480.56805
373.829	2533.88208
374.338	2659.65018
374.847	2634.7715
375.356	2737.86727
375.865	2899.34794
376.373	3001.55529
376.882	2986.11958
377.39	3071.83964
377.898	3157.97151
378.407	3404.42231
378.915	3378.02679
379.423	3581.36989
379.93	3754.03058
380.438	3873.34881
380.946	4131.89934
381.453	4288.98119
381.96	4572.59225
382.468	4865.32584
382.975	5084.32093
383.482	5237.91125
383.989	5241.52549
384.495	5557.76145
385.002	5873.17206
385.509	6171.46162
386.015	6558.00351
386.521	6907.34929
387.028	7111.46804
387.534	7304.55201
388.04	7414.75993
388.546	7711.06857
389.051	8361.30314
389.557	9046.98563
390.063	9365.3034
390.568	9605.76451
391.073	10107.474
391.578	10336.32295
392.084	10888.93901
392.589	11672.12297
393.093	12521.95597
393.598	13491.55021
394.103	14670.73501
394.607	15957.36828
395.112	16929.93129
395.616	17926.8772
396.12	19623.16778
396.624	21848.6925
397.128	23483.58911
397.632	25655.30966
398.136	27915.12883
398.639	30758.99696
399.143	35378.37834
399.646	38655.11496
400.15	42723.56044
400.653	47982.51323
401.156	54487.52537
401.659	55443.65741
402.162	53821.55638
402.664	47275.14456
403.167	32260.27245
403.67	3851.94142
404.172	0
404.674	0
405.176	0
405.678	0
406.18	0
406.682	0
407.184	0
407.686	12367.42319
408.187	34596.90747
408.688	44563.94194
409.19	48906.19284
409.691	51236.67962
410.192	52883.26968
410.693	53713.23343
411.194	54189.54801
411.694	54767.79104
412.195	55625.98899
412.696	55971.27715
413.196	55815.15953
413.696	55802.1488
414.196	55740.09561
414.696	56340.4775
415.196	53923.09976
415.696	44415.3633
416.196	34631.02768
416.695	29573.31851
417.195	27826.69688
417.694	26249.13478
418.194	24732.75124
418.693	23419.6958
419.192	22921.26924
419.691	22153.56994
420.19	21841.48426
420.688	20939.23822
421.187	19645.74103
421.685	17975.7329
422.184	16084.6236
422.682	13798.91293
423.18	12358.94449
423.678	11310.62152
424.176	10352.9056
424.674	9890.55484
425.172	9055.07405
425.669	8532.52759
426.167	7724.09163
426.664	7124.43081
427.161	6574.22731
427.659	6173.49529
428.156	5781.00133
428.652	5598.08306
429.149	5328.94844
429.646	5044.72366
430.143	4687.36352
430.639	4543.43457
431.135	4297.97886
431.632	4097.73618
432.128	3747.02894
432.624	3632.627
433.12	3644.94395
433.616	3477.88796
434.111	3401.46041
434.607	3332.49562
435.103	3179.96296
435.598	3018.867
436.093	2853.51677
436.588	2701.33621
437.083	2564.48913
437.578	2396.39146
438.073	2385.94923
438.568	2312.80334
439.062	2180.25056
439.557	2143.58972
440.051	2130.52375
440.546	2051.53066
441.04	2044.70728
441.534	1924.81212
442.028	1871.57302
442.522	1854.6036
443.015	1920.36508
443.509	1852.7231
444.002	1715.60174
444.496	1664.18509
444.989	1707.58186
445.482	1720.66233
445.975	1653.33936
446.468	1697.24924
446.961	1597.06978
447.454	1654.37367
447.947	1553.36571
448.439	1529.43434
448.931	1475.13651
449.424	1459.47354
449.916	1497.39912
450.408	1425.11789
450.9	1369.24069
451.392	1373.39177
451.884	1326.09021
452.375	1271.22832
452.867	1320.00117
453.358	1341.08326
453.849	1264.86895
454.341	1277.96683
454.832	1221.84926
455.323	1217.15324
455.814	1303.06956
456.304	1197.97603
456.795	1272.07116
457.285	1184.87238
457.776	1119.83044
458.266	1113.97795
458.756	1139.0449
459.247	1114.9884
459.737	1163.08496
460.226	1127.87842
460.716	1086.95221
461.206	1029.89718
461.695	1088.08023
462.185	1052.90348
462.674	1034.81208
463.163	1003.71952
463.653	923.52297
464.142	966.82655
464.63	957.82403
465.119	934.70323
465.608	931.71272
466.096	909.5887
466.585	963.75402
467.073	896.7146
467.561	839.63978
468.05	866.62679
468.538	850.69776
469.026	788.54324
469.513	798.37193
470.001	821.58487
470.489	842.67633
470.976	740.41086
471.463	711.49822
471.951	737.53403
472.438	697.39663
472.925	755.51371
473.412	687.43175
473.899	753.45201
474.385	722.51244
474.872	626.26602
475.359	675.4366
475.845	673.21373
476.331	721.33967
476.817	588.25041
477.303	611.24326
477.789	610.28825
478.275	571.25499
478.761	646.36856
479.247	528.04751
479.732	551.22973
480.218	503.16673
480.703	555.22335
481.188	536.01487
481.673	473.98486
482.158	540.05689
482.643	487.12065
483.128	487.02295
483.612	460.98227
484.097	489.08576
484.581	454.95224
485.066	482.07086
485.55	428.86837
486.034	409.82736
486.518	358.77708
487.002	488.10842
487.486	451.01533
487.969	416.93979
488.453	375.87424
488.936	395.83234
489.42	429.88372
489.903	311.73191
490.386	390.60655
490.869	295.60988
491.352	324.73498
491.835	337.65891
492.318	377.80733
492.8	390.77429
493.283	359.85207
493.765	294.69043
494.247	332.73108
494.73	270.56859
495.212	264.59986
495.694	305.68134
496.175	261.59677
496.657	292.65648
497.139	258.43945
497.62	255.58704
498.102	270.64938
498.583	264.63567
499.064	261.55435
499.545	266.58404
500.026	259.56257
500.507	249.55947
500.988	267.63473
501.469	204.49661
501.949	185.43931
502.43	267.61392
502.91	212.43308
503.39	233.55881
503.87	240.54666
504.35	246.55443
504.83	219.46961
505.31	202.47421
505.79	246.57095
506.269	181.4112
506.749	189.42205
507.228	167.38477
507.707	195.41977
508.187	175.40513
508.666	117.2804
509.145	156.35835
509.623	195.45054
510.102	170.40174
510.581	187.4324
511.059	173.42563
511.538	157.3921
512.016	208.48811
512.494	245.5793
512.972	177.407
513.45	161.36947
513.928	177.4216
514.406	195.46537
514.884	169.42344
515.361	128.29815
515.839	112.2544
516.316	182.4291
516.793	153.37879
517.27	155.36594
517.747	184.4626
518.224	109.24833
518.701	136.30025
519.178	134.32585
519.654	120.28007
520.131	119.28932
520.607	117.28361
521.083	87.19885
521.56	104.24187
522.036	96.21017
522.512	111.26653
522.987	103.24318
523.463	132.31001
523.939	99.23718
524.414	136.31016
524.89	102.24199
525.365	96.21434
525.84	129.30326
526.315	109.26034
526.79	106.23539
527.265	141.31981
527.74	108.25819
528.215	206.48228
528.689	87.19211
529.164	109.23737
529.638	145.36436
530.112	112.26212
530.587	111.24029
531.061	85.20511
531.534	153.3657
532.008	124.29644
532.482	52.1184
532.956	80.20114
533.429	102.24236
533.903	127.27539
534.376	116.25781
534.849	82.18724
535.322	139.32333
535.795	82.19724
536.268	98.23438
536.741	80.18906
537.213	79.18115
537.686	61.1477
538.158	78.17645
538.631	90.21319
539.103	81.18357
539.575	93.19253
540.047	101.22284
540.519	111.25922
540.991	55.13237
541.463	99.236
541.934	79.17846
542.406	39.09219
542.877	55.12272
543.348	22.05165
543.82	97.23292
544.291	63.14429
544.762	97.22812
545.233	82.20186
545.703	100.21994
546.174	132.30189
546.645	101.23984
547.115	170.40112
547.585	66.14918
548.056	99.23428
548.526	131.30279
548.996	152.35405
549.466	109.25894
549.935	136.31716
550.405	119.25793
550.875	161.37065
551.344	138.32157
551.814	192.42831
552.283	119.25275
552.752	169.37833
553.221	164.34917
553.69	154.3303
554.159	185.44032
554.628	217.47235
555.096	162.396
555.565	210.4607
556.033	162.36945
556.502	178.41934
556.97	154.32973
557.438	136.31279
557.906	204.46579
558.374	152.34133
558.842	142.33219
559.31	138.30467
559.777	125.29695
560.245	108.24571
560.712	131.29544
561.18	157.34146
561.647	120.26249
562.114	186.4199
562.581	90.215
563.048	214.4764
563.514	166.39624
563.981	168.37539
564.448	182.39473
564.914	186.4139
565.381	265.56971
565.847	228.50798
566.313	275.61433
566.779	322.69239
567.245	290.63405
567.711	285.64954
568.176	256.5448
568.642	320.74913
569.108	393.89092
569.573	385.83016
570.038	382.7446
570.504	443.91215
570.969	405.91439
571.434	483.94886
571.899	498.06609
572.363	535.07552
572.828	534.06536
573.293	614.24115
573.757	619.23211
574.222	630.23221
574.686	651.26945
575.15	690.41731
575.614	686.3546
576.078	694.38132
576.542	705.3554
577.006	751.4149
577.469	745.51083
577.933	796.49287
578.396	801.57723
578.86	802.56848
579.323	788.58614
579.786	740.33109
580.249	760.45256
580.712	821.64696
581.175	761.58404
581.637	742.41879
582.1	670.22343
582.563	772.36891
583.025	765.5585
583.487	736.2617
583.95	720.31823
584.412	679.19585
584.874	755.54855
585.336	691.40055
585.797	572.07684
586.259	652.31627
586.721	620.26761
587.182	630.25433
587.643	635.22119
588.105	512.0512
588.566	514.9363
589.027	561.17919
589.488	533.05474
589.949	547.15679
590.41	510.88622
590.87	388.78075
591.331	409.79401
591.791	401.83719
592.252	387.79577
592.712	374.80073
593.172	421.84969
593.632	385.74242
594.092	374.74946
594.552	366.70086
595.011	352.73767
595.471	349.70923
595.931	345.69502
596.39	378.82677
596.849	324.6889
597.308	263.51422
597.768	308.7264
598.227	312.68128
598.685	301.62731
599.144	315.67982
599.603	312.67609
600.062	264.52364
600.52	244.50863
600.978	312.68041
601.437	370.76236
601.895	230.44916
602.353	286.57656
602.811	343.69926
603.269	346.74463
603.727	308.67596
604.184	320.66468
604.642	320.7082
605.099	355.75727
605.557	323.71589
606.014	325.64027
606.471	366.83091
606.928	376.72976
607.385	423.92771
607.842	464.95173
608.299	428.89177
608.755	380.8192
609.212	423.85019
609.668	381.76401
610.125	398.85285
610.581	421.87075
611.037	411.82836
611.493	373.78944
611.949	358.77642
612.405	426.78541
612.861	398.82927
613.316	453.97299
613.772	348.71607
614.227	360.75677
614.683	363.70201
615.138	397.8406
615.593	414.87448
616.048	493.99865
616.503	360.78408
616.958	371.8332
617.412	451.95075
617.867	410.82958
618.321	452.84757
618.776	402.79774
619.23	373.79048
619.684	435.88802
620.138	358.73797
620.592	366.79951
621.046	334.70645
621.5	328.73287
621.954	358.73034
622.407	347.70388
622.861	332.74395
623.314	318.66289
623.768	335.71585
624.221	295.54017
624.674	284.60464
625.127	273.58893
625.58	263.54714
626.033	290.58301
626.485	292.6546
626.938	256.56327
627.39	309.66773
627.843	261.55894
628.295	203.44
628.747	267.59376
629.199	192.41394
629.651	198.43273
630.103	230.49926
630.555	257.52179
631.006	229.50587
631.458	218.49194
631.909	219.47143
632.361	186.41681
632.812	150.33587
633.263	184.37896
633.714	228.47148
634.165	168.38561
634.616	178.40332
635.067	102.21726
635.518	173.39414
635.968	155.30119
636.419	123.25943
636.869	111.25207
637.319	161.36932
637.769	150.32394
638.219	181.41453
638.669	96.22282
639.119	95.22211
639.569	87.20564
640.019	88.19721
640.468	125.27267
640.918	60.13993
641.367	103.22821
641.816	40.08739
642.265	76.17095
642.714	108.24282
643.163	86.19312
643.612	87.20644
644.061	58.12171
644.51	122.27238
644.958	107.23351
645.406	86.20198
645.855	122.29456
646.303	118.26976
646.751	135.3011
647.199	78.17357
647.647	89.20097
648.095	103.2322
648.543	154.31331
648.99	132.30953
649.438	73.16625
649.885	58.13988
650.333	113.21936
650.78	75.17947
651.227	109.26133
651.674	116.26241
652.121	136.32451
652.568	81.19553
653.015	107.26559
653.461	79.18543
653.908	111.25279
654.354	110.25885
654.801	137.32169
655.247	91.1959
655.693	103.26133
656.139	107.25693
656.585	116.27594
657.031	120.28128
657.477	50.1102
657.922	139.31847
658.368	118.2892
658.813	129.29568
659.259	110.26157
659.704	84.19582
660.149	112.26047
660.594	126.29638
661.039	78.17724
661.484	93.21991
661.929	94.21766
662.373	108.27173
662.818	79.19509
663.262	76.18315
663.707	110.27478
664.151	76.18343
664.595	100.24336
665.039	81.19988
665.483	166.41915
665.927	72.16791
666.371	120.28205
666.814	112.26663
667.258	112.26571
667.701	110.23746
668.145	133.32698
668.588	116.28324
669.031	106.25157
669.474	125.29912
669.917	109.24029
670.36	47.11734
670.803	115.27677
671.245	175.37283
671.688	112.26949
672.13	151.3436
672.573	102.25645
673.015	124.2961
673.457	139.30604
673.899	149.35668
674.341	117.28072
674.783	128.30741
675.225	97.24033
675.666	138.33369
676.108	65.14167
676.549	111.26125
676.991	148.32866
677.432	181.37471
677.873	135.31254
678.314	145.34419
678.755	90.2218
679.196	169.39155
679.637	166.402
680.078	107.25223
680.518	128.29698
680.959	70.16709
681.399	91.22604
681.839	112.27327
682.28	121.30045
682.72	134.31164
683.16	148.36782
683.6	101.23085
684.039	122.2559
684.479	144.35226
684.919	177.41383
685.358	102.2571
685.798	173.45302
686.237	134.3228
686.676	67.1548
687.115	135.31761
687.554	161.38276
687.993	111.24839
688.432	153.35013
688.871	139.3186
689.309	151.36202
689.748	160.33784
690.186	163.38766
690.625	125.29661
691.063	145.35055
691.501	189.46431
691.939	150.37659
692.377	154.37784
692.815	157.37655
693.253	127.30402
693.69	165.3645
694.128	179.43535
694.565	146.3481
695.003	131.33084
695.44	149.3541
695.877	139.3283
696.314	190.40786
696.751	153.34576
697.188	126.28933
697.625	136.30903
698.061	160.38645
698.498	172.41354
698.934	168.40239
699.371	127.30158
699.807	138.32802
700.243	105.25308
700.679	135.30707
701.115	142.32881
701.551	150.35091
701.987	202.45173
702.422	157.37426
702.858	183.43539
703.294	121.27188
703.729	149.36212
704.164	135.32329
704.599	135.30172
705.035	142.32031
705.47	115.27897
705.904	147.34665
706.339	154.35617
706.774	158.37223
707.209	157.3662
707.643	156.37323
708.078	170.40905
708.512	130.32602
708.946	153.36304
709.38	159.37713
709.814	195.44821
710.248	194.47033
710.682	207.48984
711.116	186.44941
711.549	198.50795
711.983	132.3082
712.416	196.45869
712.85	183.45339
713.283	188.43894
713.716	167.41087
714.149	198.46283
714.582	191.42987
715.015	172.42372
715.448	181.45171
715.881	174.3711
716.313	108.25097
716.746	205.4791
717.178	171.41044
717.61	157.39309
718.043	172.42341
718.475	157.37684
718.907	177.4366
719.339	149.34275
719.77	211.49524
720.202	160.40256
720.634	179.43519
721.065	214.50474
721.497	229.55402
721.928	151.37206
722.359	189.45864
722.79	144.34793
723.221	134.33424
723.652	186.4688
724.083	140.3207
724.514	174.39538
724.945	155.36438
725.375	207.48358
725.806	119.29203
726.236	127.32097
726.666	196.463
727.096	233.56645
727.526	157.39791
727.956	157.36202
728.386	193.47255
728.816	197.50264
729.246	168.40699
729.675	120.29541
730.105	196.47821
730.534	202.46903
730.964	201.49834
731.393	182.44173
731.822	191.47528
732.251	167.42235
732.68	174.40258
733.109	200.49341
733.537	147.35605
733.966	168.41371
734.395	196.44951
734.823	137.30998
735.251	169.40518
735.68	196.48195
736.108	198.49637
736.536	205.48379
736.964	157.36476
737.392	193.47711
737.82	110.26066
738.247	183.43757
738.675	149.34932
739.102	183.45901
739.53	126.31986
739.957	136.34695
740.384	154.37406
740.811	157.3938
741.238	132.3205
741.665	190.43733
742.092	199.46836
742.519	176.43692
742.945	147.35203
743.372	181.44498
743.798	145.37141
744.225	182.4331
744.651	145.36227
745.077	149.3697
745.503	209.5064
745.929	143.34376
746.355	90.21812
746.781	116.28798
747.207	103.24431
747.632	133.32698
748.058	149.36645
748.483	136.31704
748.908	129.32043
749.334	143.353
749.759	179.42408
750.184	132.31509
750.609	127.309
751.033	69.16164
751.458	138.30785
751.883	118.28812
752.307	125.29878
752.732	158.39923
753.156	168.41463
753.58	93.22153
754.005	135.33936
754.429	133.31449
754.853	113.28334
755.277	81.19205
755.7	117.28956
756.124	111.27662
756.548	105.25308
756.971	173.41981
757.394	116.29791
757.818	118.30379
758.241	105.26735
758.664	160.40616
759.087	106.24145
759.51	130.3212
759.933	54.13102
760.356	80.20424
760.778	167.41571
761.201	150.36407
761.623	130.31518
762.046	81.19146
762.468	139.3311
762.89	81.19819
763.312	103.25014
763.734	80.19476
764.156	125.3097
764.578	92.21227
765	136.3338
765.421	138.35737
765.843	108.28239
766.264	76.1826
766.686	73.18311
767.107	96.23589
767.528	79.20285
767.949	47.11976
768.37	97.24094
768.791	67.16381
769.212	72.18504
769.632	79.18767
770.053	53.14086
770.473	74.1817
770.894	20.05018
771.314	46.10993
771.734	93.22025
772.154	60.15538
772.575	77.17932
772.994	27.06298
773.414	63.15231
773.834	0
774.254	107.2652
774.673	46.11299
775.093	19.04754
775.512	77.19342
775.931	114.29001
776.351	56.1406
776.77	43.10809
777.189	50.121
777.607	39.09986
778.026	38.09534
778.445	-22.05609
778.864	17.04374
779.282	94.22918
779.701	28.07156
780.119	-7.01811
780.537	35.08915
780.955	68.17342
781.373	38.09475
781.791	8.01842
782.209	2.00464
782.627	24.06359
783.045	33.07749
783.462	20.05149
783.88	24.06324
784.297	24.06172
784.715	49.12753
785.132	40.09793
785.549	21.05374
785.966	59.1489
786.383	12.03004
786.8	3.00703
787.217	15.0362
787.633	67.17048
788.05	14.03316
788.466	66.1567
788.883	19.04904
789.299	43.10455
789.715	102.25054
790.131	73.18331
790.547	-14.03525
790.963	46.11557
791.379	-24.06172
791.795	-24.05568
792.21	34.08119
792.626	-4.00963
793.041	27.0677
793.457	-37.09334
793.872	-19.04552
794.287	51.1259
794.702	16.03965
795.117	47.11938
795.532	5.01276
795.947	27.06557
796.362	23.05481
796.776	30.06991
797.191	60.14945
797.605	20.04845
798.02	15.03738
798.434	18.0407
798.848	47.11751
799.262	9.02288
799.676	35.08554
800.09	1.00247
800.504	24.05923
800.918	2.00476
801.331	9.0236
801.745	-24.05593
802.158	37.09371
802.572	29.07006
802.985	57.13864
803.398	26.06301
803.811	19.04867
804.224	-10.02516
804.637	-32.07828
805.05	12.02845
805.462	73.18166
805.875	14.03707
806.288	-21.05153
806.7	-7.01789
807.112	3.0071
807.525	-10.02499
807.937	20.05029
808.349	16.04014
808.761	-37.09204
809.173	25.06146
809.584	12.02953
809.996	19.04761
810.408	40.1047
810.819	57.13718
811.231	73.19292
811.642	92.22673
812.053	62.15128
812.464	57.13781
812.875	40.10363
813.286	5.01296
813.697	-12.0278
814.108	-14.03452
814.519	1.00225
814.929	11.02796
815.34	-25.06167
815.75	-10.02582
816.16	9.02262
816.571	73.19039
816.981	-30.07134
817.391	17.04173
817.801	6.01512
818.211	-41.09935
818.62	16.0394
819.03	24.05958
819.44	53.1378
819.849	11.02815
820.259	25.06379
820.668	-15.03768
821.077	40.10115
821.486	26.06368
821.895	23.05676
822.304	16.04256
822.713	6.0144
823.122	16.04013
823.531	-16.03835
823.939	-12.02979
824.348	32.07837
824.756	32.0806
825.164	-4.0101
825.573	13.0331
825.981	-8.01983
826.389	58.1463
826.797	1.00257
827.205	38.08932
827.612	11.02728
828.02	9.02169
828.428	-13.03344
828.835	4.0106
829.243	8.01924
829.65	-4.01009
830.057	4.00975
830.464	-2.00493
830.871	-23.05548
831.278	-8.01962
831.685	13.02958
832.092	-16.03995
832.499	-2.00448
832.905	20.05086
833.312	32.07369
833.718	15.03746
834.124	-7.01615
834.531	12.03048
834.937	11.02838
835.343	-1.00245
835.749	19.04465
836.155	29.07661
836.561	-43.1072
836.966	-19.04697
837.372	30.07716
837.777	16.04023
838.183	37.08351
838.588	34.08533
838.993	19.04609
839.399	11.02762
839.804	2.00498
840.209	-33.08589
840.613	7.01589
841.018	17.04342
841.423	9.02326
841.828	8.02038
842.232	40.09858
842.637	11.02629
843.041	0
843.445	-8.02039
843.849	-6.0151
844.253	-13.03126
844.657	0
845.061	-6.0138
845.465	29.07154
845.869	0
846.272	-12.02997
846.676	-51.12325
847.079	-1.00259
847.483	-7.01752
847.886	26.06342
848.289	-10.02705
848.692	-30.0767
849.095	-4.00975
849.498	-9.02275
849.901	-10.02334
850.304	-9.02164
850.707	-7.01797
851.109	20.05029
851.512	19.04763
851.914	24.06237
852.316	19.0485
852.718	33.08785
853.121	25.06237
853.523	69.16587
853.925	15.03971
854.326	8.02037
854.728	-1.00261
855.13	-5.01305
855.531	37.0904
855.933	11.02673
856.334	-29.07355
856.736	69.15892
857.137	-7.01669
857.538	-10.02578
857.939	29.07321
858.34	-21.05201
858.741	11.02898
859.142	-39.09518
859.542	-3.008
859.943	70.17593
860.343	13.033
860.744	27.06614
861.144	22.0541
861.544	45.11092
861.945	14.03614
862.345	-18.04461
862.745	-20.05021
863.145	-16.03841
863.544	19.04845
863.944	59.14146
864.344	6.01492
864.743	11.0273
865.143	33.0858
865.542	27.06382
865.941	11.02737
866.34	-13.03132
866.74	14.03771
867.139	7.01699
867.537	29.07428
867.936	14.03407
868.335	29.07392
868.734	23.05933
869.132	16.03762
869.531	-12.02885
869.929	14.03291
870.327	28.06847
870.726	20.04972
871.124	-12.02822
871.522	12.03065
871.92	-3.00751
872.318	-20.04929
872.715	16.03932
873.113	26.06401
873.511	-61.15246
873.908	-21.05387
874.306	3.00761
874.703	31.0777
875.1	-25.06413
875.497	2.00486
875.894	37.09241
876.291	-50.12354
876.688	-6.01566
877.085	41.09845
877.482	50.12562
877.878	19.04658
878.275	-18.04626
878.671	-42.09366
879.068	11.02677
879.464	32.0784
879.86	22.05306
880.256	-19.04733
880.652	48.12349
881.048	13.03239
881.444	-15.03594
881.84	7.01804
882.236	-5.01267
882.631	4.00989
883.027	-7.01696
883.422	13.03377
883.817	-12.03104
884.213	29.07506
884.608	18.04531
885.003	29.07146
885.398	-6.01528
885.793	8.02034
886.188	-4.01019
886.582	44.11277
886.977	12.02892
887.371	-2.00503
887.766	-17.0431
888.16	18.04537
888.554	-55.13637
888.949	2.00504
889.343	14.03446
889.737	-22.05978
890.131	-4.01018
890.525	52.13415
890.918	-6.01534
891.312	-17.04104
891.706	3.0079
892.099	15.03826
892.492	13.02825
892.886	71.17604
893.279	28.07249
893.672	17.04379
894.065	-18.04558
894.458	-20.05063
894.851	-15.03672
895.244	-2.0052
895.637	16.03882
896.029	25.06214
896.422	-19.04711
896.814	5.0127
897.206	7.01697
897.599	12.02963
897.991	19.04663
898.383	-56.13475
898.775	4.00917
899.167	-31.07478
899.559	-6.0152
899.951	33.07876
900.342	24.06149
900.734	14.03553
901.125	20.05318
901.517	-12.0297
901.908	-6.01444
902.299	29.07261
902.69	-29.06993
903.082	-30.07276
903.473	10.0245
903.863	5.01277
904.254	-38.08977
904.645	-27.06714
905.036	-8.0198
905.426	21.04854
905.817	20.04972
906.207	-27.06631
906.597	29.06868
906.987	-29.07504
907.378	-31.07932
907.768	-5.01336
908.158	5.01232
908.547	35.09203
908.937	-40.10305
909.327	36.08751
909.717	-17.04324
910.106	16.0393
910.495	3.00751
910.885	47.11955
911.274	11.02781
911.663	-23.05873
912.052	-22.0546
912.441	26.06698
912.83	33.07719
913.219	5.01308
913.608	-19.04651
913.997	-6.01537
914.385	33.07975
914.774	14.03439
915.162	-11.02689
915.55	-13.03158
915.939	-4.01023
916.327	-25.06228
916.715	34.08839
917.103	44.10812
917.491	31.077
917.878	-10.02507
918.266	-10.02603
918.654	28.07174
919.041	-23.06076
919.429	-35.08369
919.816	-2.00512
920.203	17.04161
920.591	-7.01744
920.978	-5.01236
921.365	-10.02651
921.752	-22.05316
922.139	-36.07971
922.525	71.17443
922.912	0
923.299	51.12885
923.685	-45.11872
924.072	12.0279
924.458	8.02005
924.844	14.03538
925.231	-6.01426
925.617	18.04686
926.003	19.04872
926.389	27.06817
926.774	19.04848
927.16	-3.00754
927.546	-11.02849
927.931	29.07319
928.317	45.10422
928.702	-2.00475
929.088	11.02679
929.473	-9.02321
929.858	41.10155
930.243	-31.07596
930.628	3.00747
931.013	26.06495
931.398	-34.07839
931.783	-21.05514
932.167	-8.01966
932.552	-12.03003
932.937	12.02989
933.321	-16.04103
933.705	-20.05102
934.09	-7.01748
934.474	33.079
934.858	-30.07812
935.242	-46.10888
935.626	19.04911
936.009	16.04293
936.393	-20.05117
936.777	-25.06428
937.16	-14.03697
937.544	19.0446
937.927	-46.11863
938.311	26.06356
938.694	-29.07679
939.077	-39.09599
939.46	-19.04675
939.843	24.05043
940.226	13.03375
940.609	43.10077
940.991	29.07462
941.374	-13.03219
941.757	50.12418
942.139	-63.1451
942.522	-7.01659
942.904	-13.0315
943.286	3.00765
943.668	23.06019
944.05	54.13416
944.432	62.15476
944.814	48.11973
945.196	6.01506
945.578	-1.00246
945.959	-8.01906
946.341	8.0195
946.722	-14.03307
947.104	-19.04583
947.485	52.12308
947.866	27.06894
948.247	31.07885
948.628	37.09056
949.009	-3.00779
949.39	-8.02
949.771	11.02588
950.152	3.00747
950.532	-4.01008
950.913	32.0786
951.293	-11.03022
951.674	-29.07127
952.054	-24.06036
952.434	-14.03505
952.814	-12.02837
953.194	-41.10722
953.574	-38.09424
953.954	8.01929
954.334	15.03763
954.714	-4.00992
955.093	-5.01223
955.473	-32.08138
955.853	-33.08592
956.232	-39.10715
956.611	14.0335
956.99	-34.08564
957.37	-15.03854
957.749	11.02645
958.128	-18.04571
958.506	-6.01577
958.885	-6.0153
959.264	8.02004
959.643	55.12678
960.021	-53.13338
960.4	-32.07395
960.778	-49.12136
961.156	7.0178
961.535	-12.02835
961.913	38.08953
962.291	20.0521
962.669	-39.09881
963.047	37.09484
963.424	24.06149
963.802	10.02474
964.18	42.10567
964.557	1.00234
964.935	-4.00952
965.312	49.12862
965.69	12.03025
966.067	10.02455
966.444	-9.02235
966.821	-23.05941
967.198	-8.01937
967.575	4.00983
967.952	6.01405
968.329	-6.01476
968.705	46.10058
969.082	18.04695
969.458	-29.07109
969.835	-14.0341
970.211	10.02595
970.587	-11.02762
970.963	1.00258
971.339	15.03941
971.715	-9.02273
972.091	54.13333
972.467	-19.04781
972.843	37.09318
973.219	4.0096
973.594	28.07379
973.97	26.06218
974.345	25.0606
974.721	-16.03917
975.096	16.03924
975.471	-62.1472
975.846	-11.02691
976.221	16.04144
976.596	19.04625
976.971	-66.16469
977.346	2.00469
977.72	-14.03563
978.095	-42.10929
978.469	-15.03613
978.844	45.11198
979.218	-5.01231
979.593	3.00716
979.967	47.11538
980.341	3.00704
980.715	10.02523
981.089	46.11586
981.463	39.0905
981.837	-12.02989
982.21	-27.06216
982.584	14.03431
982.957	-49.12503
983.331	9.02143
983.704	47.11653
984.078	-38.09499
984.451	-25.0618
984.824	19.04735
985.197	5.01226
985.57	15.03779
985.943	6.01474
986.316	58.14167
986.688	2.00486
987.061	29.06879
987.434	2.00522
987.806	-22.05362
988.179	2.00485
988.551	35.08909
988.923	-57.14159
989.295	27.06785
989.667	44.10784
990.039	4.01003
990.411	4.00933
990.783	-19.04374
991.155	-3.00743
991.527	-18.04394
991.898	-39.09867
992.27	13.0327
992.641	34.08524
993.012	0
993.384	17.04104
993.755	18.04621
994.126	-26.06342
994.497	16.04001
994.868	-10.02324
995.239	-32.07892
995.61	18.04597
995.98	-6.01488
996.351	26.06544
996.722	-6.01425
997.092	-56.13572
997.462	-6.01449
997.833	-25.05955
998.203	-27.06616
998.573	-2.00502
998.943	-3.00718
999.313	-18.04335
999.683	1.00242
1000.053	-1.00232
1000.423	6.01461
1000.792	8.02107
1001.162	-12.02994
1001.531	-8.01997
1001.901	26.0649
1002.27	34.0771
1002.639	23.05904
1003.009	9.02168
1003.378	-23.05925
1003.747	0
1004.116	-2.00487
1004.485	-14.0336
1004.853	32.08098
1005.222	15.03817
1005.591	11.02636
1005.959	66.15325
1006.328	-21.04858
1006.696	0
1007.064	13.03312
1007.433	-17.04257
1007.801	-27.06623
1008.169	24.06131
1008.537	1.00222
1008.905	14.03316
1009.273	15.03731
1009.64	41.09924
1010.008	19.04576
1010.375	-22.05252
1010.743	17.03953
1011.11	5.01204
1011.478	-13.0323
1011.845	-12.02851
1012.212	3.00696
1012.579	5.01237
1012.946	9.02165
1013.313	-12.02855
1013.68	0
1014.047	20.04894
1014.414	-30.07246
1014.78	-1.0025
1015.147	-34.08287
1015.513	10.02435
1015.88	18.04599
1016.246	22.0544
1016.612	-6.01394
1016.978	17.04215
1017.344	16.03975
1017.71	-19.04597
1018.076	19.04486
1018.442	-8.02068
1018.808	41.10299
1019.174	8.02034
1019.539	42.09548
1019.905	-39.09354
1020.27	-22.05529
1020.636	-6.01445
1021.001	16.03891
1021.366	-19.046
1021.731	-11.02854
1022.096	-48.12259
1022.461	-42.09995
1022.826	6.0145
1023.191	-6.01584
1023.556	-1.00237
1023.92	8.01965
1024.285	-7.01717
1024.649	-25.06174
1025.014	-5.01241
1025.378	-1.00255
1025.742	-14.03523
1026.107	40.09071
1026.471	-36.08468
1026.835	-39.0974
1027.199	-18.0443
1027.562	31.07308
1027.926	19.04635
1028.29	59.15102
1028.654	17.03968
1029.017	-11.02714
1029.381	60.14623
1029.744	12.03099
1030.107	-13.03074
1030.471	7.01688
1030.834	2.00459
1031.197	6.01439
1031.56	-5.01187
1031.923	-30.07844
1032.286	-21.04923
1032.648	21.05073
1033.011	13.03066
1033.374	-11.02589
1033.736	30.0798
1034.099	57.14014
1034.461	49.12582
1034.823	-14.03538
1035.185	-2.0051
1035.548	16.03933
1035.91	6.01463
1036.272	-11.02553
1036.634	-1.00244
1036.995	-43.10215
1037.357	-10.02463
1037.719	-28.0686
1038.08	-34.08097
1038.442	9.02155
1038.803	34.08252
1039.165	21.053
1039.526	-26.06349
1039.887	8.01937
1040.248	22.05543
1040.609	-29.07211
1040.97	31.07714
1041.331	-32.08161
1041.692	-1.00238
1042.053	-13.02992
1042.413	-6.01408
1042.774	2.00489
1043.134	12.02843
1043.495	12.03025
1043.855	35.08487
1044.215	3.00744
1044.576	-11.02695
1044.936	-40.09192
1045.296	36.0896
1045.656	0
1046.016	4.00974
1046.375	53.13016
1046.735	-24.05623
1047.095	33.078
1047.454	1.00212
1047.814	-19.04569
1048.173	-21.05014
1048.533	-22.05143
1048.892	3.00738
1049.251	56.13948
1049.61	-14.03502
1049.969	-25.05935
1050.328	14.0307
1050.687	1.00247
1051.046	-16.03932
1051.405	5.01254
1051.763	-18.04224
1052.122	-9.02299
1052.48	3.00737
1052.839	20.04752
1053.197	-18.04257
1053.555	-37.08375
1053.914	-18.04464
1054.272	-6.01452
1054.63	47.11636
1054.988	-30.07235
1055.345	13.02855
1055.703	6.01439
1056.061	-45.11756
1056.419	23.0598
1056.776	-23.05598
1057.134	-10.02361
1057.491	-18.04547
1057.848	6.01504
1058.206	29.06879
1058.563	-8.01806
1058.92	23.05318
1059.277	-8.01973
1059.634	48.11374
1059.991	-17.04056
1060.348	46.10643
1060.704	-17.04127
1061.061	-29.06639
1061.418	7.01727
1061.774	-4.01
1062.131	1.00266
1062.487	-24.05685
1062.843	26.06514
1063.199	-7.01748
1063.555	19.04435
1063.911	38.0966
1064.267	10.021
1064.623	-11.02721
1064.979	17.03967
1065.335	0
1065.691	-36.08649
1066.046	-70.15687
1066.402	-9.02095
1066.757	-19.048
1067.112	-4.00973
1067.468	-5.01204
1067.823	37.08935
1068.178	-2.00486
1068.533	-7.01703
1068.888	0
1069.243	-17.04249
1069.598	60.1464
1069.952	-19.04428
1070.307	23.05778
1070.662	2.00485
1071.016	25.0573
1071.371	-31.07191
1071.725	-2.00481
1072.079	-12.0289
1072.434	-18.04448
1072.788	42.10179
1073.142	-16.03965
1073.496	94.22721
1073.85	-21.04922
1074.203	-15.03631
1074.557	17.04548
1074.911	-1.00239
1075.265	-34.08023
1075.618	27.06616
1075.971	-5.01207
1076.325	-1.00258
1076.678	5.01185
1077.031	3.00695
1077.385	13.0292
1077.738	20.04644
1078.091	-20.04727
1078.444	25.05864
1078.796	-6.01487
1079.149	-7.01748
1079.502	-4.00967
1079.855	52.12256
1080.207	-22.05448
1080.56	15.03928
1080.912	0
1081.264	12.02917
1081.617	25.06212
1081.969	12.03081
1082.321	20.0496
1082.673	34.07976
1083.025	-16.03821
1083.377	-5.01083
1083.728	-1.00236
1084.08	17.04301
1084.432	34.08308
1084.783	-30.07057
1085.135	15.03795
1085.486	3.00705
1085.838	-15.03744
1086.189	-38.09413
1086.54	0
1086.891	16.04112
1087.242	-7.01719
1087.593	-8.01936
1087.944	3.00698
1088.295	6.01363
1088.646	3.00734
1088.996	-24.05934
1089.347	-15.03723
1089.698	50.12063
1090.048	2.0052
1090.398	-30.07068
1090.749	-13.03131
1091.099	-15.03838
1091.449	-2.005
1091.799	29.0735
1092.149	1.00252
1092.499	-60.14776
1092.849	-10.02567
1093.199	-30.07529
1093.548	-18.04372
1093.898	35.08861
1094.248	23.05879
1094.597	4.01042
1094.947	-13.03493
1095.296	24.05984
1095.645	20.05192
1095.994	12.02932
1096.343	24.06054
1096.692	20.05338
1097.041	-12.03297
1097.39	3.00756
1097.739	-11.02857
1098.088	6.01611
1098.437	3.00797
1098.785	21.05702
1099.134	42.11113
1099.482	4.011
1099.83	5.01305
1100.179	-29.07677
1100.527	22.05895
1100.875	-3.00801
1101.223	-7.0186
1101.571	35.09723
1101.919	-16.04266
1102.267	-4.01131
1102.615	-2.00644
1102.962	-1.00322
1103.31	2.00644
1103.658	0
