Data from N2 R1 sample 10_Subt2__1__14-02-14-416.txt Node

Date: Wed Aug 27 14:02:14 PDT 2025
User: uwsun
Spectrometer: HDX01956
Trigger mode: 0
Integration Time (sec): 5.000000E-1
Scans to average: 1
Nonlinearity correction enabled: true
Boxcar width: 0
Storing dark spectrum: false
XAxis mode: Wavelengths
Number of Pixels in Spectrum: 2068
>>>>>Begin Spectral Data<<<<<
194.03	68.19649
194.578	74.23942
195.127	72.22996
195.676	77.24643
196.225	68.18489
196.773	53.15001
197.321	129.36068
197.87	123.3233
198.418	202.5294
198.966	204.53971
199.513	181.46507
200.061	176.45923
200.609	163.43551
201.156	201.45441
201.704	220.56733
202.251	140.3777
202.798	221.58615
203.345	190.47888
203.892	173.44328
204.438	152.37445
204.985	183.44624
205.532	193.51378
206.078	225.56272
206.624	210.52948
207.17	220.5213
207.716	165.41699
208.262	126.26091
208.808	189.47883
209.354	234.58195
209.899	224.56901
210.445	186.47182
210.99	157.38997
211.535	200.48086
212.08	200.4794
212.625	167.42566
213.17	152.389
213.715	169.39295
214.259	207.48927
214.804	179.45157
215.348	176.41399
215.892	169.41395
216.436	175.41316
216.98	141.32383
217.524	161.38981
218.068	147.37389
218.612	178.45697
219.155	164.39536
219.698	153.37114
220.242	169.4239
220.785	157.3754
221.328	167.4237
221.871	132.33544
222.414	193.4874
222.956	136.33689
223.499	166.38422
224.041	176.423
224.583	135.29835
225.126	177.40358
225.668	176.43836
226.21	121.31102
226.751	168.3819
227.293	161.37612
227.835	124.3093
228.376	205.48304
228.918	156.39895
229.459	173.44064
230	144.34741
230.541	218.51277
231.082	187.46279
231.622	239.56424
232.163	175.43357
232.704	160.40616
233.244	168.41737
233.784	160.39517
234.324	148.33712
234.864	168.39024
235.404	155.37274
235.944	140.33801
236.484	113.28558
237.023	166.40245
237.563	160.37958
238.102	92.22087
238.641	153.39066
239.18	123.29792
239.719	192.48807
240.258	128.29627
240.797	173.42532
241.335	173.42814
241.874	149.30155
242.412	141.34563
242.95	192.47072
243.488	200.46934
244.026	131.31012
244.564	134.28468
245.102	192.44599
245.64	219.53262
246.177	187.42569
246.715	163.3951
247.252	159.37116
247.789	131.25188
248.326	187.4616
248.863	134.30498
249.4	148.34052
249.936	216.46088
250.473	150.35915
251.009	170.40221
251.546	210.47853
252.082	119.26739
252.618	186.42795
253.154	160.39198
253.69	198.45701
254.226	124.29882
254.761	168.38808
255.297	173.39382
255.832	138.33205
256.367	223.53483
256.903	161.36532
257.438	140.33303
257.972	203.46659
258.507	187.44354
259.042	126.27957
259.576	190.42209
260.111	205.47891
260.645	153.33828
261.179	170.40252
261.713	182.4154
262.247	203.47517
262.781	143.3085
263.315	149.3697
263.849	196.49542
264.382	222.51179
264.915	256.6101
265.449	204.50772
265.982	193.44556
266.515	215.52817
267.048	130.28208
267.58	177.39166
268.113	193.4292
268.646	202.50475
269.178	207.47826
269.71	181.3975
270.243	177.41123
270.775	217.55542
271.307	227.54484
271.838	208.49363
272.37	170.42264
272.902	232.53356
273.433	199.44475
273.965	187.45956
274.496	190.47236
275.027	203.50991
275.558	191.46957
276.089	219.54811
276.62	164.42
277.15	221.54712
277.681	197.43701
278.211	227.55888
278.741	202.45751
279.272	195.45447
279.802	234.58702
280.332	228.54651
280.861	190.4634
281.391	211.48711
281.921	176.42461
282.45	241.60447
282.98	203.52994
283.509	227.51945
284.038	187.4336
284.567	179.41998
285.096	205.49783
285.625	158.36382
286.153	183.43723
286.682	247.57565
287.21	193.46939
287.739	230.54773
288.267	249.60512
288.795	234.61283
289.323	165.39423
289.851	200.46989
290.378	225.51819
290.906	244.60062
291.433	195.48858
291.961	244.56362
292.488	193.47868
293.015	210.49953
293.542	228.5808
294.069	233.57893
294.596	182.4528
295.122	258.61581
295.649	232.51368
296.175	260.63268
296.702	240.58074
297.228	257.62011
297.754	221.50227
298.28	235.54186
298.806	213.51026
299.332	280.62976
299.857	241.5475
300.383	270.67097
300.908	299.73068
301.433	215.52368
301.958	291.67818
302.483	281.70173
303.008	197.48163
303.533	272.7031
304.058	191.45076
304.582	284.67734
305.107	265.68632
305.631	281.63628
306.155	264.62023
306.679	253.59682
307.203	234.5474
307.727	308.73119
308.251	196.48088
308.775	276.65372
309.298	308.73738
309.822	285.70837
310.345	260.61179
310.868	262.62225
311.391	284.68356
311.914	296.73905
312.437	271.60965
312.96	259.6086
313.482	279.65738
314.005	306.76345
314.527	276.71171
315.049	286.70943
315.571	312.69165
316.093	321.77684
316.615	289.68543
317.137	261.56788
317.659	278.65744
318.18	257.61143
318.702	341.78811
319.223	274.56634
319.744	278.62527
320.265	297.70983
320.786	317.77379
321.307	320.783
321.828	292.64975
322.348	283.65253
322.869	390.90079
323.389	509.82821
323.909	364.81832
324.43	344.79678
324.95	373.83357
325.47	348.83566
325.989	359.82047
326.509	341.7479
327.029	345.76623
327.548	331.73056
328.067	419.97717
328.587	389.91506
329.106	459.01185
329.625	436.07354
330.144	372.8243
330.662	419.93634
331.181	412.91595
331.7	395.88163
332.218	378.79285
332.736	423.9324
333.255	419.93634
333.773	440.9794
334.291	369.86871
334.808	395.84075
335.326	474.00456
335.844	437.9697
336.361	472.11777
336.879	506.11356
337.396	445.0067
337.913	553.19653
338.43	451.95409
338.947	526.16152
339.464	504.0217
339.981	513.12686
340.497	502.14211
341.014	543.21983
341.53	473.99887
342.046	543.21384
342.562	502.14119
343.078	543.17086
343.594	570.24256
344.11	558.19888
344.626	581.31704
345.141	537.10734
345.657	490.00096
346.172	595.29685
346.687	589.22454
347.202	626.27296
347.717	587.25397
348.232	643.43649
348.747	590.22526
349.261	594.17046
349.776	605.28131
350.29	621.37759
350.805	626.38725
351.319	613.27225
351.833	640.30443
352.347	666.38086
352.861	695.43112
353.374	678.35506
353.888	652.35722
354.401	713.43861
354.915	792.56058
355.428	731.57005
355.941	693.40333
356.454	700.34158
356.967	701.42667
357.48	702.383
357.993	695.47601
358.505	745.57063
359.018	765.60648
359.53	702.43616
360.042	741.40354
360.554	693.42572
361.066	765.59661
361.578	751.3886
362.09	772.55746
362.602	724.34759
363.113	814.57471
363.625	814.51319
364.136	793.45692
364.647	794.54109
365.158	868.66574
365.669	858.70585
366.18	841.62741
366.691	804.46496
367.201	803.5834
367.712	882.65446
368.222	909.65879
368.733	834.47222
369.243	835.5112
369.753	928.68544
370.263	960.84434
370.773	923.85692
371.282	948.78024
371.792	911.6725
372.301	995.89567
372.811	1026.07647
373.32	1049.71451
373.829	1051.85976
374.338	1086.79153
374.847	1074.83332
375.356	1087.89084
375.865	1135.71513
376.373	1226.91373
376.882	1279.24241
377.39	1254.08373
377.898	1378.28857
378.407	1336.00768
378.915	1397.8551
379.423	1448.11306
379.93	1482.00462
380.438	1599.2887
380.946	1696.17778
381.453	1732.29428
381.96	1812.20363
382.468	1973.20379
382.975	2057.30481
383.482	2233.10016
383.989	2192.54096
384.495	2293.09059
385.002	2432.62063
385.509	2435.93797
386.015	2622.23219
386.521	2738.49338
387.028	2829.42353
387.534	2954.0835
388.04	3105.37829
388.546	3117.07252
389.051	3319.75054
389.557	3558.79003
390.063	3850.32188
390.568	4059.57175
391.073	4214.01602
391.578	4222.13605
392.084	4491.69965
392.589	4488.38512
393.093	4837.41101
393.598	5306.07235
394.103	5799.13342
394.607	6317.47527
395.112	6945.25317
395.616	7403.32813
396.12	8016.88214
396.624	8730.3294
397.128	9686.27417
397.632	10660.52201
398.136	11607.51783
398.639	12273.89391
399.143	13426.61305
399.646	15240.64443
400.15	16704.79109
400.653	18142.58785
401.156	20909.7409
401.659	24067.58893
402.162	28748.82043
402.664	36626.12405
403.167	30785.37117
403.67	3851.94142
404.172	0
404.674	0
405.176	0
405.678	0
406.18	0
406.682	0
407.184	0
407.686	12367.42319
408.187	34596.90747
408.688	44563.94194
409.19	48906.19284
409.691	51236.67962
410.192	45822.00329
410.693	39415.96466
411.194	36032.23788
411.694	34513.09902
412.195	32574.06811
412.696	29320.72266
413.196	27430.78857
413.696	26200.80671
414.196	26551.1796
414.696	26685.68713
415.196	25895.56572
415.696	23851.45837
416.196	19497.4484
416.695	14789.85512
417.195	12441.37884
417.694	11894.67017
418.194	11314.10131
418.693	10407.62116
419.192	10181.09352
419.691	9995.3229
420.19	9535.78191
420.688	9290.93999
421.187	9074.60744
421.685	8481.15761
422.184	7706.83736
422.682	6630.79164
423.18	5675.28259
423.678	5134.44703
424.176	4654.68194
424.674	4403.89179
425.172	4247.31832
425.669	3947.84519
426.167	3701.8597
426.664	3228.13635
427.161	3086.41716
427.659	2876.89996
428.156	2580.39869
428.652	2536.3765
429.149	2445.17246
429.646	2367.88582
430.143	2140.20712
430.639	2032.17462
431.135	1905.3878
431.632	1834.13874
432.128	1648.11063
432.624	1575.36304
433.12	1543.97234
433.616	1543.89874
434.111	1487.15674
434.607	1369.06202
435.103	1405.78718
435.598	1322.64968
436.093	1222.87991
436.588	1092.65322
437.083	1125.75876
437.578	1014.59496
438.073	999.83533
438.568	997.77492
439.062	917.43304
439.557	919.59697
440.051	839.46221
440.546	817.44702
441.04	849.57095
441.534	802.5744
442.028	789.46336
442.522	729.38884
443.015	757.31619
443.509	743.4615
444.002	748.45996
444.496	671.17495
444.989	715.4004
445.482	650.32003
445.975	662.22953
446.468	693.22566
446.961	640.0991
447.454	688.28426
447.947	627.21678
448.439	593.19562
448.931	537.00363
449.424	577.21021
449.916	576.16368
450.408	527.99774
450.9	514.04106
451.392	506.08185
451.884	525.01801
452.375	493.03967
452.867	465.88594
453.358	471.91874
453.849	439.81324
454.341	448.85914
454.832	466.86564
455.323	483.01676
455.814	449.88872
456.304	456.90786
456.795	462.92408
457.285	454.86939
457.776	425.83058
458.266	435.90937
458.756	446.94413
459.247	437.91679
459.737	440.93632
460.226	408.81494
460.716	370.78772
461.206	390.83462
461.695	417.92764
462.185	395.8349
462.674	386.79211
463.163	379.75895
463.653	362.69085
464.142	390.84184
464.63	360.78608
465.119	311.65708
465.608	339.71686
466.096	314.63534
466.585	350.73704
467.073	337.73259
467.561	345.75381
468.05	310.66258
468.538	349.77865
469.026	270.59407
469.513	274.53763
470.001	370.79217
470.489	385.84866
470.976	290.61392
471.463	286.65958
471.951	267.61441
472.438	280.61581
472.925	275.61307
473.412	264.60253
473.899	256.55309
474.385	305.69848
474.872	207.45938
475.359	298.68697
475.845	279.55456
476.331	268.55469
476.817	189.43737
477.303	226.50081
477.789	208.47856
478.275	194.46076
478.761	223.51666
479.247	218.46454
479.732	222.5299
480.218	159.39451
480.703	196.46516
481.188	171.35321
481.673	198.43749
482.158	181.38494
482.643	157.3857
483.128	183.41085
483.612	166.37705
484.097	203.47833
484.581	107.24161
485.066	176.41657
485.55	159.34242
486.034	147.31522
486.518	115.26253
487.002	186.44907
487.486	126.30307
487.969	134.3201
488.453	100.24572
488.936	119.26596
489.42	157.3432
489.903	103.2522
490.386	129.21598
490.869	101.21789
491.352	69.16461
491.835	108.22263
492.318	126.28445
492.8	98.20783
493.283	85.21237
493.765	128.31033
494.247	113.26026
494.73	113.24618
495.212	66.15598
495.694	99.23056
496.175	76.18023
496.657	34.08048
497.139	106.18796
497.62	69.16474
498.102	89.22139
498.583	84.20915
499.064	11.02464
499.545	96.21832
500.026	55.12465
500.507	66.15386
500.988	60.1483
501.469	63.1574
501.949	2.00492
502.43	45.10805
502.91	74.15591
503.39	37.09204
503.87	59.1393
504.35	29.06826
504.83	49.10893
505.31	19.04619
505.79	27.06537
506.269	2.00471
506.749	18.04161
507.228	27.06394
507.707	-16.036
508.187	16.03821
508.666	-22.05412
509.145	37.08702
509.623	54.12826
510.102	2.00488
510.581	8.01915
511.059	24.06067
511.538	-5.01285
512.016	64.15441
512.494	47.11538
512.972	-28.06702
513.45	12.02836
513.928	33.08077
514.406	37.09097
514.884	14.03606
515.361	-17.04073
515.839	-1.00232
516.316	20.04864
516.793	22.05577
517.27	19.04604
517.747	15.03885
518.224	10.02324
518.701	-6.01364
519.178	-14.03498
519.654	12.0286
520.131	4.00993
520.607	-7.01736
521.083	8.01858
521.56	-30.07161
522.036	-16.03586
522.512	41.09976
522.987	26.0623
523.463	22.05278
523.939	-20.049
524.414	38.08838
524.89	-2.00484
525.365	-34.07795
525.84	-1.00241
526.315	-18.04403
526.79	-22.05015
527.265	23.05342
527.74	-33.08101
528.215	51.12302
528.689	-45.10211
529.164	-1.00223
529.638	27.06928
530.112	-30.07216
530.587	15.03314
531.061	20.04885
531.534	4.00983
532.008	-10.02452
532.482	-33.07643
532.956	-39.10014
533.429	-24.05841
533.903	-39.08756
534.376	-2.00455
534.849	-77.18144
535.322	-2.00478
535.795	-27.06628
536.268	1.00244
536.741	5.01199
537.213	-17.03973
537.686	-22.0541
538.158	-38.08799
538.631	-47.11427
539.103	-39.09054
539.575	-47.10035
540.047	10.02248
540.519	-2.00477
540.991	-47.1153
541.463	8.0194
541.934	-15.03453
542.406	-37.08874
542.877	-28.06355
543.348	-65.15519
543.82	-21.05155
544.291	1.00232
544.762	-2.00479
545.233	-10.02503
545.703	13.02911
546.174	40.09317
546.645	16.03862
547.115	51.12311
547.585	-17.03908
548.056	-3.00724
548.526	13.03075
548.996	43.10231
549.466	63.15099
549.935	72.17002
550.405	52.11432
550.875	73.17101
551.344	100.23477
551.814	116.26284
552.283	77.16505
552.752	67.15314
553.221	107.23064
553.69	126.27188
554.159	182.43343
554.628	199.43482
555.096	138.33884
555.565	239.52112
556.033	207.46778
556.502	216.5051
556.97	146.31314
557.438	202.45844
557.906	259.5848
558.374	277.60601
558.842	242.555
559.31	289.61783
559.777	287.66043
560.245	287.62921
560.712	375.8034
561.18	401.82679
561.647	379.78354
562.114	440.94161
562.581	424.9477
563.048	522.08575
563.514	516.14652
563.981	581.18534
564.448	545.0886
564.914	598.21483
565.381	678.32626
565.847	694.39478
566.313	813.61215
566.779	872.65173
567.245	784.53322
567.711	875.7538
568.176	882.62037
568.642	978.99064
569.108	985.96182
569.573	1059.95262
570.038	1119.80302
570.504	1181.02895
570.969	1199.26499
571.434	1248.01376
571.899	1330.34133
572.363	1363.22711
572.828	1392.23522
573.293	1531.45821
573.757	1498.38524
574.222	1591.42282
574.686	1558.40058
575.15	1663.68261
575.614	1707.58641
576.078	1695.6088
576.542	1743.54114
577.006	1733.50488
577.469	1663.68111
577.933	1727.52052
578.396	1704.66163
578.86	1717.65073
579.323	1706.72588
579.786	1726.35104
580.249	1630.4778
580.712	1624.6666
581.175	1591.71036
581.637	1578.42325
582.1	1601.25904
582.563	1494.16768
583.025	1485.53808
583.487	1461.03442
583.95	1431.16271
584.412	1374.9938
584.874	1403.46216
585.336	1380.36326
585.797	1286.00585
586.259	1248.17929
586.721	1218.15668
587.182	1246.13038
587.643	1075.85221
588.105	1068.92173
588.566	988.58524
589.027	1076.00686
589.488	944.69116
589.949	948.83086
590.41	904.40814
590.87	810.4707
591.331	839.46144
591.791	869.62483
592.252	762.4332
592.712	712.41128
593.172	717.34742
593.632	733.29455
594.092	703.30033
594.552	629.12669
595.011	643.25917
595.471	643.21761
595.931	561.07241
596.39	616.27763
596.849	551.11181
597.308	520.95492
597.768	530.19375
598.227	516.07611
598.685	511.01348
599.144	510.05274
599.603	526.08583
600.062	480.90408
600.52	483.95334
600.978	476.00002
601.437	470.94662
601.895	425.79162
602.353	381.7513
602.811	467.92522
603.269	443.93348
603.727	481.01521
604.184	475.95251
604.642	412.89427
605.099	474.98497
605.557	474.0155
606.014	434.8331
606.471	421.94507
606.928	413.7945
607.385	386.85318
607.842	477.97552
608.299	491.00687
608.755	456.96699
609.212	529.03556
609.668	491.95958
610.125	447.9477
610.581	491.9996
611.037	415.83565
611.493	476.98472
611.949	447.951
612.405	488.88577
612.861	493.00369
613.316	454.97492
613.772	421.85203
614.227	358.75289
614.683	410.78398
615.138	479.99602
615.593	483.00293
616.048	455.92969
616.503	418.89918
616.958	428.94993
617.412	438.92598
617.867	430.86606
618.321	508.93945
618.776	414.81925
619.23	385.81377
619.684	421.86217
620.138	361.74365
620.592	404.87541
621.046	355.74741
621.5	404.88848
621.954	401.81006
622.407	380.765
622.861	320.71883
623.314	376.77368
623.768	321.68802
624.221	321.58393
624.674	337.7092
625.127	287.61727
625.58	267.55497
626.033	320.63887
626.485	278.62501
626.938	278.60884
627.39	337.72386
627.843	222.47943
628.295	217.46894
628.747	265.58955
629.199	267.56635
629.651	248.53627
630.103	202.4411
630.555	247.50264
631.006	226.49956
631.458	203.45949
631.909	189.40948
632.361	190.42543
632.812	227.5002
633.263	178.36709
633.714	223.46166
634.165	162.37228
634.616	170.38582
635.067	127.26904
635.518	146.33444
635.968	145.28243
636.419	155.32462
636.869	98.22314
637.319	192.43769
637.769	143.30929
638.219	138.31878
638.669	95.22055
639.119	75.17604
639.569	134.31385
640.019	75.16852
640.468	93.20425
640.918	99.2291
641.367	95.21083
641.816	71.15409
642.265	94.21065
642.714	74.16754
643.163	54.12206
643.612	65.15489
644.061	60.12585
644.51	100.22428
644.958	83.18205
645.406	83.19505
645.855	168.40209
646.303	66.15246
646.751	63.14261
647.199	78.17357
647.647	51.11605
648.095	66.14991
648.543	114.23405
648.99	84.19882
649.438	66.15052
649.885	26.06308
650.333	135.26069
650.78	82.19596
651.227	99.23781
651.674	115.2602
652.121	89.21428
652.568	60.14541
653.015	85.21183
653.461	63.14834
653.908	80.18333
654.354	130.30472
654.801	122.28731
655.247	20.04371
655.693	67.17108
656.139	113.27102
656.585	64.15377
657.031	103.24224
657.477	63.13848
657.922	100.23091
658.368	127.31073
658.813	132.30237
659.259	74.17718
659.704	96.22326
660.149	79.18492
660.594	72.17114
661.039	45.10294
661.484	111.26156
661.929	89.20629
662.373	72.18232
662.818	56.13887
663.262	71.17126
663.707	59.14874
664.151	63.15243
664.595	101.24574
665.039	78.19258
665.483	107.27302
665.927	40.09387
666.371	98.23133
666.814	104.24797
667.258	38.09144
667.701	116.25009
668.145	113.27884
668.588	79.19423
669.031	77.18377
669.474	91.21917
669.917	118.25964
670.36	81.20098
670.803	112.2697
671.245	70.15254
671.688	57.13858
672.13	111.25463
672.573	96.24163
673.015	114.27275
673.457	115.25447
673.899	94.22738
674.341	79.19092
674.783	79.1915
675.225	103.25491
675.666	104.25309
676.108	26.05714
676.549	105.24742
676.991	85.19123
677.432	121.25386
677.873	102.23769
678.314	53.12804
678.755	118.2893
679.196	105.24636
679.637	92.22589
680.078	111.26146
680.518	123.28566
680.959	42.10079
681.399	70.17454
681.839	74.18183
682.28	95.23701
682.72	86.2019
683.16	100.2507
683.6	51.11774
684.039	54.11497
684.479	80.19803
684.919	127.29984
685.358	96.24223
685.798	121.31966
686.237	135.32514
686.676	76.17528
687.115	117.27623
687.554	155.36892
687.993	93.20888
688.432	75.17432
688.871	112.25811
689.309	98.23733
689.748	123.26182
690.186	161.38305
690.625	120.28502
691.063	131.31754
691.501	108.26929
691.939	113.28558
692.377	126.31075
692.815	113.27329
693.253	97.23354
693.69	110.2458
694.128	121.29748
694.565	80.19315
695.003	111.28133
695.44	113.27041
695.877	117.27752
696.314	96.21026
696.751	115.2619
697.188	105.24212
697.625	151.34207
698.061	151.36533
698.498	128.31033
698.934	129.31128
699.371	116.27605
699.807	133.31644
700.243	112.2696
700.679	94.21559
701.115	63.14816
701.551	97.22928
701.987	154.3478
702.422	121.29043
702.858	146.34984
703.294	91.20573
703.729	129.31469
704.164	135.32329
704.599	135.30172
705.035	129.29176
705.47	57.13978
705.904	123.29141
706.339	140.32469
706.774	133.31486
707.209	143.33447
707.643	111.26785
708.078	134.32463
708.512	98.24719
708.946	116.27721
709.38	114.27275
709.814	137.31855
710.248	162.39511
710.682	147.3519
711.116	157.38142
711.549	166.42824
711.983	142.33089
712.416	151.3565
712.85	140.34958
713.283	132.31158
713.716	114.28322
714.149	137.32408
714.582	158.358
715.015	161.39743
715.448	130.32743
715.881	74.16125
716.313	79.18463
716.746	117.27816
717.178	139.33566
717.61	96.24301
718.043	127.31523
718.475	134.32304
718.907	94.2354
719.339	97.22546
719.77	43.10423
720.202	90.22928
720.634	121.29737
721.065	131.31396
721.497	129.31797
721.928	86.21444
722.359	96.23702
722.79	130.31494
723.221	46.11657
723.652	70.18009
724.083	76.17633
724.514	93.21479
724.945	78.18612
725.375	109.25954
725.806	4.01002
726.236	59.15092
726.666	135.32268
727.096	95.23692
727.526	95.24343
727.956	102.23778
728.386	94.23438
728.816	113.29258
729.246	53.13117
729.675	22.05514
730.105	124.3066
730.534	66.15736
730.964	69.17519
731.393	95.23434
731.822	37.09464
732.251	40.10345
732.68	38.09029
733.109	74.18679
733.537	92.22514
733.966	59.14821
734.395	58.1367
734.823	68.15602
735.251	45.11043
735.68	78.19597
736.108	58.14906
736.536	117.28083
736.964	20.04772
737.392	55.1394
737.82	10.02415
738.247	65.15892
738.675	23.05525
739.102	75.19178
739.53	43.11076
739.957	62.16023
740.384	8.01996
740.811	21.05396
741.238	56.13791
741.665	35.08305
742.092	45.10908
742.519	37.09418
742.945	33.08074
743.372	56.14085
743.798	52.13536
744.225	67.16296
744.651	73.18476
745.077	17.04319
745.503	43.10743
745.929	62.15133
746.355	-17.04203
746.781	27.06812
747.207	-5.01211
747.632	14.03517
748.058	-5.01265
748.483	73.17228
748.908	20.05066
749.334	33.0831
749.759	11.0269
750.184	10.02443
750.609	19.04716
751.033	-14.03333
751.458	37.08426
751.883	-1.0025
752.307	21.05119
752.732	58.14917
753.156	39.09853
753.58	30.07232
754.005	19.04875
754.429	39.0939
754.853	15.03827
755.277	-11.02654
755.7	42.10537
756.124	21.05319
756.548	-2.00492
756.971	23.05738
757.394	37.09633
757.818	12.03146
758.241	29.07483
758.664	32.08307
759.087	15.0348
759.51	20.05041
759.933	-29.07146
760.356	-25.065
760.778	80.20229
761.201	57.14076
761.623	37.09127
762.046	18.04307
762.468	47.11393
762.89	-21.05235
763.312	-12.02977
763.734	24.05904
764.156	36.09064
764.578	21.04914
765	43.10736
765.421	44.11579
765.843	12.03189
766.264	24.05823
766.686	4.01016
767.107	38.09437
767.528	-17.04438
767.949	-10.02574
768.37	12.03027
768.791	57.13962
769.212	43.11107
769.632	-5.01207
770.053	47.12504
770.473	-10.02493
770.894	-7.01765
771.314	16.03846
771.734	-19.04597
772.154	8.0209
772.575	3.00709
772.994	-15.03528
773.414	16.03902
773.834	1.00251
774.254	53.13266
774.673	27.06655
775.093	-27.06812
775.512	39.09864
775.931	15.03883
776.351	24.0606
776.77	23.05803
777.189	34.08252
777.607	-35.09078
778.026	-36.09152
778.445	-94.24268
778.864	-18.0466
779.282	32.07892
779.701	8.02052
780.119	-26.0675
780.537	-10.02567
780.955	46.11777
781.373	-21.05292
781.791	-54.12588
782.209	2.00464
782.627	-35.09364
783.045	24.05645
783.462	-23.05966
783.88	5.01322
784.297	34.08729
784.715	-5.01313
785.132	-8.01976
785.549	7.01796
785.966	2.0051
786.383	18.04501
786.8	-1.00235
787.217	9.02174
787.633	34.08702
788.05	-30.07167
788.466	10.024
788.883	-33.08595
789.299	-20.0492
789.715	57.14117
790.131	33.08346
790.547	12.03007
790.963	19.04797
791.379	-48.12396
791.795	-19.04404
792.21	8.0192
792.626	-5.01204
793.041	-30.076
793.457	14.035
793.872	-17.04071
794.287	25.06201
794.702	-7.01742
795.117	11.02812
795.532	-24.06157
795.947	17.04136
796.362	-23.05529
796.776	27.06295
797.191	46.11487
797.605	-10.02436
798.02	36.08937
798.434	31.06991
798.848	53.13237
799.262	44.11118
799.676	-2.00492
800.09	-43.10708
800.504	9.02227
800.918	14.03325
801.331	-24.06329
801.745	-5.01161
802.158	47.11883
802.572	-4.00972
802.985	27.06604
803.398	32.07747
803.811	-7.01801
804.224	16.04007
804.637	-15.03658
805.05	23.05441
805.462	42.10511
805.875	0
806.288	-38.09355
806.7	-24.06153
807.112	16.03778
807.525	4.00997
807.937	11.0277
808.349	-28.0708
808.761	1.00247
809.173	-2.00494
809.584	5.01232
809.996	-6.0151
810.408	-33.08744
810.819	19.04606
811.231	12.03204
811.642	68.16832
812.053	54.13195
812.464	49.11864
812.875	50.12931
813.286	0
813.697	-16.03709
814.108	-5.01231
814.519	-31.07029
814.929	-42.10775
815.34	-26.06415
815.75	-20.05172
816.16	11.02763
816.571	27.07097
816.981	2.00473
817.391	65.15815
817.801	-44.1119
818.211	-15.03617
818.62	9.02219
819.03	12.02986
819.44	0
819.849	23.05873
820.259	-7.01796
820.668	-2.00501
821.077	36.0911
821.486	57.13879
821.895	-17.04226
822.304	0
822.713	4.0096
823.122	5.01256
823.531	-2.00478
823.939	6.01485
824.348	6.01477
824.756	21.053
825.164	21.05281
825.573	12.03056
825.981	-18.0447
826.389	31.07857
826.797	-9.02314
827.205	27.0636
827.612	13.03223
828.02	35.08395
828.428	-30.0774
828.835	-20.0532
829.243	-12.02896
829.65	-6.01514
830.057	-64.15796
830.464	-13.03208
830.871	-35.08462
831.278	3.00734
831.685	44.0995
832.092	32.07921
832.499	6.01342
832.905	8.02039
833.312	17.03926
833.718	-32.0806
834.124	-27.06256
834.531	25.06336
834.937	-15.03888
835.343	17.04152
835.749	-2.00472
836.155	33.08712
836.561	-23.05713
836.966	29.07106
837.372	39.10014
837.777	-17.043
838.183	14.03175
838.588	39.09779
838.993	30.07262
839.399	33.08254
839.804	-35.08773
840.209	17.04387
840.613	-39.08936
841.018	-15.03853
841.423	18.04645
841.828	-14.0358
842.232	-14.03485
842.637	-8.01919
843.041	-38.09946
843.445	-11.02805
843.849	-44.11146
844.253	29.06918
844.657	6.01538
845.061	29.06623
845.465	43.1058
845.869	1.00236
846.272	4.00996
846.676	-73.17715
847.079	-7.01817
847.483	-9.02253
847.886	47.11419
848.289	6.01619
848.692	-28.07156
849.095	-23.05628
849.498	20.05029
849.901	14.03252
850.304	-29.07001
850.707	9.02304
851.109	-33.08376
851.512	35.08748
851.914	49.12679
852.316	21.05358
852.718	77.20349
853.121	39.09705
853.523	72.17299
853.925	-5.01328
854.326	-13.03323
854.728	6.01561
855.13	-24.06286
855.531	26.06365
855.933	28.06783
856.334	-21.05319
856.736	35.08116
857.137	3.00714
857.538	35.08953
857.939	42.10579
858.34	1.00247
858.741	-6.01585
859.142	-15.03644
859.542	14.03722
859.943	35.08852
860.343	39.09853
860.744	-1.00246
861.144	24.059
861.544	-24.05991
861.945	3.00776
862.345	15.03695
862.745	-28.0704
863.145	-4.00958
863.544	20.05099
863.944	10.0242
864.344	-11.02744
864.743	21.05203
865.143	58.15015
865.542	39.09197
865.941	-19.04754
866.34	-29.07009
866.74	23.06186
867.139	-47.11521
867.537	0
867.936	-29.07114
868.335	1.00256
868.734	-6.01555
869.132	-12.02837
869.531	-54.13087
869.929	8.01883
870.327	25.06117
870.726	-15.03753
871.124	-14.03293
871.522	-30.07718
871.92	25.0623
872.318	-3.00737
872.715	-33.08182
873.113	-18.04467
873.511	-58.14488
873.908	-46.11851
874.306	17.043
874.703	14.0352
875.1	-34.08735
875.497	36.08692
875.894	-5.01258
876.291	-62.15353
876.688	17.04419
877.085	34.08175
877.482	15.03792
877.878	7.0172
878.275	0
878.671	-16.03549
879.068	-13.03178
879.464	-12.02964
879.86	-1.00242
880.256	10.02478
880.652	36.09281
881.048	-17.04258
881.444	7.0167
881.84	-16.04139
882.236	-11.02791
882.631	2.00495
883.027	-24.05834
883.422	47.12136
883.817	12.03092
884.213	7.01819
884.608	15.03777
885.003	6.01485
885.398	-16.04082
885.793	-37.09484
886.188	27.06841
886.582	35.08984
886.977	3.00724
887.371	-48.12168
887.766	-39.09927
888.16	13.0328
888.554	-43.10638
888.949	-3.00756
889.343	55.13437
889.737	8.02163
890.131	-5.01273
890.525	-25.06536
890.918	15.03821
891.312	23.0551
891.706	1.00264
892.099	-8.02049
892.492	20.0434
892.886	5.01255
893.279	35.0905
893.672	-10.02588
894.065	4.01009
894.458	-15.03794
894.851	-35.08599
895.244	28.07236
895.637	11.02671
896.029	18.0448
896.422	8.01974
896.814	33.0834
897.206	-13.03163
897.599	9.02223
897.991	-23.05688
898.383	-16.03821
898.775	-30.06927
899.167	15.03587
899.559	-10.02536
899.951	16.03831
900.342	19.04872
900.734	-21.05362
901.125	52.13754
901.517	-34.0845
901.908	-5.01203
902.299	4.01006
902.69	-15.03607
903.082	7.01686
903.473	-28.06908
903.863	-31.07969
904.254	-19.04472
904.645	-15.03722
905.036	-33.08203
905.426	73.16699
905.817	24.05963
906.207	21.05111
906.597	-36.08633
906.987	4.01029
907.378	-4.01019
907.768	21.05589
908.158	-8.01977
908.547	-2.00529
908.937	-29.07457
909.327	-2.0049
909.717	-4.01015
910.106	-10.02468
910.495	37.09204
910.885	29.074
911.274	22.05551
911.663	-18.04592
912.052	36.08839
912.441	23.05929
912.83	25.05857
913.219	-8.02097
913.608	-30.07358
913.997	11.02809
914.385	20.04845
914.774	4.00984
915.162	0
915.55	-10.02428
915.939	16.04079
916.327	-53.13271
916.715	34.08839
917.103	-15.03726
917.491	50.12377
917.878	36.0895
918.266	-17.04431
918.654	-6.01546
919.041	-27.07138
919.429	-29.06926
919.816	14.03574
920.203	1.00245
920.591	-37.09271
920.978	3.0074
921.365	-2.0053
921.752	-18.04346
922.139	-32.0708
922.525	42.10374
922.912	-3.00737
923.299	5.01274
923.685	-49.12936
924.072	-9.02101
924.458	-3.00753
924.844	24.06054
925.231	27.06375
925.617	64.16528
926.003	-26.06719
926.389	-57.14606
926.774	12.03066
927.16	9.02257
927.546	4.01033
927.931	19.04804
928.317	-14.0328
928.702	39.09194
929.088	59.14243
929.473	-7.01804
929.858	10.02491
930.243	16.03886
930.628	27.06695
931.013	2.00502
931.398	-16.03676
931.783	-12.03146
932.167	-29.07154
932.552	-40.10061
932.937	-1.0025
933.321	15.03826
933.705	-18.04591
934.09	-19.04754
934.474	68.1617
934.858	-44.11485
935.242	-36.08504
935.626	-17.04422
936.009	8.02149
936.393	-12.03066
936.777	-30.07721
937.16	-20.05286
937.544	-13.0307
937.927	-23.05908
938.311	36.08784
938.694	-14.03698
939.077	-11.02693
939.46	-32.07892
939.843	-1.00211
940.226	-8.02085
940.609	31.07282
940.991	6.0155
941.374	-24.05954
941.757	4.01002
942.139	-34.07785
942.522	3.0071
942.904	-19.04609
943.286	3.00765
943.668	39.10178
944.05	22.05498
944.432	36.09029
944.814	43.10736
945.196	-11.02769
945.578	2.00491
945.959	-30.07178
946.341	7.01706
946.722	-52.12375
947.104	0
947.485	18.04288
947.866	25.06386
948.247	-19.04875
948.628	35.0857
949.009	-9.02341
949.39	3.00748
949.771	5.01178
950.152	48.11856
950.532	-26.06577
950.913	35.08592
951.293	-26.0716
951.674	-17.04169
952.054	-6.01504
952.434	17.04232
952.814	-76.1819
953.194	-18.04689
953.574	-30.07429
953.954	30.07205
954.334	-13.03277
954.714	-28.06977
955.093	-43.10591
955.473	-16.04057
955.853	-43.11215
956.232	-18.04929
956.611	3.00719
956.99	-50.1263
957.37	-19.04886
957.749	-4.00965
958.128	-43.10968
958.506	34.08875
958.885	-45.11555
959.264	19.04751
959.643	38.08789
960.021	-43.10802
960.4	-25.05769
960.778	-19.0468
961.156	15.0381
961.535	-17.0402
961.913	8.01896
962.291	20.0521
962.669	-44.11158
963.047	19.04886
963.424	-16.04128
963.802	23.05678
964.18	18.04548
964.557	37.08614
964.935	4.0095
965.312	32.08424
965.69	44.11027
966.067	-4.00985
966.444	21.05186
966.821	-10.02577
967.198	-32.07782
967.575	-23.0568
967.952	-32.07551
968.329	-16.03943
968.705	42.09191
969.082	16.04175
969.458	-27.06616
969.835	-21.05121
970.211	3.00779
970.587	-5.01254
970.963	-9.02326
971.339	1.00263
971.715	33.08272
972.091	16.03978
972.467	20.04998
972.843	-18.04578
973.219	-15.03611
973.594	6.01587
973.97	12.02878
974.345	-2.00487
974.721	-7.01711
975.096	46.1122
975.471	-46.10888
975.846	11.0268
976.221	0
976.596	0
976.971	-2.00493
977.346	7.01641
977.72	-61.15653
978.095	-41.10667
978.469	-3.00721
978.844	-17.04278
979.218	-9.02218
979.593	-24.0576
979.967	28.06898
980.341	34.07935
980.715	-55.14039
981.089	21.05313
981.463	-22.05167
981.837	25.06185
982.21	-37.08535
982.584	-14.03449
982.957	-26.06607
983.331	15.03568
983.704	-45.11345
984.078	-6.01491
984.451	-31.07672
984.824	21.05232
985.197	-12.02951
985.57	-13.03291
985.943	19.04658
986.316	15.03693
986.688	8.01942
987.061	-11.02629
987.434	-14.03664
987.806	-26.06342
988.179	23.05552
988.551	2.00512
988.923	-62.15415
989.295	-11.02783
989.667	6.01481
990.039	-26.06554
990.411	-6.01403
990.783	-14.0322
991.155	10.0247
991.527	2.00486
991.898	-1.00251
992.27	33.08272
992.641	27.06778
993.012	2.00476
993.384	19.04585
993.755	14.03597
994.126	-30.07323
994.497	-3.00753
994.868	-28.0653
995.239	11.02691
995.61	5.0128
995.98	-15.03726
996.351	6.01516
996.722	7.01658
997.092	-51.12349
997.462	19.04568
997.833	-20.04759
998.203	-23.05632
998.573	-17.04283
998.943	0
999.313	-42.1016
999.683	9.02178
1000.053	-8.01861
1000.423	-2.00488
1000.792	28.07349
1001.162	8.01989
1001.531	-4.00998
1001.901	-11.02764
1002.27	51.11525
1002.639	-18.04653
1003.009	20.04809
1003.378	-36.09294
1003.747	-25.06019
1004.116	-47.11534
1004.485	-37.08918
1004.853	7.01779
1005.222	13.03309
1005.591	9.02158
1005.959	39.09104
1006.328	-22.0509
1006.696	-26.06346
1007.064	46.11653
1007.433	-1.0025
1007.801	0
1008.169	42.10696
1008.537	-42.09412
1008.905	-22.05248
1009.273	17.04227
1009.64	24.05827
1010.008	-9.02179
1010.375	-6.01428
1010.743	66.15198
1011.11	26.06235
1011.478	-39.09737
1011.845	21.04958
1012.212	32.0738
1012.579	-20.04969
1012.946	30.07189
1013.313	-15.0357
1013.68	-26.05918
1014.047	29.07085
1014.414	21.05023
1014.78	12.02994
1015.147	-33.08041
1015.513	-14.03425
1015.88	5.0128
1016.246	36.08879
1016.612	-16.03725
1016.978	29.07175
1017.344	-21.05252
1017.71	-51.12414
1018.076	-30.0715
1018.442	25.06426
1018.808	-29.07376
1019.174	26.06591
1019.539	45.10223
1019.905	0
1020.27	6.015
1020.636	-7.01687
1021.001	43.10404
1021.366	-33.08011
1021.731	26.06703
1022.096	-51.13032
1022.461	-48.11436
1022.826	38.0913
1023.191	15.03945
1023.556	-14.03333
1023.92	-10.02464
1024.285	-15.03685
1024.649	8.01964
1025.014	-19.04728
1025.378	12.03056
1025.742	-32.08077
1026.107	19.04327
1026.471	3.007
1026.835	-18.04478
1027.199	-19.04676
1027.562	17.04018
1027.926	7.01711
1028.29	44.11292
1028.654	28.06522
1029.017	-57.14184
1029.381	4.00985
1029.744	29.07467
1030.107	-15.03548
1030.471	-31.07529
1030.834	16.03664
1031.197	-21.05062
1031.56	14.03312
1031.923	8.02078
1032.286	-21.04923
1032.648	29.06995
1033.011	66.15404
1033.374	-16.0377
1033.736	17.04532
1034.099	28.06921
1034.461	26.06703
1034.823	-2.00504
1035.185	4.01018
1035.548	39.09546
1035.91	4.00976
1036.272	32.07363
1036.634	-10.02446
1036.995	-13.0307
1037.357	-47.11653
1037.719	-2.00488
1038.08	-7.01658
1038.442	-6.01441
1038.803	19.04625
1039.165	9.02276
1039.526	44.10603
1039.887	-5.01214
1040.248	49.12287
1040.609	-25.06212
1040.97	22.05484
1041.331	-16.04069
1041.692	-10.02388
1042.053	7.01604
1042.413	17.0397
1042.774	7.0171
1043.134	1.00237
1043.495	1.00253
1043.855	-18.04408
1044.215	-18.04478
1044.576	4.00977
1044.936	-45.10352
1045.296	-8.02007
1045.656	11.02717
1046.016	28.06786
1046.375	16.03956
1046.735	17.03951
1047.095	22.05211
1047.454	-2.00425
1047.814	-18.04328
1048.173	-15.03577
1048.533	7.01627
1048.892	12.02949
1049.251	-9.02268
1049.61	-5.01249
1049.969	-34.08085
1050.328	18.03944
1050.687	-13.03214
1051.046	6.01468
1051.405	28.06992
1051.763	-40.09427
1052.122	33.08367
1052.48	0
1052.839	-26.06232
1053.197	-5.0118
1053.555	-36.08147
1053.914	16.03943
1054.272	-6.01452
1054.63	-13.03254
1054.988	-23.0554
1055.345	5.011
1055.703	-32.07732
1056.061	-11.02857
1056.419	-16.04188
1056.776	-36.08784
1057.134	44.10277
1057.491	12.03015
1057.848	-12.03018
1058.206	7.01667
1058.563	34.0761
1058.92	20.04627
1059.277	-2.00493
1059.634	49.11609
1059.991	-29.06934
1060.348	58.13388
1060.704	-47.11474
1061.061	-19.04341
1061.418	13.03203
1061.774	-22.05519
1062.131	-1.00266
1062.487	-37.08786
1062.843	-15.03786
1063.199	-29.07272
1063.555	10.02339
1063.911	22.05609
1064.267	17.03565
1064.623	-2.00494
1064.979	-11.02581
1065.335	-18.04267
1065.691	-30.072
1066.046	-30.06668
1066.402	35.08077
1066.757	-41.10399
1067.112	-24.05862
1067.468	4.00961
1067.823	6.01457
1068.178	9.02182
1068.533	10.02424
1068.888	30.07224
1069.243	-10.02496
1069.598	14.03445
1069.952	-8.01861
1070.307	21.05277
1070.662	8.01937
1071.016	23.05274
1071.371	-27.06258
1071.725	-9.02166
1072.079	-35.08465
1072.434	25.06128
1072.788	57.13775
1073.142	10.02466
1073.496	38.09282
1073.85	-4.00934
1074.203	-44.10708
1074.557	-16.04304
1074.911	39.09247
1075.265	0
1075.618	12.02949
1075.971	11.02646
1076.325	21.05392
1076.678	56.13137
1077.031	13.03005
1077.385	15.03368
1077.738	54.12454
1078.091	-9.02122
1078.444	14.03291
1078.796	-13.03227
1079.149	-10.02499
1079.502	-13.03149
1079.855	-7.01669
1080.207	14.03444
1080.56	-9.02366
1080.912	13.03194
1081.264	3.0073
1081.617	26.0646
1081.969	30.07678
1082.321	43.10619
1082.673	11.02592
1083.025	-33.07906
1083.377	-264.60351
1083.728	12.02824
1084.08	49.12327
1084.432	-8.0197
1084.783	-18.04224
1085.135	7.01774
1085.486	12.02816
1085.838	-4.00996
1086.189	4.00983
1086.54	-35.0842
1086.891	2.00515
1087.242	12.02937
1087.593	-29.07046
1087.944	51.11746
1088.295	-9.02051
1088.646	-9.02207
1088.996	39.09532
1089.347	-7.01735
1089.698	40.09669
1090.048	-2.00521
1090.398	0
1090.749	4.0096
1091.099	-34.08729
1091.449	-40.10061
1091.799	26.06593
1092.149	-18.04553
1092.499	-15.03663
1092.849	-8.02053
1093.199	-4.00999
1093.548	-25.06081
1093.898	4.01018
1094.248	-4.01027
1094.597	-35.09178
1094.947	-9.02417
1095.296	7.01751
1095.645	20.05192
1095.994	18.04394
1096.343	-18.04574
1096.692	-20.05373
1097.041	9.02465
1097.39	-7.01768
1097.739	-31.08079
1098.088	28.07493
1098.437	-24.06405
1098.785	-1.00272
1099.134	-18.0481
1099.482	-10.02757
1099.83	-10.02617
1100.179	-40.10608
1100.527	32.0856
1100.875	-1.00267
1101.223	-38.10148
1101.571	-2.00559
1101.919	-4.01064
1102.267	-16.04534
1102.615	-3.00966
1102.962	-4.01288
1103.31	-3.00967
1103.658	-1.00322
