Data from N2 R1 sample 8_Subt2__3__13-30-48-459.txt Node

Date: Wed Aug 27 13:30:48 PDT 2025
User: uwsun
Spectrometer: HDX01956
Trigger mode: 0
Integration Time (sec): 5.000000E-1
Scans to average: 1
Nonlinearity correction enabled: true
Boxcar width: 0
Storing dark spectrum: false
XAxis mode: Wavelengths
Number of Pixels in Spectrum: 2068
>>>>>Begin Spectral Data<<<<<
194.03	56.1621
194.578	67.21695
195.127	73.23312
195.676	65.20832
196.225	68.18489
196.773	50.14159
197.321	86.24205
197.87	139.36436
198.418	183.48116
198.966	142.37959
199.513	164.42264
200.061	156.40844
200.609	113.30442
201.156	141.32267
201.704	156.40677
202.251	134.36187
202.798	206.54774
203.345	172.43492
203.892	131.33813
204.438	135.33362
204.985	146.35848
205.532	171.45688
206.078	187.4709
206.624	148.3773
207.17	181.43212
207.716	188.47317
208.262	102.21235
208.808	136.34781
209.354	192.48115
209.899	159.40855
210.445	150.38294
210.99	133.33181
211.535	187.45072
212.08	168.40515
212.625	143.36603
213.17	136.34903
213.715	136.31828
214.259	127.30483
214.804	166.41975
215.348	127.30158
215.892	163.3997
216.436	163.38572
216.98	136.31266
217.524	166.40154
218.068	140.35653
218.612	180.46194
219.155	146.35317
219.698	163.39466
220.242	141.35546
220.785	154.36844
221.328	134.34197
221.871	135.34288
222.414	166.42124
222.956	102.25424
223.499	115.26887
224.041	190.45543
224.583	113.25088
225.126	144.33052
225.668	159.39724
226.21	112.28834
226.751	169.38409
227.293	154.36027
227.835	105.26281
228.376	158.3757
228.918	153.39149
229.459	127.3261
230	111.26947
230.541	149.35519
231.082	155.38585
231.622	178.42521
232.163	122.30519
232.704	174.4406
233.244	117.29337
233.784	123.30586
234.324	109.25024
234.864	115.26993
235.404	113.27391
235.944	139.33566
236.484	121.30537
237.023	156.37892
237.563	132.31484
238.102	87.20906
238.641	145.37076
239.18	167.40114
239.719	182.46348
240.258	158.36353
240.797	148.36554
241.335	151.37521
241.874	163.32883
242.412	141.34563
242.95	175.43039
243.488	186.43768
244.026	143.33774
244.564	112.23908
245.102	200.46383
245.64	176.43149
246.177	114.26334
246.715	124.30277
247.252	129.30291
247.789	147.28155
248.326	157.38969
248.863	147.33369
249.4	121.2799
249.936	185.39739
250.473	169.40317
251.009	151.35857
251.546	214.48725
252.082	121.27177
252.618	166.38346
253.154	166.40622
253.69	175.40578
254.226	86.20874
254.761	179.41258
255.297	169.38503
255.832	142.34142
256.367	170.41184
256.903	180.40685
257.438	122.29122
257.972	178.41118
258.507	172.40915
259.042	115.25575
259.576	157.35118
260.111	118.28037
260.645	135.2996
261.179	110.26348
261.713	160.36681
262.247	180.42323
262.781	156.3356
263.315	119.29688
263.849	154.39218
264.382	138.32347
264.915	242.57829
265.449	136.34267
265.982	198.45665
266.515	167.4139
267.048	129.27997
267.58	151.33595
268.113	182.40567
268.646	195.48788
269.178	211.48711
269.71	159.35081
270.243	174.4045
270.775	183.47119
271.307	147.35819
271.838	168.40178
272.37	181.44909
272.902	150.35063
273.433	165.37135
273.965	168.41432
274.496	160.39996
275.027	209.52441
275.558	179.44104
276.089	173.43659
276.62	182.46462
277.15	195.48506
277.681	187.41569
278.211	148.36969
278.741	162.3699
279.272	176.41173
279.802	204.51453
280.332	205.49353
280.861	181.44219
281.391	197.45606
281.921	162.39187
282.45	224.56356
282.98	182.47683
283.509	196.45131
284.038	160.37298
284.567	175.41091
285.096	187.45565
285.625	131.30328
286.153	206.49002
286.682	217.50873
287.21	171.4176
287.739	192.46058
288.267	217.53052
288.795	214.56236
289.323	176.41963
289.851	178.42
290.378	213.49173
290.906	232.57235
291.433	217.54154
291.961	206.47945
292.488	169.421
293.015	194.46289
293.542	204.52187
294.069	281.69206
294.596	211.52217
295.122	192.46408
295.649	213.47348
296.175	215.52759
296.702	159.39061
297.228	245.5925
297.754	190.43453
298.28	226.52205
298.806	188.45252
299.332	238.53991
299.857	190.4361
300.383	202.50822
300.908	224.55505
301.433	190.46495
301.958	295.68696
302.483	239.6014
303.008	161.39626
303.533	243.63131
304.058	199.4689
304.582	254.60928
305.107	224.58425
305.631	223.51092
306.155	249.58671
306.679	240.56759
307.203	230.53846
307.727	214.51725
308.251	219.53501
308.775	250.59512
309.298	246.59593
309.822	232.58222
310.345	280.65627
310.868	244.58151
311.391	192.47019
311.914	260.65341
312.437	233.52825
312.96	276.64639
313.482	259.61264
314.005	290.72564
314.527	282.72642
315.049	280.69531
315.571	267.59745
316.093	279.68055
316.615	265.63143
317.137	272.59042
317.659	266.63053
318.18	269.6385
318.702	325.75353
319.223	316.647
319.744	327.72807
320.265	291.69629
320.786	287.70449
321.307	311.76226
321.828	302.6706
322.348	258.59785
322.869	347.80834
323.389	435.72247
323.909	321.72803
324.43	245.57863
324.95	343.77128
325.47	359.86026
325.989	340.78002
326.509	394.85448
327.029	359.795
327.548	260.58239
328.067	337.79863
328.587	306.73148
329.106	420.93528
329.625	344.8632
330.144	352.78324
330.662	344.78065
331.181	344.77559
331.7	372.83425
332.218	368.77358
332.736	305.68893
333.255	430.95873
333.773	372.83973
334.291	363.85558
334.808	353.75823
335.326	406.87487
335.844	389.87182
336.361	403.96897
336.879	427.95697
337.396	425.96735
337.913	470.03463
338.43	451.95409
338.947	454.0173
339.464	433.89356
339.981	450.00129
340.497	442.01753
341.014	479.08992
341.53	468.9894
342.046	506.13961
342.562	440.01252
343.078	442.97529
343.594	485.07597
344.11	516.11849
344.626	489.12884
345.141	456.95897
345.657	441.91252
346.172	546.20223
346.687	539.13287
347.202	590.20946
347.717	541.16703
348.232	638.42677
348.747	526.10769
349.261	543.08259
349.776	574.22377
350.29	591.31912
350.805	586.30929
351.319	595.23978
351.833	559.16001
352.347	579.2235
352.861	571.20815
353.374	611.23987
353.888	565.19856
354.401	601.24342
354.915	677.36963
355.428	631.38413
355.941	639.30976
356.454	632.23088
356.967	595.23978
357.48	636.27217
357.993	635.36601
358.505	616.33502
359.018	705.49987
359.53	597.25002
360.042	660.27453
360.554	648.34649
361.066	702.48539
361.578	699.30902
362.09	708.4491
362.602	687.29031
363.113	733.44519
363.625	709.35198
364.136	726.356
364.647	684.36202
365.158	789.54265
365.669	764.55188
366.18	767.51019
366.691	720.33946
367.201	708.42688
367.712	768.48063
368.222	743.41213
368.733	802.42739
369.243	813.47952
369.753	735.39962
370.263	851.67739
370.773	843.72691
371.282	804.56275
371.792	895.64965
372.301	923.78888
372.811	905.88321
373.32	945.5887
373.829	900.65433
374.338	988.67341
374.847	1012.75582
375.356	1016.79999
375.865	1164.74407
376.373	1065.73883
376.882	1124.04926
377.39	1220.04576
377.898	1240.13588
378.407	1262.93846
378.915	1304.78362
379.423	1404.07571
379.93	1338.89345
380.438	1435.15598
380.946	1575.10268
381.453	1654.24548
381.96	1769.18268
382.468	1839.15335
382.975	1923.2581
383.482	2049.07074
383.989	1964.45794
384.495	2163.07741
385.002	2258.63899
385.509	2352.94137
386.015	2564.24978
386.521	2580.53534
387.028	2728.456
387.534	2724.17428
388.04	2800.49178
388.546	2919.15935
389.051	3281.7705
389.557	3468.83892
390.063	3551.49122
390.568	3708.77037
391.073	3850.21647
391.578	3917.30499
392.084	4213.83398
392.589	4459.39657
393.093	4888.39613
393.598	5229.07039
394.103	5616.06628
394.607	6141.32133
395.112	6547.71662
395.616	7000.51969
396.12	7686.82878
396.624	8259.33485
397.128	8974.29122
397.632	9765.99938
398.136	10814.3503
398.639	11953.50609
399.143	13562.30242
399.646	15096.63619
400.15	16570.84582
400.653	18783.68246
401.156	21494.96091
401.659	24695.52876
402.162	31881.50814
402.664	44517.05313
403.167	32079.85687
403.67	3851.94142
404.172	0
404.674	0
405.176	0
405.678	0
406.18	0
406.682	0
407.184	0
407.686	12367.42319
408.187	34596.90747
408.688	44563.94194
409.19	46737.85991
409.691	39650.23366
410.192	34172.60956
410.693	31049.00286
411.194	29372.96156
411.694	27756.36426
412.195	25659.56334
412.696	24192.62631
413.196	23576.09364
413.696	23988.16376
414.196	23483.86252
414.696	22485.81074
415.196	20394.5661
415.696	16604.68252
416.196	12955.89531
416.695	11028.78407
417.195	10481.95863
417.694	9911.2193
418.194	9222.34377
418.693	8729.164
419.192	8621.00795
419.691	8497.07831
420.19	8158.17596
420.688	7821.64771
421.187	7296.48025
421.685	6774.41086
422.184	6026.2349
422.682	5175.95331
423.18	4738.3801
423.678	4151.82842
424.176	3849.08757
424.674	3663.29476
425.172	3402.79044
425.669	3106.28163
426.167	2931.23941
426.664	2651.36408
427.161	2397.61301
427.659	2371.97425
428.156	2040.47303
428.652	2121.32281
429.149	1960.10256
429.646	1897.84201
430.143	1748.07592
430.639	1650.02048
431.135	1637.23566
431.632	1590.01424
432.128	1351.90184
432.624	1365.17369
433.12	1314.8079
433.616	1323.75101
434.111	1321.01159
434.607	1204.90201
435.103	1191.62394
435.598	1042.42524
436.093	1012.65149
436.588	960.50966
437.083	937.54359
437.578	771.29681
438.073	872.65253
438.568	836.54955
439.062	787.27567
439.557	764.38138
440.051	743.32727
440.546	737.33212
441.04	742.4092
441.534	667.3506
442.028	624.20432
442.522	631.23038
443.015	655.16915
443.509	671.34198
444.002	616.2395
444.496	591.0563
444.989	608.22057
445.482	602.23576
445.975	552.05288
446.468	582.05867
446.961	518.91969
447.454	554.06796
447.947	544.07629
448.439	520.06573
448.931	445.85195
449.424	455.98149
449.916	541.1016
450.408	475.91071
450.9	369.77346
451.392	470.01255
451.884	442.87548
452.375	448.95583
452.867	415.80027
453.358	404.80058
453.849	463.85257
454.341	414.80045
454.832	372.70718
455.323	436.92902
455.814	396.79354
456.304	328.67248
456.795	411.83179
457.285	323.63812
457.776	351.698
458.266	361.76706
458.756	391.83767
459.247	360.7681
459.737	387.83304
460.226	320.65222
460.716	328.70469
461.206	300.65452
461.695	340.76845
462.185	325.69749
462.674	328.68191
463.163	271.55625
463.653	291.56492
464.142	245.54529
464.63	289.64054
465.119	309.65314
465.608	302.6438
466.096	281.57287
466.585	310.65856
467.073	286.62848
467.561	230.51477
468.05	286.61446
468.538	278.62936
469.026	247.54609
469.513	227.45036
470.001	315.68244
470.489	269.60738
470.976	217.46673
471.463	239.55635
471.951	207.48206
472.438	263.58049
472.925	237.53251
473.412	185.42896
473.899	220.47898
474.385	228.53023
474.872	201.44662
475.359	213.49935
475.845	186.37773
476.331	228.47613
476.817	177.41058
477.303	160.35944
477.789	158.36716
478.275	172.41025
478.761	205.47665
479.247	118.25691
479.732	168.40515
480.218	112.28028
480.703	168.40086
481.188	51.10818
481.673	97.21885
482.158	181.38494
482.643	143.35222
483.128	102.23281
483.612	91.20984
484.097	152.36171
484.581	95.21504
485.066	138.32903
485.55	122.26483
486.034	117.25252
486.518	40.0927
487.002	135.32908
487.486	108.26066
487.969	85.20496
488.453	96.23606
488.936	83.18688
489.42	95.21039
489.903	65.16028
490.386	107.18022
490.869	64.13917
491.352	48.11497
491.835	22.04623
492.318	95.21583
492.8	120.25327
493.283	50.12571
493.765	89.21736
494.247	70.1626
494.73	38.08411
495.212	47.11148
495.694	63.14776
496.175	27.06464
496.657	66.15525
497.139	55.09882
497.62	85.20232
498.102	98.24338
498.583	38.0954
499.064	-14.03152
499.545	55.12612
500.026	31.0706
500.507	36.08442
500.988	65.16052
501.469	52.13018
501.949	6.01474
502.43	32.07703
502.91	26.05536
503.39	-6.01504
503.87	67.15794
504.35	-9.02134
504.83	12.02688
505.31	-36.08843
505.79	26.06297
506.269	3.00706
506.749	32.07377
507.228	18.0427
507.707	23.05134
508.187	4.00957
508.666	-2.0049
509.145	-10.02373
509.623	43.10235
510.102	-20.049
510.581	24.05729
511.059	65.1631
511.538	12.03075
512.016	47.11376
512.494	97.23592
512.972	-33.07906
513.45	2.00474
513.928	8.01967
514.406	27.0665
514.884	-28.07264
515.361	-29.06964
515.839	18.04166
516.316	37.08969
516.793	6.01525
517.27	-42.10294
517.747	43.11084
518.224	-28.06556
518.701	-3.00682
519.178	-14.03498
519.654	-8.01914
520.131	-24.05991
520.607	-10.02482
521.083	-16.03733
521.56	-55.13192
522.036	-22.04936
522.512	-35.08637
522.987	37.08847
523.463	3.00722
523.939	-26.06377
524.414	-9.02113
524.89	31.07455
525.365	-81.18745
525.84	-65.15857
526.315	-4.00976
526.79	-14.03186
527.265	12.02793
527.74	-30.07361
528.215	67.16113
528.689	-22.04969
529.164	-36.08081
529.638	-19.04915
530.112	-34.08184
530.587	-10.02221
531.061	-4.00981
531.534	-1.00246
532.008	-25.06146
532.482	-20.0462
532.956	-49.12604
533.429	4.00968
533.903	-26.05822
534.376	31.07011
534.849	-71.16711
535.322	-11.02634
535.795	-60.1482
536.268	-23.05628
536.741	-48.11624
537.213	-30.07029
537.686	-71.17617
538.158	-18.04151
538.631	-62.15116
539.103	-1.0023
539.575	8.01688
540.047	-3.00676
540.519	-7.01673
540.991	-30.07336
541.463	-13.03165
541.934	-85.19842
542.406	-33.07909
542.877	-73.16719
543.348	-58.13829
543.82	14.03415
544.291	-38.08879
544.762	15.03584
545.233	-9.02253
545.703	-3.00674
546.174	26.06073
546.645	7.01692
547.115	34.08234
547.585	-19.04369
548.056	23.05523
548.526	53.1244
548.996	29.06918
549.466	45.10822
549.935	62.14669
550.405	45.09908
550.875	85.19866
551.344	81.19087
551.814	136.3069
552.283	99.21119
552.752	83.1891
553.221	89.19258
553.69	99.21486
554.159	169.40348
554.628	134.29683
555.096	163.39837
555.565	229.50037
556.033	175.39805
556.502	158.37368
556.97	131.28188
557.438	201.45626
557.906	233.52889
558.374	227.50188
558.842	252.57677
559.31	284.6078
559.777	269.62124
560.245	285.62509
560.712	302.65721
561.18	412.84737
561.647	320.67032
562.114	417.89683
562.581	411.92112
563.048	457.96593
563.514	519.15248
563.981	509.05514
564.448	510.02682
564.914	582.18658
565.381	560.12561
565.847	640.30206
566.313	686.40022
566.779	802.5448
567.245	652.31447
567.711	789.61254
568.176	755.4308
568.642	839.76124
569.108	889.80975
569.573	871.68073
570.038	958.61282
570.504	1005.80763
570.969	1016.00388
571.434	1009.73722
571.899	1116.07247
572.363	1103.93187
572.828	1138.95751
573.293	1232.14224
573.757	1199.06875
574.222	1241.08173
574.686	1275.12403
575.15	1307.31555
575.614	1394.30395
576.078	1279.20397
576.542	1334.18363
577.006	1307.13265
577.469	1271.27123
577.933	1349.19188
578.396	1352.32242
578.86	1285.22956
579.323	1430.45975
579.786	1280.99165
580.249	1299.16424
580.712	1266.28133
581.175	1234.30021
581.637	1235.08396
582.1	1183.88631
582.563	1207.90405
583.025	1097.06677
583.487	1111.71769
583.95	1059.77623
584.412	1110.7397
584.874	1032.98573
585.336	1026.92228
585.797	979.66214
586.259	935.76654
586.721	922.75764
587.182	885.65888
587.643	850.5513
588.105	756.46792
588.566	764.30283
589.027	700.42689
589.488	681.30164
589.949	739.49796
590.41	714.17295
590.87	637.20681
591.331	596.10397
591.791	592.18183
592.252	535.06167
592.712	590.20237
593.172	613.18107
593.632	467.88283
594.092	533.02715
594.552	485.90206
595.011	492.99913
595.471	498.97764
595.931	400.79562
596.39	454.97702
596.849	416.86677
597.308	365.69641
597.768	445.01936
598.227	383.82372
598.685	394.80414
599.144	384.81646
599.603	390.83102
600.062	394.75777
600.52	356.72362
600.978	383.82266
601.437	377.77556
601.895	287.5529
602.353	335.66773
602.811	399.80307
603.269	316.68446
603.727	378.81734
604.184	383.78435
604.642	352.77381
605.099	405.85454
605.557	369.80999
606.014	350.68546
606.471	380.86023
606.928	323.63483
607.385	386.85318
607.842	442.91111
608.299	411.85959
608.755	364.78741
609.212	401.81006
609.668	377.75669
610.125	405.86653
610.581	409.84821
611.037	371.75462
611.493	371.78556
611.949	360.78042
612.405	431.79363
612.861	401.83496
613.316	436.9399
613.772	405.82265
614.227	353.7432
614.683	396.75978
615.138	384.81539
615.593	413.87256
616.048	422.86871
616.503	386.83606
616.958	337.76213
617.412	368.78993
617.867	400.8112
618.321	440.82751
618.776	360.7214
619.23	348.74153
619.684	390.80429
620.138	348.71897
620.592	334.73456
621.046	265.56898
621.5	341.75986
621.954	304.62779
622.407	296.60742
622.861	308.69358
623.314	267.56289
623.768	262.56872
624.221	247.45776
624.674	280.59665
625.127	237.51522
625.58	225.47205
626.033	215.43971
626.485	261.58884
626.938	207.46015
627.39	282.61291
627.843	238.51222
628.295	228.49154
628.747	241.53883
629.199	197.42426
629.651	172.37798
630.103	227.49306
630.555	174.35998
631.006	155.3477
631.458	210.47466
631.909	145.3171
632.361	176.39522
632.812	148.33152
633.263	139.28918
633.714	150.31561
634.165	109.25315
634.616	64.14837
635.067	135.28549
635.518	137.31439
635.968	124.24273
636.419	155.32462
636.869	31.07154
637.319	172.39368
637.769	92.20116
638.219	132.30529
638.669	79.18398
639.119	74.17373
639.569	61.14491
640.019	84.1884
640.468	88.19347
640.918	11.0259
641.367	83.18466
641.816	15.03294
642.265	45.10186
642.714	72.16308
643.163	33.07491
643.612	66.15724
644.061	43.09053
644.51	57.12897
644.958	90.19712
645.406	89.2089
645.855	99.24007
646.303	87.20013
646.751	94.21143
647.199	87.19324
647.647	3.00689
648.095	80.1812
648.543	128.26196
648.99	55.13091
649.438	59.13475
649.885	22.05342
650.333	91.17758
650.78	66.15821
651.227	67.16192
651.674	63.14406
652.121	63.15243
652.568	29.07069
653.015	137.33819
653.461	69.16228
653.908	66.15167
654.354	69.16367
654.801	93.22025
655.247	34.07409
655.693	37.09498
656.139	89.21444
656.585	84.20105
657.031	99.23301
657.477	83.18167
657.922	99.22865
658.368	119.29159
658.813	100.23054
659.259	60.14405
659.704	65.15209
660.149	67.1572
660.594	90.21319
661.039	48.10973
661.484	61.14514
661.929	79.18347
662.373	51.12963
662.818	64.15848
663.262	56.13546
663.707	42.10621
664.151	59.14286
664.595	55.13497
665.039	78.19258
665.483	96.24543
665.927	54.12638
666.371	61.14502
666.814	75.17982
667.258	66.15797
667.701	136.29195
668.145	90.22303
668.588	94.23046
669.031	73.17435
669.474	65.15732
669.917	68.15119
670.36	63.15683
670.803	91.22
671.245	97.21016
671.688	47.11449
672.13	134.30597
672.573	60.15199
673.015	66.15935
673.457	89.19801
673.899	67.1629
674.341	44.10704
674.783	92.22246
675.225	105.25977
675.666	107.26024
676.108	29.06369
676.549	20.04791
676.991	89.20006
677.432	148.30866
677.873	90.21022
678.314	40.09687
678.755	91.22422
679.196	132.30807
679.637	130.31695
680.078	87.20588
680.518	94.21956
680.959	14.03378
681.399	81.20157
681.839	101.24694
682.28	107.26636
682.72	98.22953
683.16	71.17893
683.6	61.14055
684.039	36.07695
684.479	79.19559
684.919	92.21868
685.358	103.25957
685.798	117.3093
686.237	93.22577
686.676	70.16164
687.115	134.31532
687.554	123.29456
687.993	107.23964
688.432	78.18119
688.871	136.31191
689.309	131.31527
689.748	95.20345
690.186	132.31581
690.625	126.29892
691.063	127.30808
691.501	145.35912
691.939	130.32755
692.377	127.31316
692.815	134.3228
693.253	112.26888
693.69	65.14659
694.128	139.3406
694.565	116.27817
695.003	107.27139
695.44	106.25399
695.877	84.20051
696.314	115.25086
696.751	106.24184
697.188	95.2195
697.625	104.23785
698.061	133.32287
698.498	154.37153
698.934	156.37451
699.371	114.27139
699.807	146.3465
700.243	100.24126
700.679	109.24924
701.115	93.21744
701.551	119.28008
701.987	142.32149
702.422	146.34877
702.858	115.27719
703.294	87.19685
703.729	93.22839
704.164	98.23635
704.599	139.3104
705.035	78.17825
705.47	70.17124
705.904	168.39456
706.339	94.21999
706.774	140.33098
707.209	103.2428
707.643	126.30318
708.078	78.19095
708.512	77.19495
708.946	88.21143
709.38	95.22811
709.814	112.26171
710.248	124.30458
710.682	141.33792
711.116	96.23589
711.549	97.25324
711.983	77.18172
712.416	111.2641
712.85	137.34228
713.283	81.19309
713.716	79.19752
714.149	56.13454
714.582	115.26285
715.015	85.21275
715.448	107.27061
715.881	64.13976
716.313	53.1245
716.746	87.20803
717.178	59.14463
717.61	76.19307
718.043	34.08582
718.475	91.22116
718.907	96.24033
719.339	98.22773
719.77	55.13302
720.202	42.1079
720.634	79.19566
721.065	80.19359
721.497	81.20142
721.928	64.16022
722.359	91.22488
722.79	37.0912
723.221	38.09643
723.652	78.20039
724.083	55.12814
724.514	52.12108
724.945	25.06026
725.375	52.12517
725.806	17.0425
726.236	17.04381
726.666	120.28765
727.096	89.2222
727.526	80.20553
727.956	45.10608
728.386	109.27105
728.816	82.21346
729.246	41.10169
729.675	11.02762
730.105	69.17233
730.534	47.11247
730.964	12.03078
731.393	50.12436
731.822	23.05898
732.251	100.25592
732.68	50.11853
733.109	87.21909
733.537	50.12331
733.966	24.06067
734.395	68.15995
734.823	29.06706
735.251	24.05913
735.68	83.20834
736.108	50.12868
736.536	54.13117
736.964	34.08091
737.392	38.0966
737.82	19.04581
738.247	42.10313
738.675	18.04328
739.102	79.20186
739.53	31.08002
739.957	7.01826
740.384	51.12627
740.811	65.16574
741.238	-14.03492
741.665	8.01908
742.092	25.06083
742.519	35.08912
742.945	15.03682
743.372	25.06323
743.798	44.1147
744.225	28.0686
744.651	36.09171
745.077	4.01019
745.503	32.08011
745.929	40.09803
746.355	-39.0968
746.781	28.07063
747.207	-23.05588
747.632	34.08512
748.058	-31.07877
748.483	47.11148
748.908	-10.02547
749.334	48.12055
749.759	18.04397
750.184	-6.0147
750.609	-10.02495
751.033	0
751.458	40.09104
751.883	-26.06518
752.307	43.10439
752.732	6.01557
753.156	21.05323
753.58	-7.01699
754.005	0
754.429	29.06995
754.853	22.05607
755.277	4.00962
755.7	29.07293
756.124	-20.05102
756.548	37.09033
756.971	19.04744
757.394	-3.00786
757.818	-11.02895
758.241	19.04911
758.664	25.06498
759.087	5.01162
759.51	-34.08653
759.933	-47.11619
760.356	-17.04414
760.778	66.16731
761.201	70.17245
761.623	61.14981
762.046	15.03591
762.468	12.02928
762.89	-22.05486
763.312	18.04441
763.734	9.0222
764.156	4.01013
764.578	-22.05191
765	35.08751
765.421	37.09749
765.843	18.04778
766.264	-22.05384
766.686	-46.11785
767.107	35.08697
767.528	-2.00521
767.949	8.02052
768.37	28.07042
768.791	54.13235
769.212	15.03893
769.632	-24.05814
770.053	5.0134
770.473	17.04218
770.894	-16.0404
771.314	-4.00965
771.734	18.04325
772.154	35.09103
772.575	6.01417
772.994	-9.02114
773.414	13.03173
773.834	-22.05553
774.254	16.04031
774.673	-7.01736
775.093	-11.02767
775.512	19.04822
775.931	47.12098
776.351	-45.11503
776.77	10.02529
777.189	36.08735
777.607	-40.10384
778.026	8.02018
778.445	-38.09715
778.864	-7.01809
779.282	28.06911
779.701	26.06647
780.119	-6.01552
780.537	-9.0231
780.955	3.00774
781.373	-23.05798
781.791	13.02991
782.209	-8.01861
782.627	-8.02131
783.045	22.05177
783.462	-15.03885
783.88	30.07898
784.297	39.10004
784.715	2.00525
785.132	1.00247
785.549	22.05628
785.966	17.04323
786.383	-17.04278
786.8	-16.03764
787.217	-7.01696
787.633	-18.04649
788.05	-20.04769
788.466	24.05744
788.883	-29.07548
789.299	-12.02948
789.715	79.19487
790.131	47.11857
790.547	-42.10628
790.963	-18.04574
791.379	-33.085
791.795	-10.02314
792.21	2.00481
792.626	0
793.041	0
793.457	-20.0503
793.872	-42.10106
794.287	30.07434
794.702	-9.0224
795.117	22.05613
795.532	-11.02816
795.947	9.02193
796.362	-30.07221
796.776	-15.03526
797.191	29.07264
797.605	-9.02192
798.02	-32.08043
798.434	26.0587
798.848	21.05275
799.262	-20.05111
799.676	0
800.09	-57.14231
800.504	10.02474
800.918	-9.02147
801.331	-15.03949
801.745	-20.04657
802.158	-10.02554
802.572	-17.04143
802.985	32.07819
803.398	9.02188
803.811	-31.0801
804.224	-4.01005
804.637	-38.09306
805.05	32.07557
805.462	65.16199
805.875	-11.02925
806.288	-4.00979
806.7	-22.05638
807.112	14.03307
807.525	-15.03752
807.937	-30.0761
808.349	-30.07589
808.761	-34.08453
809.173	-22.05456
809.584	-22.05448
809.996	-1.00251
810.408	-18.04758
810.819	58.13956
811.231	58.15366
811.642	35.08716
812.053	-15.03712
812.464	-19.04659
812.875	38.09848
813.286	-28.07296
813.697	-39.09083
814.108	6.01474
814.519	-20.04524
814.929	-17.04342
815.34	5.01227
815.75	-25.06471
816.16	-10.02521
816.571	31.08143
816.981	-35.08331
817.391	-14.03457
817.801	-24.06082
818.211	-32.07741
818.62	10.02465
819.03	8.01992
819.44	5.01311
819.849	18.046
820.259	-27.06952
820.668	18.04495
821.077	14.03557
821.486	12.02946
821.895	19.04692
822.304	26.06905
822.713	-15.03614
823.122	7.01758
823.531	-10.02394
823.939	10.02473
824.348	33.0808
824.756	5.01265
825.164	-33.08379
825.573	-15.03838
825.981	-35.08719
826.389	17.04319
826.797	14.03586
827.205	7.01655
827.612	23.05692
828.02	6.01447
828.428	-26.06703
828.835	7.01854
829.243	9.02164
829.65	-45.11434
830.057	-9.02199
830.464	-11.02713
830.871	-47.11389
831.278	-42.10366
831.685	45.10174
832.092	13.03229
832.499	30.06676
832.905	-3.00766
833.312	12.02774
833.718	-8.02006
834.124	-15.03467
834.531	-3.00764
834.937	-12.03109
835.343	6.01468
835.749	27.06335
836.155	42.11072
836.561	-27.06712
836.966	16.0393
837.372	25.06435
837.777	-12.03032
838.183	15.03401
838.588	-11.02783
838.993	-22.05378
839.399	22.05514
839.804	-16.03997
840.209	19.04901
840.613	4.00909
841.018	23.05869
841.423	11.02842
841.828	-7.01788
842.232	7.01736
842.637	-8.01919
843.041	-13.03388
843.445	-6.01529
843.849	-1.00251
844.253	-7.01681
844.657	-21.05407
845.061	-29.06701
845.465	-10.02484
845.869	-6.01421
846.272	-4.00997
846.676	-91.22158
847.079	-34.08866
847.483	12.02993
847.886	23.05613
848.289	26.06992
848.692	7.01778
849.095	-19.04645
849.498	4.01009
849.901	-3.00699
850.304	-26.06273
850.707	-8.02054
851.109	12.03021
851.512	13.03262
851.914	36.09336
852.316	-21.05398
852.718	27.07195
853.121	2.00501
853.523	64.154
853.925	-3.00797
854.326	-11.02811
854.728	-23.06015
855.13	-13.03399
855.531	44.10736
855.933	4.00973
856.334	-30.0761
856.736	26.0604
857.137	16.03797
857.538	27.06916
857.939	16.04049
858.34	16.03936
858.741	-14.03704
859.142	-7.01698
859.542	-2.00533
859.943	65.16351
860.343	16.04059
860.744	6.01475
861.144	14.03448
861.544	25.06185
861.945	19.04901
862.345	-50.12463
862.745	-16.04014
863.145	6.01434
863.544	-2.00512
863.944	51.12246
864.344	-30.0751
864.743	-7.01743
865.143	30.07804
865.542	19.04498
865.941	-18.04503
866.34	-3.00721
866.74	-11.02975
867.139	-2.00486
867.537	2.00515
867.936	-37.0909
868.335	21.0536
868.734	2.00518
869.132	7.01649
869.531	-47.11376
869.929	20.04695
870.327	44.10728
870.726	-6.01499
871.124	0
871.522	-57.14733
871.92	19.0474
872.318	-4.00983
872.715	-14.03459
873.113	-4.0099
873.511	-61.15246
873.908	-65.16801
874.306	8.02027
874.703	9.02265
875.1	4.01021
875.497	10.02426
875.894	-14.03529
876.291	-38.09368
876.688	-7.01827
877.085	-37.09016
877.482	2.00507
877.878	-10.02464
878.275	-15.03853
878.671	-32.07121
879.068	-31.07605
879.464	-25.0619
879.86	-10.02426
880.256	-25.06235
880.652	11.02848
881.048	-23.05767
881.444	-37.08901
881.84	6.01546
882.236	25.06303
882.631	5.01236
883.027	-20.04858
883.422	-17.04438
883.817	20.05145
884.213	-2.0052
884.608	18.04531
885.003	44.10812
885.398	21.05323
885.793	-7.01785
886.188	-2.00509
886.582	36.09239
886.977	30.07205
887.371	-56.14216
887.766	-28.07113
888.16	19.04788
888.554	3.00736
888.949	10.02514
889.343	-8.01977
889.737	-23.06251
890.131	2.00508
890.525	17.04412
890.918	-6.01534
891.312	-1.00241
891.706	-9.02376
892.099	-8.02049
892.492	22.04772
892.886	19.04756
893.279	32.08279
893.672	2.00517
894.065	-20.05066
894.458	23.05778
894.851	-25.06131
895.244	-5.013
895.637	4.00973
896.029	10.02493
896.422	21.05169
896.814	-1.00254
897.206	-19.04628
897.599	-5.01238
897.991	22.05396
898.383	-26.06221
898.775	-24.05535
899.167	16.03825
899.559	6.01517
899.951	11.02636
900.342	23.05894
900.734	6.01525
901.125	32.08492
901.517	-29.07201
901.908	3.00721
902.299	4.01006
902.69	54.12816
903.082	-24.05814
903.473	-5.01228
903.863	-29.07452
904.254	9.02107
904.645	-17.0422
905.036	-8.0198
905.426	101.22974
905.817	22.05468
906.207	22.05354
906.597	-37.08874
906.987	-53.13771
907.378	-47.1206
907.768	23.06119
908.158	11.02708
908.547	33.0868
908.937	-9.02306
909.327	-5.01225
909.717	-6.01523
910.106	43.10509
910.495	-12.03012
910.885	5.01281
911.274	15.0379
911.663	21.05321
912.052	11.02713
912.441	25.06442
912.83	39.09111
913.219	14.03656
913.608	-39.09581
913.997	0
914.385	18.04362
914.774	-26.06434
915.162	40.09687
915.55	-25.06087
915.939	-31.07969
916.327	-6.0149
916.715	0
917.103	4.0099
917.491	34.08441
917.878	14.03495
918.266	-40.10466
918.654	24.06153
919.041	-32.08467
919.429	-61.14659
919.816	-11.02821
920.203	10.02451
920.591	21.05207
920.978	-21.05205
921.365	11.02906
921.752	7.01682
922.139	4.00878
922.525	41.10129
922.912	-25.06167
923.299	12.03053
923.685	-41.1081
924.072	8.01861
924.458	5.01254
924.844	12.03033
925.231	-14.03332
925.617	42.10888
926.003	21.05383
926.389	5.01267
926.774	16.04085
927.16	40.09974
927.546	-2.00517
927.931	55.13816
928.317	-2.00468
928.702	-4.00951
929.088	60.14481
929.473	-1.00257
929.858	49.12118
930.243	-11.02685
930.628	13.03232
931.013	8.02005
931.398	-39.09
931.783	-1.00262
932.167	-16.03937
932.552	-46.11582
932.937	49.12123
933.321	6.01533
933.705	-51.13082
934.09	-31.07773
934.474	4.00963
934.858	-39.10171
935.242	-40.09457
935.626	-14.03639
936.009	1.00269
936.393	-57.14677
936.777	-39.10053
937.16	6.01579
937.544	9.02117
937.927	-16.04105
938.311	10.02452
938.694	13.03418
939.077	19.04626
939.46	-10.02456
939.843	35.07337
940.226	-1.0026
940.609	9.02123
940.991	1.00259
941.374	-15.03715
941.757	23.0574
942.139	-27.06174
942.522	-54.12915
942.904	-8.01937
943.286	42.10639
943.668	8.02099
944.05	24.05995
944.432	24.06032
944.814	38.09496
945.196	-2.00503
945.578	26.06353
945.959	15.03558
946.341	-8.01956
946.722	-24.05681
947.104	-22.0531
947.485	11.02624
947.866	13.03328
948.247	-28.07196
948.628	6.01477
949.009	-6.0156
949.39	9.02243
949.771	7.01648
950.152	9.02239
950.532	-7.01765
950.913	34.08348
951.293	22.06013
951.674	-28.0688
952.054	-39.09836
952.434	-10.02502
952.814	-51.12148
953.194	-51.1336
953.574	20.04907
953.954	34.08159
954.334	-10.0252
954.714	-15.03729
955.093	-28.06878
955.473	-32.08138
955.853	-28.07284
956.232	-20.05478
956.611	-25.06026
956.99	-41.1034
957.37	-24.06177
957.749	-10.02414
958.128	-52.13285
958.506	4.01049
958.885	11.02797
959.264	-12.03017
959.643	37.08559
960.021	-29.07266
960.4	5.01147
960.778	-45.11137
961.156	-11.02807
961.535	-4.00943
961.913	55.12915
962.291	22.05729
962.669	-80.20417
963.047	14.03603
963.424	-33.08539
963.802	-8.01986
964.18	26.06561
964.557	53.12299
964.935	35.08267
965.312	15.0396
965.69	22.05535
966.067	36.08797
966.444	44.1082
966.821	2.00514
967.198	-6.01452
967.575	20.049
967.952	-28.06602
968.329	3.00737
968.705	20.04397
969.082	51.13228
969.458	-11.02687
969.835	-21.05121
970.211	-22.05741
970.587	24.05989
970.963	32.08213
971.339	-14.03697
971.715	-5.01262
972.091	42.10393
972.467	10.02503
972.843	25.06309
973.219	-7.01683
973.594	6.01587
973.97	12.02878
974.345	1.00243
974.721	31.07523
975.096	5.01229
975.471	-85.2027
975.846	38.09213
976.221	30.0775
976.596	1.00244
976.971	-5.01234
977.346	-17.04003
977.72	-73.18771
978.095	-28.07269
978.469	34.08113
978.844	-29.07314
979.218	20.04902
979.593	-28.06725
979.967	20.04934
980.341	14.0328
980.715	-16.04056
981.089	19.04809
981.463	-31.07293
981.837	-17.04238
982.21	-40.09233
982.584	34.08302
982.957	-5.01266
983.331	-6.01433
983.704	11.02745
984.078	-46.11516
984.451	-35.08669
984.824	19.04735
985.197	-9.02212
985.57	-41.10432
985.943	-9.02218
986.316	37.09073
986.688	11.02668
987.061	25.05935
987.434	23.05982
987.806	-28.06832
988.179	22.05312
988.551	33.08403
988.923	-31.07664
989.295	15.03777
989.667	14.0345
990.039	14.03504
990.411	10.0233
990.783	-30.06922
991.155	9.02223
991.527	-35.0857
991.898	7.01757
992.27	6.01511
992.641	-11.0278
993.012	11.02614
993.384	18.04344
993.755	-7.01805
994.126	6.01455
994.497	-18.04529
994.868	-47.11002
995.239	-23.05663
995.61	-1.00256
995.98	5.01237
996.351	-7.01772
996.722	-22.05241
997.092	-40.09665
997.462	9.02168
997.833	-14.03328
998.203	-28.06862
998.573	-27.06814
998.943	25.05953
999.313	-29.06998
999.683	-19.04623
1000.053	8.01855
1000.423	-25.06124
1000.792	-13.03436
1001.162	8.01989
1001.531	15.03729
1001.901	10.02503
1002.27	-16.03665
1002.639	31.07946
1003.009	20.04809
1003.378	-39.10074
1003.747	-31.07472
1004.116	17.04122
1004.485	-81.19686
1004.853	-17.04339
1005.222	13.03309
1005.591	23.055
1005.959	64.14867
1006.328	31.07097
1006.696	-3.00729
1007.064	15.03821
1007.433	-9.0225
1007.801	-28.0687
1008.169	8.0205
1008.537	9.01996
1008.905	1.00237
1009.273	3.00748
1009.64	5.01218
1010.008	17.04096
1010.375	-43.10306
1010.743	45.10406
1011.11	2.00482
1011.478	5.01238
1011.845	21.04958
1012.212	12.02779
1012.579	-17.04221
1012.946	14.03365
1013.313	8.01896
1013.68	9.02034
1014.047	13.03186
1014.414	-35.08462
1014.78	-44.11091
1015.147	9.02176
1015.513	0
1015.88	20.05108
1016.246	1.00248
1016.612	-36.08415
1016.978	25.0619
1017.344	15.03727
1017.71	-14.03384
1018.076	2.00474
1018.442	45.11527
1018.808	7.01769
1019.174	19.04822
1019.539	-21.04835
1019.905	-29.06942
1020.27	-24.06034
1020.636	-14.03378
1021.001	59.14232
1021.366	-54.13161
1021.731	36.09265
1022.096	-57.1458
1022.461	-47.11196
1022.826	9.02174
1023.191	-1.00264
1023.556	-1.00237
1023.92	-47.11662
1024.285	-17.04178
1024.649	-2.00492
1025.014	-53.13271
1025.378	5.01275
1025.742	14.03505
1026.107	33.07494
1026.471	19.04421
1026.835	-15.0373
1027.199	20.04887
1027.562	4.00948
1027.926	-12.02944
1028.29	64.16368
1028.654	38.08834
1029.017	25.06128
1029.381	39.09542
1029.744	0
1030.107	-39.09269
1030.471	26.06247
1030.834	-4.0092
1031.197	24.05736
1031.56	-19.04524
1031.923	-14.03651
1032.286	-28.06574
1032.648	7.01696
1033.011	50.11706
1033.374	-41.09706
1033.736	11.02935
1034.099	40.09865
1034.461	7.01811
1034.823	-29.07348
1035.185	-12.03063
1035.548	15.03688
1035.91	27.06557
1036.272	-16.03717
1036.634	-3.00733
1036.995	-54.12856
1037.357	3.00737
1037.719	-44.10812
1038.08	22.05183
1038.442	-27.0651
1038.803	14.03411
1039.165	-6.01522
1039.526	-33.08068
1039.887	8.01937
1040.248	19.0479
1040.609	-19.04716
1040.97	16.03992
1041.331	-4.01015
1041.692	1.00238
1042.053	-20.04609
1042.413	31.0722
1042.774	-4.00979
1043.134	-13.03094
1043.495	-2.00505
1043.855	-17.04163
1044.215	-34.08484
1044.576	0
1044.936	-63.14545
1045.296	19.04744
1045.656	-15.03723
1046.016	20.04854
1046.375	37.09114
1046.735	39.09025
1047.095	-20.04776
1047.454	-23.04911
1047.814	-34.082
1048.173	8.01899
1048.533	-1.00233
1048.892	5.0123
1049.251	4.01006
1049.61	-10.025
1049.969	-68.16275
1050.328	-36.07978
1050.687	-4.00987
1051.046	2.0049
1051.405	-2.00502
1051.763	-13.03048
1052.122	26.066
1052.48	-31.07664
1052.839	10.02381
1053.197	-22.05207
1053.555	-12.02702
1053.914	-2.00495
1054.272	0
1054.63	-1.0025
1054.988	-28.0675
1055.345	-24.05312
1055.703	-38.09192
1056.061	-39.10178
1056.419	-20.05238
1056.776	-38.09275
1057.134	1.00236
1057.491	-4.01008
1057.848	13.03255
1058.206	18.04279
1058.563	68.15113
1058.92	28.06468
1059.277	18.04418
1059.634	5.01195
1059.991	-33.07897
1060.348	12.02795
1060.704	-19.04614
1061.061	-38.08715
1061.418	24.05902
1061.774	28.06961
1062.131	-15.04003
1062.487	-1.00236
1062.843	2.00503
1063.199	-24.06013
1063.555	-14.03289
1063.911	8.02045
1064.267	9.01891
1064.623	-18.04459
1064.979	-3.00703
1065.335	-30.07128
1065.691	-81.19627
1066.046	-9.01992
1066.402	24.05551
1066.757	21.05268
1067.112	-50.12272
1067.468	-60.14596
1067.823	24.0581
1068.178	7.01698
1068.533	-2.00486
1068.888	17.04104
1069.243	14.03479
1069.598	-23.05699
1069.952	-10.02327
1070.307	3.00756
1070.662	30.07232
1071.016	-12.02771
1071.371	-11.02542
1071.725	-16.03856
1072.079	-26.06278
1072.434	-2.00493
1072.788	39.09457
1073.142	10.02466
1073.496	38.09282
1073.85	-15.03511
1074.203	-24.05819
1074.557	-1.00268
1074.911	7.0167
1075.265	20.0467
1075.618	25.06128
1075.971	25.05998
1076.325	10.02573
1076.678	24.05665
1077.031	16.03696
1077.385	-22.04977
1077.738	18.04181
1078.091	2.00471
1078.444	46.10745
1078.796	3.00742
1079.149	-25.06264
1079.502	16.03854
1079.855	17.04034
1080.207	-6.01481
1080.56	2.00525
1080.912	-13.03209
1081.264	12.02917
1081.617	26.0646
1081.969	40.10219
1082.321	31.07672
1082.673	18.04236
1083.025	1.00238
1083.377	13.02806
1083.728	2.00472
1084.08	5.01268
1084.432	-4.00984
1084.783	-9.02108
1085.135	6.0152
1085.486	7.01644
1085.838	2.00498
1086.189	19.04658
1086.54	-20.04798
1086.891	21.05392
1087.242	-5.01227
1087.593	-13.03149
1087.944	48.11062
1088.295	-19.04339
1088.646	-3.00735
1088.996	-27.0668
1089.347	0
1089.698	-14.03418
1090.048	-6.01563
1090.398	22.05131
1090.749	-10.02407
1091.099	-37.09504
1091.449	-3.0075
1091.799	28.07098
1092.149	17.04273
1092.499	-32.0784
1092.849	-16.04112
1093.199	-8.02
1093.548	-25.06081
1093.898	16.04065
1094.248	-4.01027
1094.597	18.04678
1094.947	0
1095.296	42.10438
1095.645	-28.07329
1095.994	33.08032
1096.343	15.0379
1096.692	24.06401
1097.041	-11.03022
1097.39	-8.02021
1097.739	15.03879
1098.088	26.0696
1098.437	-24.06405
1098.785	31.08403
1099.134	36.09535
1099.482	-9.02481
1099.83	-25.06558
1100.179	4.01053
1100.527	13.03488
1100.875	-21.05622
1101.223	-68.1825
1101.571	37.10275
1101.919	-2.00532
1102.267	-10.02831
1102.615	-7.02256
1102.962	-4.01288
1103.31	3.00966
1103.658	3.00965
