Data from N2 R1 sample 2_Subt2__1__13-48-49-936.txt Node

Date: Wed Aug 27 13:48:49 PDT 2025
User: uwsun
Spectrometer: HDX01956
Trigger mode: 0
Integration Time (sec): 5.000000E-1
Scans to average: 1
Nonlinearity correction enabled: true
Boxcar width: 0
Storing dark spectrum: false
XAxis mode: Wavelengths
Number of Pixels in Spectrum: 2068
>>>>>Begin Spectral Data<<<<<
194.03	209.59132
194.578	228.72424
195.127	223.69911
195.676	242.75894
196.225	196.52185
196.773	230.63334
197.321	303.82411
197.87	458.13235
198.418	498.23634
198.966	512.28128
199.513	436.06762
200.061	501.23136
200.609	447.13506
201.156	438.94219
201.704	488.19693
202.251	491.2452
202.798	495.24958
203.345	504.19597
203.892	478.15635
204.438	486.12079
204.985	480.10298
205.532	469.18807
206.078	496.17696
206.624	567.33506
207.17	509.13633
207.716	512.21078
208.262	477.91013
208.808	531.26037
209.354	563.3133
209.899	536.28322
210.445	458.1029
210.99	531.22594
211.535	477.08405
212.08	547.22179
212.625	497.18997
213.17	488.17216
213.715	479.04323
214.259	469.0499
214.804	501.18816
215.348	514.12693
215.892	499.14465
216.436	467.03769
216.98	481.02719
217.524	453.03398
218.068	492.17193
218.612	522.25631
219.155	429.98198
219.698	471.07168
220.242	446.06016
220.785	434.98244
221.328	430.03731
221.871	392.94985
222.414	458.09916
222.956	432.00949
223.499	434.95083
224.041	443.00827
224.583	386.8082
225.126	419.90849
225.668	436.03198
226.21	420.02039
226.751	427.91952
227.293	446.98329
227.835	414.97783
228.376	499.10617
228.918	447.08185
229.459	463.11601
230	409.93696
230.541	483.07508
231.082	453.06382
231.622	515.14832
232.163	463.08396
232.704	464.11147
233.244	402.95574
233.784	428.00247
234.324	412.88818
234.864	404.89444
235.404	374.86179
235.944	426.97257
236.484	439.0421
237.023	491.11502
237.563	473.05191
238.102	398.8995
238.641	453.09269
239.18	446.01204
239.719	433.05105
240.258	449.9727
240.797	471.09153
241.335	443.03949
241.874	526.97275
242.412	431.99921
242.95	490.13227
243.488	499.1002
244.026	434.96685
244.564	437.86699
245.102	459.00763
245.64	459.06367
246.177	495.05441
246.715	461.05227
247.252	466.0198
247.789	419.74986
248.326	484.1268
248.863	467.99096
249.4	449.97062
249.936	459.92765
250.473	445.00303
251.009	501.10692
251.546	468.00866
252.082	487.00945
252.618	482.04111
253.154	473.08881
253.69	499.08043
254.226	446.00672
254.761	502.08023
255.297	453.97257
255.832	444.00383
256.367	524.18214
256.903	489.03348
257.438	476.05663
257.972	490.05933
258.507	540.19099
259.042	451.93279
259.576	438.92274
260.111	509.11572
260.645	474.97751
261.179	479.06396
261.713	492.0505
262.247	507.11366
262.781	490.97827
263.315	456.06526
263.849	530.25678
264.382	496.07872
264.915	567.26809
265.449	498.17036
265.982	502.08532
266.515	532.22752
267.048	466.93856
267.58	475.98551
268.113	555.13939
268.646	550.2847
269.178	533.14926
269.71	471.9711
270.243	554.18874
270.775	546.31364
271.307	440.01091
271.838	484.0851
272.37	532.23239
272.902	544.17076
273.433	542.12342
273.965	512.17991
274.496	453.06961
275.027	510.20744
275.558	534.22677
276.089	524.23633
276.62	509.22151
277.15	540.25589
277.681	506.04821
278.211	557.28503
278.741	536.12928
279.272	531.15326
279.802	529.25369
280.332	539.21281
280.861	562.27263
281.391	536.155
281.921	548.2263
282.45	536.27005
282.98	516.27177
283.509	580.2307
284.038	519.1219
284.567	487.07145
285.096	560.26655
285.625	521.11037
286.153	533.18558
286.682	553.20876
287.21	543.23129
287.739	570.26616
288.267	557.27279
288.795	573.41059
289.323	589.29027
289.851	514.13119
290.378	636.34206
290.906	577.33017
291.433	607.40439
291.961	610.30401
292.488	545.2618
293.015	566.25154
293.542	627.48104
294.069	633.45476
294.596	606.38794
295.122	587.31018
295.649	573.17641
296.175	643.44947
296.702	598.34657
297.228	586.32328
297.754	552.16814
298.28	619.31557
298.806	574.2777
299.332	629.31131
299.857	627.31061
300.383	600.39833
300.908	651.48364
301.433	644.43961
301.958	667.43677
302.483	683.57787
303.008	632.41682
303.533	695.66072
304.058	620.33856
304.582	704.54085
305.107	635.53574
305.631	617.29936
306.155	647.40377
306.679	676.46085
307.203	692.47059
307.727	726.58169
308.251	663.48243
308.775	727.56882
309.298	666.48272
309.822	736.67512
310.345	755.60217
310.868	703.52475
311.391	704.55639
311.914	754.72231
312.437	682.40275
312.96	722.54039
313.482	771.6397
314.005	780.77458
314.527	747.76393
315.049	759.71601
315.571	758.52218
316.093	773.70796
316.615	776.66428
317.137	769.49072
317.659	767.63896
318.18	802.70457
318.702	815.70331
319.223	772.41648
319.744	889.74666
320.265	834.78491
320.786	843.85184
321.307	885.93356
321.828	812.60979
322.348	821.6871
322.869	997.01997
323.389	822.22054
323.909	888.77948
324.43	875.81026
324.95	929.83562
325.47	907.94246
325.989	957.92098
326.509	987.86859
327.029	1028.95722
327.548	949.82187
328.067	1002.06374
328.587	988.04758
329.106	1086.08139
329.625	1027.25146
330.144	993.91378
330.662	1031.00936
331.181	1003.95431
331.7	1051.02428
332.218	1054.88102
332.736	1031.98144
333.255	1096.10362
333.773	1087.09179
334.291	1094.20629
334.808	1094.97465
335.326	1188.12941
335.844	1192.22715
336.361	1168.39326
336.879	1215.2786
337.396	1282.40873
337.913	1253.30879
338.43	1282.22025
338.947	1268.36842
339.464	1326.19207
339.981	1332.42627
340.497	1340.53395
341.014	1341.52175
341.53	1325.27761
342.046	1279.42707
342.562	1378.57957
343.078	1412.48381
343.594	1425.54894
344.11	1453.5279
344.626	1413.664
345.141	1462.39995
345.657	1449.32942
346.172	1426.56567
346.687	1448.44362
347.202	1520.47395
347.717	1516.5962
348.232	1556.8261
348.747	1550.54273
349.261	1515.35471
349.776	1609.67295
350.29	1652.88746
350.805	1636.87118
351.319	1630.63108
351.833	1700.65075
352.347	1603.64123
352.861	1663.69456
353.374	1650.57342
353.888	1624.66368
354.401	1718.68682
354.915	1798.73017
355.428	1721.92105
355.941	1775.72874
356.454	1760.53907
356.967	1763.74307
357.48	1780.64557
357.993	1847.95951
358.505	1899.01257
359.018	1923.03232
359.53	1805.79476
360.042	1863.59932
360.554	1846.83855
361.066	1905.99581
361.578	1884.53946
362.09	1952.90545
362.602	1894.54499
363.113	2008.81917
363.625	1987.66518
364.136	2056.63843
364.647	2055.83913
365.158	2126.89813
365.669	2080.00209
366.18	2095.89029
366.691	2079.62864
367.201	2100.9312
367.712	2119.82132
368.222	2133.75039
368.733	2194.58407
369.243	2284.70237
369.753	2258.79652
370.263	2335.07775
370.773	2325.23445
371.282	2353.97799
371.792	2394.86078
372.301	2483.12398
372.811	2520.44654
373.32	2549.57312
373.829	2556.88542
374.338	2774.64768
374.847	2799.77318
375.356	2786.86767
375.865	2961.33584
376.373	3090.5373
376.882	3154.10322
377.39	3225.8102
377.898	3352.93012
378.407	3567.36044
378.915	3529.96261
379.423	3768.28847
379.93	3851.98229
380.438	3978.2976
380.946	4306.80264
381.453	4402.91756
381.96	4592.58091
382.468	5047.22892
382.975	5328.19992
383.482	5484.80675
383.989	5497.40147
384.495	5672.72271
385.002	6023.16145
385.509	6352.46304
386.015	6732.09196
386.521	7029.42701
387.028	7383.71011
387.534	7600.9119
388.04	7940.42099
388.546	8050.61412
389.051	8469.55318
389.557	9280.71
390.063	9571.06003
390.568	10233.28962
391.073	10487.31565
391.578	10869.0786
392.084	11171.63334
392.589	11633.84979
393.093	12637.91327
393.598	13737.98859
394.103	14775.9206
394.607	16344.29839
395.112	17504.69817
395.616	18360.99477
396.12	20064.58758
396.624	22374.10046
397.128	24048.04781
397.632	26739.61252
398.136	28795.62431
398.639	30773.11398
399.143	34449.50789
399.646	38872.61494
400.15	42382.36296
400.653	46926.39656
401.156	53194.99046
401.659	55258.90185
402.162	53821.55638
402.664	47275.14456
403.167	32260.27245
403.67	3851.94142
404.172	0
404.674	0
405.176	0
405.678	0
406.18	0
406.682	0
407.184	0
407.686	12367.42319
408.187	34596.90747
408.688	44563.94194
409.19	48906.19284
409.691	51236.67962
410.192	52883.26968
410.693	53713.23343
411.194	54189.54801
411.694	54767.79104
412.195	55625.98899
412.696	55971.27715
413.196	55815.15953
413.696	55802.1488
414.196	55740.09561
414.696	56340.4775
415.196	57067.59327
415.696	54157.03186
416.196	43218.5207
416.695	34444.16435
417.195	30393.30051
417.694	29113.82859
418.194	27170.61782
418.693	25541.47064
419.192	24866.69418
419.691	24221.50657
420.19	23717.32354
420.688	22978.07119
421.187	21890.08084
421.685	20227.18326
422.184	18317.77711
422.682	15941.46165
423.18	13756.43458
423.678	12406.47406
424.176	11405.95235
424.674	10828.20026
425.172	10343.01569
425.669	9576.46426
426.167	8868.39151
426.664	8120.72444
427.161	7503.86198
427.659	6955.6424
428.156	6551.09567
428.652	6210.91388
429.149	5931.74212
429.646	5655.48806
430.143	5303.04415
430.639	5029.16844
431.135	4707.74742
431.632	4524.49611
432.128	4119.83625
432.624	4093.41741
433.12	3911.81085
433.616	3790.73802
434.111	3650.36395
434.607	3525.42748
435.103	3420.8682
435.598	3358.73836
436.093	3191.44831
436.588	2976.29229
437.083	2905.46485
437.578	2696.39361
438.073	2591.99291
438.568	2547.85251
439.062	2496.2802
439.557	2336.64334
440.051	2329.57587
440.546	2222.58846
441.04	2190.76903
441.534	2120.92289
442.028	2006.64521
442.522	2016.69368
443.015	2028.40891
443.509	2058.84607
444.002	1978.77788
444.496	1892.30529
444.989	1916.72602
445.482	1879.77924
445.975	1882.48104
446.468	1918.36583
446.961	1752.15742
447.454	1784.46124
447.947	1708.48709
448.439	1649.53867
448.931	1747.32749
449.424	1648.65596
449.916	1674.55295
450.408	1569.23407
450.9	1522.38823
451.392	1517.54505
451.884	1502.25166
452.375	1444.41983
452.867	1467.13001
453.358	1481.20993
453.849	1441.01896
454.341	1360.04408
454.832	1448.04876
455.323	1448.41215
455.814	1371.13641
456.304	1350.13563
456.795	1373.17415
457.285	1289.97848
457.776	1300.02083
458.266	1400.30634
458.756	1347.29237
459.247	1231.13096
459.737	1282.22959
460.226	1222.9848
460.716	1174.06238
461.206	1141.04433
461.695	1117.12096
462.185	1161.0421
462.674	1121.92049
463.163	1167.91462
463.653	1097.72467
464.142	1077.98192
464.63	1047.95256
465.119	1047.85554
465.608	1030.84846
466.096	1008.71661
466.585	1064.88916
467.073	959.80755
467.561	963.82751
468.05	959.76081
468.538	977.89459
469.026	873.67575
469.513	868.46482
470.001	958.78936
470.489	924.80487
470.976	842.56611
471.463	862.75673
471.951	772.5945
472.438	831.61416
472.925	822.62281
473.412	782.5957
473.899	755.45518
474.385	764.58571
474.872	743.46287
475.359	685.45475
475.845	730.29762
476.331	710.32279
476.817	674.4068
477.303	689.3774
477.789	656.37161
478.275	646.39773
478.761	646.36856
479.247	634.22717
479.732	657.43457
480.218	583.3312
480.703	644.3934
481.188	539.01982
481.673	530.08773
482.158	604.16454
482.643	597.34404
483.128	595.22055
483.612	528.10898
484.097	536.1787
484.581	481.00099
485.066	497.10081
485.55	503.0013
486.034	530.04071
486.518	445.94799
487.002	531.19576
487.486	513.14055
487.969	426.96042
488.453	417.96409
488.936	428.89534
489.42	425.87627
489.903	351.81959
490.386	443.67836
490.869	415.83488
491.352	385.86251
491.835	402.7739
492.318	420.89104
492.8	453.88615
493.283	351.83437
493.765	363.84095
494.247	359.78605
494.73	314.65484
495.212	321.72093
495.694	354.78279
496.175	317.71662
496.657	338.75271
497.139	314.52678
497.62	283.64784
498.102	342.81126
498.583	270.64938
499.064	229.48978
499.545	290.63351
500.026	272.58917
500.507	320.7085
500.988	272.64599
501.469	296.70812
501.949	232.54591
502.43	275.6313
502.91	250.50631
503.39	245.58624
503.87	231.52712
504.35	245.55229
504.83	266.5646
505.31	225.52583
505.79	277.63895
506.269	255.5706
506.749	174.38976
507.228	235.53408
507.707	208.4465
508.187	213.48938
508.666	139.33173
509.145	171.39163
509.623	247.56476
510.102	204.47891
510.581	156.36294
511.059	247.59936
511.538	184.45728
512.016	280.6478
512.494	272.63977
512.972	145.33555
513.45	173.39605
513.928	220.51969
514.406	211.502
514.884	168.42101
515.361	160.37034
515.839	226.50144
516.316	143.33971
516.793	192.47194
517.27	194.45455
517.747	208.52068
518.224	173.38904
518.701	183.40003
519.178	156.37778
519.654	150.34802
520.131	143.3461
520.607	156.37536
521.083	135.30558
521.56	156.35907
522.036	180.38707
522.512	161.38291
522.987	138.3236
523.463	135.31687
523.939	141.33509
524.414	188.42424
524.89	178.41608
525.365	135.29898
525.84	128.30097
526.315	144.34162
526.79	144.31725
527.265	155.35056
527.74	117.27923
528.215	205.48004
528.689	118.25888
529.164	145.31335
529.638	147.36925
530.112	136.31679
530.587	176.37569
531.061	131.31336
531.534	164.39117
532.008	139.33135
532.482	121.27166
532.956	94.23574
533.429	94.22369
533.903	93.20313
534.376	151.33316
534.849	90.20517
535.322	145.33688
535.795	128.30519
536.268	125.29741
536.741	81.19139
537.213	143.32369
537.686	82.19776
538.158	132.29532
538.631	49.11699
539.103	116.26102
539.575	105.21679
540.047	140.30636
540.519	111.25922
540.991	120.28524
541.463	126.29881
541.934	111.24911
542.406	84.19682
542.877	89.19719
543.348	63.14672
543.82	118.28221
544.291	132.29812
544.762	138.32195
545.233	100.24536
545.703	99.21779
546.174	107.24594
546.645	168.39379
547.115	191.44883
547.585	130.29001
548.056	171.39901
548.526	172.39432
548.996	201.46366
549.466	209.48691
549.935	224.51331
550.405	171.36653
550.875	200.45685
551.344	189.43598
551.814	244.53844
552.283	217.45105
552.752	238.5252
553.221	203.42853
553.69	211.44698
554.159	237.55843
554.628	312.66541
555.096	307.73008
555.565	312.66974
556.033	307.67958
556.502	283.65305
556.97	234.49234
557.438	245.55116
557.906	282.63374
558.374	255.56048
558.842	290.65866
559.31	286.61181
559.777	268.61905
560.245	236.52297
560.712	319.6917
561.18	317.66594
561.647	302.63513
562.114	407.87721
562.581	358.8111
563.048	373.80291
563.514	452.01738
563.981	418.88564
564.448	422.86832
564.914	453.95203
565.381	498.01504
565.847	509.06595
566.313	562.17896
566.779	644.28701
567.245	572.17408
567.711	629.33163
568.176	618.20985
568.642	644.40941
569.108	683.4549
569.573	697.40049
570.038	759.34615
570.504	794.50448
570.969	770.6067
571.434	821.48354
571.899	867.70977
572.363	862.60418
572.828	945.70814
573.293	1009.85745
573.757	998.81379
574.222	1016.80837
574.686	992.7801
575.15	1001.91356
575.614	1081.93973
576.078	1041.90693
576.542	1042.84331
577.006	1015.79031
577.469	1027.95012
577.933	1060.86069
578.396	1028.91753
578.86	1074.96703
579.323	1024.95054
579.786	1029.71635
580.249	951.73473
580.712	1003.92847
581.175	1008.98402
581.637	936.70688
582.1	847.47852
582.563	920.56966
583.025	924.81509
583.487	865.43249
583.95	840.49209
584.412	823.39581
584.874	845.69828
585.336	822.61675
585.797	777.39029
586.259	746.47395
586.721	711.42407
587.182	716.39741
587.643	676.28739
588.105	652.297
588.566	613.08725
589.027	567.19025
589.488	580.13533
589.949	587.23067
590.41	598.01364
590.87	489.9611
591.331	565.05451
591.791	509.03538
592.252	427.8701
592.712	426.9018
593.172	449.90037
593.632	429.81853
594.092	479.93657
594.552	396.75281
595.011	439.90228
595.471	440.8756
595.931	356.71537
596.39	402.8748
596.849	374.78654
597.308	317.61187
597.768	442.01308
598.227	366.79004
598.685	345.71197
599.144	392.83201
599.603	428.90445
600.062	345.67135
600.52	337.68797
600.978	321.6987
601.437	340.70528
601.895	312.59745
602.353	329.65669
602.811	417.83582
603.269	377.80594
603.727	368.79742
604.184	370.75996
604.642	323.7144
605.099	434.90989
605.557	358.78766
606.014	370.7212
606.471	402.90595
606.928	411.79104
607.385	495.06719
607.842	505.02443
608.299	530.07745
608.755	457.96889
609.212	483.95736
609.668	435.86141
610.125	506.05709
610.581	435.89688
611.037	450.89883
611.493	426.89115
611.949	436.92982
612.405	461.8425
612.861	443.91379
613.316	461.98846
613.772	434.87572
614.227	361.7587
614.683	445.84371
615.138	466.9718
615.593	480.99921
616.048	472.9607
616.503	359.78207
616.958	399.89092
617.412	418.88758
617.867	460.92008
618.321	482.89715
618.776	456.89349
619.23	439.91692
619.684	432.88249
620.138	442.89391
620.592	331.72842
621.046	396.8262
621.5	410.90053
621.954	413.83201
622.407	381.76684
622.861	393.86955
623.314	376.77368
623.768	351.74744
624.221	376.67445
624.674	323.68184
625.127	310.66344
625.58	364.74021
626.033	283.56986
626.485	359.79367
626.938	340.73487
627.39	380.80866
627.843	255.5468
628.295	300.63676
628.747	286.63349
629.199	290.61204
629.651	251.5424
630.103	315.67137
630.555	276.55794
631.006	201.44662
631.458	296.65728
631.909	216.46528
632.361	242.53604
632.812	225.496
633.263	183.37698
633.714	254.52218
634.165	198.45173
634.616	181.40986
635.067	172.36078
635.518	187.42483
635.968	208.39906
636.419	157.32866
636.869	134.30288
637.319	225.50949
637.769	160.3448
638.219	184.42115
638.669	138.31764
639.119	59.13892
639.569	154.35928
640.019	117.26063
640.468	138.3002
640.918	133.3057
641.367	128.28212
641.816	94.20301
642.265	76.17095
642.714	63.14295
643.163	111.24798
643.612	89.2111
644.061	43.09053
644.51	117.26149
644.958	124.26963
645.406	114.26628
645.855	109.26382
646.303	115.26306
646.751	59.13366
647.199	73.16261
647.647	73.16538
648.095	78.17674
648.543	122.25002
648.99	130.30496
649.438	63.14377
649.885	56.13511
650.333	72.14114
650.78	103.24516
651.227	69.16669
651.674	95.21583
652.121	101.24261
652.568	106.25467
653.015	104.25828
653.461	66.15531
653.908	89.20359
654.354	78.18469
654.801	71.16886
655.247	50.10858
655.693	26.06687
656.139	118.28275
656.585	81.19398
657.031	62.14698
657.477	79.17306
657.922	94.21732
658.368	68.1682
658.813	75.17377
659.259	33.07963
659.704	61.14285
660.149	43.10136
660.594	20.04802
661.039	26.0597
661.484	73.17329
661.929	10.02354
662.373	48.12207
662.818	93.22907
663.262	51.12349
663.707	77.19349
664.151	15.03662
664.595	45.11064
665.039	29.07225
665.483	77.19751
665.927	48.11247
666.371	65.15442
666.814	69.16562
667.258	95.22612
667.701	53.11581
668.145	68.16919
668.588	24.0596
669.031	66.15785
669.474	58.14057
669.917	67.149
670.36	58.14452
670.803	111.26734
671.245	123.26501
671.688	60.1458
672.13	84.19374
672.573	24.06119
673.015	49.11869
673.457	49.10992
673.899	75.18207
674.341	99.23835
674.783	57.13874
675.225	95.23546
675.666	84.20518
676.108	20.04401
676.549	31.0741
676.991	57.12897
677.432	117.24569
677.873	87.20333
678.314	73.17569
678.755	86.2121
679.196	65.1537
679.637	88.21623
680.078	80.18957
680.518	64.15037
680.959	34.08172
681.399	65.16222
681.839	43.10627
682.28	55.13821
682.72	76.17877
683.16	71.17893
683.6	45.10401
684.039	37.07907
684.479	66.16379
684.919	37.08888
685.358	76.19245
685.798	77.20492
686.237	57.13931
686.676	43.09983
687.115	22.0529
687.554	96.23108
687.993	54.12226
688.432	61.14217
688.871	51.11896
689.309	92.22305
689.748	66.14223
690.186	77.18616
690.625	27.06528
691.063	101.2462
691.501	92.23006
691.939	51.13032
692.377	73.18179
692.815	63.1538
693.253	20.04885
693.69	49.11087
694.128	84.20793
694.565	81.19553
695.003	52.13318
695.44	99.23754
695.877	66.15809
696.314	91.19952
696.751	70.16087
697.188	22.05157
697.625	63.14527
698.061	68.16709
698.498	85.20774
698.934	36.08839
699.371	66.15857
699.807	73.17569
700.243	64.15546
700.679	80.18399
701.115	38.0898
701.551	80.18972
701.987	66.15174
702.422	47.1144
702.858	86.20842
703.294	29.06639
703.729	65.16046
704.164	43.10478
704.599	82.18527
705.035	40.09211
705.47	43.10572
705.904	92.21927
706.339	80.18774
706.774	57.13692
707.209	55.13086
707.643	86.2085
708.078	41.10106
708.512	15.0384
708.946	59.14253
709.38	106.25399
709.814	87.20429
710.248	56.13928
710.682	92.22255
711.116	89.21897
711.549	66.17322
711.983	58.13739
712.416	71.17023
712.85	58.14698
713.283	59.14124
713.716	44.11071
714.149	99.23591
714.582	88.20223
715.015	102.25452
715.448	89.22581
715.881	19.04189
716.313	37.08719
716.746	48.11563
717.178	36.08862
717.61	40.10226
718.043	64.16068
718.475	43.10545
718.907	79.19838
719.339	67.15665
719.77	26.06323
720.202	80.20417
720.634	55.13682
721.065	81.19598
721.497	69.17196
721.928	35.08808
722.359	64.15894
722.79	68.16666
723.221	28.07118
723.652	51.13164
724.083	101.23317
724.514	50.11647
724.945	39.09375
725.375	48.11563
725.806	35.08722
726.236	7.01807
726.666	91.21934
727.096	82.20498
727.526	64.16488
727.956	48.11309
728.386	62.15549
728.816	101.26206
729.246	4.00999
729.675	11.02762
730.105	93.23126
730.534	43.10298
730.964	34.08686
731.393	59.1465
731.822	11.02827
732.251	64.16483
732.68	38.09029
733.109	68.17183
733.537	5.01243
733.966	14.03545
734.395	66.15531
734.823	78.17861
735.251	50.12259
735.68	89.22316
736.108	53.13633
736.536	98.23608
736.964	-12.02881
737.392	54.13689
737.82	-25.06078
738.247	54.1323
738.675	40.09577
739.102	55.14113
739.53	54.13883
739.957	28.07279
740.384	52.12872
740.811	59.1506
741.238	15.03722
741.665	3.00716
742.092	54.13068
742.519	24.06123
742.945	27.06614
743.372	19.04811
743.798	44.1147
744.225	61.14853
744.651	4.01025
745.077	38.09619
745.503	88.21807
745.929	21.05165
746.355	-12.02964
746.781	29.07314
747.207	9.02173
747.632	46.11491
748.058	-10.02531
748.483	46.10913
748.908	10.02538
749.334	72.18005
749.759	53.12862
750.184	1.00245
750.609	26.06445
751.033	-23.05485
751.458	44.10006
751.883	8.01993
752.307	33.08026
752.732	50.12877
753.156	69.17339
753.58	56.13434
754.005	1.00257
754.429	-6.01457
754.853	49.12428
755.277	-36.08728
755.7	-6.01518
756.124	22.05571
756.548	32.07819
756.971	51.12659
757.394	38.09892
757.818	19.04976
758.241	1.00259
758.664	55.14221
759.087	9.0209
759.51	32.08049
759.933	-33.08137
760.356	-18.04674
760.778	64.1623
761.201	37.09171
761.623	35.08637
762.046	11.02635
762.468	85.20457
762.89	8.01984
763.312	3.00742
763.734	31.07616
764.156	12.03034
764.578	7.01642
765	45.11231
765.421	44.11579
765.843	12.03189
766.264	13.03161
766.686	11.0279
767.107	18.04487
767.528	1.0026
767.949	-31.08007
768.37	55.13766
768.791	5.01237
769.212	34.08796
769.632	-10.02416
770.053	34.09065
770.473	0
770.894	-46.11678
771.314	17.04085
771.734	18.04325
772.154	60.15538
772.575	18.04241
772.994	-25.05891
773.414	23.05602
773.834	-47.11917
774.254	56.14009
774.673	20.04936
775.093	-35.08843
775.512	30.076
775.931	41.10565
776.351	-3.00761
776.77	52.13051
777.189	27.06562
777.607	-48.12478
778.026	8.02018
778.445	-44.11261
778.864	-31.08043
779.282	22.05436
779.701	23.05883
780.119	13.03352
780.537	26.06633
780.955	53.13552
781.373	-37.09351
781.791	-50.11647
782.209	-33.07716
782.627	-18.04802
783.045	31.07282
783.462	12.03094
783.88	8.02114
784.297	6.01548
784.715	3.00787
785.132	5.01232
785.549	36.09188
785.966	15.03815
786.383	-9.02262
786.8	-16.03764
787.217	-20.04858
787.633	18.0462
788.05	-30.07167
788.466	20.04791
788.883	13.03359
789.299	27.06584
789.715	32.07962
790.131	44.11106
790.547	-10.02516
790.963	31.0781
791.379	-4.01025
791.795	-18.04171
792.21	50.11903
792.626	-25.06044
793.041	68.16925
793.457	4.01002
793.872	-25.05996
794.287	34.08419
794.702	7.01738
795.117	22.05613
795.532	-6.01534
795.947	26.06315
796.362	-28.06737
796.776	-17.03998
797.191	29.07264
797.605	-6.01461
798.02	33.08197
798.434	21.04746
798.848	24.06026
799.262	35.08858
799.676	-22.05434
800.09	-37.09204
800.504	9.02227
800.918	14.03325
801.331	3.00787
801.745	-12.0279
802.158	-9.02298
802.572	-32.07819
802.985	18.0441
803.398	5.01217
803.811	14.03589
804.224	22.05504
804.637	12.02912
805.05	44.10366
805.462	56.13979
805.875	24.06344
806.288	-32.07869
806.7	9.02294
807.112	33.07767
807.525	66.16266
807.937	-17.04303
808.349	-5.01259
808.761	15.03696
809.173	40.09807
809.584	-38.09437
809.996	8.02009
810.408	40.1047
810.819	46.11094
811.231	109.28631
811.642	99.24367
812.053	141.33895
812.464	100.2398
812.875	74.19058
813.286	19.04911
813.697	-16.03709
814.108	-11.0271
814.519	-13.02937
814.929	19.04822
815.34	14.03429
815.75	-5.0129
816.16	-16.04039
816.571	41.10751
816.981	-6.0142
817.391	24.05884
817.801	12.03021
818.211	11.02639
818.62	3.00741
819.03	19.04721
819.44	20.05229
819.849	34.08665
820.259	28.07141
820.668	-7.01756
821.077	-21.05368
821.486	40.09771
821.895	14.0346
822.304	18.04786
822.713	-27.0652
823.122	11.02761
823.531	-38.09147
823.939	42.10324
824.348	8.01968
824.756	7.01771
825.164	27.06782
825.573	9.02293
825.981	-6.01487
826.389	13.03305
826.797	61.15494
827.205	59.13811
827.612	-9.0224
828.02	7.01688
828.428	7.01794
828.835	21.05548
829.243	-9.02171
829.65	27.06773
830.057	-43.10572
830.464	-22.05438
830.871	8.01918
831.278	25.06094
831.685	29.06578
832.092	56.13801
832.499	-11.02469
832.905	9.02293
833.312	52.11926
833.718	25.06233
834.124	-6.01384
834.531	31.07849
834.937	-5.01294
835.343	18.04395
835.749	28.06568
836.155	49.12902
836.561	-48.11977
836.966	1.00246
837.372	20.05153
837.777	-12.03032
838.183	17.03853
838.588	-10.0253
838.993	9.02187
839.399	28.0701
839.804	-2.00498
840.209	32.08236
840.613	1.00227
841.018	0
841.423	-8.02074
841.828	31.07865
842.232	-16.03984
842.637	21.0501
843.041	10.02596
843.445	36.09103
843.849	-1.00251
844.253	2.0048
844.657	5.01282
845.061	-2.0046
845.465	30.07399
845.869	39.09154
846.272	16.03975
846.676	-20.04805
847.079	26.0671
847.483	12.02993
847.886	25.06099
848.289	36.09665
848.692	-17.04336
849.095	24.05821
849.498	31.07779
849.901	9.02093
850.304	-17.04094
850.707	32.08158
851.109	-2.00505
851.512	43.10732
851.914	47.12165
852.316	3.00768
852.718	23.06133
853.121	36.08963
853.523	49.11824
853.925	23.0608
854.326	17.04323
854.728	16.04156
855.13	-24.06286
855.531	30.07339
855.933	-1.00244
856.334	-29.07355
856.736	37.08576
857.137	20.04743
857.538	35.08953
857.939	62.1556
858.34	49.1198
858.741	16.04212
859.142	-40.09763
859.542	-6.016
859.943	51.12862
860.343	54.13606
860.744	-11.02713
861.144	16.03939
861.544	60.14749
861.945	15.03872
862.345	-11.02722
862.745	-9.02255
863.145	-15.036
863.544	37.09404
863.944	43.10341
864.344	-5.01246
864.743	9.02235
865.143	65.16807
865.542	-27.06449
865.941	-21.05256
866.34	0
866.74	18.04845
867.139	-22.05368
867.537	22.05642
867.936	8.01949
868.335	9.02302
868.734	40.10287
869.132	-7.01653
869.531	-18.04333
869.929	25.05864
870.327	10.02454
870.726	2.00499
871.124	2.00469
871.522	-9.02307
871.92	41.10188
872.318	-19.04682
872.715	28.06865
873.113	20.04929
873.511	-65.16258
873.908	-26.06675
874.306	23.05811
874.703	8.02014
875.1	-38.0977
875.497	-7.01704
875.894	-1.00251
876.291	-22.05408
876.688	6.01562
877.085	43.10321
877.482	-13.03303
877.878	-2.00492
878.275	-19.04884
878.671	-4.00885
879.068	25.06069
879.464	34.08327
879.86	6.01451
880.256	13.0322
880.652	65.16673
881.048	8.01995
881.444	-19.04555
881.84	45.11519
882.236	-16.04063
882.631	31.07624
883.027	1.00242
883.422	1.0026
883.817	28.07194
884.213	23.05959
884.608	30.07535
885.003	-6.01488
885.398	1.00254
885.793	20.05075
886.188	19.04821
886.582	74.18865
886.977	51.122
887.371	-48.12168
887.766	-21.05328
888.16	25.06294
888.554	-23.05669
888.949	4.01007
889.343	12.02955
889.737	9.02433
890.131	-8.02037
890.525	31.08027
890.918	6.01531
891.312	2.00481
891.706	3.0079
892.099	37.09401
892.492	-9.01965
892.886	79.19559
893.279	40.10334
893.672	12.03094
894.065	14.03525
894.458	34.08524
894.851	-7.01711
895.244	57.14657
895.637	14.03398
896.029	45.11145
896.422	-6.01484
896.814	40.10097
897.206	-24.05852
897.599	6.01483
897.991	31.07591
898.383	-18.043
898.775	46.10461
899.167	-5.012
899.559	3.00759
899.951	25.05976
900.342	27.06914
900.734	-13.03315
901.125	50.13229
901.517	-6.01484
901.908	14.03357
902.299	39.09747
902.69	1.0024
903.082	-22.05328
903.473	15.03672
903.863	-46.11855
904.254	-10.0235
904.645	-16.03971
905.036	-3.00742
905.426	53.12173
905.817	38.09417
906.207	40.09702
906.597	-16.03822
906.987	-17.0439
907.378	3.00763
907.768	4.01068
908.158	4.00986
908.547	17.04484
908.937	-1.00256
909.327	7.01711
909.717	-4.01015
910.106	52.12688
910.495	22.05488
910.885	25.06384
911.274	34.08561
911.663	26.06582
912.052	-27.06707
912.441	20.05158
912.83	34.07951
913.219	-1.00262
913.608	-48.11812
913.997	-4.01024
914.385	24.0581
914.774	-3.00739
915.162	38.09206
915.55	-59.14457
915.939	-42.10817
916.327	-24.05978
916.715	36.09355
917.103	31.07636
917.491	19.0473
917.878	26.06476
918.266	-17.04431
918.654	-11.02837
919.041	-19.05016
919.429	-50.1199
919.816	26.06624
920.203	22.0538
920.591	-7.01744
920.978	8.01972
921.365	7.01851
921.752	1.00241
922.139	48.10442
922.525	53.13064
922.912	-1.00246
923.299	44.1113
923.685	-37.09749
924.072	44.10164
924.458	3.00753
924.844	16.04042
925.231	-10.02378
925.617	28.07276
926.003	26.06659
926.389	-20.05092
926.774	16.04085
927.16	41.10221
927.546	1.00258
927.931	61.15307
928.317	2.00467
928.702	29.0685
929.088	20.04864
929.473	15.03852
929.858	8.01993
930.243	-8.01952
930.628	9.02239
931.013	-18.04532
931.398	2.00458
931.783	-31.08154
932.167	1.00245
932.552	-13.03254
932.937	0
933.321	-3.00768
933.705	-13.03312
934.09	-47.11819
934.474	16.03843
934.858	-18.04678
935.242	2.00469
935.626	-1.00259
936.009	6.01612
936.393	-21.05374
936.777	-13.03336
937.16	28.07341
937.544	-51.12134
937.927	-20.05135
938.311	30.07328
938.694	-13.03433
939.077	-1.00244
939.46	12.02936
939.843	42.0879
940.226	39.10081
940.609	33.07749
940.991	-7.01813
941.374	-37.09201
941.757	12.03001
942.139	5.01136
942.522	-1.00237
942.904	25.06014
943.286	13.0331
943.668	-2.00526
944.05	65.16116
944.432	44.11019
944.814	57.14195
945.196	8.02007
945.578	23.05623
945.959	33.078
946.341	26.06315
946.722	25.05861
947.104	-38.09199
947.485	68.16045
947.866	45.11454
948.247	6.01533
948.628	4.00985
949.009	-4.01039
949.39	-3.00749
949.771	46.10749
950.152	-17.04249
950.532	-51.12958
950.913	64.15627
951.293	11.03012
951.674	-7.01713
952.054	-11.0276
952.434	0
952.814	-75.17947
953.194	-17.04428
953.574	21.05152
953.954	32.07682
954.334	-23.05809
954.714	-1.00248
955.093	25.06081
955.473	-27.0686
955.853	4.01035
956.232	-29.07955
956.611	-6.01441
956.99	-33.0831
957.37	-32.08247
957.749	2.00482
958.128	-23.05846
958.506	-24.06327
958.885	-17.04344
959.264	32.07982
959.643	34.0787
960.021	-21.05254
960.4	-8.0184
960.778	-2.00491
961.156	36.0911
961.535	4.00942
961.913	9.02132
962.291	-10.02618
962.669	-29.07335
963.047	7.01804
963.424	-14.03611
963.802	13.03215
964.18	13.03288
964.557	61.14133
964.935	-15.03577
965.312	32.08424
965.69	39.09783
966.067	9.0221
966.444	3.00743
966.821	-14.03611
967.198	-19.04609
967.575	-8.0197
967.952	-7.01644
968.329	-15.03696
968.705	74.16084
969.082	44.11426
969.458	10.02434
969.835	-12.02921
970.211	19.04923
970.587	-1.00251
970.963	29.07447
971.339	30.07863
971.715	10.02517
972.091	67.16503
972.467	31.07731
972.843	23.05807
973.219	46.10947
973.594	35.09212
973.97	12.02878
974.345	52.12541
974.721	20.04864
975.096	9.0221
975.471	-43.10172
975.846	32.07767
976.221	40.10316
976.596	-15.03674
976.971	-13.03213
977.346	29.06767
977.72	-56.14357
978.095	-44.11454
978.469	34.08113
978.844	-4.01004
979.218	36.08797
979.593	-42.10114
979.967	67.16387
980.341	23.0538
980.715	-41.1044
981.089	5.01269
981.463	32.07436
981.837	-15.03738
982.21	-43.09931
982.584	3.00737
982.957	7.01769
983.331	11.02618
983.704	55.13617
984.078	19.04701
984.451	6.01475
984.824	26.06471
985.197	62.15037
985.57	26.06537
985.943	-21.05186
986.316	34.08342
986.688	-1.00243
987.061	43.10172
987.434	-3.00784
987.806	21.05077
988.179	34.08191
988.551	33.08403
988.923	-33.08161
989.295	36.09032
989.667	70.17073
990.039	16.04003
990.411	-3.00701
990.783	-24.05531
991.155	12.02963
991.527	-12.02926
991.898	13.03259
992.27	25.06276
992.641	-9.02274
993.012	50.11793
993.384	16.03863
993.755	27.06921
994.126	26.0628
994.497	12.03003
994.868	20.0462
995.239	-11.02702
995.61	19.04852
995.98	10.02473
996.351	14.03531
996.722	-32.07639
997.092	-5.012
997.462	26.06242
997.833	1.00237
998.203	21.051
998.573	34.08487
998.943	15.03579
999.313	-43.10404
999.683	-8.01942
1000.053	-6.01395
1000.423	-40.09825
1000.792	41.10737
1001.162	-8.01995
1001.531	6.01494
1001.901	-32.08072
1002.27	18.04095
1002.639	-8.02065
1003.009	15.0361
1003.378	-21.05407
1003.747	34.08094
1004.116	3.00729
1004.485	-34.08191
1004.853	41.10358
1005.222	18.04578
1005.591	54.12836
1005.959	60.13949
1006.328	20.04589
1006.696	24.05803
1007.064	43.10899
1007.433	-11.02751
1007.801	-5.01222
1008.169	6.01538
1008.537	9.01996
1008.905	-9.02141
1009.273	22.05466
1009.64	5.01218
1010.008	14.03375
1010.375	-27.06451
1010.743	40.09259
1011.11	16.03844
1011.478	6.01486
1011.845	-16.03805
1012.212	30.06922
1012.579	17.04195
1012.946	23.05519
1013.313	-16.03809
1013.68	24.05407
1014.047	49.11927
1014.414	-4.00961
1014.78	-5.01251
1015.147	-30.07306
1015.513	38.09206
1015.88	26.06633
1016.246	43.10591
1016.612	46.1058
1016.978	9.02235
1017.344	42.10385
1017.71	4.00964
1018.076	18.04251
1018.442	9.0232
1018.808	27.06799
1019.174	9.02288
1019.539	9.0206
1019.905	-10.02385
1020.27	-2.00501
1020.636	7.01682
1021.001	70.1685
1021.366	-33.08011
1021.731	16.04132
1022.096	-57.1458
1022.461	-46.10955
1022.826	44.10559
1023.191	0
1023.556	-10.02379
1023.92	0
1024.285	3.00735
1024.649	-27.0667
1025.014	-11.02733
1025.378	1.00255
1025.742	-16.04027
1026.107	25.05687
1026.471	4.00934
1026.835	-24.05978
1027.199	-11.02703
1027.562	4.00948
1027.926	8.01956
1028.29	52.13327
1028.654	31.07217
1029.017	28.0686
1029.381	57.139
1029.744	21.05415
1030.107	3.00707
1030.471	27.06486
1030.834	-23.05308
1031.197	-7.01683
1031.56	-27.06439
1031.923	4.0104
1032.286	11.02563
1032.648	14.03387
1033.011	22.05179
1033.374	-15.03533
1033.736	3.00802
1034.099	49.12065
1034.461	7.01811
1034.823	5.01259
1035.185	59.14869
1035.548	27.06623
1035.91	59.14243
1036.272	28.06448
1036.634	34.08249
1036.995	-3.00707
1037.357	-29.07167
1037.719	-11.02686
1038.08	-21.04989
1038.442	-9.02163
1038.803	57.13775
1039.165	-36.09178
1039.526	-26.06349
1039.887	5.01212
1040.248	16.04036
1040.609	13.03208
1040.97	32.07962
1041.331	-24.06112
1041.692	-2.00477
1042.053	32.07298
1042.413	24.05597
1042.774	1.00245
1043.134	45.10591
1043.495	-10.02531
1043.855	12.02922
1044.215	-30.0748
1044.576	-22.05402
1044.936	-36.08267
1045.296	7.01751
1045.656	34.08364
1046.016	1.00244
1046.375	54.13259
1046.735	33.07646
1047.095	7.01663
1047.454	0
1047.814	-16.03846
1048.173	47.11075
1048.533	-19.04439
1048.892	0
1049.251	31.07756
1049.61	35.08678
1049.969	10.02358
1050.328	-2.0044
1050.687	23.05648
1051.046	-7.01717
1051.405	-12.03018
1051.763	-7.01639
1052.122	10.02546
1052.48	7.01718
1052.839	-8.01911
1053.197	-56.13342
1053.555	-23.05191
1053.914	51.12488
1054.272	3.00725
1054.63	3.00749
1054.988	-20.04814
1055.345	2.0044
1055.703	-8.01924
1056.061	11.02846
1056.419	8.02085
1056.776	15.03625
1057.134	15.03524
1057.491	21.05268
1057.848	5.01254
1058.206	19.04515
1058.563	-8.01806
1058.92	30.06927
1059.277	-6.01479
1059.634	0
1059.991	-53.12731
1060.348	-21.04923
1060.704	-15.0364
1061.061	-66.15222
1061.418	35.08589
1061.774	13.03241
1062.131	-2.00533
1062.487	0
1062.843	10.02512
1063.199	-14.03501
1063.555	-25.05886
1063.911	35.08902
1064.267	-28.0593
1064.623	-12.02969
1064.979	-44.1039
1065.335	-49.11685
1065.691	-16.0383
1066.046	-31.06891
1066.402	15.03475
1066.757	-17.04293
1067.112	-33.08074
1067.468	2.00481
1067.823	17.04121
1068.178	-21.05121
1068.533	-38.09296
1068.888	34.08181
1069.243	-17.04249
1069.598	-5.01235
1069.952	-6.01395
1070.307	-26.06589
1070.662	0
1071.016	6.01381
1071.371	-13.03005
1071.725	7.0168
1072.079	-35.08465
1072.434	-17.042
1072.788	36.08735
1073.142	11.02712
1073.496	34.08311
1073.85	3.007
1074.203	-7.01692
1074.557	3.00805
1074.911	34.08069
1075.265	5.01171
1075.618	11.02703
1075.971	21.05043
1076.325	-17.04394
1076.678	34.0801
1077.031	23.05306
1077.385	37.08269
1077.738	66.15186
1078.091	42.09806
1078.444	21.04929
1078.796	-9.02232
1079.149	17.04227
1079.502	-3.00725
1079.855	4.00952
1080.207	-18.04454
1080.56	1.00262
1080.912	-7.01726
1081.264	20.04854
1081.617	6.01496
1081.969	37.09458
1082.321	31.07672
1082.673	9.02122
1083.025	-16.03821
1083.377	-226.51269
1083.728	23.05401
1084.08	54.13572
1084.432	21.05144
1084.783	-30.07057
1085.135	23.05811
1085.486	15.03518
1085.838	46.11353
1086.189	3.00738
1086.54	3.00717
1086.891	21.05392
1087.242	21.05131
1087.593	-16.03878
1087.944	47.10834
1088.295	-28.06406
1088.646	-37.0912
1088.996	35.08561
1089.347	-4.00991
1089.698	70.16824
1090.048	-2.00521
1090.398	5.0117
1090.749	4.0096
1091.099	8.02039
1091.449	-10.02502
1091.799	24.06088
1092.149	10.02517
1092.499	-37.09073
1092.849	-18.04628
1093.199	-33.08287
1093.548	7.01692
1093.898	12.03051
1094.248	-10.02571
1094.597	6.01562
1094.947	-26.07001
1095.296	22.05488
1095.645	-36.09435
1095.994	41.09965
1096.343	41.1031
1096.692	45.1196
1097.041	-1.00274
1097.39	-4.0101
1097.739	-11.02857
1098.088	20.05359
1098.437	-4.01064
1098.785	37.1002
1099.134	8.02129
1099.482	-12.03309
1099.83	9.02347
1100.179	6.01579
1100.527	26.06962
1100.875	-20.05354
1101.223	-5.01328
1101.571	30.0834
1101.919	-9.02397
1102.267	-3.00848
1102.615	-3.00966
1102.962	4.01286
1103.31	3.00966
1103.658	-1.00322
