Data from N2 R1 sample 6_Subt2__5__13-33-08-958.txt Node

Date: Wed Aug 27 13:33:08 PDT 2025
User: uwsun
Spectrometer: HDX01956
Trigger mode: 0
Integration Time (sec): 5.000000E-1
Scans to average: 1
Nonlinearity correction enabled: true
Boxcar width: 0
Storing dark spectrum: false
XAxis mode: Wavelengths
Number of Pixels in Spectrum: 2068
>>>>>Begin Spectral Data<<<<<
194.03	178.50599
194.578	188.6001
195.127	198.62269
195.676	183.57816
196.225	161.43116
196.773	220.60677
197.321	291.79301
197.87	441.09364
198.418	440.10363
198.966	463.16869
199.513	425.04276
200.061	412.02883
200.609	409.04536
201.156	384.83563
201.704	452.11586
202.251	418.07345
202.798	487.23111
203.345	458.09624
203.892	452.09868
204.438	496.14162
204.985	460.06116
205.532	447.13666
206.078	486.15541
206.624	499.19022
207.17	465.04734
207.716	492.1679
208.262	405.78624
208.808	426.03113
209.354	443.05726
209.899	452.09909
210.445	473.13586
210.99	448.05104
211.535	444.01564
212.08	462.04969
212.625	434.05131
213.17	376.92408
213.715	399.8854
214.259	421.9536
214.804	430.03341
215.348	442.98548
215.892	440.02097
216.436	404.9112
216.98	428.92622
217.524	401.92674
218.068	376.91725
218.612	446.08852
219.155	408.93786
219.698	410.94622
220.242	376.90767
220.785	372.85274
221.328	417.00836
221.871	340.83193
222.414	428.03287
222.956	338.8061
223.499	342.76383
224.041	454.03106
224.583	358.75422
225.126	391.85285
225.668	384.91997
226.21	406.99114
226.751	373.81256
227.293	401.89243
227.835	363.86587
228.376	426.96042
228.918	369.90805
229.459	382.93674
230	347.80484
230.541	424.95708
231.082	380.90693
231.622	437.99184
232.163	374.89261
232.704	432.04097
233.244	367.87842
233.784	349.83185
234.324	361.78676
234.864	386.85781
235.404	378.87031
235.944	361.83499
236.484	391.9387
237.023	440.00929
237.563	385.8735
238.102	370.84101
238.641	372.9129
239.18	403.92433
239.719	413.00615
240.258	395.86559
240.797	443.0322
241.335	383.91111
241.874	392.7492
242.412	408.95021
242.95	431.00734
243.488	405.91215
244.026	366.82686
244.564	392.78589
245.102	422.93545
245.64	421.98492
246.177	373.81704
246.715	392.90901
247.252	357.80078
247.789	418.74826
248.326	475.10777
248.863	379.81968
249.4	391.85574
249.936	439.8913
250.473	411.93474
251.009	438.98222
251.546	425.92621
252.082	410.86604
252.618	488.05275
253.154	425.9896
253.69	387.85949
254.226	392.89641
254.761	450.98089
255.297	386.8407
255.832	378.86788
256.367	456.04272
256.903	422.90661
257.438	419.9429
257.972	466.0125
258.507	457.02509
259.042	366.77141
259.576	464.97192
260.111	408.91496
260.645	416.86908
261.179	434.97485
261.713	412.89655
262.247	458.01618
262.781	368.75551
263.315	429.00736
263.849	480.14899
264.382	442.97407
264.915	476.08417
265.449	501.17673
265.982	436.95763
266.515	466.08908
267.048	421.85671
267.58	396.8361
268.113	432.9129
268.646	470.11474
269.178	483.0524
269.71	403.8436
270.243	472.03035
270.775	493.19783
271.307	429.98986
271.838	457.03013
272.37	420.99622
272.902	438.96566
273.433	437.92852
273.965	469.08989
274.496	432.02407
275.027	456.09062
275.558	464.08059
276.089	472.12465
276.62	443.07617
277.15	483.13572
277.681	470.98318
278.211	491.14738
278.741	460.98695
279.272	471.03575
279.802	502.19579
280.332	512.15832
280.861	439.01845
281.391	491.06806
281.921	462.05181
282.45	490.17118
282.98	544.33397
283.509	513.10417
284.038	483.05196
284.567	446.99152
285.096	513.17117
285.625	424.92423
286.153	496.11159
286.682	543.18937
287.21	480.1021
287.739	511.14878
288.267	481.11563
288.795	575.415
289.323	526.16732
289.851	456.01551
290.378	536.15549
290.906	567.30968
291.433	496.17244
291.961	550.19079
292.488	504.1762
293.015	522.16467
293.542	568.35682
294.069	543.27007
294.596	521.21331
295.122	527.19061
295.649	497.03757
296.175	578.32004
296.702	553.25654
297.228	573.29731
297.754	572.20525
298.28	543.17286
298.806	504.13788
299.332	552.17018
299.857	565.197
300.383	515.22
300.908	569.31795
301.433	575.30342
301.958	592.29548
302.483	586.37958
303.008	524.2004
303.533	626.51538
304.058	535.17576
304.582	619.37884
305.107	543.33569
305.631	603.27373
306.155	615.34333
306.679	574.26714
307.203	590.28132
307.727	669.47495
308.251	531.21914
308.775	569.26891
309.298	619.39135
309.822	605.41303
310.345	638.38805
310.868	647.41986
311.391	630.41407
311.914	633.48079
312.437	630.31078
312.96	690.48223
313.482	676.46707
314.005	695.60815
314.527	684.63474
315.049	714.62895
315.571	673.37769
316.093	696.56234
316.615	690.50701
317.137	674.33585
317.659	690.49875
318.18	660.44568
318.702	734.56128
319.223	693.29649
319.744	721.47208
320.265	702.54486
320.786	770.71724
321.307	755.69451
321.828	768.53804
322.348	744.55514
322.869	843.76886
323.389	946.35296
323.909	786.61184
324.43	781.64947
324.95	787.60627
325.47	818.78526
325.989	830.71441
326.509	832.63414
327.029	845.67958
327.548	819.62104
328.067	871.8477
328.587	899.90134
329.106	950.8811
329.625	973.15705
330.144	866.71937
330.662	927.85216
331.181	912.81502
331.7	959.88878
332.218	994.80103
332.736	988.91823
333.255	990.94946
333.773	948.88587
334.291	1022.09467
334.808	988.83097
335.326	1056.95725
335.844	1064.04987
336.361	1058.22103
336.879	1145.18372
337.396	1110.17234
337.913	1168.19717
338.43	1131.03566
338.947	1062.08309
339.464	1165.00983
339.981	1150.18958
340.497	1163.29283
341.014	1171.29251
341.53	1127.03772
342.046	1208.33131
342.562	1184.32073
343.078	1211.24002
343.594	1301.39991
344.11	1219.24929
344.626	1244.44085
345.141	1257.17847
345.657	1272.14499
346.172	1341.46415
346.687	1346.33287
347.202	1377.32871
347.717	1394.46341
348.232	1393.63255
348.747	1392.38139
349.261	1414.26061
349.776	1438.4984
350.29	1416.62507
350.805	1471.69052
351.319	1452.45831
351.833	1489.46007
352.347	1485.52462
352.861	1516.55502
353.374	1512.44992
353.888	1504.54691
354.401	1571.55835
354.915	1583.55241
355.428	1527.72392
355.941	1587.57034
356.454	1550.37703
356.967	1553.5596
357.48	1601.50409
357.993	1612.75003
358.505	1668.81613
359.018	1701.84851
359.53	1637.65499
360.042	1651.4535
360.554	1672.69802
361.066	1699.82525
361.578	1732.44609
362.09	1725.73724
362.602	1715.43454
363.113	1775.66874
363.625	1796.55385
364.136	1889.55541
364.647	1778.66621
365.158	1940.79664
365.669	1881.87558
366.18	1868.75692
366.691	1835.50647
367.201	1871.7937
367.712	1919.71605
368.222	1880.62268
368.733	1943.48695
369.243	2011.60244
369.753	2066.72113
370.263	2072.95818
370.773	2082.10929
371.282	2069.86075
371.792	2257.82118
372.301	2267.05145
372.811	2275.34309
373.32	2349.5505
373.829	2362.84667
374.338	2444.63454
374.847	2408.74316
375.356	2548.85264
375.865	2648.37783
376.373	2778.58367
376.882	2857.12195
377.39	2893.85932
377.898	2988.9928
378.407	3121.50663
378.915	3194.09466
379.423	3382.44473
379.93	3566.11691
380.438	3627.4581
380.946	3839.05212
381.453	4069.10016
381.96	4292.75077
382.468	4645.44804
382.975	4752.50103
383.482	4909.07397
383.989	4923.69582
384.495	5257.88334
385.002	5469.25554
385.509	5870.49829
386.015	6238.89896
386.521	6494.17096
387.028	6689.21438
387.534	6795.11873
388.04	7062.45846
388.546	7408.6796
389.051	8129.8127
389.557	8663.94174
390.063	8757.37944
390.568	9100.09744
391.073	9538.07463
391.578	10000.78472
392.084	10288.70598
392.589	11005.65454
393.093	12021.02884
393.598	12805.16049
394.103	13759.98726
394.607	15173.7878
395.112	16184.19539
395.616	17018.37315
396.12	18544.56793
396.624	20477.9875
397.128	22257.80681
397.632	24222.78507
398.136	26340.64565
398.639	29154.17871
399.143	33165.07993
399.646	36393.47768
400.15	40270.22352
400.653	45639.08264
401.156	52021.86194
401.659	55153.83779
402.162	53701.59704
402.664	47275.14456
403.167	32260.27245
403.67	3851.94142
404.172	0
404.674	0
405.176	0
405.678	0
406.18	0
406.682	0
407.184	0
407.686	12367.42319
408.187	34596.90747
408.688	44563.94194
409.19	48906.19284
409.691	51236.67962
410.192	52883.26968
410.693	53713.23343
411.194	54189.54801
411.694	54767.79104
412.195	55625.98899
412.696	55971.27715
413.196	55801.82591
413.696	55640.17499
414.196	55702.14927
414.696	55726.25304
415.196	51818.61334
415.696	42530.23702
416.196	33127.7905
416.695	28291.52035
417.195	26379.56713
417.694	24966.44352
418.194	23351.13997
418.693	22126.06612
419.192	21705.36224
419.691	21171.63778
420.19	20430.20902
420.688	19985.40151
421.187	18695.95445
421.685	17156.31576
422.184	15314.07086
422.682	13107.08738
423.18	11676.79117
423.678	10627.56439
424.176	9870.6418
424.674	9354.42622
425.172	8779.2882
425.669	8124.72274
426.167	7408.69729
426.664	6729.16565
427.161	6338.17046
427.659	5958.51862
428.156	5493.05154
428.652	5250.23724
429.149	5056.0784
429.646	4784.85441
430.143	4536.44866
430.639	4227.61351
431.135	4054.11066
431.632	3900.84157
432.128	3533.1262
432.624	3478.68314
433.12	3449.03103
433.616	3315.95559
434.111	3347.47853
434.607	3097.55925
435.103	2958.03216
435.598	2800.92708
436.093	2667.53072
436.588	2559.34395
437.083	2438.4819
437.578	2265.37399
438.073	2258.90832
438.568	2175.75779
439.062	2112.23612
439.557	1955.51284
440.051	1939.44828
440.546	1936.48026
441.04	1857.60545
441.534	1799.72612
442.028	1778.5153
442.522	1747.53315
443.015	1717.2598
443.509	1730.63481
444.002	1693.58455
444.496	1621.15804
444.989	1628.51835
445.482	1631.58804
445.975	1592.29475
446.468	1586.17676
446.961	1453.97262
447.454	1535.28183
447.947	1450.27426
448.439	1484.39216
448.931	1417.08817
449.424	1386.395
449.916	1448.35196
450.408	1308.01101
450.9	1296.16333
451.392	1320.33087
451.884	1313.07727
452.375	1259.21408
452.867	1218.90226
453.358	1247.99007
453.849	1207.8149
454.341	1133.81747
454.832	1247.87436
455.323	1148.0669
455.814	1160.91731
456.304	1172.94789
456.795	1187.97887
457.285	1147.83276
457.776	1116.82703
458.266	1102.96389
458.756	1042.91785
459.247	1077.94043
459.737	1110.01654
460.226	1045.78031
460.716	1024.86961
461.206	1038.90952
461.695	962.89603
462.185	967.78709
462.674	995.76132
463.163	992.70559
463.653	923.52297
464.142	884.70464
464.63	913.75854
465.119	870.61189
465.608	902.67129
466.096	852.51111
466.585	846.58603
467.073	849.64291
467.561	908.74597
468.05	781.49745
468.538	839.68002
469.026	745.47369
469.513	781.34871
470.001	848.62651
470.489	811.62613
470.976	644.25607
471.463	696.4714
471.951	680.43314
472.438	689.38313
472.925	665.36067
473.412	630.32939
473.899	659.29908
474.385	646.3757
474.872	643.2954
475.359	660.4092
475.845	585.07843
476.331	588.1282
476.817	519.11998
477.303	521.08151
477.789	589.24955
478.275	562.23751
478.761	563.21405
479.247	482.96811
479.732	523.17388
480.218	476.10988
480.703	503.1206
481.188	472.90911
481.673	457.95494
482.158	494.97894
482.643	449.04087
483.128	519.08262
483.612	465.99187
484.097	459.02536
484.581	419.88563
485.066	422.95101
485.55	436.88299
486.034	409.82736
486.518	362.78509
487.002	410.94772
487.486	383.87601
487.969	343.78643
488.453	369.86127
488.936	342.72906
489.42	408.84443
489.903	317.74516
490.386	351.5521
490.869	296.61182
491.352	316.718
491.835	313.61546
492.318	343.73992
492.8	357.71423
493.283	277.66785
493.765	279.65713
494.247	309.68372
494.73	256.54077
495.212	266.60416
495.694	253.57126
496.175	256.58593
496.657	262.59266
497.139	264.44894
497.62	220.51001
498.102	284.68123
498.583	227.55042
499.064	221.47349
499.545	207.46015
500.026	243.52961
500.507	188.42771
500.988	243.58035
501.469	248.59874
501.949	195.46216
502.43	209.48614
502.91	229.46601
503.39	204.49196
503.87	236.53798
504.35	179.40896
504.83	223.47777
505.31	196.46067
505.79	168.39594
506.269	203.45912
506.749	147.33111
507.228	188.43134
507.707	140.30494
508.187	185.42743
508.666	136.32476
509.145	154.3539
509.623	146.34061
510.102	164.38802
510.581	124.29031
511.059	164.40416
511.538	177.44045
512.016	195.45877
512.494	176.42172
512.972	120.27908
513.45	167.38278
513.928	131.31479
514.406	172.41229
514.884	137.34525
515.361	114.26628
515.839	142.32057
516.316	119.284
516.793	139.34501
517.27	149.35219
517.747	165.41625
518.224	99.22601
518.701	149.32805
519.178	104.25432
519.654	114.26638
520.131	142.34375
520.607	95.23123
521.083	118.26802
521.56	82.19153
522.036	123.26774
522.512	106.25477
522.987	86.20371
523.463	117.27559
523.939	64.15435
524.414	131.29906
524.89	150.35256
525.365	89.199
525.84	100.23642
526.315	109.26034
526.79	64.14336
527.265	156.35275
527.74	83.19938
528.215	185.4349
528.689	58.12885
529.164	134.29026
529.638	85.21589
530.112	118.27583
530.587	112.2424
531.061	118.28296
531.534	166.39578
532.008	106.25428
532.482	78.17667
532.956	83.20857
533.429	70.16735
533.903	94.20527
534.376	101.22517
534.849	45.10352
535.322	118.27562
535.795	65.15685
536.268	105.25078
536.741	55.13061
537.213	71.16307
537.686	90.21672
538.158	124.27788
538.631	70.16645
539.103	91.20582
539.575	72.14976
540.047	71.15764
540.519	91.21335
540.991	85.2034
541.463	90.21492
541.934	94.21169
542.406	84.19682
542.877	92.20371
543.348	55.12829
543.82	102.24469
544.291	87.19829
544.762	154.35815
545.233	96.23572
545.703	80.17669
546.174	178.40332
546.645	108.25612
547.115	183.4307
547.585	129.28783
548.056	137.32182
548.526	189.43181
548.996	201.46366
549.466	167.39228
549.935	183.42281
550.405	217.4605
550.875	215.48962
551.344	207.47579
551.814	284.62146
552.283	259.5333
552.752	232.51261
553.221	193.40832
553.69	259.5429
554.159	290.67625
554.628	305.65147
555.096	317.75241
555.565	335.71554
556.033	256.57272
556.502	298.6856
556.97	190.40364
557.438	337.7438
557.906	307.68638
558.374	286.62451
558.842	312.70546
559.31	300.63982
559.777	324.74005
560.245	314.68449
560.712	313.67956
561.18	386.79854
561.647	325.68004
562.114	422.90661
562.581	322.73489
563.048	433.92002
563.514	437.98863
563.981	468.98073
564.448	437.89615
564.914	419.88718
565.381	477.97861
565.847	533.1104
566.313	504.07059
566.779	553.12812
567.245	552.13807
567.711	610.2967
568.176	583.15064
568.642	594.31353
569.108	595.29137
569.573	686.38185
570.038	696.25434
570.504	723.3934
570.969	676.43967
571.434	699.30193
571.899	782.57261
572.363	791.49769
572.828	773.45785
573.293	827.59113
573.757	808.5385
574.222	775.46448
574.686	817.53119
575.15	898.75898
575.614	855.62223
576.078	839.61425
576.542	847.57348
577.006	872.59474
577.469	835.65891
577.933	825.53634
578.396	800.57563
578.86	836.62196
579.323	859.7011
579.786	815.43823
580.249	718.38607
580.712	702.44653
581.175	755.57363
581.637	715.37598
582.1	633.16652
582.563	700.26414
583.025	693.43468
583.487	692.20005
583.95	625.17135
584.412	673.18711
584.874	625.31911
585.336	566.17953
585.797	594.11231
586.259	566.16489
586.721	573.18382
587.182	543.10267
587.643	525.03596
588.105	467.97021
588.566	459.84775
589.027	490.04577
589.488	412.83973
589.949	455.98317
590.41	441.78029
590.87	413.82627
591.331	399.77644
591.791	348.73509
592.252	373.76941
592.712	302.65665
593.172	347.71224
593.632	314.61583
594.092	354.71266
594.552	274.53636
595.011	335.70468
595.471	329.67163
595.931	294.59923
596.39	330.72911
596.849	314.66909
597.308	234.46066
597.768	311.73305
598.227	284.62382
598.685	305.63508
599.144	292.63329
599.603	330.71234
600.062	310.60827
600.52	310.63673
600.978	335.72701
601.437	363.74912
601.895	283.54571
602.353	330.65853
602.811	349.71052
603.269	336.72467
603.727	344.74924
604.184	380.77874
604.642	269.60168
605.099	406.85646
605.557	379.83018
606.014	372.72476
606.471	380.86023
606.928	405.78061
607.385	476.03032
607.842	484.98826
608.299	465.96089
608.755	406.87036
609.212	481.95384
609.668	436.86319
610.125	502.04965
610.581	431.88944
611.037	446.89167
611.493	456.94757
611.949	433.92403
612.405	478.86982
612.861	420.87082
613.316	487.03643
613.772	427.86298
614.227	426.88247
614.683	457.86392
615.138	444.93045
615.593	473.98617
616.048	513.03263
616.503	462.98441
616.958	436.96608
617.412	461.96969
617.867	472.94146
618.321	527.96997
618.776	521.0035
619.23	402.84654
619.684	539.07261
620.138	443.89573
620.592	447.95969
621.046	447.92204
621.5	440.96032
621.954	400.80823
622.407	443.8789
622.861	443.96993
623.314	399.81675
623.768	429.89802
624.221	386.69061
624.674	421.86958
625.127	345.73274
625.58	369.74953
626.033	334.66465
626.485	346.76701
626.938	345.74488
627.39	355.75957
627.843	319.67457
628.295	239.51404
628.747	308.67909
629.199	347.72317
629.651	348.73638
630.103	313.66739
630.555	310.62178
631.006	296.6447
631.458	323.7132
631.909	254.54266
632.361	234.51919
632.812	282.61421
633.263	221.45137
633.714	274.56075
634.165	237.53644
634.616	211.47488
635.067	178.37287
635.518	213.48134
635.968	218.41724
636.419	186.38687
636.869	190.42455
637.319	279.62481
637.769	142.30719
638.219	195.44534
638.669	148.33998
639.119	161.37154
639.569	160.37283
640.019	118.2628
640.468	97.21285
640.918	131.30123
641.367	164.35873
641.816	95.20512
642.265	123.27399
642.714	109.24502
643.163	68.15326
643.612	111.26217
644.061	83.17321
644.51	89.20006
644.958	170.36603
645.406	112.26171
645.855	153.36724
646.303	143.32527
646.751	93.20923
647.199	121.26686
647.647	146.32583
648.095	116.26081
648.543	219.43895
648.99	178.41363
649.438	100.22649
649.885	95.22751
650.333	145.27933
650.78	113.26844
651.227	166.39366
651.674	104.23584
652.121	104.24968
652.568	136.32488
653.015	162.39806
653.461	73.17155
653.908	126.28608
654.354	160.37283
654.801	143.33539
655.247	103.22116
655.693	65.16603
656.139	118.28275
656.585	130.30841
657.031	89.20988
657.477	107.23301
657.922	76.17633
658.368	136.3322
658.813	88.20337
659.259	120.2848
659.704	99.2301
660.149	93.2171
660.594	147.34436
661.039	72.16381
661.484	121.28457
661.929	86.19945
662.373	134.33557
662.818	105.25805
663.262	117.27976
663.707	81.2034
664.151	82.19768
664.595	138.33344
665.039	76.18771
665.483	105.26801
665.927	93.21599
666.371	81.19183
666.814	105.2503
667.258	75.1792
667.701	93.20149
668.145	108.26675
668.588	75.18453
669.031	108.25622
669.474	60.14536
669.917	89.19702
670.36	72.17894
670.803	100.24135
671.245	142.3047
671.688	59.14339
672.13	53.12299
672.573	76.19197
673.015	85.20449
673.457	113.25015
673.899	86.20835
674.341	67.16229
674.783	49.11945
675.225	77.19147
675.666	108.26263
676.108	8.01765
676.549	73.17309
676.991	69.15574
677.432	131.27424
677.873	31.07325
678.314	82.19701
678.755	29.07227
679.196	92.21641
679.637	129.31457
680.078	55.13096
680.518	54.12712
680.959	9.02173
681.399	50.12513
681.839	79.19394
682.28	102.25415
682.72	68.1602
683.16	56.14151
683.6	26.06032
684.039	3.00646
684.479	79.19559
684.919	103.24431
685.358	26.06642
685.798	105.27814
686.237	50.12236
686.676	59.13654
687.115	39.09347
687.554	63.1526
687.993	54.12226
688.432	37.08664
688.871	49.11434
689.309	63.15357
689.748	65.14011
690.186	115.27603
690.625	68.16313
691.063	60.14738
691.501	67.1683
691.939	84.21339
692.377	65.1621
692.815	48.11751
693.253	38.09251
693.69	68.15326
694.128	66.16391
694.565	67.16216
695.003	40.10266
695.44	54.13068
695.877	40.09629
696.314	55.1215
696.751	37.08559
697.188	9.02115
697.625	70.16119
698.061	60.14765
698.498	51.12543
698.934	75.18282
699.371	46.11094
699.807	53.12804
700.243	27.06604
700.679	30.06969
701.115	16.03797
701.551	19.04559
701.987	54.12445
702.422	54.13127
702.858	49.11958
703.294	14.03215
703.729	63.15558
704.164	44.1072
704.599	33.07531
705.035	33.0761
705.47	21.05184
705.904	66.15809
706.339	73.17155
706.774	82.19604
707.209	47.112
707.643	83.20134
708.078	22.05442
708.512	-7.01799
708.946	26.0632
709.38	88.21159
709.814	88.2066
710.248	101.24914
710.682	43.10498
711.116	62.1533
711.549	61.16023
711.983	10.02391
712.416	75.17968
712.85	45.1143
713.283	72.17193
713.716	75.18765
714.149	66.15827
714.582	84.19319
715.015	67.16824
715.448	59.15049
715.881	12.02649
716.313	-3.00712
716.746	48.11563
717.178	21.05184
717.61	35.08956
718.043	59.14826
718.475	26.06396
718.907	11.02796
719.339	62.1451
719.77	39.09461
720.202	41.10535
720.634	79.19566
721.065	113.27175
721.497	83.20632
721.928	11.0278
722.359	25.06253
722.79	58.14241
723.221	53.13414
723.652	65.16737
724.083	68.15802
724.514	43.1003
724.945	43.10329
725.375	74.17739
725.806	16.04001
726.236	38.09756
726.666	74.17894
727.096	76.19019
727.526	41.10605
727.956	55.1294
728.386	85.21229
728.816	84.21859
729.246	41.10169
729.675	14.03514
730.105	54.13523
730.534	38.09109
730.964	61.1551
731.393	67.16612
731.822	42.10734
732.251	72.18517
732.68	66.15598
733.109	72.18181
733.537	40.09883
733.966	56.14075
734.395	42.0993
734.823	46.10601
735.251	48.11773
735.68	69.17364
736.108	96.24508
736.536	67.16235
736.964	40.09508
737.392	74.18692
737.82	-7.01696
738.247	109.26431
738.675	42.10053
739.102	84.21445
739.53	27.06974
739.957	38.09861
740.384	58.14341
740.811	58.14807
741.238	2.00497
741.665	24.05707
742.092	54.13068
742.519	69.17463
742.945	28.06857
743.372	56.14085
743.798	31.08099
744.225	85.20604
744.651	21.05364
745.077	6.01527
745.503	63.15683
745.929	42.1029
746.355	39.09542
746.781	10.02531
747.207	30.07216
747.632	57.1421
748.058	30.0754
748.483	108.25315
748.908	76.1906
749.334	44.11059
749.759	57.13822
750.184	39.09475
750.609	31.07678
751.033	35.08254
751.458	50.11357
751.883	14.03485
752.307	39.09475
752.732	80.20496
753.156	79.19816
753.58	34.08191
754.005	44.11241
754.429	25.06035
754.853	53.13433
755.277	-20.04834
755.7	24.06041
756.124	33.0834
756.548	47.11453
756.971	76.18778
757.394	65.16842
757.818	8.02099
758.241	36.09278
758.664	101.25907
759.087	38.08775
759.51	28.07048
759.933	-1.00245
760.356	30.07726
760.778	95.23958
761.201	104.2546
761.623	87.21263
762.046	61.14475
762.468	36.08744
762.89	39.09617
763.312	48.11777
763.734	6.01481
764.156	46.11561
764.578	52.12094
765	84.20816
765.421	59.15487
765.843	67.17641
766.264	7.01704
766.686	16.04055
767.107	25.06224
767.528	36.09313
767.949	20.0512
768.37	60.15004
768.791	21.05178
769.212	41.10594
769.632	20.04805
770.053	25.06676
770.473	23.05701
770.894	0
771.314	-3.00724
771.734	45.10756
772.154	29.0755
772.575	21.04945
772.994	6.01405
773.414	50.12118
773.834	-44.1115
774.254	18.04534
774.673	38.09348
775.093	-1.00251
775.512	48.1212
775.931	32.08259
776.351	14.03541
776.77	13.03286
777.189	51.12339
777.607	-29.07514
778.026	20.05034
778.445	-50.1281
778.864	24.06168
779.282	66.16176
779.701	24.06138
780.119	13.03352
780.537	9.02303
780.955	28.07191
781.373	-10.02515
781.791	8.01842
782.209	-2.00465
782.627	0
783.045	17.04004
783.462	-4.01034
783.88	24.06324
784.297	13.0335
784.715	28.07314
785.132	10.02462
785.549	0
785.966	0
786.383	10.02504
786.8	1.00234
787.217	-34.0828
787.633	22.05642
788.05	-16.03812
788.466	87.20572
788.883	-15.03895
789.299	-44.10872
789.715	44.10923
790.131	18.04565
790.547	19.04756
790.963	35.08811
791.379	8.02046
791.795	-47.10954
792.21	17.04073
792.626	-2.00481
793.041	19.04771
793.457	18.04496
793.872	-10.02392
794.287	35.08665
794.702	18.04459
795.117	47.11938
795.532	4.01021
795.947	-5.01222
796.362	16.03818
796.776	8.01872
797.191	41.10247
797.605	-14.03413
798.02	11.02743
798.434	43.09674
798.848	2.00504
799.262	30.076
799.676	37.0904
800.09	-24.05956
800.504	22.05432
800.918	14.03325
801.331	15.03929
801.745	-31.07234
802.158	45.11381
802.572	-21.05121
802.985	36.0879
803.398	17.04127
803.811	2.00514
804.224	-5.01257
804.637	-14.03413
805.05	12.02845
805.462	45.11255
805.875	-11.02925
806.288	-16.03923
806.7	25.06354
807.112	-8.01898
807.525	-10.02499
807.937	12.03021
808.349	-3.00755
808.761	-21.05209
809.173	18.04431
809.584	-18.04454
809.996	31.07751
810.408	19.04991
810.819	89.21289
811.231	105.27599
811.642	104.25574
812.053	67.16332
812.464	58.1402
812.875	0
813.286	5.01296
813.697	3.00693
814.108	-13.03204
814.519	-12.0271
814.929	-8.0204
815.34	-9.02214
815.75	56.14292
816.16	-20.05052
816.571	13.03425
816.981	8.01888
817.391	37.0905
817.801	-29.07355
818.211	-9.02168
818.62	48.11751
819.03	24.05958
819.44	31.0809
819.849	-3.0077
820.259	-21.05402
820.668	-23.05786
821.077	13.03303
821.486	47.11466
821.895	-17.04226
822.304	-12.03207
822.713	11.02637
823.122	-4.01007
823.531	0
823.939	8.01979
824.348	31.07593
824.756	0
825.164	-2.00505
825.573	24.06099
825.981	2.00495
826.389	1.00255
826.797	65.16498
827.205	29.06828
827.612	-24.05991
828.02	14.03371
828.428	-33.08518
828.835	-13.03454
829.243	22.05276
829.65	-44.11178
830.057	0
830.464	-34.08422
830.871	19.04547
831.278	3.00734
831.685	-26.05963
832.092	12.02981
832.499	-46.10398
832.905	23.05846
833.312	28.06453
833.718	18.04493
834.124	-4.00923
834.531	31.07849
834.937	7.01808
835.343	3.00735
835.749	-19.04498
836.155	-4.01063
836.561	-62.1551
836.966	32.07837
837.372	41.10524
837.777	-20.05061
838.183	25.05657
838.588	12.03024
838.993	-58.14273
839.399	48.11973
839.804	-17.04247
840.209	19.04901
840.613	20.04528
841.018	16.04088
841.423	37.09517
841.828	-4.01021
842.232	35.08634
842.637	6.01436
843.041	11.02855
843.445	40.10108
843.849	-7.01762
844.253	18.04303
844.657	-8.02055
845.061	-29.06701
845.465	43.1058
845.869	18.04242
846.272	-15.03748
846.676	-58.14035
847.079	31.07994
847.483	19.04733
847.886	26.06342
848.289	-11.02976
848.692	17.0431
849.095	33.0799
849.498	22.05529
849.901	23.05333
850.304	-39.09432
850.707	35.08918
851.109	-27.06846
851.512	32.08002
851.914	28.07271
852.316	9.02301
852.718	33.08785
853.121	27.06734
853.523	88.21078
853.925	-1.00265
854.326	34.08619
854.728	-6.01565
855.13	-43.11299
855.531	31.07582
855.933	33.07987
856.334	-52.13243
856.736	56.12931
857.137	-11.02624
857.538	37.09461
857.939	7.01774
858.34	28.06873
858.741	7.01846
859.142	21.05067
859.542	-19.05078
859.943	37.09355
860.343	8.02032
860.744	-12.02961
861.144	10.02464
861.544	17.04212
861.945	13.03357
862.345	0
862.745	-2.00501
863.145	8.01912
863.544	1.00256
863.944	42.10102
864.344	-24.06002
864.743	17.04215
865.143	-5.01308
865.542	20.04734
865.941	3.00748
866.34	-15.03616
866.74	19.05114
867.139	-23.05613
867.537	24.06153
867.936	9.02192
868.335	-9.02309
868.734	-12.03114
869.132	19.04465
869.531	-14.03367
869.929	6.01412
870.327	24.05873
870.726	9.02242
871.124	9.02108
871.522	-16.04106
871.92	34.08459
872.318	-16.0394
872.715	24.05889
873.113	33.08113
873.511	-20.04962
873.908	-47.12111
874.306	26.06565
874.703	13.03269
875.1	4.01021
875.497	17.04119
875.894	-27.06821
876.291	-31.07633
876.688	0
877.085	16.0386
877.482	-9.02285
877.878	20.04902
878.275	3.00768
878.671	1.00221
879.068	-5.01221
879.464	30.07353
879.86	6.01451
880.256	7.01736
880.652	4.01037
881.048	16.03984
881.444	-16.03834
881.84	1.00258
882.236	-31.07893
882.631	25.06156
883.027	-18.04371
883.422	21.05447
883.817	28.07194
884.213	-10.02606
884.608	9.02269
885.003	4.0099
885.398	-34.08702
885.793	11.02796
886.188	25.06336
886.582	38.09749
886.977	52.12436
887.371	-49.12424
887.766	32.08043
888.16	25.06294
888.554	-11.02705
888.949	-11.02776
889.343	0
889.737	-5.01355
890.131	39.0985
890.525	30.07769
890.918	-7.0179
891.312	-14.03378
891.706	-2.00527
892.099	-29.07454
892.492	-46.10122
892.886	27.06748
893.279	47.12128
893.672	16.04122
894.065	3.00757
894.458	3.00756
894.851	-31.0761
895.244	9.02334
895.637	-3.0073
896.029	52.12862
896.422	51.12483
896.814	12.03044
897.206	-2.00486
897.599	-7.01734
897.991	-19.04695
898.383	-39.09354
898.775	20.04572
899.167	-8.01921
899.559	-17.04316
899.951	32.07639
900.342	23.05894
900.734	-7.01783
901.125	44.11653
901.517	3.00741
901.908	38.09071
902.299	49.12225
902.69	23.05491
903.082	-42.1021
903.473	21.05134
903.863	-21.05389
904.254	-25.05891
904.645	-12.02976
905.036	-24.05956
905.426	10.02316
905.817	-14.03502
906.207	-1.00244
906.597	29.06868
906.987	-43.11153
907.378	-43.11026
907.768	-30.08052
908.158	53.12949
908.547	3.00793
908.937	-14.03591
909.327	1.00245
909.717	-6.01523
910.106	29.07106
910.495	9.0225
910.885	33.08414
911.274	26.06556
911.663	-8.02037
912.052	10.02467
912.441	3.00776
912.83	46.10732
913.219	1.00262
913.608	-3.00732
913.997	0
914.385	26.06292
914.774	-11.02714
915.162	36.08725
915.55	-25.06087
915.939	-41.10557
916.327	-16.03979
916.715	38.09872
917.103	15.03706
917.491	21.05226
917.878	7.0175
918.266	-24.06263
918.654	-4.01031
919.041	-16.04222
919.429	-27.06446
919.816	8.02045
920.203	-13.032
920.591	0
920.978	12.02956
921.365	-5.01324
921.752	-33.0799
922.139	-38.08418
922.525	45.11109
922.912	-18.04434
923.299	50.12634
923.685	-43.11341
924.072	0
924.458	16.04004
924.844	11.02781
925.231	16.03786
925.617	37.096
926.003	15.03849
926.389	-29.07395
926.774	34.08653
927.16	56.13923
927.546	-17.04408
927.931	62.15555
928.317	19.04423
928.702	3.00712
929.088	66.15911
929.473	-5.01288
929.858	-6.01499
930.243	-30.0735
930.628	44.10876
931.013	0
931.398	11.02513
931.783	5.01307
932.167	-23.05667
932.552	-42.10567
932.937	8.01994
933.321	41.1041
933.705	10.02538
934.09	-42.10552
934.474	32.07662
934.858	-53.13856
935.242	-16.03765
935.626	18.04653
936.009	24.06431
936.393	-23.05887
936.777	-42.10832
937.16	26.06819
937.544	-25.05918
937.927	-7.01793
938.311	14.0343
938.694	-16.04228
939.077	22.05354
939.46	-14.03441
939.843	50.10446
940.226	14.03634
940.609	54.12628
940.991	16.04126
941.374	-12.0297
941.757	4.01002
942.139	-3.00683
942.522	-26.06185
942.904	8.01931
943.286	0
943.668	51.13283
944.05	14.03504
944.432	4.01009
944.814	53.13208
945.196	-11.02769
945.578	14.03429
945.959	36.08504
946.341	-21.05146
946.722	37.08654
947.104	9.02159
947.485	72.16976
947.866	-7.01798
948.247	17.04335
948.628	14.03441
949.009	19.04918
949.39	-11.02751
949.771	20.04697
950.152	14.03479
950.532	-32.08103
950.913	40.09811
951.293	7.01918
951.674	-21.05153
952.054	-18.04522
952.434	-18.04509
952.814	-37.0879
953.194	-65.17068
953.574	-23.05688
953.954	-17.04119
954.334	32.08002
954.714	-16.03978
955.093	13.03169
955.473	-33.08394
955.853	-6.01555
956.232	-14.03831
956.611	-30.07238
956.99	-49.12375
957.37	31.07902
957.749	-6.01448
958.128	-55.14059
958.506	9.02359
958.885	44.11122
959.264	-9.02262
959.643	27.06258
960.021	16.03977
960.4	-40.09259
960.778	-16.03939
961.156	11.02796
961.535	-6.01416
961.913	53.1245
962.291	-32.0841
962.669	-56.14231
963.047	15.0386
963.424	-11.02835
963.802	-10.02484
964.18	17.04296
964.557	63.14591
964.935	-16.03816
965.312	9.02378
965.69	34.08536
966.067	6.01474
966.444	-4.00992
966.821	7.01799
967.198	19.04576
967.575	11.02699
967.952	-30.07076
968.329	1.00246
968.705	91.19708
969.082	32.08327
969.458	-37.09083
969.835	-40.09789
970.211	14.03631
970.587	-9.02259
970.963	14.03604
971.339	-27.07145
971.715	11.02768
972.091	0
972.467	-9.02261
972.843	-3.00761
973.219	-23.05546
973.594	23.06066
973.97	17.04073
974.345	-3.00731
974.721	28.06799
975.096	15.0368
975.471	-65.15442
975.846	37.08972
976.221	46.11851
976.596	5.0122
976.971	9.02215
977.346	5.01172
977.72	-47.12031
978.095	-56.14608
978.469	1.0024
978.844	-45.11381
979.218	72.17476
979.593	-23.05519
979.967	4.0099
980.341	2.0047
980.715	-23.05838
981.089	17.04304
981.463	36.08359
981.837	-10.0249
982.21	-60.13904
982.584	-20.04933
982.957	-21.05332
983.331	-8.01911
983.704	24.05976
984.078	12.02973
984.451	-17.04197
984.824	24.05976
985.197	-15.03691
985.57	7.01766
985.943	-34.08416
986.316	19.04675
986.688	12.0291
987.061	6.01429
987.434	-16.04189
987.806	-17.04139
988.179	50.12008
988.551	6.01535
988.923	-40.09905
989.295	32.08034
989.667	12.02958
990.039	18.04501
990.411	17.03956
990.783	-59.13692
991.155	22.05422
991.527	-20.04884
991.898	-36.09103
992.27	15.03772
992.641	-5.01262
993.012	23.05453
993.384	-6.01455
993.755	10.02571
994.126	-15.03651
994.497	-4.01004
994.868	-30.06999
995.239	-6.01473
995.61	27.06885
995.98	-27.06721
996.351	13.0328
996.722	44.1035
997.092	-8.01921
997.462	10.02408
997.833	-15.03566
998.203	-4.00976
998.573	-15.03777
998.943	10.02388
999.313	-70.17022
999.683	-16.03891
1000.053	1.00232
1000.423	-13.03177
1000.792	40.10477
1001.162	8.01989
1001.531	20.04967
1001.901	12.03003
1002.27	39.08835
1002.639	-2.00516
1003.009	23.05527
1003.378	14.03583
1003.747	34.08094
1004.116	-4.00974
1004.485	0
1004.853	1.00254
1005.222	8.02038
1005.591	29.06926
1005.959	30.07016
1006.328	16.03674
1006.696	-23.05611
1007.064	32.08126
1007.433	-11.02751
1007.801	4.00976
1008.169	37.09431
1008.537	-46.10317
1008.905	23.05439
1009.273	47.11624
1009.64	19.04618
1010.008	25.06014
1010.375	-62.14913
1010.743	24.05573
1011.11	44.10515
1011.478	-8.01986
1011.845	35.08241
1012.212	6.01391
1012.579	-4.00991
1012.946	23.05519
1013.313	0
1013.68	-6.0136
1014.047	24.05869
1014.414	14.03353
1014.78	-8.02003
1015.147	-5.01212
1015.513	-2.00488
1015.88	21.05362
1016.246	-6.01491
1016.612	11.02548
1016.978	23.05696
1017.344	-10.02496
1017.71	-24.05812
1018.076	-25.05953
1018.442	18.04633
1018.808	27.06799
1019.174	7.0178
1019.539	31.07063
1019.905	-35.08388
1020.27	1.0025
1020.636	-23.05558
1021.001	44.10644
1021.366	-45.10949
1021.731	13.03359
1022.096	-46.11744
1022.461	-38.09036
1022.826	19.04581
1023.191	-5.0132
1023.556	-33.07885
1023.92	-16.03948
1024.285	12.02933
1024.649	-25.06174
1025.014	-35.08735
1025.378	-1.00255
1025.742	-7.01759
1026.107	10.02282
1026.471	-4.00935
1026.835	-35.08735
1027.199	-8.01965
1027.562	36.08478
1027.926	-15.03682
1028.29	51.13073
1028.654	-10.02347
1029.017	-3.00739
1029.381	49.11967
1029.744	5.01293
1030.107	16.03762
1030.471	-8.01934
1030.834	-1.0023
1031.197	-21.05062
1031.56	-41.09804
1031.923	11.02856
1032.286	-1.00234
1032.648	35.08433
1033.011	46.10778
1033.374	-15.03533
1033.736	22.0586
1034.099	26.06429
1034.461	6.01552
1034.823	-20.05059
1035.185	27.06843
1035.548	27.06623
1035.91	73.17575
1036.272	24.05531
1036.634	14.0341
1036.995	-30.07109
1037.357	-28.06918
1037.719	1.00244
1038.08	-4.00947
1038.442	5.01198
1038.803	45.109
1039.165	13.03286
1039.526	-33.08068
1039.887	28.06755
1040.248	4.01011
1040.609	-36.08963
1040.97	17.04241
1041.331	30.07567
1041.692	24.05694
1042.053	33.07525
1042.413	36.08376
1042.774	23.05602
1043.134	-10.02379
1043.495	0
1043.855	-32.07857
1044.215	-19.04728
1044.576	-5.01224
1044.936	22.04993
1045.296	-28.0705
1045.656	13.0321
1046.016	-4.00975
1046.375	27.06663
1046.735	15.03488
1047.095	10.02374
1047.454	-11.02343
1047.814	-25.06019
1048.173	-18.04295
1048.533	12.02786
1048.892	-33.08176
1049.251	-5.01259
1049.61	1.00249
1049.969	-52.12408
1050.328	-21.04639
1050.687	13.03199
1051.046	-51.12613
1051.405	-21.0529
1051.763	39.0905
1052.122	3.00765
1052.48	-35.08659
1052.839	27.06407
1053.197	7.01648
1053.555	-35.07919
1053.914	2.00494
1054.272	3.00725
1054.63	27.06709
1054.988	-5.012
1055.345	29.06348
1055.703	-16.03854
1056.061	-1.00259
1056.419	-23.06027
1056.776	0
1057.134	4.00942
1057.491	-1.00252
1057.848	14.03505
1058.206	-34.08163
1058.563	19.04266
1058.92	20.04627
1059.277	-18.04448
1059.634	30.07134
1059.991	-29.06934
1060.348	28.06502
1060.704	-16.03884
1061.061	-54.12425
1061.418	-1.00247
1061.774	-4.01
1062.131	-43.11527
1062.487	3.00707
1062.843	28.07012
1063.199	-10.02499
1063.555	-2.00469
1063.911	29.07384
1064.267	26.05442
1064.623	9.02218
1064.979	-12.02816
1065.335	-51.12167
1065.691	-23.05512
1066.046	-48.10708
1066.402	-8.01862
1066.757	-12.03028
1067.112	-6.01461
1067.468	-33.07987
1067.823	30.07254
1068.178	24.05803
1068.533	-12.02921
1068.888	43.10329
1069.243	2.00498
1069.598	9.02217
1069.952	23.05316
1070.307	-17.04301
1070.662	-14.03403
1071.016	-12.02771
1071.371	5.01152
1071.725	36.0859
1072.079	-64.15563
1072.434	42.10263
1072.788	53.12818
1073.142	14.0345
1073.496	19.04658
1073.85	-5.01168
1074.203	-34.08259
1074.557	-7.0188
1074.911	16.03811
1075.265	-40.09449
1075.618	35.08564
1075.971	45.10756
1076.325	13.03343
1076.678	38.08946
1077.031	4.00926
1077.385	7.01574
1077.738	55.12683
1078.091	-11.02595
1078.444	25.05864
1078.796	-24.05969
1079.149	3.00748
1079.502	16.03854
1079.855	55.12955
1080.207	-3.0074
1080.56	-24.06327
1080.912	3.00738
1081.264	-10.02441
1081.617	26.0646
1081.969	25.06404
1082.321	23.05701
1082.673	35.08209
1083.025	-36.0863
1083.377	24.05168
1083.728	47.10985
1084.08	10.02533
1084.432	22.05388
1084.783	-9.02108
1085.135	40.10075
1085.486	2.0047
1085.838	23.05701
1086.189	-19.0469
1086.54	24.05709
1086.891	36.0922
1087.242	-36.08888
1087.593	-32.07779
1087.944	66.15155
1088.295	-19.04339
1088.646	0
1088.996	21.0515
1089.347	18.04441
1089.698	17.04127
1090.048	13.03375
1090.398	4.00936
1090.749	-26.06278
1091.099	-12.03069
1091.449	-52.13107
1091.799	79.19845
1092.149	21.05275
1092.499	-17.04153
1092.849	-8.02053
1093.199	17.0423
1093.548	-9.02182
1093.898	44.11122
1094.248	-27.06962
1094.597	9.02342
1094.947	2.00536
1095.296	-4.01002
1095.645	-15.03917
1095.994	23.05609
1096.343	-14.03555
1096.692	20.05338
1097.041	-7.01922
1097.39	5.0126
1097.739	-27.07032
1098.088	28.07493
1098.437	-23.06137
1098.785	45.1217
1099.134	11.02926
1099.482	-18.04968
1099.83	-40.10519
1100.179	22.05774
1100.527	34.09092
1100.875	-14.03744
1101.223	-10.02658
1101.571	12.03345
1101.919	27.07147
1102.267	13.03667
1102.615	-4.01288
1102.962	4.01286
1103.31	7.02253
1103.658	3.00965
