Data from N2 R1 sample 4_Subt2__2__14-05-05-412.txt Node

Date: Wed Aug 27 14:05:05 PDT 2025
User: uwsun
Spectrometer: HDX01956
Trigger mode: 0
Integration Time (sec): 5.000000E-1
Scans to average: 1
Nonlinearity correction enabled: true
Boxcar width: 0
Storing dark spectrum: false
XAxis mode: Wavelengths
Number of Pixels in Spectrum: 2068
>>>>>Begin Spectral Data<<<<<
194.03	230.64865
194.578	219.69642
195.127	221.69302
195.676	208.6551
196.225	221.58595
196.773	243.66776
197.321	328.88848
197.87	489.20226
198.418	518.28138
198.966	495.24247
199.513	468.13934
200.061	526.28693
200.609	475.20031
201.156	493.04604
201.704	477.17229
202.251	459.17051
202.798	492.24266
203.345	555.30425
203.892	475.14973
204.438	517.18506
204.985	531.20794
205.532	527.32147
206.078	556.30432
206.624	569.33926
207.17	507.13232
207.716	544.27861
208.262	425.82113
208.808	490.17207
209.354	520.22308
209.899	533.27676
210.445	461.10951
210.99	494.14876
211.535	547.22581
212.08	529.18591
212.625	510.21812
213.17	531.2652
213.715	478.04127
214.259	497.1063
214.804	529.2479
215.348	499.09744
215.892	486.11768
216.436	511.12529
216.98	536.13126
217.524	474.07744
218.068	498.18489
218.612	532.27799
219.155	462.04842
219.698	511.15347
220.242	420.00322
220.785	458.02965
221.328	451.08376
221.871	422.01453
222.414	491.17111
222.956	475.10082
223.499	474.02774
224.041	498.12111
224.583	429.88968
225.126	460.98866
225.668	437.03415
226.21	416.0114
226.751	458.9797
227.293	456.00124
227.835	407.9626
228.376	512.13197
228.918	446.07963
229.459	443.07175
230	438.99754
230.541	468.04486
231.082	442.04016
231.622	485.08801
232.163	477.11375
232.704	450.08074
233.244	439.03409
233.784	445.0389
234.324	404.87243
234.864	392.87005
235.404	420.95887
235.944	484.08999
236.484	430.02245
237.023	427.98407
237.563	449.0034
238.102	390.88287
238.641	416.01027
239.18	465.05118
239.719	527.2571
240.258	479.0291
240.797	483.11674
241.335	442.03734
241.874	442.83454
242.412	461.0603
242.95	507.16767
243.488	482.06642
244.026	444.98707
244.564	449.88831
245.102	507.10199
245.64	510.17016
246.177	440.95015
246.715	531.19527
247.252	421.93188
247.789	469.82855
248.326	462.08014
248.863	487.02699
249.4	452.97648
249.936	506.00986
250.473	468.05002
251.009	497.09898
251.546	506.08185
252.082	479.99647
252.618	482.04111
253.154	474.0909
253.69	485.05319
254.226	441.99848
254.761	505.08599
255.297	475.01304
255.832	438.99351
256.367	487.10681
256.903	457.97439
257.438	443.992
257.972	503.08447
258.507	519.14962
259.042	477.98082
259.576	504.04452
260.111	474.04651
260.645	496.016
261.179	480.06596
261.713	505.07528
262.247	501.10185
262.781	462.92837
263.315	505.16861
263.849	487.16422
264.382	488.06309
264.915	556.24627
265.449	534.24631
265.982	522.12382
266.515	556.27687
267.048	474.95292
267.58	523.07165
268.113	471.9868
268.646	516.21319
269.178	551.18356
269.71	518.05492
270.243	523.12959
270.775	517.2506
271.307	555.24631
271.838	539.19498
272.37	531.23032
272.902	549.18027
273.433	522.08672
273.965	530.21708
274.496	481.12969
275.027	526.24153
275.558	528.21442
276.089	514.21505
276.62	527.26045
277.15	531.23711
277.681	566.15704
278.211	562.29529
278.741	545.14601
279.272	525.14166
279.802	558.31512
280.332	534.20277
280.861	548.24441
281.391	565.21003
281.921	468.0642
282.45	566.33348
282.98	542.32955
283.509	542.15945
284.038	607.28779
284.567	517.13043
285.096	502.14855
285.625	542.14995
286.153	567.25245
286.682	639.37168
287.21	573.29152
287.739	553.23267
288.267	550.25853
288.795	597.46324
289.323	552.21851
289.851	621.33643
290.378	602.27967
290.906	591.35869
291.433	588.3655
291.961	610.30401
292.488	570.31323
293.015	618.35188
293.542	663.55525
294.069	665.51862
294.596	607.38995
295.122	617.36871
295.649	552.13858
296.175	656.47489
296.702	622.39381
297.228	627.40416
297.754	626.3036
298.28	685.43516
298.806	558.24614
299.332	648.34529
299.857	637.3286
300.383	637.47386
300.908	688.55636
301.433	676.50127
301.958	742.57285
302.483	695.6018
303.008	652.45571
303.533	733.73888
304.058	640.37589
304.582	669.47495
305.107	658.58453
305.631	691.43181
306.155	709.51819
306.679	687.48116
307.203	700.48502
307.727	728.58538
308.251	673.50171
308.775	708.53398
309.298	727.59825
309.822	703.6106
310.345	747.58793
310.868	673.46892
311.391	715.57711
311.914	773.759
312.437	681.401
312.96	722.54039
313.482	767.6326
314.005	775.76497
314.527	725.71924
315.049	740.67948
315.571	811.60892
316.093	827.80681
316.615	788.68568
317.137	823.57507
317.659	793.68506
318.18	813.72385
318.702	840.74592
319.223	797.45328
319.744	852.6884
320.265	830.77787
320.786	872.90395
321.307	872.91036
321.828	840.65452
322.348	843.7238
322.869	960.96281
323.389	1096.49578
323.909	918.82697
324.43	924.89086
324.95	916.81539
325.47	970.04766
325.989	973.94596
326.509	990.87292
327.029	1025.95292
327.548	985.87477
328.067	977.0234
328.587	995.05891
329.106	1034.00619
329.625	1025.24801
330.144	1021.95467
330.662	1049.03584
331.181	1038.00443
331.7	995.94328
332.218	1101.94145
332.736	1091.06545
333.255	1110.12342
333.773	1142.16908
334.291	1128.25736
334.808	1133.02373
335.326	1151.08232
335.844	1198.2351
336.361	1218.46792
336.879	1263.34114
337.396	1286.41391
337.913	1315.38618
338.43	1295.23521
338.947	1258.35545
339.464	1359.22667
339.981	1275.35529
340.497	1352.54929
341.014	1343.52429
341.53	1331.28435
342.046	1374.54821
342.562	1399.60559
343.078	1452.52813
343.594	1451.57849
344.11	1442.51587
344.626	1445.70341
345.141	1475.41279
345.657	1462.34192
346.172	1553.7057
346.687	1479.47552
347.202	1579.52887
347.717	1527.60755
348.232	1591.86466
348.747	1594.58393
349.261	1567.39988
349.776	1613.67674
350.29	1625.85986
350.805	1755.98712
351.319	1692.68508
351.833	1698.64912
352.347	1614.6515
352.861	1724.74721
353.374	1779.67484
353.888	1694.72626
354.401	1772.7296
354.915	1837.75844
355.428	1875.05439
355.941	1859.79033
356.454	1824.58153
356.967	1832.79555
357.48	1861.70123
357.993	1864.97292
358.505	1945.04673
359.018	1955.05568
359.53	1923.87942
360.042	1935.64097
360.554	1871.85675
361.066	1956.03207
361.578	1977.58801
362.09	1938.89625
362.602	1902.54936
363.113	2049.84136
363.625	1999.67126
364.136	2062.64103
364.647	2059.8412
365.158	2198.93058
365.669	2106.01649
366.18	2209.94284
366.691	2160.65971
367.201	2132.94727
367.712	2229.86682
368.222	2205.77829
368.733	2229.59416
369.243	2341.71683
369.753	2307.81167
370.263	2404.10116
370.773	2379.25644
371.282	2454.00598
371.792	2507.88416
372.301	2529.13536
372.811	2542.45377
373.32	2601.5751
373.829	2662.89668
374.338	2789.64682
374.847	2869.76935
375.356	2866.86546
375.865	3113.29896
376.373	3087.53797
376.882	3277.08237
377.39	3280.79709
377.898	3395.91875
378.407	3523.378
378.915	3620.92113
379.423	3777.28431
379.93	3953.93002
380.438	4207.17863
380.946	4310.80039
381.453	4530.84521
381.96	4748.49292
382.468	5099.2022
382.975	5256.23432
383.482	5541.78533
383.989	5725.30522
384.495	5862.67009
385.002	6034.16116
385.509	6471.47454
386.015	6828.15088
386.521	7270.61684
387.028	7344.67139
387.534	7671.00942
388.04	7972.47004
388.546	8152.80191
389.051	8554.75947
389.557	9371.00803
390.063	10112.3142
390.568	10565.83952
391.073	10685.35363
391.578	11048.0918
392.084	11448.39911
392.589	11666.0797
393.093	12677.24203
393.598	13828.90688
394.103	15232.19784
394.607	16590.49753
395.112	17675.03806
395.616	19080.27882
396.12	20471.50343
396.624	22931.8407
397.128	24446.19313
397.632	27300.64791
398.136	29794.71196
398.639	31127.02783
399.143	35038.45601
399.646	39197.4275
400.15	42969.35387
400.653	47129.72713
401.156	53353.05349
401.659	55261.96274
402.162	53821.55638
402.664	47275.14456
403.167	32260.27245
403.67	3851.94142
404.172	0
404.674	0
405.176	0
405.678	0
406.18	0
406.682	0
407.184	0
407.686	12367.42319
408.187	34596.90747
408.688	44563.94194
409.19	48906.19284
409.691	51236.67962
410.192	52883.26968
410.693	53713.23343
411.194	54189.54801
411.694	54767.79104
412.195	55625.98899
412.696	55971.27715
413.196	55815.15953
413.696	55802.1488
414.196	55740.09561
414.696	56340.4775
415.196	57067.59327
415.696	58258.21704
416.196	48715.49123
416.695	37832.03968
417.195	32189.09799
417.694	30431.40518
418.194	28870.59529
418.693	26799.88662
419.192	25987.22238
419.691	25417.50457
420.19	24739.61013
420.688	24147.78812
421.187	23157.66357
421.685	21391.05183
422.184	19635.65957
422.682	17256.6058
423.18	14779.11167
423.678	13046.81676
424.176	12090.70495
424.674	11490.20539
425.172	10803.31461
425.669	10183.79841
426.167	9435.08999
426.664	8789.1709
427.161	8039.5767
427.659	7453.96684
428.156	6921.28585
428.652	6514.89524
429.149	6274.6934
429.646	5977.42175
430.143	5674.89381
430.639	5338.01861
431.135	5101.52982
431.632	4761.36277
432.128	4389.68575
432.624	4190.36725
433.12	4003.76201
433.616	3937.66089
434.111	3864.26659
434.607	3617.39059
435.103	3600.78641
435.598	3442.7011
436.093	3335.40431
436.588	3109.25867
437.083	3005.44664
437.578	2741.38969
438.073	2721.00673
438.568	2610.85979
439.062	2458.27975
439.557	2397.65522
440.051	2340.578
440.546	2258.59811
441.04	2283.80058
441.534	2215.96637
442.028	2129.69938
442.522	2112.73793
443.015	2090.43038
443.509	2078.85631
444.002	2046.81482
444.496	1957.33262
444.989	1899.71556
445.482	1922.80745
445.975	1854.46585
446.468	1896.35583
446.961	1794.17809
447.454	1828.48793
447.947	1721.4964
448.439	1758.62332
448.931	1624.24831
449.424	1652.6595
449.916	1655.53766
450.408	1662.30031
450.9	1563.42446
451.392	1520.54806
451.884	1615.34196
452.375	1503.47929
452.867	1480.14055
453.358	1531.25128
453.849	1465.03748
454.341	1389.07006
454.832	1402.01155
455.323	1400.36213
455.814	1374.13927
456.304	1399.18292
456.795	1359.16039
457.285	1338.0239
457.776	1360.0782
458.266	1287.18504
458.756	1348.29347
459.247	1332.24553
459.737	1329.28331
460.226	1235.99875
460.716	1205.10003
461.206	1155.06212
461.695	1209.24517
462.185	1187.07394
462.674	1113.9108
463.163	1178.92687
463.653	1189.8208
464.142	1136.05873
464.63	1036.93724
465.119	1068.8826
465.608	1034.85376
466.096	1075.79827
466.585	1029.84336
467.073	1002.86894
467.561	1030.92316
468.05	1022.84719
468.538	963.87361
469.026	950.79012
469.513	941.55706
470.001	1022.87909
470.489	1017.94326
470.976	891.63735
471.463	871.77147
471.951	839.7071
472.438	787.54455
472.925	849.66562
473.412	820.65895
473.899	749.44567
474.385	739.54229
474.872	745.46613
475.359	761.58965
475.845	751.32779
476.331	712.32587
476.817	690.43514
477.303	677.35713
477.789	677.40901
478.275	665.43307
478.761	644.36491
479.247	602.17402
479.732	655.4308
480.218	664.49167
480.703	627.36149
481.188	580.08658
481.673	579.17537
482.158	563.09601
482.643	544.23781
483.128	585.2027
483.612	510.07535
484.097	539.18456
484.581	528.08753
485.066	553.21079
485.55	468.94086
486.034	470.93747
486.518	437.93256
487.002	491.11457
487.486	483.08041
487.969	437.98299
488.453	440.0105
488.936	431.90101
489.42	438.90043
489.903	433.99471
490.386	389.60517
490.869	350.71467
491.352	361.81274
491.835	368.71424
492.318	368.78959
492.8	342.6866
493.283	368.87191
493.765	386.89014
494.247	383.83434
494.73	328.68191
495.212	305.68725
495.694	341.75609
496.175	285.64849
496.657	354.78573
497.139	302.5083
497.62	331.7504
498.102	357.84439
498.583	311.74215
499.064	258.54834
499.545	308.67027
500.026	324.69399
500.507	306.67948
500.988	280.66396
501.469	254.61253
501.949	260.60845
502.43	276.63347
502.91	218.44473
503.39	229.54964
503.87	287.64749
504.35	212.48113
504.83	276.58454
505.31	231.53922
505.79	243.56433
506.269	206.46562
506.749	211.46904
507.228	185.42471
507.707	240.51164
508.187	241.5506
508.666	162.38491
509.145	239.53987
509.623	242.55389
510.102	197.46311
510.581	187.4324
511.059	268.64775
511.538	159.39695
512.016	217.50833
512.494	244.57705
512.972	188.43134
513.45	166.38056
513.928	206.48794
514.406	212.50429
514.884	196.48869
515.361	155.35912
515.839	200.44615
516.316	200.46989
516.793	170.41956
517.27	163.38423
517.747	218.54472
518.224	173.38904
518.701	182.39793
519.178	131.31873
519.654	181.41736
520.131	135.32724
520.607	153.36835
521.083	146.32974
521.56	161.37021
522.036	204.43641
522.512	135.32268
522.987	146.34182
523.463	179.41653
523.939	146.34663
524.414	179.40468
524.89	147.34571
525.365	124.27525
525.84	154.36027
526.315	154.36464
526.79	153.33644
527.265	160.3615
527.74	144.34189
528.215	209.48902
528.689	105.23099
529.164	176.37781
529.638	163.40826
530.112	153.35519
530.587	122.26348
531.061	143.34128
531.534	174.41422
532.008	162.38447
532.482	100.22548
532.956	73.18377
533.429	106.25167
533.903	161.34658
534.376	138.3053
534.849	81.18499
535.322	139.32333
535.795	98.235
536.268	123.29276
536.741	64.15172
537.213	126.28619
537.686	102.24506
538.158	131.29314
538.631	70.16645
539.103	117.26322
539.575	109.22485
540.047	145.31697
540.519	70.16479
540.991	81.19398
541.463	58.13935
541.934	73.16511
542.406	61.14357
542.877	95.21022
543.348	32.07498
543.82	127.30321
544.291	89.20277
544.762	105.24655
545.233	101.24776
545.703	54.11992
546.174	112.25718
546.645	149.35055
547.115	170.40112
547.585	112.25078
548.056	126.29661
548.526	114.26439
548.996	126.295
549.466	165.38774
549.935	181.41836
550.405	144.31045
550.875	186.42607
551.344	160.37122
551.814	185.41329
552.283	162.34086
552.752	175.39128
553.221	147.31413
553.69	194.4125
554.159	215.50877
554.628	258.55669
555.096	196.47607
555.565	221.48371
556.033	236.53016
556.502	207.48491
556.97	96.20813
557.438	114.26334
557.906	148.34175
558.374	138.31078
558.842	109.25665
559.31	151.33246
559.777	80.19169
560.245	65.14917
560.712	98.22251
561.18	84.18553
561.647	40.08897
562.114	117.26785
562.581	61.14653
563.048	113.25682
563.514	96.23222
563.981	79.17977
564.448	73.16201
564.914	99.22428
565.381	134.29621
565.847	91.2085
566.313	89.20645
566.779	119.26706
567.245	86.19613
567.711	158.36933
568.176	78.17242
568.642	82.20089
569.108	140.33367
569.573	116.26455
570.038	157.3224
570.504	161.35254
570.969	122.29133
571.434	88.18899
571.899	178.40807
572.363	158.34575
572.828	151.32855
573.293	189.41979
573.757	210.45837
574.222	204.43981
574.686	170.36981
575.15	198.45228
575.614	229.50122
576.078	173.38649
576.542	229.49126
577.006	224.47711
577.469	176.40365
577.933	170.36839
578.396	208.46707
578.86	203.45369
579.323	234.53149
579.786	184.37862
580.249	161.35269
580.712	182.41925
581.175	211.49331
581.637	190.41226
582.1	167.34418
582.563	195.39808
583.025	180.4158
583.487	177.34935
583.95	228.46979
584.412	142.28561
584.874	224.51496
585.336	185.41875
585.797	138.28793
586.259	134.30301
586.721	157.35509
587.182	193.42386
587.643	167.3578
588.105	182.40214
588.566	141.28118
589.027	188.42823
589.488	145.31348
589.949	176.403
590.41	144.27454
590.87	135.28749
591.331	201.40959
591.791	183.40054
592.252	142.30811
592.712	121.27322
593.172	154.32987
593.632	167.33891
594.092	187.39094
594.552	189.37742
595.011	235.50522
595.471	261.54105
595.931	203.42232
596.39	251.56373
596.849	240.51963
597.308	225.44388
597.768	319.75073
598.227	204.45564
598.685	269.56461
599.144	328.7059
599.603	320.69224
600.062	312.61191
600.52	317.65008
600.978	390.83643
601.437	342.70911
601.895	313.59922
602.353	390.76742
602.811	425.85027
603.269	413.876
603.727	463.9829
604.184	483.96676
604.642	437.94347
605.099	597.2048
605.557	585.22377
606.014	553.02952
606.471	548.19605
606.928	614.12266
607.385	708.4576
607.842	800.51513
608.299	798.52458
608.755	710.42042
609.212	808.47895
609.668	793.43794
610.125	756.49304
610.581	815.5357
611.037	873.5721
611.493	868.63695
611.949	827.61248
612.405	936.50659
612.861	862.60973
613.316	915.7683
613.772	889.60588
614.227	867.61789
614.683	903.52117
615.138	942.75595
615.593	979.81111
616.048	994.78278
616.503	984.85793
616.958	943.86679
617.412	999.85186
617.867	980.72437
618.321	1059.6915
618.776	978.68055
619.23	959.77139
619.684	969.73828
620.138	934.67577
620.592	888.72382
621.046	938.72088
621.5	971.87936
621.954	939.6628
622.407	871.55489
622.861	906.78803
623.314	868.58741
623.768	814.55745
624.221	844.3327
624.674	817.53646
625.127	834.58117
625.58	763.40942
626.033	781.39172
626.485	805.61186
626.938	712.41457
627.39	773.50277
627.843	767.46136
628.295	720.38662
628.747	689.39585
629.199	663.28309
629.651	686.34257
630.103	644.27273
630.555	685.25371
631.006	637.28506
631.458	642.32096
631.909	581.15152
632.361	591.21178
632.812	569.16187
633.263	569.06882
633.714	632.18712
634.165	540.1447
634.616	506.06784
635.067	495.96419
635.518	518.0956
635.968	515.91508
636.419	528.01286
636.869	424.90149
637.319	504.07431
637.769	511.01631
638.219	521.10941
638.669	473.01357
639.119	494.06207
639.569	472.02992
640.019	521.06129
640.468	519.03562
640.918	476.01671
641.367	475.97055
641.816	379.76843
642.265	493.01189
642.714	465.96864
643.163	511.04513
643.612	514.11652
644.061	398.77247
644.51	470.97361
644.958	484.97168
645.406	495.06719
645.855	517.15231
646.303	560.1639
646.751	548.11563
647.199	477.97331
647.647	508.04673
648.095	530.08822
648.543	642.15978
648.99	554.18925
649.438	526.08583
649.885	493.08831
650.333	585.00684
650.78	557.20725
651.227	580.26278
651.674	570.16787
652.121	604.30898
652.568	597.29737
653.015	628.40669
653.461	589.24194
653.908	602.23243
654.354	598.2706
654.801	586.25264
655.247	565.09051
655.693	520.21834
656.139	585.27395
656.585	612.31393
657.031	596.26415
657.477	587.14607
657.922	605.25394
658.368	626.3861
658.813	544.14064
659.259	538.17121
659.704	574.20629
660.149	539.14531
660.594	538.1613
661.039	516.0661
661.484	547.17697
661.929	501.06397
662.373	518.20418
662.818	507.15048
663.262	474.05349
663.707	451.05417
664.151	521.14878
664.595	517.15707
665.039	464.06147
665.483	498.1799
665.927	430.93174
666.371	518.12045
666.814	471.04139
667.258	454.00353
667.701	462.92194
668.145	488.11826
668.588	449.02566
669.031	507.10759
669.474	424.9563
669.917	461.94109
670.36	471.08248
670.803	516.14462
671.245	503.99514
671.688	442.99648
672.13	450.96176
672.573	432.01895
673.015	394.89192
673.457	464.95173
673.899	469.05162
674.341	421.95128
674.783	387.88337
675.225	445.02955
675.666	427.97583
676.108	363.74104
676.549	387.86163
676.991	429.89683
677.432	470.91004
677.873	430.93691
678.314	398.89841
678.755	414.95887
679.196	444.97233
679.637	397.91932
680.078	389.86644
680.518	416.90987
680.959	323.73345
681.399	376.88501
681.839	395.91252
682.28	384.90735
682.72	348.77498
683.16	390.92615
683.6	299.65607
684.039	361.71721
684.479	328.77476
684.919	327.74193
685.358	335.80888
685.798	383.96672
686.237	316.73484
686.676	310.6815
687.115	319.72349
687.554	336.77177
687.993	321.68712
688.432	305.67656
688.871	289.64241
689.309	301.70093
689.748	288.59101
690.186	305.70549
690.625	296.6791
691.063	316.73919
691.501	329.78719
691.939	335.81284
692.377	317.75415
692.815	316.73484
693.253	245.57324
693.69	261.56498
694.128	276.65902
694.565	292.67663
695.003	304.74386
695.44	252.58696
695.877	276.63449
696.314	263.55567
696.751	256.56634
697.188	226.50853
697.625	256.56752
698.061	264.62506
698.498	287.67491
698.934	256.60284
699.371	190.4457
699.807	247.57475
700.243	234.55019
700.679	241.53639
701.115	208.47531
701.551	222.51199
701.987	267.58907
702.422	256.59862
702.858	231.54451
703.294	180.39955
703.729	228.54588
704.164	195.46162
704.599	185.40919
705.035	188.42008
705.47	191.45669
705.904	232.53804
706.339	245.55636
706.774	231.53646
707.209	249.57025
707.643	239.56271
708.078	192.46005
708.512	217.53564
708.946	192.45215
709.38	202.47514
709.814	247.56181
710.248	245.58826
710.682	239.56205
711.116	195.47035
711.549	252.64034
711.983	205.47175
712.416	197.46094
712.85	190.47012
713.283	184.42994
713.716	224.54529
714.149	202.47181
714.582	245.54529
715.015	228.55586
715.448	239.59016
715.881	155.33194
716.313	133.30754
716.746	202.47236
717.178	203.48427
717.61	188.46807
718.043	189.46379
718.475	193.46007
718.907	218.53366
719.339	196.44663
719.77	177.4182
720.202	211.52599
720.634	252.60426
721.065	219.51603
721.497	207.50288
721.928	226.54913
722.359	187.45395
722.79	209.49877
723.221	164.40684
723.652	193.48584
724.083	221.49799
724.514	188.42597
724.945	164.38486
725.375	198.46337
725.806	150.36598
726.236	229.56817
726.666	200.47208
727.096	274.661
727.526	208.52237
727.956	219.49873
728.386	271.65388
728.816	262.6608
729.246	228.54609
729.675	179.43584
730.105	224.54366
730.534	243.55964
730.964	199.49356
731.393	208.50237
731.822	219.54217
732.251	225.56313
732.68	186.42932
733.109	256.62504
733.537	263.62306
733.966	227.5529
734.395	228.51954
734.823	212.47234
735.251	221.52458
735.68	226.55262
736.108	241.59946
736.536	315.72746
736.964	214.49158
737.392	231.56705
737.82	220.51021
738.247	253.59682
738.675	230.53065
739.102	284.69932
739.53	238.59211
739.957	194.48984
740.384	248.59172
740.811	245.60475
741.238	237.56407
741.665	236.5382
742.092	235.5492
742.519	246.60286
742.945	238.56003
743.372	227.55331
743.798	269.67396
744.225	210.49703
744.651	284.69158
745.077	253.61576
745.503	319.75686
745.929	283.66214
746.355	181.43113
746.781	261.63071
747.207	222.51444
747.632	193.46922
748.058	221.53628
748.483	280.63415
748.908	261.63261
749.334	287.6896
749.759	277.64378
750.184	264.61418
750.609	217.51905
751.033	205.46742
751.458	260.56534
751.883	264.627
752.307	256.59651
752.732	303.74568
753.156	257.62386
753.58	310.7075
754.005	249.61304
754.429	319.72701
754.853	244.5973
755.277	217.50096
755.7	293.70161
756.124	198.4856
756.548	299.69408
756.971	260.62059
757.394	230.57886
757.818	257.64552
758.241	238.59168
758.664	306.75653
759.087	190.42543
759.51	277.66583
759.933	178.42179
760.356	218.54295
760.778	323.78109
761.201	285.67412
761.623	288.6774
762.046	248.56716
762.468	258.60046
762.89	254.60139
763.312	241.57006
763.734	241.56896
764.156	254.61438
764.578	210.47311
765	252.60518
765.421	240.6105
765.843	224.57404
766.264	193.45335
766.686	250.60698
767.107	174.42137
767.528	211.52924
767.949	158.39467
768.37	248.59896
768.791	201.47913
769.212	223.55792
769.632	209.48403
770.053	200.51845
770.473	222.5301
770.894	149.3651
771.314	211.48827
771.734	205.47496
772.154	177.44907
772.575	164.37537
772.994	130.29708
773.414	190.44831
773.834	109.26867
774.254	176.43069
774.673	156.37536
775.093	129.31633
775.512	193.47466
775.931	158.39881
776.351	139.34375
776.77	205.50026
777.189	164.38832
777.607	112.28311
778.026	113.27966
778.445	47.11836
778.864	151.37944
779.282	147.35485
779.701	159.39695
780.119	138.34808
780.537	88.22205
780.955	124.3131
781.373	102.25137
781.791	120.27013
782.209	112.2544
782.627	72.18922
783.045	151.34638
783.462	59.15086
783.88	124.32123
784.297	115.29105
784.715	85.21986
785.132	88.21351
785.549	120.30171
785.966	40.10129
786.383	107.26326
786.8	40.09306
787.217	82.19536
787.633	102.25792
788.05	100.23293
788.466	87.20572
788.883	51.13091
789.299	65.15738
789.715	100.24572
790.131	73.18331
790.547	23.05753
790.963	84.2096
791.379	97.24419
791.795	38.08708
792.21	78.18469
792.626	33.07891
793.041	56.13969
793.457	53.13155
793.872	17.04045
794.287	51.1259
794.702	65.15963
795.117	101.25407
795.532	-2.00511
795.947	47.11371
796.362	50.11853
796.776	71.16411
797.191	84.20831
797.605	20.04845
798.02	67.16539
798.434	68.1522
798.848	38.09516
799.262	48.1212
799.676	43.10494
800.09	-25.06205
800.504	10.02474
800.918	40.09453
801.331	18.04713
801.745	54.1239
802.158	85.21344
802.572	32.07726
802.985	76.18419
803.398	72.17299
803.811	24.06142
804.224	43.10716
804.637	29.07014
805.05	51.11999
805.462	69.17183
805.875	52.1368
806.288	4.00977
806.7	19.04834
807.112	56.13121
807.525	24.0596
807.937	29.0728
808.349	14.03514
808.761	0
809.173	3.00741
809.584	-16.03958
809.996	46.1147
810.408	25.0656
810.819	59.14194
811.231	78.20596
811.642	118.28941
812.053	154.36929
812.464	115.27498
812.875	107.27398
813.286	66.16921
813.697	39.08943
814.108	-5.01231
814.519	18.0404
814.929	16.04063
815.34	21.05136
815.75	20.05137
816.16	18.04516
816.571	68.1775
816.981	-30.07134
817.391	21.05152
817.801	33.08278
818.211	40.09545
818.62	44.1078
819.03	17.04226
819.44	45.11716
819.849	45.11446
820.259	6.01536
820.668	-9.02258
821.077	41.10366
821.486	53.12915
821.895	21.05184
822.304	11.02928
822.713	-8.01925
823.122	15.03763
823.531	-19.04557
823.939	33.08125
824.348	33.0808
824.756	1.00253
825.164	-17.04304
825.573	15.03818
825.981	0
826.389	27.06848
826.797	67.17
827.205	10.02363
827.612	17.04212
828.02	5.01206
828.428	11.02818
828.835	-3.00796
829.243	23.05514
829.65	-16.04044
830.057	-26.06372
830.464	-13.03208
830.871	15.03592
831.278	-7.01717
831.685	43.09725
832.092	46.11357
832.499	37.08222
832.905	-4.01022
833.312	-4.00928
833.718	-3.00752
834.124	18.04133
834.531	11.02795
834.937	37.09504
835.343	39.09486
835.749	-3.00708
836.155	6.01591
836.561	-26.06462
836.966	16.0393
837.372	27.06948
837.777	0
838.183	-12.02736
838.588	25.06285
838.993	-4.00975
839.399	31.07756
839.804	15.03726
840.209	11.02841
840.613	-37.08474
841.018	18.04597
841.423	5.01293
841.828	-17.0435
842.232	-14.03485
842.637	-2.00479
843.041	12.03114
843.445	8.02033
843.849	8.02008
844.253	36.08577
844.657	35.08924
845.061	-9.02071
845.465	57.13988
845.869	-29.06897
846.272	15.03727
846.676	-49.11837
847.079	31.07994
847.483	10.02495
847.886	20.04884
848.289	0
848.692	17.0431
849.095	-8.01952
849.498	41.1027
849.901	1.00233
850.304	-12.02887
850.707	11.02815
851.109	16.04026
851.512	65.16158
851.914	33.08562
852.316	15.03832
852.718	21.05602
853.121	21.05243
853.523	61.14686
853.925	-19.05058
854.326	23.05842
854.728	-7.01826
855.13	-27.07075
855.531	4.00983
855.933	10.02431
856.334	-31.07865
856.736	-5.01169
857.137	-10.02385
857.538	34.08698
857.939	31.07824
858.34	28.06873
858.741	15.03949
859.142	-39.09518
859.542	-6.016
859.943	61.15356
860.343	43.10856
860.744	-17.04198
861.144	3.0074
861.544	8.01985
861.945	10.02583
862.345	-10.02474
862.745	-42.10586
863.145	-10.02398
863.544	5.01278
863.944	78.18633
864.344	-23.05751
864.743	17.04215
865.143	37.09613
865.542	-16.03813
865.941	3.00748
866.34	32.07644
866.74	-4.01081
867.139	13.03151
867.537	61.15538
867.936	29.07038
868.335	-41.10579
868.734	-17.04415
869.132	24.05634
869.531	-29.06995
869.929	-17.0402
870.327	10.02454
870.726	6.01496
871.124	5.01172
871.522	-21.05394
871.92	33.08212
872.318	-11.02706
872.715	-9.02222
873.113	-18.04467
873.511	-54.13479
873.908	-80.20732
874.306	-1.00254
874.703	5.01259
875.1	4.01021
875.497	5.01214
875.894	32.07999
876.291	-68.16857
876.688	-12.03134
877.085	-7.01696
877.482	34.08567
877.878	2.00492
878.275	-26.06691
878.671	-38.08467
879.068	21.05102
879.464	54.13176
879.86	55.13182
880.256	7.01736
880.652	11.02848
881.048	11.02741
881.444	-19.04555
881.84	22.05654
882.236	38.09558
882.631	-12.02975
883.027	-19.04614
883.422	29.07512
883.817	-12.03104
884.213	22.05701
884.608	25.06285
885.003	47.11543
885.398	10.0254
885.793	18.04569
886.188	15.03809
886.582	28.07196
886.977	47.11251
887.371	-20.05045
887.766	7.01767
888.16	38.09544
888.554	-16.03939
888.949	-20.05056
889.343	38.09313
889.737	-15.04071
890.131	5.0127
890.525	28.07254
890.918	54.1366
891.312	47.11208
891.706	42.10993
892.099	6.01533
892.492	6.01306
892.886	46.11458
893.279	54.13917
893.672	-19.04925
894.065	16.04027
894.458	-19.04809
894.851	9.02193
895.244	38.09804
895.637	-8.0195
896.029	54.13352
896.422	-9.02227
896.814	31.07838
897.206	-13.03163
897.599	28.06893
897.991	17.04173
898.383	15.03561
898.775	-14.03223
899.167	27.06441
899.559	1.00253
899.951	19.04547
900.342	40.10219
900.734	-4.01018
901.125	60.15848
901.517	-20.04958
901.908	32.07647
902.299	40.09996
902.69	-14.03366
903.082	-3.00724
903.473	63.15283
903.863	6.01532
904.254	17.03973
904.645	1.00247
905.036	19.04678
905.426	36.08296
905.817	29.07198
906.207	-37.09103
906.597	-10.02386
906.987	-34.08805
907.378	-17.04339
907.768	8.02134
908.158	-3.00741
908.547	3.00793
908.937	-18.0462
909.327	13.03174
909.717	37.09321
910.106	40.09782
910.495	49.12163
910.885	57.14473
911.274	10.02529
911.663	-21.0536
912.052	-1.00247
912.441	8.02068
912.83	-3.00707
913.219	-3.00786
913.608	-29.07111
913.997	3.00767
914.385	25.06051
914.774	13.03194
915.162	29.07038
915.55	-25.06087
915.939	-9.02305
916.327	-13.03232
916.715	40.10388
917.103	26.0641
917.491	27.06712
917.878	34.08456
918.266	7.01817
918.654	-14.03613
919.041	-15.03957
919.429	-63.15145
919.816	20.05101
920.203	2.00491
920.591	9.02236
920.978	17.04184
921.365	1.00265
921.752	-27.0653
922.139	18.03941
922.525	34.0841
922.912	-11.02706
923.299	47.11883
923.685	-16.04201
924.072	39.09018
924.458	-16.04027
924.844	16.04042
925.231	-6.01426
925.617	30.07793
926.003	35.0895
926.389	3.00761
926.774	25.06372
927.16	14.03507
927.546	-16.04148
927.931	33.08322
928.317	-13.03045
928.702	27.0638
929.088	44.10652
929.473	13.03339
929.858	11.02739
930.243	1.00244
930.628	18.0447
931.013	4.01003
931.398	14.03197
931.783	3.00785
932.167	-1.00245
932.552	-13.03254
932.937	26.0646
933.321	32.08138
933.705	-33.08438
934.09	-34.0853
934.474	23.05517
934.858	-26.06766
935.242	-23.0542
935.626	2.00518
936.009	0
936.393	5.01274
936.777	-63.16307
937.16	3.0079
937.544	-16.03781
937.927	-56.14467
938.311	14.0343
938.694	-42.11146
939.077	6.01465
939.46	-14.03441
939.843	-18.03817
940.226	29.07509
940.609	49.1147
940.991	7.01808
941.374	-6.01484
941.757	51.12664
942.139	-6.01366
942.522	-4.00948
942.904	-25.06071
943.286	12.03056
943.668	62.16117
944.05	9.02254
944.432	44.11019
944.814	53.13208
945.196	21.05256
945.578	16.03917
945.959	22.05211
946.341	-15.03672
946.722	-22.05205
947.104	20.04789
947.485	23.05474
947.866	6.01538
948.247	-28.07196
948.628	26.06377
949.009	37.09547
949.39	3.00748
949.771	46.10749
950.152	-15.03748
950.532	-19.048
950.913	64.15627
951.293	-4.01098
951.674	-12.0294
952.054	5.01251
952.434	-11.02752
952.814	-35.08312
953.194	-2.0052
953.574	6.01476
953.954	4.00965
954.334	-6.01511
954.714	7.01733
955.093	-22.05398
955.473	-8.02026
955.853	6.01552
956.232	-5.01366
956.611	-11.02644
956.99	-15.03765
957.37	16.04089
957.749	-7.01689
958.128	-16.04062
958.506	19.04972
958.885	-2.0051
959.264	-26.06554
959.643	18.0418
960.021	-28.07015
960.4	20.04574
960.778	-24.05917
961.156	22.05581
961.535	-7.01652
961.913	20.04728
962.291	28.07284
962.669	-77.19641
963.047	-11.02843
963.424	0
963.802	3.00743
964.18	48.12064
964.557	13.03041
964.935	-19.04535
965.312	38.09993
965.69	41.10281
966.067	-14.03453
966.444	11.02721
966.821	-22.05682
967.198	-44.10724
967.575	-43.10658
967.952	2.00469
968.329	-6.01476
968.705	9.01983
969.082	29.0755
969.458	-24.05878
969.835	-55.13497
970.211	17.04406
970.587	27.06734
970.963	19.04887
971.339	-29.07677
971.715	-24.06078
972.091	-6.01498
972.467	19.04749
972.843	45.11316
973.219	-9.02164
973.594	16.04225
973.97	15.03595
974.345	-25.06117
974.721	23.0559
975.096	-7.01724
975.471	-53.12562
975.846	4.00976
976.221	33.08521
976.596	24.05836
976.971	-2.00493
977.346	-7.01645
977.72	-40.10226
978.095	-42.10929
978.469	-36.08705
978.844	-1.00251
979.218	22.0539
979.593	-31.07449
979.967	40.09833
980.341	14.0328
980.715	-47.1198
981.089	26.06572
981.463	-13.03048
981.837	-5.01244
982.21	-68.15783
982.584	44.10724
982.957	-26.06607
983.331	3.00715
983.704	-19.04768
984.078	-25.06235
984.451	-15.03701
984.824	43.10669
985.197	25.06106
985.57	-25.06343
985.943	17.04169
986.316	40.09803
986.688	1.00243
987.061	26.06171
987.434	-17.04452
987.806	-12.02919
988.179	42.10102
988.551	-12.0308
988.923	-19.04687
989.295	10.02521
989.667	18.04433
990.039	-10.02513
990.411	-8.01871
990.783	-25.05763
991.155	6.01483
991.527	2.00486
991.898	-27.06817
992.27	15.03772
992.641	12.0302
993.012	17.04035
993.384	17.04104
993.755	4.01029
994.126	15.03631
994.497	8.02003
994.868	29.06687
995.239	0
995.61	13.03323
995.98	19.0469
996.351	3.00758
996.722	-18.04285
997.092	-27.06508
997.462	23.05525
997.833	-21.04998
998.203	-20.04894
998.573	-27.06814
998.943	50.11848
999.313	-27.06513
999.683	-8.01942
1000.053	7.01623
1000.423	13.03162
1000.792	27.07087
1001.162	4.00995
1001.531	-19.04752
1001.901	22.05496
1002.27	30.06809
1002.639	4.0103
1003.009	-4.00966
1003.378	15.03838
1003.747	-26.06261
1004.116	-12.02926
1004.485	-38.09161
1004.853	3.00763
1005.222	17.04324
1005.591	16.03831
1005.959	56.13029
1006.328	13.02987
1006.696	-50.12259
1007.064	43.10899
1007.433	-23.05765
1007.801	-14.03426
1008.169	21.05368
1008.537	19.04204
1008.905	3.00712
1009.273	-4.00998
1009.64	-4.00976
1010.008	52.12446
1010.375	-29.06932
1010.743	18.04185
1011.11	1.00241
1011.478	-6.01489
1011.845	-1.00237
1012.212	8.01854
1012.579	-18.0447
1012.946	34.08141
1013.313	3.00712
1013.68	6.01357
1014.047	76.18405
1014.414	-4.00961
1014.78	-41.10329
1015.147	5.0121
1015.513	6.01462
1015.88	-21.05402
1016.246	-17.04234
1016.612	45.10352
1016.978	37.0914
1017.344	19.04718
1017.71	1.00241
1018.076	75.17515
1018.442	-5.01292
1018.808	51.12788
1019.174	17.04316
1019.539	5.01145
1019.905	-16.03821
1020.27	-19.04773
1020.636	-24.05801
1021.001	35.08481
1021.366	-55.13407
1021.731	23.05933
1022.096	-53.13547
1022.461	-12.02839
1022.826	9.02174
1023.191	27.07087
1023.556	7.0166
1023.92	-8.01971
1024.285	29.07067
1024.649	-7.01723
1025.014	-18.04478
1025.378	15.03818
1025.742	20.05001
1026.107	23.05234
1026.471	23.05348
1026.835	-24.05978
1027.199	-9.02211
1027.562	21.0496
1027.926	7.01711
1028.29	60.15356
1028.654	33.07679
1029.017	-20.04943
1029.381	62.15105
1029.744	-5.01295
1030.107	-13.03074
1030.471	-20.04847
1030.834	18.0412
1031.197	-1.0024
1031.56	-17.04046
1031.923	-20.05221
1032.286	-36.08465
1032.648	31.07475
1033.011	2.00473
1033.374	4.00939
1033.736	41.10886
1034.099	17.0421
1034.461	37.09521
1034.823	1.00252
1035.185	8.02034
1035.548	14.03443
1035.91	13.03165
1036.272	27.06219
1036.634	13.03167
1036.995	-4.00943
1037.357	-1.00246
1037.719	-21.05138
1038.08	-10.02371
1038.442	20.0478
1038.803	30.07287
1039.165	-49.12521
1039.526	-36.08807
1039.887	14.03387
1040.248	6.01516
1040.609	-5.01238
1040.97	56.13872
1041.331	13.03289
1041.692	-18.04305
1042.053	-5.01149
1042.413	-1.00234
1042.774	-16.03926
1043.134	-4.0095
1043.495	9.0227
1043.855	-9.022
1044.215	-31.07731
1044.576	13.03171
1044.936	-23.05268
1045.296	18.04495
1045.656	-1.00248
1046.016	-15.03665
1046.375	24.05926
1046.735	58.13372
1047.095	-16.03818
1047.454	-29.062
1047.814	-42.10145
1048.173	-19.04535
1048.533	-30.07024
1048.892	6.01476
1049.251	0
1049.61	-12.03001
1049.969	7.01651
1050.328	-11.02425
1050.687	6.01478
1051.046	-8.01963
1051.405	18.04503
1051.763	-16.03753
1052.122	45.11385
1052.48	-31.07664
1052.839	-9.0215
1053.197	-64.15271
1053.555	-12.02702
1053.914	49.12003
1054.272	17.04098
1054.63	25.06214
1054.988	-31.07478
1055.345	51.11111
1055.703	-24.0579
1056.061	-4.01038
1056.419	-33.08662
1056.776	2.00485
1057.134	10.02351
1057.491	-18.04547
1057.848	16.04004
1058.206	16.03805
1058.563	-4.00902
1058.92	26.06009
1059.277	-20.04943
1059.634	14.03339
1059.991	-42.10068
1060.348	2.00467
1060.704	-37.09016
1061.061	-78.18033
1061.418	35.08589
1061.774	-9.02253
1062.131	-33.08832
1062.487	-18.04259
1062.843	9.02262
1063.199	-16.04003
1063.555	-11.02583
1063.911	1.00256
1064.267	1.0021
1064.623	2.00494
1064.979	-40.09438
1065.335	-24.05696
1065.691	-34.08166
1066.046	-38.0846
1066.402	19.04399
1066.757	3.00755
1067.112	-58.14257
1067.468	-57.13858
1067.823	-11.0268
1068.178	-16.03898
1068.533	41.09882
1068.888	63.15076
1069.243	20.04965
1069.598	59.14398
1069.952	-1.00232
1070.307	20.05027
1070.662	-11.02672
1071.016	20.04589
1071.371	-36.08359
1071.725	-3.00721
1072.079	-36.08708
1072.434	-5.01232
1072.788	54.13058
1073.142	33.08104
1073.496	46.1122
1073.85	-6.01402
1074.203	-13.03145
1074.557	13.0348
1074.911	16.03811
1075.265	-11.02584
1075.618	40.09778
1075.971	23.05521
1076.325	50.12774
1076.678	33.07776
1077.031	-44.10285
1077.385	-9.02031
1077.738	52.11998
1078.091	13.03053
1078.444	29.06796
1078.796	-21.0522
1079.149	12.02987
1079.502	6.01448
1079.855	29.06865
1080.207	8.0197
1080.56	34.08875
1080.912	15.03684
1081.264	17.04129
1081.617	42.10404
1081.969	1.00257
1082.321	43.10619
1082.673	16.03767
1083.025	-35.08388
1083.377	12.0259
1083.728	26.06102
1084.08	5.01268
1084.432	16.03923
1084.783	-48.11331
1085.135	-9.02287
1085.486	10.02348
1085.838	14.03476
1086.189	-25.06178
1086.54	8.01909
1086.891	7.01802
1087.242	-36.08888
1087.593	-9.02178
1087.944	47.10834
1088.295	15.03402
1088.646	25.06092
1088.996	-12.02961
1089.347	-4.00991
1089.698	38.09189
1090.048	7.01819
1090.398	-28.06594
1090.749	1.0024
1091.099	-2.00511
1091.449	-17.04258
1091.799	42.10621
1092.149	14.03521
1092.499	-56.13781
1092.849	-7.01796
1093.199	6.01496
1093.548	-24.05836
1093.898	18.04571
1094.248	-7.01799
1094.597	-32.08387
1094.947	2.00536
1095.296	15.03746
1095.645	10.026
1095.994	45.10929
1096.343	-5.01268
1096.692	22.0587
1097.041	11.03012
1097.39	16.04024
1097.739	-19.04942
1098.088	7.0188
1098.437	-25.06673
1098.785	38.10289
1099.134	41.1085
1099.482	21.0576
1099.83	5.01305
1100.179	-34.09008
1100.527	29.07762
1100.875	-19.05085
1101.223	7.01856
1101.571	-6.01677
1101.919	-35.09361
1102.267	-26.07378
1102.615	3.00966
1102.962	2.00643
1103.31	1.00322
1103.658	4.01287
