Data from N2 R1 sample 2_Subt2__4__13-48-52-936.txt Node

Date: Wed Aug 27 13:48:52 PDT 2025
User: uwsun
Spectrometer: HDX01956
Trigger mode: 0
Integration Time (sec): 5.000000E-1
Scans to average: 1
Nonlinearity correction enabled: true
Boxcar width: 0
Storing dark spectrum: false
XAxis mode: Wavelengths
Number of Pixels in Spectrum: 2068
>>>>>Begin Spectral Data<<<<<
194.03	218.61594
194.578	231.7335
195.127	221.69302
195.676	220.69186
196.225	218.57829
196.773	236.64924
197.321	345.93194
197.87	423.05235
198.418	502.24537
198.966	470.18491
199.513	476.15712
200.061	498.22465
200.609	479.20957
201.156	450.9655
201.704	492.20587
202.251	452.15405
202.798	526.32061
203.345	498.18307
203.892	454.10314
204.438	500.14992
204.985	518.18142
205.532	507.27582
206.078	545.28122
206.624	564.32876
207.17	499.11626
207.716	504.19367
208.262	463.88641
208.808	543.28592
209.354	515.21248
209.899	497.19855
210.445	485.16208
210.99	464.08525
211.535	497.12502
212.08	526.1799
212.625	524.24826
213.17	432.04842
213.715	453.99391
214.259	528.16788
214.804	493.17095
215.348	448.99762
215.892	491.12807
216.436	454.01146
216.98	425.92032
217.524	470.06919
218.068	429.03392
218.612	479.16203
219.155	442.007
219.698	440.00728
220.242	453.07539
220.785	411.93474
221.328	489.16678
221.871	390.94536
222.414	463.11012
222.956	418.98154
223.499	432.94685
224.041	455.03313
224.583	405.84441
225.126	455.97896
225.668	430.01893
226.21	407.99339
226.751	420.90581
227.293	397.88426
227.835	406.96043
228.376	488.08421
228.918	481.15685
229.459	442.06953
230	449.01824
230.541	481.07106
231.082	484.1299
231.622	450.01659
232.163	448.05185
232.704	465.11366
233.244	381.90949
233.784	428.00247
234.324	434.93118
234.864	392.87005
235.404	446.01081
235.944	466.05323
236.484	455.07683
237.023	481.09448
237.563	440.98711
238.102	389.88078
238.641	432.04607
239.18	443.00583
239.719	490.17697
240.258	450.97465
240.797	483.11674
241.335	446.04593
241.874	466.87469
242.412	444.02459
242.95	469.08818
243.488	452.00617
244.026	470.03723
244.564	435.86343
245.102	479.0472
245.64	460.06579
246.177	402.87517
246.715	424.97696
247.252	450.99003
247.789	428.76419
248.326	497.15416
248.863	496.04395
249.4	435.94318
249.936	487.97792
250.473	481.07637
251.009	533.16988
251.546	517.10278
252.082	422.88904
252.618	470.01775
253.154	457.05527
253.69	478.03951
254.226	430.97576
254.761	459.9986
255.297	474.01112
255.832	435.98731
256.367	483.09859
256.903	476.00881
257.438	474.05262
257.972	549.17217
258.507	499.10984
259.042	491.0046
259.576	464.97192
260.111	463.02452
260.645	448.92929
261.179	480.06596
261.713	499.06386
262.247	478.05624
262.781	430.87044
263.315	446.04389
263.849	487.16422
264.382	538.15981
264.915	540.21432
265.449	523.22323
265.982	536.15055
266.515	522.20681
267.048	429.8714
267.58	491.01322
268.113	483.00739
268.646	507.19409
269.178	561.20249
269.71	455.94149
270.243	495.0754
270.775	531.28113
271.307	540.2163
271.838	522.16131
272.37	488.14014
272.902	517.11899
273.433	542.12342
273.965	530.21708
274.496	504.1785
275.027	540.27117
275.558	513.18339
276.089	528.24482
276.62	497.19539
277.15	539.2538
277.681	536.10304
278.211	500.16639
278.741	508.07676
279.272	576.2392
279.802	560.31933
280.332	561.25671
280.861	580.30865
281.391	564.20814
281.921	501.13179
282.45	562.32507
282.98	554.35601
283.509	569.21021
284.038	563.20574
284.567	526.14796
285.096	582.3105
285.625	513.09518
286.153	523.16571
286.682	595.28918
287.21	533.21103
287.739	536.19891
288.267	550.25853
288.795	584.43479
289.323	552.21851
289.851	539.1801
290.378	643.35478
290.906	613.40314
291.433	578.3449
291.961	599.2835
292.488	568.30914
293.015	555.22999
293.542	598.42039
294.069	626.44066
294.596	577.32911
295.122	648.42831
295.649	526.09117
296.175	646.45535
296.702	613.37616
297.228	615.38065
297.754	576.21263
298.28	613.3045
298.806	581.29143
299.332	661.36835
299.857	592.24691
300.383	596.39009
300.908	649.47967
301.433	643.43767
301.958	700.49728
302.483	648.50733
303.008	586.32597
303.533	660.58755
304.058	612.32352
304.582	697.52776
305.107	643.55276
305.631	670.39473
306.155	699.49997
306.679	621.35759
307.203	702.48862
307.727	674.48443
308.251	624.40632
308.775	695.50994
309.298	680.50954
309.822	718.64005
310.345	696.49577
310.868	689.4988
311.391	704.55639
311.914	719.65385
312.437	709.44952
312.96	744.57983
313.482	736.57707
314.005	746.70881
314.527	720.70902
315.049	774.74462
315.571	764.53213
316.093	810.77598
316.615	731.58284
317.137	729.42652
317.659	816.72532
318.18	808.7151
318.702	826.72213
319.223	830.50098
319.744	885.74042
320.265	830.77787
320.786	866.89323
321.307	910.97774
321.828	857.68133
322.348	813.67364
322.869	906.87486
323.389	881.28518
323.909	906.80807
324.43	934.90704
324.95	940.85262
325.47	982.06761
325.989	919.86072
326.509	1013.90579
327.029	964.86358
327.548	1008.90796
328.067	988.04122
328.587	966.01168
329.106	1061.04554
329.625	997.19935
330.144	966.87368
330.662	1047.03292
331.181	1019.97803
331.7	1061.03872
332.218	1056.88363
332.736	1055.01456
333.255	1111.12483
333.773	1107.12021
334.291	1084.19107
334.808	1113.99935
335.326	1135.06159
335.844	1193.22848
336.361	1219.46939
336.879	1189.24387
337.396	1270.39309
337.913	1270.33035
338.43	1255.18871
338.947	1295.40302
339.464	1273.13455
339.981	1286.36921
340.497	1289.46734
341.014	1304.47404
341.53	1306.25607
342.046	1329.49183
342.562	1346.53918
343.078	1330.38862
343.594	1423.54664
344.11	1410.48027
344.626	1394.64017
345.141	1371.30607
345.657	1434.31482
346.172	1512.66201
346.687	1431.42578
347.202	1416.37004
347.717	1506.58579
348.232	1540.80813
348.747	1488.48194
349.261	1584.41416
349.776	1552.61751
350.29	1602.83586
350.805	1587.81997
351.319	1571.57675
351.833	1583.54956
352.347	1570.60979
352.861	1667.69811
353.374	1653.57593
353.888	1621.66091
354.401	1695.66788
354.915	1724.67321
355.428	1741.93958
355.941	1802.74915
356.454	1780.55268
356.967	1764.74386
357.48	1773.64051
357.993	1823.94019
358.505	1818.94913
359.018	1835.96469
359.53	1831.81436
360.042	1881.6101
360.554	1817.81682
361.066	1857.95913
361.578	1829.50771
362.09	1895.86704
362.602	1879.53667
363.113	1916.76477
363.625	1963.6527
364.136	2062.64103
364.647	2019.81996
365.158	2062.86611
365.669	2119.02349
366.18	2044.8637
366.691	2084.63069
367.201	2108.93529
367.712	2106.81537
368.222	2107.73942
368.733	2097.55176
369.243	2211.68069
369.753	2271.8007
370.263	2272.0535
370.773	2303.2249
371.282	2326.96927
371.792	2459.87523
372.301	2517.13253
372.811	2491.43651
373.32	2527.57181
373.829	2562.88624
374.338	2708.65001
374.847	2764.7741
375.356	2766.86767
375.865	2935.34113
376.373	3067.5423
376.882	3096.1105
377.39	3187.81847
377.898	3285.94626
378.407	3447.40685
378.915	3599.93089
379.423	3698.32008
379.93	3851.98229
380.438	4052.26015
380.946	4214.85384
381.453	4350.9467
381.96	4585.58488
382.468	4904.30468
382.975	5252.23627
383.482	5416.8337
383.989	5508.39649
384.495	5683.71926
385.002	5980.16326
385.509	6297.46061
386.015	6693.07011
386.521	6894.34171
387.028	7294.62374
387.534	7417.67957
388.04	7697.08198
388.546	7951.44246
389.051	8433.46834
389.557	9247.60328
390.063	9664.42138
390.568	9882.81581
391.073	10251.14766
391.578	10783.6104
392.084	10982.48748
392.589	11362.974
393.093	12581.44484
393.598	13627.89001
394.103	14822.44881
394.607	16245.02176
395.112	17190.42556
395.616	18560.83563
396.12	19975.28858
396.624	21948.10184
397.128	23857.55153
397.632	26615.24423
398.136	28628.04455
398.639	30249.72881
399.143	34374.89009
399.646	38517.55553
400.15	41985.42266
400.653	46718.98564
401.156	52995.40191
401.659	55267.06433
402.162	53821.55638
402.664	47275.14456
403.167	32260.27245
403.67	3851.94142
404.172	0
404.674	0
405.176	0
405.678	0
406.18	0
406.682	0
407.184	0
407.686	12367.42319
408.187	34596.90747
408.688	44563.94194
409.19	48906.19284
409.691	51236.67962
410.192	52883.26968
410.693	53713.23343
411.194	54189.54801
411.694	54767.79104
412.195	55625.98899
412.696	55971.27715
413.196	55815.15953
413.696	55802.1488
414.196	55740.09561
414.696	56340.4775
415.196	57067.59327
415.696	54059.77312
416.196	42661.30904
416.695	33937.0778
417.195	29950.47648
417.694	28853.43526
418.194	27012.94373
418.693	25171.01227
419.192	24630.73572
419.691	24131.33819
420.19	23607.86392
420.688	22825.97546
421.187	21737.92608
421.685	20233.27182
422.184	18169.69129
422.682	15780.4582
423.18	13665.54624
423.678	12315.76168
424.176	11252.97904
424.674	10794.00982
425.172	10326.94059
425.669	9580.47813
426.167	8831.29387
426.664	8033.57194
427.161	7420.77557
427.659	6952.64104
428.156	6523.08545
428.652	6128.92711
429.149	5875.75538
429.646	5603.50304
430.143	5291.04967
430.639	4997.18506
431.135	4755.72027
431.632	4549.48193
432.128	4122.83462
432.624	3973.47698
433.12	3781.87745
433.616	3788.73905
434.111	3718.33431
434.607	3565.41177
435.103	3416.86991
435.598	3283.76995
436.093	3096.47273
436.588	2882.31135
437.083	2897.4661
437.578	2651.39646
438.073	2570.9897
438.568	2447.83592
439.062	2424.27865
439.557	2320.63983
440.051	2254.55929
440.546	2175.57457
441.04	2193.77014
441.534	2077.90105
442.028	2076.67737
442.522	2051.71059
443.015	2011.40255
443.509	1958.7904
444.002	1919.74302
444.496	1948.32901
444.989	1877.7017
445.482	1901.79385
445.975	1866.47243
446.468	1820.3186
446.961	1663.10931
447.454	1778.45749
447.947	1611.41339
448.439	1651.54031
448.931	1626.24969
449.424	1642.65063
449.916	1560.45682
450.408	1554.22274
450.9	1548.41136
451.392	1514.54204
451.884	1489.24061
452.375	1505.48126
452.867	1370.04699
453.358	1464.19541
453.849	1420.00239
454.341	1378.06029
454.832	1366.98208
455.323	1450.4142
455.814	1399.16281
456.304	1301.08633
456.795	1384.18485
457.285	1310.99859
457.776	1245.96661
458.266	1238.12903
458.756	1269.20399
459.247	1228.12742
459.737	1252.1943
460.226	1134.88653
460.716	1162.04758
461.206	1198.11566
461.695	1115.11817
462.185	1111.98049
462.674	1120.91928
463.163	1105.84362
463.653	1063.68732
464.142	1097.00741
464.63	1068.9815
465.119	1013.81091
465.608	1051.87613
466.096	1071.7935
466.585	997.80053
467.073	908.73258
467.561	946.8026
468.05	942.73689
468.538	953.85852
469.026	930.76093
469.513	856.4492
470.001	960.79222
470.489	953.84886
470.976	834.55428
471.463	836.71371
471.951	814.66557
472.438	772.52041
472.925	819.61801
473.412	778.58896
473.899	763.46781
474.385	743.54928
474.872	720.42517
475.359	695.4728
475.845	701.25531
476.331	717.33354
476.817	664.38897
477.303	728.44237
477.789	677.40901
478.275	618.34505
478.761	618.31714
479.247	580.13693
479.732	652.42514
480.218	601.36739
480.703	574.26027
481.188	542.02476
481.673	549.12198
482.158	563.09601
482.643	582.31424
483.128	590.21164
483.612	507.06972
484.097	480.06773
484.581	456.95601
485.066	503.11273
485.55	448.9048
486.034	455.91072
486.518	423.90543
487.002	515.16346
487.486	435.9845
487.969	387.87946
488.453	432.99578
488.936	411.86301
489.42	442.90783
489.903	355.82828
490.386	459.69955
490.869	383.77619
491.352	366.82315
491.835	378.73189
492.318	410.87173
492.8	388.77068
493.283	344.81883
493.765	330.76951
494.247	308.68165
494.73	316.65872
495.212	317.71253
495.694	359.79301
496.175	315.71239
496.657	311.69647
497.139	306.51448
497.62	272.62404
498.102	320.76231
498.583	361.85318
499.064	248.52823
499.545	286.6253
500.026	305.65598
500.507	276.6167
500.988	310.73083
501.469	288.69004
501.949	200.47355
502.43	238.55042
502.91	262.52915
503.39	225.54045
503.87	237.54015
504.35	246.55443
504.83	233.49812
505.31	220.51465
505.79	215.50207
506.269	206.46562
506.749	157.35292
507.228	243.55137
507.707	182.39288
508.187	181.41852
508.666	131.31312
509.145	132.30468
509.623	224.51455
510.102	157.37196
510.581	117.2743
511.059	189.46362
511.538	190.47167
512.016	255.59289
512.494	281.65978
512.972	147.34005
513.45	167.38278
513.928	182.4331
514.406	177.42387
514.884	167.41858
515.361	165.38153
515.839	187.41828
516.316	158.37425
516.793	157.38841
517.27	134.31765
517.747	166.4187
518.224	186.41716
518.701	160.35146
519.178	149.3613
519.654	160.37048
520.131	156.37664
520.607	130.31435
521.083	152.34287
521.56	102.23731
522.036	140.30364
522.512	128.30636
522.987	137.32131
523.463	116.27329
523.939	97.23247
524.414	178.4025
524.89	147.34571
525.365	86.19241
525.84	147.34436
526.315	143.33932
526.79	115.2549
527.265	145.32861
527.74	67.16143
528.215	175.4122
528.689	89.19645
529.164	145.31335
529.638	103.26078
530.112	108.25295
530.587	142.30535
531.061	108.25948
531.534	148.35409
532.008	98.23545
532.482	102.2299
532.956	92.23081
533.429	80.19089
533.903	83.18167
534.376	112.24913
534.849	85.19397
535.322	139.32333
535.795	54.13058
536.268	129.30669
536.741	75.17742
537.213	88.20142
537.686	96.23091
538.158	110.24722
538.631	106.25031
539.103	99.22355
539.575	70.14566
540.047	151.32967
540.519	137.3183
540.991	93.22221
541.463	88.21022
541.934	80.18068
542.406	111.25871
542.877	86.19066
543.348	73.16967
543.82	98.23527
544.291	76.17361
544.762	150.34912
545.233	121.29572
545.703	128.27987
546.174	120.27511
546.645	134.31618
547.115	156.36909
547.585	161.35685
548.056	144.3378
548.526	148.34093
548.996	190.43925
549.466	169.39683
549.935	146.33981
550.405	192.40967
550.875	215.48962
551.344	188.43376
551.814	218.48369
552.283	206.42923
552.752	250.5503
553.221	286.59274
553.69	264.55277
554.159	329.76129
554.628	222.48272
555.096	254.61021
555.565	283.61129
556.033	271.6044
556.502	288.66392
556.97	208.44015
557.438	215.48665
557.906	229.52024
558.374	261.57294
558.842	247.5659
559.31	283.60579
559.777	218.50857
560.245	279.61271
560.712	235.51869
561.18	306.64439
561.647	265.56186
562.114	366.79579
562.581	271.62486
563.048	346.74911
563.514	353.81227
563.981	374.80004
564.448	397.82148
564.914	425.8987
565.381	423.87841
565.847	475.00208
566.313	478.02099
566.779	556.13348
567.245	464.97708
567.711	551.1861
568.176	575.13695
568.642	591.30771
569.108	591.28377
569.573	613.25526
570.038	704.2662
570.504	678.32062
570.969	640.37353
571.434	709.31733
571.899	725.47691
572.363	806.52057
572.828	798.49589
573.293	843.61574
573.757	832.57507
574.222	869.60483
574.686	884.62974
575.15	892.74968
575.614	897.68471
576.078	914.72722
576.542	901.65162
577.006	905.6415
577.469	908.77357
577.933	892.63386
578.396	922.76444
578.86	900.71978
579.323	888.74673
579.786	880.527
580.249	857.59999
580.712	875.73363
581.175	828.69806
581.637	824.54472
582.1	819.44004
582.563	829.44854
583.025	841.68403
583.487	766.30274
583.95	758.3747
584.412	751.29815
584.874	702.45689
585.336	709.43119
585.797	693.26647
586.259	634.28515
586.721	588.21078
587.182	597.19763
587.643	598.16013
588.105	526.07659
588.566	517.94105
589.027	537.13461
589.488	476.95606
589.949	493.05469
590.41	476.83457
590.87	410.82084
591.331	439.84615
591.791	462.95148
592.252	364.75236
592.712	398.84769
593.172	378.77044
593.632	360.69837
594.092	373.74762
594.552	291.56735
595.011	402.83313
595.471	323.66028
595.931	353.70983
596.39	367.80458
596.849	344.72823
597.308	245.48107
597.768	336.78812
598.227	327.71176
598.685	319.66216
599.144	301.65156
599.603	316.68417
600.062	319.6246
600.52	271.56152
600.978	311.67838
601.437	332.68991
601.895	327.6239
602.353	318.63635
602.811	335.68419
603.269	289.62959
603.727	302.66363
604.184	337.69734
604.642	297.66046
605.099	418.87945
605.557	323.71589
606.014	356.69622
606.471	349.79505
606.928	325.63846
607.385	359.79798
607.842	476.97369
608.299	434.90306
608.755	396.85076
609.212	383.7769
609.668	392.78407
610.125	421.89765
610.581	398.82742
611.037	345.7059
611.493	411.86263
611.949	324.70778
612.405	419.77386
612.861	405.84254
613.316	403.87492
613.772	390.79489
614.227	362.76063
614.683	340.66115
615.138	408.86181
615.593	413.87256
616.048	390.80863
616.503	332.7274
616.958	339.76634
617.412	392.83709
617.867	388.78902
618.321	469.87577
618.776	343.69004
619.23	299.64391
619.684	410.84173
620.138	340.7037
620.592	315.69554
621.046	309.65715
621.5	358.79493
621.954	331.6794
622.407	354.71693
622.861	330.73977
623.314	327.68028
623.768	328.70195
624.221	288.52829
624.674	274.58462
625.127	303.64944
625.58	259.5393
626.033	240.48806
626.485	247.55885
626.938	277.60678
627.39	265.57805
627.843	263.56298
628.295	215.46481
628.747	304.67083
629.199	247.52622
629.651	215.46819
630.103	246.53217
630.555	239.48724
631.006	245.53941
631.458	238.53487
631.909	182.3949
632.361	146.32987
632.812	200.4432
633.263	153.31731
633.714	220.45575
634.165	149.3433
634.616	145.33075
635.067	110.23389
635.518	127.29203
635.968	141.2749
636.419	124.26148
636.869	79.18057
637.319	184.42013
637.769	84.18397
638.219	144.33225
638.669	84.19543
639.119	93.21752
639.569	104.24502
640.019	92.206
640.468	109.23858
640.918	76.17668
641.367	77.17153
641.816	48.10468
642.265	62.13986
642.714	104.23402
643.163	59.13322
643.612	22.05286
644.061	13.02755
644.51	82.18459
644.958	64.14094
645.406	86.20198
645.855	57.13931
646.303	95.21819
646.751	102.22905
647.199	0
647.647	36.08217
648.095	42.09586
648.543	108.22203
648.99	65.15442
649.438	-5.01157
649.885	30.07273
650.333	87.16994
650.78	10.02423
651.227	36.08751
651.674	98.22251
652.121	83.20006
652.568	83.20028
653.015	65.16258
653.461	31.07345
653.908	36.08323
654.354	42.10014
654.801	88.20861
655.247	56.12146
655.693	13.03351
656.139	105.25222
656.585	107.25497
657.031	91.21451
657.477	47.10366
657.922	87.20141
658.368	68.1682
658.813	101.2328
659.259	89.21249
659.704	52.12198
660.149	64.15025
660.594	61.1453
661.039	42.09613
661.484	49.11685
661.929	56.13065
662.373	44.11198
662.818	26.06483
663.262	33.08017
663.707	15.03811
664.151	10.02444
664.595	53.13011
665.039	-8.02006
665.483	89.22781
665.927	6.01417
666.371	75.17783
666.814	74.17745
667.258	22.0531
667.701	65.14167
668.145	37.09258
668.588	57.14071
669.031	29.06985
669.474	45.10933
669.917	24.05385
670.36	25.06266
670.803	49.1194
671.245	71.15468
671.688	51.12414
672.13	63.14591
672.573	43.10926
673.015	14.03413
673.457	101.22415
673.899	72.17489
674.341	28.06832
674.783	43.10494
675.225	64.15952
675.666	76.18592
676.108	-15.03325
676.549	43.10255
676.991	47.10656
677.432	75.15895
677.873	8.01899
678.314	20.04862
678.755	66.16337
679.196	79.1863
679.637	53.13107
680.078	56.13332
680.518	26.06154
680.959	26.06259
681.399	5.01261
681.839	67.16485
682.28	61.15312
682.72	27.06412
683.16	54.1365
683.6	44.10172
684.039	-27.0585
684.479	17.04257
684.919	33.07933
685.358	44.11205
685.798	69.18388
686.237	61.14898
686.676	14.03269
687.115	61.14558
687.554	47.11419
687.993	34.07729
688.432	47.10985
688.871	52.12127
689.309	75.18241
689.748	75.16131
690.186	14.03425
690.625	78.18676
691.063	56.13765
691.501	72.1807
691.939	66.1682
692.377	79.19652
692.815	65.15863
693.253	45.10941
693.69	19.04325
694.128	21.05258
694.565	29.07069
695.003	33.0848
695.44	52.12588
695.877	26.06275
696.314	53.11713
696.751	58.13361
697.188	19.04456
697.625	58.13388
698.061	60.14765
698.498	87.21255
698.934	31.07619
699.371	25.06053
699.807	93.22297
700.243	59.14345
700.679	17.03959
701.115	35.08276
701.551	68.16164
701.987	84.19242
702.422	54.13127
702.858	45.1099
703.294	-12.0277
703.729	49.12131
704.164	4.00982
704.599	23.05259
705.035	0
705.47	8.0198
705.904	68.16282
706.339	110.25663
706.774	60.14405
707.209	81.19176
707.643	55.13412
708.078	27.06672
708.512	20.05115
708.946	60.14492
709.38	65.15697
709.814	61.14396
710.248	58.1442
710.682	37.09043
711.116	120.29355
711.549	51.13419
711.983	12.02868
712.416	55.13227
712.85	65.16451
713.283	29.06982
713.716	42.10571
714.149	91.21718
714.582	37.0859
715.015	49.12344
715.448	83.21081
715.881	11.02429
716.313	11.02605
716.746	21.05085
717.178	31.07638
717.61	70.17802
718.043	47.11836
718.475	40.09814
718.907	20.05075
719.339	54.12658
719.77	16.03898
720.202	66.16885
720.634	26.06502
721.065	50.12168
721.497	81.20142
721.928	39.09807
722.359	34.0849
722.79	37.0912
723.221	23.05852
723.652	32.08287
724.083	45.10505
724.514	13.0305
724.945	17.04104
725.375	64.15371
725.806	-9.02261
726.236	55.14078
726.666	68.16462
727.096	48.12073
727.526	-25.0654
727.956	63.14799
728.386	77.19259
728.816	95.24674
729.246	26.06467
729.675	6.01508
730.105	57.14267
730.534	51.12195
730.964	42.10715
731.393	46.11449
731.822	2.00515
732.251	67.17246
732.68	54.12791
733.109	46.11669
733.537	50.12331
733.966	63.15814
734.395	33.07815
734.823	60.13789
735.251	4.00989
735.68	62.15622
736.108	35.09031
736.536	75.18146
736.964	4.00957
737.392	49.12433
737.82	1.00242
738.247	53.12987
738.675	-8.01933
739.102	67.17156
739.53	27.06974
739.957	-21.05505
740.384	40.09923
740.811	14.03602
741.238	2.00497
741.665	-8.01914
742.092	67.16174
742.519	41.10429
742.945	32.07831
743.372	32.08083
743.798	30.07839
744.225	59.14371
744.651	1.00256
745.077	41.10373
745.503	47.11734
745.929	40.09803
746.355	-16.03955
746.781	21.05304
747.207	-22.05344
747.632	23.05769
748.058	11.02774
748.483	55.13026
748.908	17.04309
749.334	25.06305
749.759	46.11178
750.184	-9.02206
750.609	12.02982
751.033	-18.04288
751.458	-12.0276
751.883	-6.01499
752.307	33.08026
752.732	34.08781
753.156	24.0608
753.58	1.00242
754.005	17.04364
754.429	3.00727
754.853	38.09657
755.277	-26.06292
755.7	16.04033
756.124	8.02031
756.548	29.0709
756.971	21.05241
757.394	30.0782
757.818	24.0628
758.241	29.07483
758.664	45.11656
759.087	-5.01164
759.51	7.01769
759.933	-27.0665
760.356	6.01552
760.778	59.14975
761.201	53.13098
761.623	36.08882
762.046	31.07398
762.468	11.02684
762.89	27.06672
763.312	-18.0447
763.734	21.05169
764.156	30.07562
764.578	-17.04007
765	24.06013
765.421	66.17304
765.843	58.15294
766.264	-3.00732
766.686	13.03296
767.107	60.14841
767.528	12.03117
767.949	-22.05674
768.37	20.05038
768.791	35.08608
769.212	45.1162
769.632	7.01686
770.053	13.03478
770.473	25.06194
770.894	2.00503
771.314	9.02166
771.734	13.03126
772.154	14.03654
772.575	43.10081
772.994	-3.00704
773.414	31.0754
773.834	-26.06568
774.254	36.09038
774.673	17.04198
775.093	-22.05545
775.512	13.03303
775.931	13.03366
776.351	-1.00254
776.77	13.03286
777.189	45.109
777.607	-10.02583
778.026	-24.06088
778.445	-16.04075
778.864	-10.02585
779.282	34.08382
779.701	22.05628
780.119	16.04124
780.537	40.1018
780.955	18.04631
781.373	-32.0808
781.791	-8.01848
782.209	6.01392
782.627	-23.06141
783.045	-32.07609
783.462	1.00258
783.88	-6.01589
784.297	-8.02069
784.715	-9.02366
785.132	-29.0719
785.549	31.07918
785.966	-8.02043
786.383	-20.05036
786.8	-22.05181
787.217	-11.02667
787.633	26.06663
788.05	-1.00238
788.466	49.11672
788.883	-35.09119
789.299	25.06099
789.715	11.02747
790.131	-6.01528
790.547	-19.04788
790.963	20.05048
791.379	-45.11616
791.795	-12.02778
792.21	-30.07252
792.626	21.05033
793.041	11.02766
793.457	-11.02762
793.872	24.05703
794.287	66.16248
794.702	19.04706
795.117	29.07389
795.532	-21.05385
795.947	-19.04654
796.362	-41.0989
796.776	-19.0447
797.191	31.07762
797.605	14.03396
798.02	43.10662
798.434	5.01134
798.848	-5.01262
799.262	-6.0153
799.676	-13.03206
800.09	-3.00742
800.504	37.0911
800.918	-9.02147
801.331	18.04713
801.745	-46.10766
802.158	6.01528
802.572	-9.0219
802.985	30.07333
803.398	34.08228
803.811	-27.06972
804.224	-19.04788
804.637	-29.0709
805.05	3.00712
805.462	30.07524
805.875	11.02914
806.288	-53.13083
806.7	-25.06411
807.112	15.03543
807.525	-29.07272
807.937	-19.04811
808.349	-17.0429
808.761	-7.01732
809.173	9.02219
809.584	-16.03958
809.996	-24.0606
810.408	24.06299
810.819	32.07738
811.231	82.21638
811.642	77.19029
812.053	114.27545
812.464	98.23509
812.875	77.1982
813.286	6.01554
813.697	-26.0604
814.108	1.00246
814.519	15.03369
814.929	-28.07166
815.34	17.04161
815.75	27.06926
816.16	23.05765
816.571	11.02899
816.981	-11.02606
817.391	31.07591
817.801	6.01512
818.211	5.01201
818.62	28.0688
819.03	20.04969
819.44	11.02881
819.849	16.04091
820.259	11.02814
820.668	-41.10347
821.077	-15.0383
821.486	48.11707
821.895	16.03953
822.304	11.02928
822.713	-34.08222
823.122	-7.01763
823.531	-10.02394
823.939	-6.01488
824.348	43.10509
824.756	48.12055
825.164	1.00252
825.573	-9.02301
825.981	-18.0447
826.389	48.12129
826.797	59.14991
827.205	1.00237
827.612	30.07415
828.02	40.09585
828.428	16.04095
828.835	-47.12558
829.243	-3.00723
829.65	-6.01514
830.057	-20.04896
830.464	-13.03208
830.871	6.01439
831.278	4.00979
831.685	6.01367
832.092	-7.01745
832.499	17.03793
832.905	-5.01277
833.312	23.05306
833.718	-1.0025
834.124	-12.02772
834.531	30.07597
834.937	10.02581
835.343	72.17404
835.749	24.05634
836.155	3.00796
836.561	-13.03223
836.966	-1.00246
837.372	45.11543
837.777	14.03521
838.183	29.06556
838.588	22.05533
838.993	-16.03907
839.399	60.14934
839.804	3.00747
840.209	10.02583
840.613	19.04303
841.018	-25.06433
841.423	6.01552
841.828	-21.05377
842.232	17.04207
842.637	-4.00959
843.041	19.04925
843.445	25.06334
843.849	22.05508
844.253	3.00719
844.657	7.01794
845.061	-42.09729
845.465	36.08869
845.869	44.10318
846.272	11.02735
846.676	-34.08191
847.079	21.05424
847.483	12.02993
847.886	29.07069
848.289	25.06724
848.692	-37.09471
849.095	28.06786
849.498	21.05279
849.901	23.05333
850.304	-3.00721
850.707	12.0307
851.109	-4.0101
851.512	31.07754
851.914	41.10623
852.316	40.10172
852.718	57.15114
853.121	17.04247
853.523	75.18009
853.925	13.03442
854.326	7.01783
854.728	7.01821
855.13	-23.06023
855.531	8.01965
855.933	18.04369
856.334	-2.00505
856.736	27.06271
857.137	48.11322
857.538	39.09969
857.939	62.1556
858.34	25.0614
858.741	0
859.142	3.00726
859.542	-4.01066
859.943	31.07846
860.343	34.08598
860.744	9.02212
861.144	13.03202
861.544	17.04212
861.945	41.10535
862.345	4.00987
862.745	-17.04266
863.145	11.02627
863.544	26.06621
863.944	52.12484
864.344	17.0422
864.743	10.02483
865.143	37.09613
865.542	32.07557
865.941	-17.04252
866.34	-28.06766
866.74	14.03771
867.139	-58.14247
867.537	30.07683
867.936	-14.03425
868.335	27.06885
868.734	34.08753
869.132	28.06568
869.531	6.01438
869.929	45.10513
870.327	33.08062
870.726	13.03236
871.124	6.01406
871.522	-2.00512
871.92	40.09941
872.318	21.05136
872.715	-23.05692
873.113	21.05174
873.511	-48.11969
873.908	-31.07966
874.306	46.11574
874.703	15.03771
875.1	12.03058
875.497	25.06049
875.894	7.01758
876.291	-37.0912
876.688	14.03641
877.085	45.10797
877.482	35.08817
877.878	6.01474
878.275	2.00512
878.671	-10.02215
879.068	40.09683
879.464	26.06377
879.86	27.06505
880.256	-20.04983
880.652	40.10305
881.048	30.07451
881.444	-32.07691
881.84	41.10502
882.236	5.01265
882.631	-3.00742
883.027	-20.04858
883.422	47.12136
883.817	28.07194
884.213	45.11616
884.608	34.08533
885.003	34.0837
885.398	-16.04082
885.793	-2.0051
886.188	2.00509
886.582	53.13562
886.977	33.07921
887.371	-26.06565
887.766	-21.05328
888.16	22.05541
888.554	-67.16649
888.949	15.03768
889.343	32.07851
889.737	2.00541
890.131	55.13851
890.525	44.11367
890.918	11.02804
891.312	58.13802
891.706	1.00264
892.099	23.05858
892.492	-4.00872
892.886	21.05254
893.279	41.1059
893.672	16.04122
894.065	20.0503
894.458	-6.01515
894.851	0
895.244	48.12362
895.637	2.00487
896.029	25.06214
896.422	-6.01484
896.814	64.16085
897.206	-10.02432
897.599	1.00247
897.991	3.00738
898.383	-28.06702
898.775	-3.00689
899.167	-25.06024
899.559	-12.03044
899.951	45.10715
900.342	44.11233
900.734	-16.04082
901.125	22.05848
901.517	4.00987
901.908	7.01681
902.299	31.07759
902.69	45.10699
903.082	-24.05814
903.473	38.09261
903.863	-8.02048
904.254	-62.14715
904.645	31.07627
905.036	-2.00494
905.426	22.05084
905.817	17.04229
906.207	38.0922
906.597	-25.05983
906.987	-19.04908
907.378	-33.08447
907.768	6.01601
908.158	11.02708
908.547	51.13374
908.937	-1.00256
909.327	-5.01225
909.717	10.02531
910.106	11.02704
910.495	-26.06542
910.885	47.11955
911.274	-12.03046
911.663	-15.03825
912.052	5.01235
912.441	21.05415
912.83	49.11425
913.219	-10.02622
913.608	-43.10572
913.997	20.05099
914.385	43.10372
914.774	29.07104
915.162	29.07038
915.55	-4.0097
915.939	-5.01279
916.327	-56.14029
916.715	40.10388
917.103	16.03952
917.491	39.09673
917.878	38.09444
918.266	0
918.654	-24.06205
919.041	-21.05546
919.429	-55.13202
919.816	29.07384
920.203	2.00491
920.591	-31.07759
920.978	9.02218
921.365	16.04223
921.752	-33.0799
922.139	26.05682
922.525	41.10129
922.912	10.02451
923.299	44.1113
923.685	-12.03148
924.072	-7.01633
924.458	-11.02766
924.844	5.01265
925.231	-20.04765
925.617	19.04945
926.003	0
926.389	-27.06882
926.774	0
927.16	4.01004
927.546	-18.04668
927.931	30.0757
928.317	-1.00234
928.702	-33.07888
929.088	7.01706
929.473	-8.02062
929.858	29.07198
930.243	4.00974
930.628	30.07434
931.013	4.01003
931.398	-41.09466
931.783	-38.10007
932.167	-21.05173
932.552	-11.02752
932.937	-7.0175
933.321	10.02553
933.705	23.05823
934.09	-21.05256
934.474	29.06948
934.858	-22.05721
935.242	-35.08267
935.626	4.01037
936.009	5.01344
936.393	-3.00765
936.777	-38.09793
937.16	18.04727
937.544	-1.00236
937.927	-31.07974
938.311	-20.04931
938.694	-21.05554
939.077	-12.02939
939.46	25.06101
939.843	-17.03604
940.226	30.07767
940.609	43.10077
940.991	45.11547
941.374	-37.09201
941.757	41.10199
942.139	-34.07785
942.522	-22.05229
942.904	-14.03393
943.286	37.09381
943.668	31.08102
944.05	28.06989
944.432	63.15723
944.814	51.12714
945.196	39.0973
945.578	54.13127
945.959	-12.02861
946.341	-16.03917
946.722	-25.05918
947.104	2.00481
947.485	59.13946
947.866	27.06894
948.247	-9.02305
948.628	18.04421
949.009	-10.02601
949.39	29.07201
949.771	24.05632
950.152	22.0546
950.532	-17.04293
950.913	61.14903
951.293	27.07373
951.674	1.00244
952.054	-9.02258
952.434	11.02741
952.814	-6.01417
953.194	-14.03644
953.574	10.02458
953.954	8.01929
954.334	8.02009
954.714	0
955.093	-17.04167
955.473	-6.01519
955.853	49.12578
956.232	1.00273
956.611	9.02155
956.99	-49.12375
957.37	-6.01539
957.749	-2.00482
958.128	-5.01267
958.506	24.06275
958.885	3.00764
959.264	25.06244
959.643	28.06489
960.021	-39.0979
960.4	-29.06698
960.778	-12.02952
961.156	-7.01785
961.535	-5.0118
961.913	3.00712
962.291	-1.00261
962.669	-51.12949
963.047	36.0923
963.424	42.10726
963.802	-26.06476
964.18	-5.01269
964.557	1.00234
964.935	-15.03577
965.312	12.0317
965.69	13.03276
966.067	57.13874
966.444	21.05186
966.821	-21.05422
967.198	7.0169
967.575	-2.00492
967.952	5.01171
968.329	22.05384
968.705	85.18432
969.082	19.04955
969.458	2.00487
969.835	-2.00486
970.211	13.03372
970.587	12.03001
970.963	5.01289
971.339	-16.04226
971.715	23.05776
972.091	47.11619
972.467	17.0425
972.843	0
973.219	12.02874
973.594	-23.06113
973.97	56.13316
974.345	27.06542
974.721	22.05348
975.096	-11.02711
975.471	-32.07554
975.846	4.00976
976.221	52.13383
976.596	29.07046
976.971	27.06623
977.346	-11.02587
977.72	-8.02034
978.095	-4.01034
978.469	-16.03854
978.844	-3.00753
979.218	41.10009
979.593	1.00239
979.967	9.02225
980.341	10.02345
980.715	2.00505
981.089	17.04304
981.463	-6.01405
981.837	-1.00249
982.21	-20.04598
982.584	-3.00738
982.957	16.04036
983.331	37.08763
983.704	11.02745
984.078	-27.06736
984.451	9.02211
984.824	19.04735
985.197	7.01715
985.57	32.08037
985.943	-6.01478
986.316	28.06878
986.688	-6.0146
987.061	28.06643
987.434	-22.05766
987.806	5.01212
988.179	45.10818
988.551	11.02812
988.923	-9.02216
989.295	40.10028
989.667	1.00247
990.039	7.01754
990.411	-4.00935
990.783	-28.06458
991.155	27.06648
991.527	2.00486
991.898	10.02508
992.27	17.04273
992.641	-27.06843
993.012	22.05217
993.384	7.01693
993.755	8.02057
994.126	8.01939
994.497	18.045
994.868	12.02776
995.239	8.01959
995.61	23.05869
995.98	15.03706
996.351	18.04537
996.722	-5.01187
997.092	-20.04814
997.462	-3.00724
997.833	-30.07153
998.203	6.01461
998.573	-20.05041
998.943	24.05716
999.313	-45.10892
999.683	-21.05111
1000.053	16.03703
1000.423	-18.04403
1000.792	43.11257
1001.162	12.02981
1001.531	14.03481
1001.901	12.03003
1002.27	25.0568
1002.639	-28.07251
1003.009	9.02168
1003.378	-21.05407
1003.747	28.06674
1004.116	-6.01461
1004.485	10.02389
1004.853	27.06838
1005.222	-5.01277
1005.591	-11.02647
1005.959	43.1003
1006.328	7.0161
1006.696	-23.05611
1007.064	8.0204
1007.433	23.05717
1007.801	-7.01711
1008.169	34.08671
1008.537	-46.10317
1008.905	-43.10298
1009.273	15.03731
1009.64	-4.00976
1010.008	17.04096
1010.375	-39.0934
1010.743	12.02793
1011.11	40.09567
1011.478	16.03955
1011.845	-42.10037
1012.212	1.00232
1012.579	10.02471
1012.946	38.09092
1013.313	-3.00712
1013.68	5.01131
1014.047	12.02941
1014.414	6.01439
1014.78	-35.08808
1015.147	-16.03886
1015.513	5.01219
1015.88	1.00256
1016.246	-14.03485
1016.612	36.08296
1016.978	33.08158
1017.344	-5.01247
1017.71	-23.05569
1018.076	-14.03327
1018.442	4.01032
1018.808	-2.00506
1019.174	-10.02551
1019.539	34.07742
1019.905	-27.06461
1020.27	-13.03262
1020.636	28.06702
1021.001	62.14947
1021.366	-18.04357
1021.731	30.07729
1022.096	-48.12259
1022.461	-26.06168
1022.826	38.0913
1023.191	-12.03171
1023.556	31.07316
1023.92	-37.09164
1024.285	13.03177
1024.649	-54.13406
1025.014	-10.02484
1025.378	31.07868
1025.742	17.04254
1026.107	20.04554
1026.471	12.02796
1026.835	-36.08986
1027.199	-6.01473
1027.562	23.0543
1027.926	-28.0689
1028.29	37.09508
1028.654	52.12055
1029.017	-23.05688
1029.381	20.04911
1029.744	-1.00259
1030.107	-21.04973
1030.471	-14.03389
1030.834	-7.0161
1031.197	6.01439
1031.56	-20.04763
1031.923	14.03633
1032.286	-33.07755
1032.648	16.03869
1033.011	34.07985
1033.374	-15.03533
1033.736	28.07451
1034.099	12.02975
1034.461	2.00518
1034.823	18.04522
1035.185	25.06339
1035.548	27.06623
1035.91	9.02193
1036.272	-6.01391
1036.634	26.06318
1036.995	2.00471
1037.357	-56.13908
1037.719	22.0534
1038.08	15.03539
1038.442	-23.05542
1038.803	38.09216
1039.165	17.04293
1039.526	-8.01947
1039.887	39.0939
1040.248	16.04036
1040.609	2.00495
1040.97	30.07467
1041.331	-46.1176
1041.692	20.04749
1042.053	-18.04147
1042.413	-3.00703
1042.774	27.06572
1043.134	17.04023
1043.495	-24.06088
1043.855	-20.049
1044.215	-27.06729
1044.576	22.05358
1044.936	-34.07804
1045.296	-5.01254
1045.656	-8.01983
1046.016	-6.01463
1046.375	11.02722
1046.735	10.02328
1047.095	4.00951
1047.454	-29.062
1047.814	-40.09658
1048.173	-19.04535
1048.533	20.04637
1048.892	-23.05688
1049.251	-2.00503
1049.61	26.06457
1049.969	-54.1289
1050.328	21.04598
1050.687	-8.01976
1051.046	16.03908
1051.405	-6.01507
1051.763	1.00234
1052.122	25.06348
1052.48	1.00246
1052.839	12.02856
1053.197	-14.03309
1053.555	-35.07919
1053.914	13.03206
1054.272	-15.03637
1054.63	-15.03756
1054.988	-2.0048
1055.345	10.02198
1055.703	-27.06518
1056.061	9.0233
1056.419	-13.03401
1056.776	-47.11491
1057.134	1.00236
1057.491	17.04267
1057.848	-5.01256
1058.206	13.03093
1058.563	33.07388
1058.92	19.04397
1059.277	-18.04448
1059.634	35.08315
1059.991	-15.03577
1060.348	7.01632
1060.704	-29.07056
1061.061	-9.02052
1061.418	-8.01979
1061.774	-12.03005
1062.131	-16.0427
1062.487	2.00471
1062.843	-24.06067
1063.199	4.00997
1063.555	-32.07545
1063.911	53.13438
1064.267	23.04817
1064.623	1.00247
1064.979	-13.03051
1065.335	-15.03554
1065.691	-22.05272
1066.046	-55.12287
1066.402	21.0486
1066.757	6.01509
1067.112	-29.0709
1067.468	-21.05071
1067.823	20.04845
1068.178	-1.00243
1068.533	16.03875
1068.888	17.04104
1069.243	-8.01996
1069.598	39.09553
1069.952	-10.02327
1070.307	43.10763
1070.662	12.02903
1071.016	18.04132
1071.371	-5.01154
1071.725	6.0144
1072.079	-9.02166
1072.434	-33.08176
1072.788	38.09216
1073.142	15.03696
1073.496	37.0904
1073.85	6.01399
1074.203	-21.05089
1074.557	-15.04034
1074.911	2.00478
1075.265	15.03506
1075.618	31.07591
1075.971	40.0957
1076.325	17.04368
1076.678	57.13369
1077.031	-1.00232
1077.385	45.10041
1077.738	45.10397
1078.091	36.08415
1078.444	27.0633
1078.796	-6.01487
1079.149	-7.01748
1079.502	36.08639
1079.855	19.04507
1080.207	-11.02718
1080.56	-19.05004
1080.912	-2.00493
1081.264	-10.02441
1081.617	58.14326
1081.969	-18.04645
1082.321	23.05701
1082.673	4.00944
1083.025	-13.03103
1083.377	-231.52457
1083.728	5.01178
1084.08	2.00507
1084.432	22.05388
1084.783	25.05818
1085.135	11.02785
1085.486	7.01644
1085.838	-20.04996
1086.189	30.07339
1086.54	-5.01196
1086.891	-1.00258
1087.242	-3.00736
1087.593	-38.09248
1087.944	31.07168
1088.295	-24.05487
1088.646	2.00489
1088.996	6.01475
1089.347	-24.05967
1089.698	-2.00487
1090.048	-8.02085
1090.398	33.07679
1090.749	-31.07492
1091.099	-22.05636
1091.449	-8.02001
1091.799	21.0533
1092.149	45.11255
1092.499	-81.20025
1092.849	-14.03597
1093.199	-18.04508
1093.548	-28.06814
1093.898	11.02797
1094.248	-4.01027
1094.597	-25.06545
1094.947	-9.02417
1095.296	-12.03012
1095.645	21.05451
1095.994	2.0049
1096.343	-1.00253
1096.692	-4.01072
1097.041	-9.02472
1097.39	27.06778
1097.739	10.02588
1098.088	-10.02693
1098.437	9.02389
1098.785	39.10558
1099.134	17.04517
1099.482	12.03296
1099.83	-47.12375
1100.179	5.01316
1100.527	32.0856
1100.875	-24.06429
1101.223	-16.04257
1101.571	43.1193
1101.919	12.03185
1102.267	-22.06239
1102.615	-11.03546
1102.962	-7.02254
1103.31	2.00644
1103.658	-3.00966
