Data from N2 R1 sample 9_Subt2__0__14-03-03-914.txt Node

Date: Wed Aug 27 14:03:03 PDT 2025
User: uwsun
Spectrometer: HDX01956
Trigger mode: 0
Integration Time (sec): 5.000000E-1
Scans to average: 1
Nonlinearity correction enabled: true
Boxcar width: 0
Storing dark spectrum: false
XAxis mode: Wavelengths
Number of Pixels in Spectrum: 2068
>>>>>Begin Spectral Data<<<<<
194.03	232.65409
194.578	244.77354
195.127	242.75686
195.676	234.73459
196.225	251.66214
196.773	263.72041
197.321	393.05072
197.87	466.15048
198.418	566.38797
198.966	529.31982
199.513	502.21449
200.061	543.32439
200.609	468.18406
201.156	491.04224
201.704	545.32286
202.251	471.19863
202.798	523.31378
203.345	533.25783
203.892	476.15194
204.438	513.17681
204.985	529.20387
205.532	540.35094
206.078	555.30222
206.624	533.26318
207.17	533.18411
207.716	548.28703
208.262	474.90506
208.808	532.2625
209.354	551.2883
209.899	533.27676
210.445	522.24207
210.99	544.25276
211.535	513.15752
212.08	562.25147
212.625	533.26755
213.17	493.18306
213.715	492.06865
214.259	510.13223
214.804	570.33407
215.348	504.10729
215.892	508.16323
216.436	501.10554
216.98	492.04823
217.524	474.07744
218.068	500.1892
218.612	522.25631
219.155	497.12
219.698	465.05929
220.242	482.13798
220.785	496.10657
221.328	500.19056
221.871	413.99676
222.414	504.19918
222.956	466.08184
223.499	455.99242
224.041	485.09469
224.583	455.93812
225.126	501.06536
225.668	489.14583
226.21	439.06285
226.751	450.96425
227.293	440.97128
227.835	463.081
228.376	508.12405
228.918	487.16997
229.459	480.15335
230	367.84785
230.541	476.061
231.082	495.15313
231.622	542.20189
232.163	461.07969
232.704	473.13113
233.244	434.02328
233.784	467.08566
234.324	456.97373
234.864	455.99662
235.404	472.06422
235.944	474.0696
236.484	483.13704
237.023	489.11092
237.563	490.08596
238.102	440.98589
238.641	443.07054
239.18	467.05528
239.719	477.14851
240.258	509.08663
240.797	474.09785
241.335	462.08014
241.874	515.95502
242.412	459.05611
242.95	477.10502
243.488	534.16889
244.026	446.99111
244.564	470.92528
245.102	502.09226
245.64	462.07001
246.177	494.0525
246.715	472.07505
247.252	446.98206
247.789	442.78634
248.326	514.1897
248.863	511.07204
249.4	487.04228
249.936	532.05546
250.473	504.1226
251.009	539.18159
251.546	526.11983
252.082	487.00945
252.618	524.12185
253.154	507.15931
253.69	469.02184
254.226	490.09632
254.761	522.11852
255.297	532.12084
255.832	462.04078
256.367	485.1027
256.903	528.10655
257.438	493.09057
257.972	523.12284
258.507	548.20664
259.042	482.98999
259.576	528.0885
260.111	514.12551
260.645	482.99222
261.179	494.09393
261.713	510.08477
262.247	494.08802
262.781	475.95163
263.315	512.18319
263.849	548.29502
264.382	503.09235
264.915	605.34261
265.449	561.30248
265.982	531.14102
266.515	581.32769
267.048	430.87323
267.58	513.05349
268.113	497.03343
268.646	501.18131
269.178	562.20437
269.71	483.99316
270.243	559.19819
270.775	553.32874
271.307	512.15973
271.838	569.25373
272.37	577.32488
272.902	540.16313
273.433	567.16878
273.965	542.2417
274.496	491.15097
275.027	516.22025
275.558	587.33442
276.089	555.30171
276.62	590.39438
277.15	560.29734
277.681	543.11572
278.211	557.28503
278.741	521.10123
279.272	565.21837
279.802	565.32983
280.332	589.31194
280.861	619.38566
281.391	593.26243
281.921	537.20436
282.45	558.31665
282.98	561.37138
283.509	575.2214
284.038	635.33907
284.567	580.25156
285.096	568.28259
285.625	583.22604
286.153	561.24073
286.682	620.33627
287.21	598.34107
287.739	611.34583
288.267	605.36928
288.795	646.56909
289.323	590.29219
289.851	625.3439
290.378	666.39623
290.906	594.36478
291.433	615.42067
291.961	668.41029
292.488	601.3762
293.015	614.34425
293.542	607.43929
294.069	703.59321
294.596	669.51304
295.122	642.41684
295.649	614.24909
296.175	682.52526
296.702	662.47137
297.228	632.41392
297.754	665.37295
298.28	676.41909
298.806	660.44325
299.332	697.43139
299.857	711.45886
300.383	656.51216
300.908	691.5622
301.433	654.45898
301.958	702.50092
302.483	730.67081
303.008	659.46924
303.533	706.68348
304.058	665.42204
304.582	711.55389
305.107	688.64743
305.631	705.4563
306.155	748.58833
306.679	721.54324
307.203	706.49581
307.727	771.66384
308.251	727.60426
308.775	688.49694
309.298	692.53238
309.822	699.60271
310.345	794.67073
310.868	756.62135
311.391	702.55261
311.914	828.86332
312.437	783.57426
312.96	764.6153
313.482	791.67498
314.005	816.84304
314.527	799.8678
315.049	792.77867
315.571	791.57649
316.093	807.77051
316.615	807.71929
317.137	866.64035
317.659	813.7201
318.18	822.73953
318.702	867.7913
319.223	865.55051
319.744	847.68043
320.265	861.83203
320.786	890.9359
321.307	924.00049
321.828	911.76475
322.348	910.83284
322.869	1004.03095
323.389	861.26361
323.909	966.90125
324.43	939.91509
324.95	947.86338
325.47	1010.11365
325.989	993.97686
326.509	1028.92698
327.029	1058.99985
327.548	1040.95334
328.067	1070.17059
328.587	1022.10218
329.106	1098.09839
329.625	1030.25663
330.144	1087.04688
330.662	1104.11496
331.181	1092.08189
331.7	1118.11927
332.218	1116.96032
332.736	1192.20204
333.255	1151.18041
333.773	1194.23965
334.291	1189.34637
334.808	1239.1539
335.326	1309.27498
335.844	1332.40438
336.361	1258.52601
336.879	1294.38045
337.396	1284.41132
337.913	1356.43551
338.43	1342.28808
338.947	1386.51489
339.464	1323.18888
339.981	1362.46248
340.497	1368.56954
341.014	1450.65527
341.53	1341.2955
342.046	1420.60402
342.562	1431.64449
343.078	1447.52267
343.594	1499.63151
344.11	1464.53983
344.626	1434.68996
345.141	1459.39697
345.657	1531.40592
346.172	1565.71821
346.687	1535.53109
347.202	1631.57488
347.717	1616.6956
348.232	1624.90005
348.747	1603.59215
349.261	1553.38793
349.776	1675.73375
350.29	1752.98435
350.805	1784.01269
351.319	1673.66887
351.833	1786.71805
352.347	1784.79764
352.861	1804.81169
353.374	1769.66746
353.888	1689.72192
354.401	1780.73574
354.915	1844.76339
355.428	1845.02976
355.941	1853.78611
356.454	1934.64717
356.967	1883.83192
357.48	1882.71482
357.993	1932.0235
358.505	1878.99719
359.018	2089.14479
359.53	1982.91767
360.042	1967.65823
360.554	1949.91038
361.066	2084.11601
361.578	1989.59381
362.09	2038.95866
362.602	1970.58458
363.113	2119.87638
363.625	2096.71657
364.136	2149.67594
364.647	2058.84069
365.158	2178.92194
365.669	2202.06529
366.18	2183.93168
366.691	2218.67917
367.201	2289.01504
367.712	2315.8965
368.222	2252.79455
368.733	2228.59388
369.243	2354.71983
369.753	2347.82284
370.263	2478.12266
370.773	2479.29178
371.282	2496.01577
371.792	2603.89769
372.301	2671.1619
372.811	2739.50407
373.32	2739.57298
373.829	2784.90141
374.338	2892.63776
374.847	2943.76251
375.356	2950.85945
375.865	3225.26566
376.373	3219.50503
376.882	3333.07055
377.39	3324.78567
377.898	3499.88816
378.407	3665.31922
378.915	3726.87027
379.423	4010.1703
379.93	4051.87816
380.438	4224.16947
380.946	4497.69474
381.453	4708.74418
381.96	4861.43019
382.468	5285.11108
382.975	5577.09138
383.482	5701.73137
383.989	5769.2885
384.495	6005.64086
385.002	6294.17459
385.509	6619.50134
386.015	7091.35117
386.521	7360.7006
387.028	7641.00033
387.534	7764.14657
388.04	8149.76046
388.546	8406.31681
389.051	8870.59846
389.557	9611.85337
390.063	10158.52467
390.568	10801.02594
391.073	11039.34302
391.578	11529.03284
392.084	11712.18053
392.589	12135.59029
393.093	13024.23138
393.598	14360.47185
394.103	15595.5495
394.607	17179.32679
395.112	18430.5932
395.616	19405.98006
396.12	21224.40294
396.624	23493.48478
397.128	25710.84571
397.632	28295.81482
398.136	30540.16685
398.639	32335.76335
399.143	36230.96793
399.646	40622.28954
400.15	44533.29979
400.653	49131.46156
401.156	55192.19388
401.659	55524.35077
402.162	53821.55638
402.664	47275.14456
403.167	32260.27245
403.67	3851.94142
404.172	0
404.674	0
405.176	0
405.678	0
406.18	0
406.682	0
407.184	0
407.686	12367.42319
408.187	34596.90747
408.688	44563.94194
409.19	48906.19284
409.691	51236.67962
410.192	52883.26968
410.693	53713.23343
411.194	54189.54801
411.694	54767.79104
412.195	55625.98899
412.696	55971.27715
413.196	55815.15953
413.696	55802.1488
414.196	55740.09561
414.696	56340.4775
415.196	57067.59327
415.696	58258.21704
416.196	48349.46405
416.695	37920.91397
417.195	32539.90243
417.694	30971.93832
418.194	29161.31462
418.693	27116.33312
419.192	26362.55556
419.691	26143.12613
420.19	25504.1058
420.688	24379.81285
421.187	23589.47492
421.685	22119.47485
422.184	19947.17808
422.682	17537.42249
423.18	14816.52507
423.678	13318.24465
424.176	12471.62698
424.674	11639.19022
425.172	11160.29689
425.669	10295.27933
426.167	9848.58282
426.664	8817.24278
427.161	8207.86068
427.659	7630.13147
428.156	7058.38382
428.652	6730.91415
429.149	6331.69119
429.646	6226.40578
430.143	5835.8435
430.639	5321.02627
431.135	5226.46479
431.632	4903.28503
432.128	4483.63244
432.624	4286.31612
433.12	4094.71258
433.616	4029.61104
434.111	4014.19198
434.607	3748.33375
435.103	3656.75934
435.598	3543.6539
436.093	3375.3907
436.588	3192.234
437.083	3092.4271
437.578	2787.38461
438.073	2692.00449
438.568	2699.86601
439.062	2642.27453
439.557	2532.67322
440.051	2418.59089
440.546	2343.6175
441.04	2309.80834
441.534	2291.99651
442.028	2181.71905
442.522	2181.76566
443.015	2147.44781
443.509	2182.90485
444.002	2046.81482
444.496	2001.34942
444.989	1964.75436
445.482	1960.83119
445.975	1963.52171
446.468	1948.3789
446.961	1823.19161
447.454	1894.52521
447.947	1812.55787
448.439	1785.64282
448.931	1702.29988
449.424	1671.67614
449.916	1743.60604
450.408	1668.30435
450.9	1604.45931
451.392	1641.66301
451.884	1627.35094
452.375	1595.56619
452.867	1503.15887
453.358	1554.26962
453.849	1506.06804
454.341	1473.14144
454.832	1496.08579
455.323	1479.44343
455.814	1457.21542
456.304	1416.19886
456.795	1406.20594
457.285	1361.04498
457.776	1295.01591
458.266	1344.24759
458.756	1362.30876
459.247	1284.19218
459.737	1314.26637
460.226	1302.06737
460.716	1224.12269
461.206	1169.07973
461.695	1213.2504
462.185	1186.07272
462.674	1134.93612
463.163	1146.89095
463.653	1129.75893
464.142	1132.05353
464.63	1110.03688
465.119	1109.9343
465.608	1064.89306
466.096	1103.83123
466.585	1082.9123
467.073	964.81478
467.561	1019.90773
468.05	1037.86724
468.538	1001.93014
469.026	995.85449
469.513	914.52349
470.001	995.84168
470.489	1013.93747
470.976	862.59545
471.463	941.88363
471.951	865.74969
472.438	875.68201
472.925	851.66876
473.412	858.72088
473.899	803.53007
474.385	821.68255
474.872	748.471
475.359	790.63973
475.845	782.3716
476.331	786.43716
476.817	724.49459
477.303	710.41256
477.789	696.4425
478.275	729.54963
478.761	707.47805
479.247	688.31473
479.732	695.50546
480.218	656.4761
480.703	641.38779
481.188	635.17373
481.673	594.20175
482.158	665.26364
482.643	624.39715
483.128	594.21877
483.612	587.21712
484.097	551.20793
484.581	525.08206
485.066	590.28187
485.55	497.99248
486.034	520.02343
486.518	458.97292
487.002	521.1756
487.486	493.10055
487.969	463.03389
488.453	479.09168
488.936	432.9029
489.42	445.91338
489.903	429.98631
490.386	433.665
490.869	406.81847
491.352	388.86869
491.835	374.72484
492.318	434.91793
492.8	481.93469
493.283	406.95485
493.765	353.8194
494.247	399.86624
494.73	347.71835
495.212	330.73977
495.694	367.80932
496.175	306.69331
496.657	421.92139
497.139	335.55879
497.62	338.76517
498.102	344.81569
498.583	338.80239
499.064	265.56235
499.545	316.68651
500.026	324.69399
500.507	336.74144
500.988	323.75955
501.469	281.67416
501.949	262.61289
502.43	255.58774
502.91	272.54809
503.39	275.65425
503.87	269.60912
504.35	278.62245
504.83	278.58852
505.31	271.6276
505.79	232.53995
506.269	268.59808
506.749	192.42849
507.228	258.58362
507.707	184.39703
508.187	286.64747
508.666	200.47172
509.145	226.51186
509.623	258.5886
510.102	216.50589
510.581	211.48556
511.059	247.59936
511.538	212.52417
512.016	271.6281
512.494	232.54995
512.972	176.40478
513.45	179.40929
513.928	221.52195
514.406	218.51796
514.884	224.55566
515.361	162.37482
515.839	245.54144
516.316	202.4744
516.793	229.55902
517.27	156.36823
517.747	255.63289
518.224	174.39121
518.701	205.44604
519.178	141.34242
519.654	144.33449
520.131	166.40003
520.607	196.46802
521.083	177.39722
521.56	143.33
522.036	202.43231
522.512	181.42881
522.987	208.48105
523.463	181.42102
523.939	140.33277
524.414	182.41121
524.89	168.39348
525.365	114.25358
525.84	138.32385
526.315	154.36464
526.79	161.35343
527.265	181.4072
527.74	152.36032
528.215	249.57803
528.689	111.24388
529.164	196.41893
529.638	148.3717
530.112	133.30998
530.587	220.46513
531.061	159.3783
531.534	200.47373
532.008	188.44393
532.482	132.29569
532.956	145.3603
533.429	121.28645
533.903	139.30064
534.376	161.35447
534.849	97.22082
535.322	140.32559
535.795	87.20906
536.268	154.36436
536.741	97.22848
537.213	125.28398
537.686	99.23799
538.158	135.30184
538.631	67.15941
539.103	116.26102
539.575	120.24692
540.047	188.40723
540.519	124.28884
540.991	117.27827
541.463	113.26865
541.934	79.17846
542.406	101.23586
542.877	116.25556
543.348	95.21985
543.82	149.35423
544.291	118.26726
544.762	108.25345
545.233	151.36698
545.703	119.26069
546.174	135.30856
546.645	122.28854
547.115	158.37368
547.585	144.32031
548.056	138.3241
548.526	171.3921
548.996	203.46808
549.466	220.51142
549.935	196.45168
550.405	218.46252
550.875	194.44368
551.344	164.3802
551.814	239.52796
552.283	210.43718
552.752	251.55238
553.221	247.51638
553.69	182.388
554.159	262.61433
554.628	230.49926
555.096	256.61478
555.565	292.62951
556.033	220.49584
556.502	195.45787
556.97	130.27979
557.438	164.37507
557.906	187.42844
558.374	148.33262
558.842	175.40674
559.31	142.31323
559.777	129.30621
560.245	119.27013
560.712	108.24471
561.18	193.41654
561.647	113.24754
562.114	170.38504
562.581	113.26875
563.048	155.34928
563.514	203.48112
563.981	168.37539
564.448	170.36965
564.914	184.40962
565.381	217.47134
565.847	286.62953
566.313	242.5443
566.779	291.62991
567.245	246.54286
567.711	292.66455
568.176	259.55082
568.642	252.59781
569.108	322.74051
569.573	318.69555
570.038	334.65846
570.504	392.8164
570.969	353.80546
571.434	397.79573
571.899	479.02954
572.363	448.92016
572.828	432.88369
573.293	556.13862
573.757	532.08005
574.222	586.15792
574.686	539.07859
575.15	624.30058
575.614	647.28913
576.078	621.25675
576.542	658.27917
577.006	668.28384
577.469	622.29641
577.933	629.22764
578.396	643.31263
578.86	674.35764
579.323	758.53618
579.786	680.24172
580.249	669.30646
580.712	689.42384
581.175	672.42618
581.637	643.25858
582.1	595.10678
582.563	637.16862
583.025	642.34408
583.487	609.07902
583.95	618.1602
584.412	622.11155
584.874	604.28058
585.336	592.22669
585.797	558.05404
586.259	576.18284
586.721	549.14024
587.182	534.08658
587.643	503.99934
588.105	494.01828
588.566	460.84938
589.027	464.99768
589.488	439.88927
589.949	486.04125
590.41	397.71047
590.87	400.80267
591.331	441.8496
591.791	376.78935
592.252	372.76752
592.712	340.7333
593.172	339.69708
593.632	309.60674
594.092	370.74213
594.552	321.62137
595.011	337.70858
595.471	335.68295
595.931	274.56101
596.39	358.78634
596.849	320.68098
597.308	257.5032
597.768	312.73526
598.227	246.54467
598.685	293.61172
599.144	347.74374
599.603	334.72036
600.062	341.6642
600.52	297.61182
600.978	299.65386
601.437	299.62591
601.895	257.49867
602.353	277.55957
602.811	314.64436
603.269	294.6398
603.727	322.7046
604.184	336.69542
604.642	355.77992
605.099	381.80814
605.557	384.84025
606.014	310.61287
606.471	356.80985
606.928	355.69246
607.385	398.87749
607.842	467.95723
608.299	432.8993
608.755	445.94593
609.212	464.92379
609.668	419.83283
610.125	497.04032
610.581	400.83121
611.037	448.89525
611.493	414.86835
611.949	407.87345
612.405	497.90005
612.861	462.94891
613.316	480.02306
613.772	416.84287
614.227	344.72568
614.683	448.84877
615.138	415.87525
615.593	447.93735
616.048	505.01836
616.503	422.907
616.958	427.94791
617.412	464.97536
617.867	391.79458
618.321	507.93783
618.776	410.8121
619.23	423.88664
619.684	469.95004
620.138	451.91023
620.592	359.78539
621.046	401.8357
621.5	407.89451
621.954	412.83019
622.407	399.79974
622.861	405.89385
623.314	399.81675
623.768	338.72179
624.221	341.61717
624.674	329.69359
625.127	313.66942
625.58	328.67248
626.033	237.48229
626.485	328.72984
626.938	276.60472
627.39	312.67378
627.843	267.57105
628.295	278.5929
628.747	326.71606
629.199	280.59224
629.651	227.49306
630.103	234.50751
630.555	259.52561
631.006	268.58719
631.458	287.63849
631.909	222.47758
632.361	226.50227
632.812	257.56274
633.263	194.39865
633.714	245.5047
634.165	116.26903
634.616	153.34844
635.067	146.308
635.518	228.51366
635.968	172.33286
636.419	105.22234
636.869	99.22537
637.319	219.49651
637.769	111.24172
638.219	182.41674
638.669	73.17021
639.119	106.2473
639.569	128.30015
640.019	92.206
640.468	142.30864
640.918	112.25852
641.367	109.2412
641.816	62.13482
642.265	100.22382
642.714	105.23622
643.163	88.19753
643.612	74.17603
644.061	58.12171
644.51	107.23964
644.958	120.26116
645.406	101.23651
645.855	126.30398
646.303	146.33189
646.751	49.11123
647.199	87.19324
647.647	63.14301
648.095	98.22115
648.543	176.35628
648.99	127.29809
649.438	74.16849
649.885	74.17793
650.333	119.23068
650.78	111.26379
651.227	127.30344
651.674	123.27785
652.121	99.2379
652.568	93.22399
653.015	111.27531
653.461	37.08756
653.908	100.22824
654.354	56.13316
654.801	127.29879
655.247	9.01972
655.693	69.17612
656.139	123.29445
656.585	133.31534
657.031	157.36534
657.477	85.18597
657.922	108.24899
658.368	145.35359
658.813	77.17833
659.259	65.1559
659.704	71.16594
660.149	92.21481
660.594	85.20154
661.039	72.16381
661.484	81.19198
661.929	75.17432
662.373	112.28159
662.818	67.16582
663.262	78.1879
663.707	50.12625
664.151	82.19768
664.595	83.20263
665.039	77.19015
665.483	109.27803
665.927	54.12638
666.371	123.28893
666.814	120.28524
667.258	71.16977
667.701	122.26269
668.145	109.26917
668.588	83.20391
669.031	90.21426
669.474	82.19783
669.917	81.17961
670.36	126.31006
670.803	111.26734
671.245	130.27967
671.688	107.25771
672.13	82.1892
672.573	100.25151
673.015	116.27742
673.457	81.18051
673.899	83.20119
674.341	74.17901
674.783	88.21295
675.225	86.2135
675.666	101.24593
676.108	51.11149
676.549	101.23818
676.991	90.20227
677.432	159.33079
677.873	95.22168
678.314	60.14476
678.755	125.30607
679.196	152.35336
679.637	124.30266
680.078	93.21983
680.518	87.20349
680.959	58.13877
681.399	70.17454
681.839	98.23974
682.28	95.23701
682.72	86.2019
683.16	96.24085
683.6	117.26656
684.039	69.14643
684.479	87.21508
684.919	144.33885
685.358	98.24719
685.798	127.33517
686.237	97.2353
686.676	93.21377
687.115	120.28315
687.554	122.29222
687.993	94.21109
688.432	103.23808
688.871	105.24231
689.309	125.30117
689.748	101.21602
690.186	121.2901
690.625	135.31972
691.063	106.25815
691.501	108.26929
691.939	129.32509
692.377	134.32999
692.815	95.23054
693.253	135.32268
693.69	108.24143
694.128	108.26616
694.565	102.24525
695.003	85.21643
695.44	127.30309
695.877	112.26591
696.314	144.31219
696.751	128.29074
697.188	96.22176
697.625	77.17706
698.061	132.3205
698.498	118.28662
698.934	106.25689
699.371	93.22229
699.807	81.19465
700.243	99.23889
700.679	123.28046
701.115	56.13188
701.551	111.26166
701.987	109.24844
702.422	101.24335
702.858	97.2346
703.294	109.24552
703.729	120.29323
704.164	104.25053
704.599	118.26465
705.035	79.1805
705.47	77.18812
705.904	128.30296
706.339	98.22917
706.774	107.25458
707.209	97.22892
707.643	128.30788
708.078	118.28673
708.512	100.25214
708.946	81.19487
709.38	61.14742
709.814	122.28451
710.248	150.36666
710.682	140.33559
711.116	109.26719
711.549	116.30185
711.983	66.1561
712.416	151.3565
712.85	106.26632
713.283	83.19778
713.716	93.23193
714.149	88.21014
714.582	135.30732
715.015	89.2226
715.448	145.36423
715.881	78.16982
716.313	60.14075
716.746	113.26886
717.178	122.29556
717.61	94.23803
718.043	96.23963
718.475	59.14425
718.907	111.27712
719.339	123.28442
719.77	115.27498
720.202	100.25431
720.634	110.27089
721.065	133.31863
721.497	95.23563
721.928	105.26091
722.359	94.23217
722.79	115.27939
723.221	97.24357
723.652	114.29104
724.083	89.20596
724.514	110.25319
724.945	73.17435
725.375	74.17739
725.806	69.17089
726.236	60.15345
726.666	127.30402
727.096	128.3173
727.526	87.22324
727.956	111.2583
728.386	145.35819
728.816	123.31793
729.246	77.18973
729.675	79.19595
730.105	123.30419
730.534	90.2136
730.964	97.24506
731.393	76.18813
731.822	52.13266
732.251	72.18517
732.68	68.16064
733.109	138.34434
733.537	106.25873
733.966	88.2199
734.395	91.2131
734.823	114.25915
735.251	60.14683
735.68	97.24287
736.108	116.2951
736.536	128.30659
736.964	117.27398
737.392	92.23164
737.82	21.05062
738.247	129.31163
738.675	95.22507
739.102	102.25958
739.53	83.21231
739.957	92.23652
740.384	120.29333
740.811	89.22597
741.238	64.15738
741.665	68.16033
742.092	88.21159
742.519	70.17713
742.945	56.13643
743.372	110.27398
743.798	102.26324
744.225	91.22033
744.651	110.27656
745.077	100.25034
745.503	97.23998
745.929	76.18502
746.355	34.08327
746.781	68.17029
747.207	60.1435
747.632	70.1741
748.058	63.1574
748.483	142.33063
748.908	52.13098
749.334	106.26344
749.759	102.24525
750.184	63.15237
750.609	101.24694
751.033	56.13152
751.458	76.17172
751.883	32.07939
752.307	110.26368
752.732	109.27783
753.156	105.26214
753.58	62.14856
754.005	60.15286
754.429	85.20286
754.853	89.22413
755.277	39.09322
755.7	63.15746
756.124	93.23252
756.548	62.15066
756.971	81.19995
757.394	94.24234
757.818	83.21498
758.241	65.16667
758.664	101.25907
759.087	51.11746
759.51	43.10794
759.933	-5.01227
760.356	49.12578
760.778	124.31109
761.201	78.19187
761.623	103.25098
762.046	31.07398
762.468	70.16895
762.89	33.08146
763.312	59.14447
763.734	81.19716
764.156	21.05302
764.578	21.04914
765	84.20816
765.421	78.20409
765.843	54.14249
766.264	44.10636
766.686	37.09341
767.107	63.15575
767.528	26.06738
767.949	36.09191
768.37	54.13518
768.791	60.14689
769.212	44.11363
769.632	29.06956
770.053	59.15665
770.473	48.11843
770.894	3.00755
771.314	48.11467
771.734	33.07906
772.154	72.18607
772.575	60.1402
772.994	26.06066
773.414	48.11637
773.834	-18.0454
774.254	43.10782
774.673	50.12272
775.093	9.02256
775.512	61.15367
775.931	40.10309
776.351	27.06814
776.77	47.11806
777.189	43.10419
777.607	-16.04136
778.026	24.06036
778.445	-43.11003
778.864	4.01032
779.282	30.07402
779.701	27.06902
780.119	30.07713
780.537	30.07648
780.955	-4.01033
781.373	38.09475
781.791	-3.00692
782.209	-2.00465
782.627	5.01329
783.045	30.07049
783.462	7.01806
783.88	36.09468
784.297	13.0335
784.715	-9.02366
785.132	4.00986
785.549	48.12224
785.966	8.02037
786.383	-3.00753
786.8	23.05369
787.217	18.04341
787.633	64.16293
788.05	-18.0429
788.466	44.10491
788.883	-3.00777
789.299	34.0828
789.715	62.15342
790.131	35.08849
790.547	-22.05547
790.963	23.05803
791.379	7.01791
791.795	1.00231
792.21	36.08593
792.626	-23.05558
793.041	8.02013
793.457	30.07478
793.872	5.01192
794.287	36.08911
794.702	-10.0249
795.117	20.05104
795.532	16.04076
795.947	2.00488
796.362	-10.02398
796.776	-1.00234
797.191	23.05767
797.605	19.04604
798.02	20.0498
798.434	22.04971
798.848	12.03019
799.262	26.06591
799.676	18.04413
800.09	4.00988
800.504	18.04448
800.918	31.07339
801.331	27.07059
801.745	-23.05359
802.158	55.13885
802.572	0
802.985	7.01718
803.398	17.04127
803.811	-38.09831
804.224	19.04756
804.637	20.04845
805.05	24.05676
805.462	52.1299
805.875	19.05026
806.288	-13.03186
806.7	13.03311
807.112	-8.01898
807.525	7.01744
807.937	-3.00757
808.349	-13.03279
808.761	-19.04711
809.173	20.04922
809.584	-28.06941
809.996	8.02009
810.408	6.0158
810.819	34.08218
811.231	62.16415
811.642	115.28221
812.053	102.24701
812.464	142.33779
812.875	93.23872
813.286	40.10302
813.697	-21.04873
814.108	-3.00738
814.519	2.0045
814.929	8.02034
815.34	24.05867
815.75	21.05392
816.16	-6.01512
816.571	18.04739
816.981	-21.04985
817.391	19.04663
817.801	-5.01263
818.211	-1.0024
818.62	30.07369
819.03	15.0373
819.44	-4.0105
819.849	39.0993
820.259	-7.01796
820.668	-3.00752
821.077	36.0911
821.486	43.10498
821.895	-3.00744
822.304	-12.03207
822.713	5.012
823.122	37.09244
823.531	-62.14992
823.939	16.03952
824.348	39.09539
824.756	29.07308
825.164	9.02268
825.573	-4.01022
825.981	-24.05967
826.389	13.03305
826.797	71.18002
827.205	23.05422
827.612	30.07415
828.02	9.02169
828.428	1.00257
828.835	31.08176
829.243	22.05276
829.65	-22.05567
830.057	8.01948
830.464	-2.00493
830.871	-23.05548
831.278	-9.02208
831.685	3.00684
832.092	-7.01745
832.499	15.03348
832.905	19.04833
833.312	26.05994
833.718	-7.01755
834.124	-22.05092
834.531	-2.00509
834.937	25.06435
835.343	23.05611
835.749	-5.0118
836.155	36.095
836.561	-53.13237
836.966	-29.07183
837.372	55.14083
837.777	-29.0735
838.183	27.06107
838.588	32.08034
838.993	-20.04887
839.399	39.09744
839.804	-11.02745
840.209	-13.03372
840.613	-12.02735
841.018	15.03833
841.423	-5.01296
841.828	-8.02044
842.232	30.07407
842.637	2.00479
843.041	31.08019
843.445	18.04566
843.849	5.01256
844.253	15.03588
844.657	3.00769
845.061	25.05714
845.465	11.02722
845.869	9.02125
846.272	11.02735
846.676	-54.13058
847.079	53.13614
847.483	19.04733
847.886	38.09248
848.289	6.01619
848.692	-28.07156
849.095	-17.04155
849.498	42.10518
849.901	-15.03504
850.304	3.0072
850.707	-3.0077
851.109	27.0678
851.512	17.04263
851.914	23.05978
852.316	5.01279
852.718	36.09579
853.121	15.03749
853.523	99.23663
853.925	17.04499
854.326	18.04576
854.728	9.02341
855.13	-19.04972
855.531	18.04413
855.933	5.01217
856.334	-4.0101
856.736	13.03028
857.137	15.03561
857.538	40.10223
857.939	20.05057
858.34	9.02217
858.741	16.04212
859.142	5.0121
859.542	-12.03204
859.943	51.12862
860.343	38.09602
860.744	30.07344
861.144	39.0956
861.544	28.06923
861.945	21.05415
862.345	-6.01484
862.745	-12.03008
863.145	59.13962
863.544	13.03318
863.944	53.12722
864.344	2.00498
864.743	-5.01245
865.143	48.12448
865.542	32.07557
865.941	-17.04252
866.34	2.00481
866.74	-5.01351
867.139	6.01456
867.537	66.16796
867.936	27.06555
868.335	-1.00256
868.734	10.02585
869.132	18.04231
869.531	-21.05058
869.929	51.11901
870.327	32.07819
870.726	45.11137
871.124	-32.07554
871.522	-28.07201
871.92	49.12158
872.318	1.00245
872.715	-19.04699
873.113	-29.07211
873.511	-35.08707
873.908	-54.13931
874.306	7.01774
874.703	6.01511
875.1	-30.07702
875.497	15.03636
875.894	22.0551
876.291	-18.04421
876.688	-2.00522
877.085	1.00242
877.482	33.08316
877.878	5.01229
878.275	-37.09541
878.671	-24.05332
879.068	18.04376
879.464	52.12692
879.86	-5.01212
880.256	25.06178
880.652	38.09793
881.048	7.01746
881.444	14.03335
881.84	27.06933
882.236	14.03536
882.631	10.02469
883.027	-20.04858
883.422	46.1188
883.817	38.09746
884.213	54.13917
884.608	15.03777
885.003	38.09348
885.398	71.17835
885.793	50.12621
886.188	37.09358
886.582	15.03864
886.977	56.13383
887.371	-17.04286
887.766	18.04535
888.16	32.08046
888.554	-26.06412
888.949	-9.02271
889.343	24.05897
889.737	-6.01626
890.131	27.06834
890.525	47.12136
890.918	32.08126
891.312	-11.02652
891.706	13.03419
892.099	16.0408
892.492	-21.04596
892.886	31.07742
893.279	47.12128
893.672	-10.02588
894.065	24.06032
894.458	2.00504
894.851	-9.022
895.244	-1.0026
895.637	4.00973
896.029	41.10162
896.422	18.04433
896.814	59.14842
897.206	-11.02675
897.599	12.02963
897.991	24.05884
898.383	-5.01191
898.775	26.05937
899.167	11.02632
899.559	-11.0279
899.951	20.04785
900.342	39.09965
900.734	11.02793
901.125	70.18459
901.517	-19.04709
901.908	-8.01926
902.299	42.10492
902.69	15.03587
903.082	-8.01932
903.473	4.00981
903.863	12.03061
904.254	-9.02114
904.645	12.02963
905.036	-16.03965
905.426	42.09668
905.817	19.04725
906.207	18.04384
906.597	33.07809
906.987	-69.17977
907.378	-12.0306
907.768	21.05589
908.158	21.05161
908.547	19.05009
908.937	-18.0462
909.327	-3.00735
909.717	19.04802
910.106	57.13895
910.495	38.09451
910.885	42.10692
911.274	19.04797
911.663	-31.07927
912.052	1.00247
912.441	31.0798
912.83	66.15337
913.219	-2.00524
913.608	-35.08592
913.997	1.00256
914.385	54.12999
914.774	22.05396
915.162	54.13043
915.55	-6.01456
915.939	-7.01792
916.327	-45.11251
916.715	59.15272
917.103	28.06901
917.491	-7.01751
917.878	33.08209
918.266	-9.02342
918.654	-16.04131
919.041	-11.029
919.429	-19.04529
919.816	59.14943
920.203	-22.05424
920.591	6.01492
920.978	31.0761
921.365	44.1156
921.752	18.04316
922.139	-25.05523
922.525	65.15987
922.912	14.03429
923.299	15.03814
923.685	-26.06838
924.072	-8.01867
924.458	14.03505
924.844	24.06054
925.231	1.00237
925.617	9.02346
926.003	8.02055
926.389	-3.00761
926.774	36.09158
927.16	12.03007
927.546	-13.03368
927.931	36.09074
928.317	20.04655
928.702	-30.07167
929.088	17.04136
929.473	48.12254
929.858	22.05468
930.243	-19.04645
930.628	18.0447
931.013	-3.00753
931.398	18.04107
931.783	-21.05514
932.167	-77.19161
932.552	-39.09807
932.937	-8.02
933.321	40.10158
933.705	17.04309
934.09	-28.07017
934.474	29.06948
934.858	-25.06505
935.242	-15.03529
935.626	6.01554
936.009	9.02417
936.393	-21.05374
936.777	-44.11352
937.16	-22.05817
937.544	-21.04968
937.927	-35.09009
938.311	31.07571
938.694	-7.01847
939.077	31.07531
939.46	17.04155
939.843	7.01476
940.226	29.07509
940.609	60.14015
940.991	27.0695
941.374	-20.04958
941.757	72.17809
942.139	-28.06404
942.522	12.02834
942.904	4.00966
943.286	-29.07439
943.668	39.10178
944.05	9.02254
944.432	24.06032
944.814	28.0701
945.196	33.08242
945.578	21.05136
945.959	31.0733
946.341	6.01463
946.722	-15.03544
947.104	-41.09931
947.485	26.06185
947.866	14.03583
948.247	2.00511
948.628	-20.04947
949.009	8.02075
949.39	-10.02501
949.771	-1.00236
950.152	6.01493
950.532	-12.03028
950.913	35.08592
951.293	22.06013
951.674	-27.06633
952.054	1.0025
952.434	2.00499
952.814	-58.13834
953.194	-10.02601
953.574	2.00492
953.954	18.04333
954.334	-30.07586
954.714	-7.01738
955.093	-11.02693
955.473	-12.03041
955.853	-2.00518
956.232	-11.03009
956.611	-4.0096
956.99	-54.1365
957.37	4.01024
957.749	-13.03141
958.128	6.01517
958.506	29.07576
958.885	1.00255
959.264	10.02504
959.643	61.14044
960.021	-12.02998
960.4	-5.01149
960.778	-13.03199
961.156	4.01018
961.535	27.0633
961.913	36.08485
962.291	7.01828
962.669	-68.17317
963.047	12.03089
963.424	8.02055
963.802	-14.03479
964.18	43.10817
964.557	35.08151
964.935	-5.0119
965.312	39.10255
965.69	13.03276
966.067	29.07096
966.444	-31.07728
966.821	-6.01545
967.198	2.00483
967.575	46.11215
967.952	16.0374
968.329	20.04896
968.705	40.08757
969.082	64.16563
969.458	-20.04894
969.835	-52.12754
970.211	-48.12581
970.587	8.02002
970.963	17.04374
971.339	-13.03432
971.715	26.06525
972.091	10.02489
972.467	-3.00753
972.843	38.09568
973.219	12.02874
973.594	35.09212
973.97	11.02638
974.345	22.05336
974.721	-19.04654
975.096	22.0539
975.471	-66.15682
975.846	37.08972
976.221	-22.05735
976.596	-2.00489
976.971	-15.03708
977.346	18.04209
977.72	-53.13581
978.095	-69.18038
978.469	13.03114
978.844	-7.01758
979.218	19.04658
979.593	-31.07449
979.967	52.12754
980.341	54.12554
980.715	-12.0304
981.089	14.03546
981.463	-19.0446
981.837	-40.10014
982.21	-73.16961
982.584	13.03187
982.957	-8.02027
983.331	0
983.704	42.10423
984.078	-36.08996
984.451	-27.06677
984.824	17.04238
985.197	-7.0172
985.57	21.05285
985.943	-17.04195
986.316	22.0541
986.688	-12.02924
987.061	37.08763
987.434	-16.04189
987.806	-40.09782
988.179	4.00969
988.551	43.1093
988.923	-60.14912
989.295	51.12761
989.667	23.05659
990.039	-12.03017
990.411	26.0604
990.783	-30.06922
991.155	-7.01734
991.527	-10.02437
991.898	-13.03274
992.27	7.01763
992.641	26.06528
993.012	52.1226
993.384	5.0121
993.755	-6.01547
994.126	-4.00972
994.497	-13.03268
994.868	-40.0935
995.239	-22.05416
995.61	-18.04626
995.98	28.06901
996.351	7.01768
996.722	-6.01425
997.092	-21.05056
997.462	26.06242
997.833	-4.00949
998.203	-11.02687
998.573	15.03757
998.943	21.05004
999.313	-37.08942
999.683	-8.01942
1000.053	-7.01628
1000.423	-4.00976
1000.792	30.07871
1001.162	6.01492
1001.531	36.08915
1001.901	-13.03268
1002.27	42.09509
1002.639	-4.01032
1003.009	35.08391
1003.378	-28.07219
1003.747	5.01197
1004.116	35.08459
1004.485	-33.07948
1004.853	-22.05621
1005.222	21.05338
1005.591	9.02158
1005.959	64.14867
1006.328	44.10047
1006.696	-23.05611
1007.064	32.08126
1007.433	-18.04508
1007.801	-11.0269
1008.169	13.03328
1008.537	-5.01112
1008.905	-27.06446
1009.273	33.08182
1009.64	33.07999
1010.008	21.05056
1010.375	-40.09581
1010.743	34.07879
1011.11	-38.09223
1011.478	-32.07979
1011.845	-21.04998
1012.212	24.05544
1012.579	-25.06217
1012.946	4.00963
1013.313	15.0355
1013.68	19.04285
1014.047	17.04163
1014.414	-3.00721
1014.78	2.005
1015.147	21.05066
1015.513	-6.01466
1015.88	19.04853
1016.246	23.05686
1016.612	13.0301
1016.978	55.13542
1017.344	6.01493
1017.71	-49.11922
1018.076	-1.00237
1018.442	-2.00517
1018.808	8.02022
1019.174	-19.04855
1019.539	-25.0576
1019.905	-8.01907
1020.27	20.04989
1020.636	18.04316
1021.001	56.13516
1021.366	-29.07035
1021.731	27.0696
1022.096	-50.12774
1022.461	-11.02602
1022.826	20.04822
1023.191	-2.00528
1023.556	-32.07644
1023.92	1.00246
1024.285	-18.04425
1024.649	-25.06174
1025.014	-11.02733
1025.378	-11.02813
1025.742	9.02255
1026.107	20.04554
1026.471	-8.01872
1026.835	-67.16818
1027.199	6.0147
1027.562	50.11743
1027.926	-1.00245
1028.29	69.17631
1028.654	8.01871
1029.017	28.0686
1029.381	41.10028
1029.744	33.08492
1030.107	12.02824
1030.471	-5.01208
1030.834	-24.0554
1031.197	13.03113
1031.56	-12.02854
1031.923	6.01559
1032.286	35.08116
1032.648	28.06755
1033.011	25.05882
1033.374	-12.02825
1033.736	-6.01606
1034.099	60.14743
1034.461	30.07729
1034.823	-12.03031
1035.185	12.0305
1035.548	23.05646
1035.91	51.1233
1036.272	29.06677
1036.634	19.04623
1036.995	-40.09497
1037.357	-20.04934
1037.719	-18.04402
1038.08	-25.05944
1038.442	-3.0072
1038.803	43.10419
1039.165	-3.0076
1039.526	1.00243
1039.887	-5.01214
1040.248	19.0479
1040.609	-1.00247
1040.97	42.10431
1041.331	-12.0305
1041.692	3.00715
1042.053	29.06618
1042.413	-36.08495
1042.774	43.10435
1043.134	-18.04288
1043.495	24.06036
1043.855	-16.03917
1044.215	-13.03232
1044.576	32.07779
1044.936	-29.0665
1045.296	34.08466
1045.656	19.04687
1046.016	15.03644
1046.375	21.05188
1046.735	53.12231
1047.095	12.02848
1047.454	-15.03197
1047.814	-20.04811
1048.173	-11.02621
1048.533	-19.04439
1048.892	-1.00246
1049.251	8.0201
1049.61	-20.05009
1049.969	-13.03079
1050.328	-26.0575
1050.687	-10.02471
1051.046	13.03177
1051.405	-6.01507
1051.763	-38.08953
1052.122	39.09878
1052.48	-33.08161
1052.839	6.01429
1053.197	-53.1262
1053.555	-46.10432
1053.914	33.08107
1054.272	14.03376
1054.63	30.07451
1054.988	-61.14798
1055.345	-31.06871
1055.703	1.0024
1056.061	-4.01038
1056.419	-34.08926
1056.776	8.01936
1057.134	-1.00236
1057.491	-10.02522
1057.848	11.02755
1058.206	-57.13744
1058.563	0
1058.92	-25.05836
1059.277	2.00492
1059.634	21.05002
1059.991	-35.08379
1060.348	58.13388
1060.704	-50.12213
1061.061	-77.17798
1061.418	5.01234
1061.774	18.04483
1062.131	-35.0937
1062.487	3.00707
1062.843	6.01509
1063.199	-7.01748
1063.555	6.01404
1063.911	15.03829
1064.267	-2.00421
1064.623	0
1064.979	-5.01172
1065.335	-51.12167
1065.691	-47.11316
1066.046	-6.01327
1066.402	39.08993
1066.757	-28.07085
1067.112	-21.05127
1067.468	-60.14596
1067.823	-5.01217
1068.178	10.02424
1068.533	-49.12011
1068.888	72.172
1069.243	12.02983
1069.598	24.05895
1069.952	9.02086
1070.307	0
1070.662	17.04108
1071.016	-33.07652
1071.371	-12.02773
1071.725	46.10955
1072.079	-15.03614
1072.434	35.08564
1072.788	45.109
1073.142	30.07372
1073.496	49.11945
1073.85	-14.03277
1074.203	-25.06062
1074.557	-20.05384
1074.911	50.1183
1075.265	-17.03998
1075.618	31.07591
1075.971	26.06237
1076.325	16.04112
1076.678	41.09646
1077.031	-6.01392
1077.385	38.08491
1077.738	18.04181
1078.091	5.01176
1078.444	25.05864
1078.796	-42.1048
1079.149	13.03235
1079.502	-34.08268
1079.855	47.11088
1080.207	-34.08438
1080.56	17.0445
1080.912	20.04907
1081.264	-36.0883
1081.617	45.11141
1081.969	-12.03094
1082.321	29.0718
1082.673	36.08442
1083.025	-26.06221
1083.377	26.05596
1083.728	4.00943
1084.08	33.08325
1084.432	60.14591
1084.783	-27.06347
1085.135	-17.04326
1085.486	38.08872
1085.838	-4.00996
1086.189	16.03924
1086.54	0
1086.891	-12.03099
1087.242	5.01225
1087.593	-11.02663
1087.944	16.03711
1088.295	14.03176
1088.646	1.00245
1088.996	27.06614
1089.347	-30.07467
1089.698	0
1090.048	-6.01563
1090.398	-1.00234
1090.749	-32.07735
1091.099	-32.08213
1091.449	-10.02502
1091.799	41.10369
1092.149	12.03019
1092.499	-51.12539
1092.849	-1.00256
1093.199	-10.02501
1093.548	-25.06081
1093.898	41.10369
1094.248	-4.01027
1094.597	-4.01043
1094.947	-5.01342
1095.296	-27.06795
1095.645	-24.06278
1095.994	62.15009
1096.343	-5.01268
1096.692	12.03207
1097.041	-16.04399
1097.39	3.00756
1097.739	-40.10441
1098.088	-2.00538
1098.437	-18.04799
1098.785	51.1378
1099.134	44.11638
1099.482	2.0055
1099.83	-34.08932
1100.179	-25.06614
1100.527	34.09092
1100.875	22.05848
1101.223	-9.02392
1101.571	20.05569
1101.919	-31.08286
1102.267	6.01694
1102.615	-1.00322
1102.962	5.01608
1103.31	-1.00322
1103.658	1.00322
