Data from N2 R1 sample 12_Subt2__3__13-32-29-457.txt Node

Date: Wed Aug 27 13:32:29 PDT 2025
User: uwsun
Spectrometer: HDX01956
Trigger mode: 0
Integration Time (sec): 5.000000E-1
Scans to average: 1
Nonlinearity correction enabled: true
Boxcar width: 0
Storing dark spectrum: false
XAxis mode: Wavelengths
Number of Pixels in Spectrum: 2068
>>>>>Begin Spectral Data<<<<<
194.03	69.19935
194.578	83.26826
195.127	78.24894
195.676	91.29074
196.225	54.14716
196.773	94.2644
197.321	86.24205
197.87	172.44833
198.418	216.56474
198.966	207.54737
199.513	215.54914
200.061	167.43642
200.609	185.49248
201.156	175.39773
201.704	230.59209
202.251	192.51357
202.798	256.67498
203.345	216.54187
203.892	175.44824
204.438	206.50241
204.985	195.47444
205.532	227.60085
206.078	228.56991
206.624	203.51247
207.17	202.48032
207.716	220.55052
208.262	164.3367
208.808	195.49351
209.354	212.52935
209.899	206.52496
210.445	176.44725
210.99	193.47623
211.535	231.55211
212.08	191.45861
212.625	148.37849
213.17	159.40641
213.715	137.32056
214.259	197.46654
214.804	203.50991
215.348	169.39807
215.892	185.45179
216.436	161.38114
216.98	193.43864
217.524	167.40388
218.068	141.35901
218.612	201.51393
219.155	198.47424
219.698	136.33096
220.242	166.4166
220.785	166.39624
221.328	200.50445
221.871	175.44132
222.414	193.4874
222.956	166.40894
223.499	134.31213
224.041	223.53116
224.583	173.3793
225.126	109.25194
225.668	185.46002
226.21	162.41342
226.751	170.38629
227.293	109.25724
227.835	160.39648
228.376	175.41476
228.918	191.48545
229.459	194.49229
230	139.33566
230.541	168.39902
231.082	188.46518
231.622	218.51676
232.163	181.44794
232.704	225.56455
233.244	96.24163
233.784	174.42864
234.324	128.29274
234.864	153.35645
235.404	150.36106
235.944	182.43592
236.484	162.40583
237.023	184.44458
237.563	162.38417
238.102	155.36765
238.641	149.38072
239.18	188.44978
239.719	178.45361
240.258	137.31654
240.797	204.49865
241.335	165.40894
241.874	149.30155
242.412	184.44742
242.95	151.37302
243.488	216.5053
244.026	177.41529
244.564	175.36845
245.102	203.47051
245.64	195.47639
246.177	138.31726
246.715	204.49066
247.252	147.34396
247.789	120.23134
248.326	221.54211
248.863	161.36443
249.4	119.27539
249.936	173.37257
250.473	185.43998
251.009	183.43188
251.546	205.46761
252.082	119.26739
252.618	228.52017
253.154	167.4086
253.69	184.42588
254.226	156.37365
254.761	182.41925
255.297	219.49389
255.832	155.37175
256.367	189.45622
256.903	203.45669
257.438	155.36765
257.972	197.45335
258.507	171.40684
259.042	111.24706
259.576	205.454
260.111	181.42484
260.645	167.36815
261.179	210.49338
261.713	200.45482
262.247	207.48415
262.781	162.34806
263.315	146.36245
263.849	156.39713
264.382	183.42517
264.915	221.53023
265.449	244.60283
265.982	222.50954
266.515	215.52817
267.048	141.30523
267.58	189.41717
268.113	223.49283
268.646	190.4758
269.178	196.45384
269.71	164.36146
270.243	200.46255
270.775	203.52086
271.307	152.37003
271.838	221.52317
272.37	166.413
272.902	220.50718
273.433	192.42973
273.965	194.47615
274.496	198.49153
275.027	212.53165
275.558	222.54264
276.089	193.48531
276.62	175.4473
277.15	204.50661
277.681	183.40714
278.211	209.51628
278.741	222.50076
279.272	237.54778
279.802	205.51696
280.332	201.48427
280.861	207.50325
281.391	228.52457
281.921	192.4618
282.45	232.58284
282.98	208.54253
283.509	222.50852
284.038	218.50237
284.567	146.34476
285.096	188.45801
285.625	146.33699
286.153	213.50598
286.682	209.49074
287.21	216.52307
287.739	242.57497
288.267	196.48106
288.795	253.66044
289.323	206.48832
289.851	193.45406
290.378	242.55544
290.906	234.57707
291.433	230.57262
291.961	245.56582
292.488	212.52398
293.015	219.52003
293.542	237.60277
294.069	255.63104
294.596	234.57665
295.122	242.5794
295.649	212.47136
296.175	295.71312
296.702	265.6382
297.228	236.57171
297.754	221.50227
298.28	287.65489
298.806	220.52633
299.332	272.61277
299.857	265.59908
300.383	284.70395
300.908	293.71682
301.433	225.54701
301.958	302.70229
302.483	317.78644
303.008	182.4462
303.533	264.68337
304.058	215.50503
304.582	265.63433
305.107	260.67395
305.631	271.61489
306.155	272.63803
306.679	295.69021
307.203	300.69268
307.727	292.69535
308.251	237.57704
308.775	291.68725
309.298	269.64881
309.822	298.73892
310.345	290.67838
310.868	218.52214
311.391	278.66988
311.914	331.82117
312.437	272.61177
312.96	266.6242
313.482	305.715
314.005	343.85
314.527	336.85735
315.049	306.75625
315.571	303.67296
316.093	331.79952
316.615	261.62238
317.137	315.67749
317.659	297.69978
318.18	277.65647
318.702	311.72307
319.223	275.56828
319.744	345.76528
320.265	353.8346
320.786	371.89645
321.307	362.87883
321.828	329.72645
322.348	341.77714
322.869	365.84725
323.389	337.57482
323.909	361.81208
324.43	341.7903
324.95	365.81704
325.47	395.94001
325.989	396.89827
326.509	371.80855
327.029	398.87418
327.548	400.87008
328.067	419.97717
328.587	349.82738
329.106	429.95354
329.625	389.96816
330.144	422.92533
330.662	424.94653
331.181	441.97451
331.7	371.83217
332.218	455.93812
332.736	372.82876
333.255	443.98506
333.773	470.03766
334.291	427.99386
334.808	468.9803
335.326	534.11717
335.844	506.10471
336.361	510.19907
336.879	502.10567
337.396	480.07832
337.913	591.26852
338.43	541.1201
338.947	531.17135
339.464	571.1401
339.981	545.18924
340.497	576.29115
341.014	523.17964
341.53	532.10708
342.046	566.25935
342.562	600.3373
343.078	579.23899
343.594	593.28648
344.11	591.26089
344.626	586.32704
345.141	588.19883
345.657	570.14364
346.172	635.37245
346.687	607.25697
347.202	649.31291
347.717	578.23711
348.232	632.41508
348.747	649.33029
349.261	616.20763
349.776	671.40084
350.29	664.45995
350.805	691.51078
351.319	705.43352
351.833	687.38545
352.347	686.41605
352.861	695.43112
353.374	706.40198
353.888	651.35543
354.401	746.49392
354.915	797.56861
355.428	730.56824
355.941	723.45414
356.454	735.3969
356.967	734.48274
357.48	766.48666
357.993	781.62787
358.505	804.67326
359.018	842.73844
359.53	718.46363
360.042	781.46504
360.554	738.50309
361.066	806.66702
361.578	785.4393
362.09	809.61838
362.602	804.46718
363.113	822.58718
363.625	799.49077
364.136	786.44656
364.647	801.55211
365.158	911.73035
365.669	844.68343
366.18	853.64595
366.691	848.52815
367.201	871.69037
367.712	900.68083
368.222	876.61174
368.733	906.56975
369.243	994.72722
369.753	903.65031
370.263	1016.92593
370.773	1009.99017
371.282	956.79177
371.792	1098.92258
372.301	1041.96144
372.811	1025.07491
373.32	1089.76038
373.829	1068.88162
374.338	1128.83959
374.847	1170.94668
375.356	1208.03432
375.865	1237.81378
376.373	1336.01965
376.882	1322.29227
377.39	1371.20682
377.898	1420.33181
378.407	1494.14247
378.915	1455.8962
379.423	1524.17388
379.93	1602.08545
380.438	1758.39698
380.946	1813.23991
381.453	1842.35527
381.96	2082.3052
382.468	2199.26129
382.975	2235.3482
383.482	2275.10396
383.989	2297.56733
384.495	2558.08733
385.002	2608.58708
385.509	2655.91168
386.015	2919.12307
386.521	3055.38059
387.028	3151.29663
387.534	3190.97422
388.04	3411.23699
388.546	3422.92009
389.051	3695.54363
389.557	4091.48985
390.063	4082.19166
390.568	4353.40796
391.073	4564.84162
391.578	4622.93427
392.084	4736.59804
392.589	5053.22512
393.093	5701.32801
393.598	6027.27728
394.103	6572.70859
394.607	7145.58777
395.112	7657.62445
395.616	8090.13456
396.12	8818.01791
396.624	9747.65852
397.128	10467.44869
397.632	11479.44144
398.136	12447.97305
398.639	13838.02372
399.143	15560.80594
399.646	17575.14282
400.15	19263.73939
400.653	21477.81502
401.156	24450.73285
401.659	28294.04255
402.162	36170.20557
402.664	45038.76241
403.167	32260.27245
403.67	3851.94142
404.172	0
404.674	0
405.176	0
405.678	0
406.18	0
406.682	0
407.184	0
407.686	12367.42319
408.187	34596.90747
408.688	44563.94194
409.19	48906.19284
409.691	47030.13094
410.192	40342.97011
410.693	36145.04787
411.194	34424.65747
411.694	32831.784
412.195	29975.48813
412.696	28145.37573
413.196	27472.12096
413.696	27646.61454
414.196	27520.04437
414.696	26456.75491
415.196	24273.01968
415.696	20230.29089
416.196	15631.80782
416.695	13231.62075
417.195	12277.65806
417.694	11837.09275
418.194	10686.75313
418.693	10336.09635
419.192	10140.81675
419.691	9728.62956
420.19	9553.88591
420.688	9257.76603
421.187	8683.68305
421.685	7924.22169
422.184	7068.50824
422.682	6108.29709
423.18	5447.26318
423.678	4982.48399
424.176	4591.70854
424.674	4442.87276
425.172	4052.42682
425.669	3683.99277
426.167	3408.01798
426.664	3110.19101
427.161	2880.495
427.659	2798.91927
428.156	2526.41231
428.652	2446.37368
429.149	2371.17099
429.646	2268.88738
430.143	2119.20271
430.639	1917.13898
431.135	1882.37684
431.632	1777.11356
432.128	1630.09988
432.624	1604.38635
433.12	1584.99747
433.616	1565.91146
434.111	1504.17034
434.607	1450.1328
435.103	1392.7783
435.598	1303.63643
436.093	1193.85061
436.588	1154.71552
437.083	1086.71663
437.578	1067.65316
438.073	989.82147
438.568	960.72518
439.062	963.4852
439.557	896.56633
440.051	922.57224
440.546	876.52807
441.04	851.57388
441.534	750.49017
442.028	793.46933
442.522	717.36991
443.015	784.35355
443.509	807.56375
444.002	732.43409
444.496	697.21226
444.989	704.3824
445.482	629.28343
445.975	699.28647
446.468	710.25025
446.961	625.07758
447.454	697.2982
447.947	630.22174
448.439	620.24241
448.931	624.14156
449.424	596.24489
449.916	595.19691
450.408	509.9679
450.9	547.09968
451.392	543.15182
451.884	579.10849
452.375	476.00749
452.867	489.92624
453.358	508.98222
453.849	498.90899
454.341	496.94019
454.832	514.94342
455.323	478.00732
455.814	497.97268
456.304	471.93445
456.795	467.933
457.285	502.95017
457.776	395.77744
458.266	498.0247
458.756	455.96129
459.247	433.9092
459.737	457.96889
460.226	412.82217
460.716	411.8672
461.206	389.83266
461.695	427.94791
462.185	440.92084
462.674	403.82382
463.163	385.76989
463.653	379.72031
464.142	372.80609
464.63	337.73944
465.119	351.73509
465.608	361.7597
466.096	392.77898
466.585	390.81404
467.073	326.71034
467.561	334.73147
468.05	366.77277
468.538	331.74125
469.026	292.6395
469.513	272.53396
470.001	366.78429
470.489	386.85068
470.976	305.64356
471.463	261.60492
471.951	240.55527
472.438	285.62615
472.925	240.53892
473.412	270.61548
473.899	265.57143
474.385	251.58106
474.872	239.52686
475.359	253.58848
475.845	271.53966
476.331	256.53128
476.817	238.54539
477.303	199.44347
477.789	241.55082
478.275	194.46076
478.761	248.57172
479.247	175.37639
479.732	192.46093
480.218	182.44967
480.703	179.4262
481.188	155.32131
481.673	161.35849
482.158	181.38494
482.643	214.52017
483.128	168.37834
483.612	148.33739
484.097	154.36633
484.581	136.30527
485.066	156.37066
485.55	118.25637
486.034	143.30691
486.518	88.20199
487.002	187.4514
487.486	115.27719
487.969	129.30846
488.453	126.30812
488.936	136.30289
489.42	131.28794
489.903	102.2498
490.386	82.13906
490.869	125.26828
491.352	104.24644
491.835	110.22665
492.318	91.20691
492.8	163.34077
493.283	88.21974
493.765	82.20052
494.247	81.18775
494.73	104.22701
495.212	62.14664
495.694	62.14544
496.175	57.13567
496.657	95.2222
497.139	110.19485
497.62	82.19529
498.102	116.28714
498.583	59.14757
499.064	14.03134
499.545	81.18477
500.026	27.06154
500.507	86.19969
500.988	100.24536
501.469	44.11031
501.949	63.15311
502.43	67.16021
502.91	30.06382
503.39	66.16331
503.87	70.16492
504.35	40.09394
504.83	73.16147
505.31	5.01219
505.79	76.18232
506.269	56.13044
506.749	-3.00696
507.228	48.11322
507.707	-27.06089
508.187	64.15142
508.666	-28.06895
509.145	-9.02136
509.623	72.17042
510.102	50.1209
510.581	22.05254
511.059	18.04555
511.538	-4.01028
512.016	77.18531
512.494	76.18557
512.972	-29.06942
513.45	4.00947
513.928	16.03929
514.406	7.01731
514.884	37.09491
515.361	-52.12541
515.839	48.11044
516.316	3.00732
516.793	-28.07161
517.27	29.07014
517.747	22.05692
518.224	-16.03737
518.701	34.07666
519.178	-17.0425
519.654	6.01432
520.131	-11.02739
520.607	-20.04972
521.083	-58.13643
521.56	-52.12465
522.036	-41.09235
522.512	-3.00736
522.987	11.02643
523.463	-12.02897
523.939	-62.15308
524.414	35.08145
524.89	27.06498
525.365	-86.19922
525.84	-11.02656
526.315	-30.07355
526.79	-8.01819
527.265	13.03025
527.74	-18.04407
528.215	13.03158
528.689	-49.11128
529.164	-18.04025
529.638	14.03601
530.112	-54.13048
530.587	6.01328
531.061	-10.02456
531.534	5.01229
532.008	25.0609
532.482	-20.0462
532.956	-39.10014
533.429	2.00484
533.903	-23.05147
534.376	50.11265
534.849	-30.07005
535.322	-8.01915
535.795	-57.14071
536.268	8.01946
536.741	-38.09185
537.213	-37.08681
537.686	-40.09869
538.158	-18.04151
538.631	-62.15116
539.103	-46.10694
539.575	-37.07883
540.047	0
540.519	-23.05512
540.991	-36.08813
541.463	-70.17226
541.934	-27.06231
542.406	-77.18609
542.877	-51.11629
543.348	-45.10703
543.82	-15.03678
544.291	-53.12421
544.762	9.02153
545.233	-57.1439
545.703	-21.04736
546.174	52.12084
546.645	-11.02668
547.115	79.1897
547.585	-13.02986
548.056	-20.04842
548.526	25.059
548.996	3.00719
549.466	33.07954
549.935	62.14669
550.405	7.01554
550.875	15.03554
551.344	34.08085
551.814	84.19157
552.283	33.07141
552.752	1.00232
553.221	50.10909
553.69	36.07918
554.159	74.17988
554.628	104.23181
555.096	80.19854
555.565	125.27914
556.033	86.19914
556.502	73.17549
556.97	30.06596
557.438	79.18376
557.906	45.10604
558.374	67.15308
558.842	97.22892
559.31	98.21817
559.777	130.30853
560.245	98.22341
560.712	146.32826
561.18	145.31617
561.647	67.1482
562.114	191.43075
562.581	184.43162
563.048	193.43152
563.514	182.4331
563.981	184.40979
564.448	167.36336
564.914	213.47132
565.381	208.45266
565.847	234.5207
566.313	240.54003
566.779	317.68238
567.245	251.55331
567.711	343.77254
568.176	285.60268
568.642	310.72714
569.108	302.6973
569.573	363.78642
570.038	407.78861
570.504	364.76281
570.969	371.84345
571.434	360.72774
571.899	462.9985
572.363	457.93674
572.828	474.96038
573.293	495.02744
573.757	462.95447
574.222	496.00041
574.686	481.97702
575.15	508.08566
575.614	541.1041
576.078	463.97219
576.542	496.00087
577.006	510.01691
577.469	466.00434
577.933	512.02659
578.396	486.0269
578.86	492.03188
579.323	516.10279
579.786	474.91164
580.249	451.92736
580.712	481.03962
581.175	438.97818
581.637	427.8796
582.1	372.73131
582.563	492.9367
583.025	423.92967
583.487	360.68003
583.95	369.73619
584.412	360.6877
584.874	335.75298
585.336	345.7554
585.797	311.62393
586.259	355.76646
586.721	339.73819
587.182	331.70577
587.643	256.53792
588.105	211.46338
588.566	204.40085
589.027	256.57508
589.488	218.46393
589.949	209.47538
590.41	208.39039
590.87	148.31428
591.331	213.43286
591.791	163.35828
592.252	140.3039
592.712	90.20451
593.172	164.35053
593.632	113.23215
594.092	118.25047
594.552	97.19784
595.011	142.3114
595.471	104.22316
595.931	141.29739
596.39	174.39698
596.849	97.21643
597.308	55.11284
597.768	135.32908
598.227	127.28817
598.685	113.24535
599.144	110.24783
599.603	155.34713
600.062	154.31331
600.52	172.36429
600.978	140.31645
601.437	122.2654
601.895	85.17171
602.353	127.26539
602.811	173.36633
603.269	126.28399
603.727	162.36647
604.184	163.35043
604.642	144.33039
605.099	217.47676
605.557	146.33552
606.014	206.4172
606.471	208.48735
606.928	147.30091
607.385	241.54883
607.842	308.65402
608.299	308.65887
608.755	255.56448
609.212	313.64507
609.668	225.46746
610.125	279.61322
610.581	227.48991
611.037	242.50671
611.493	240.52274
611.949	257.56938
612.405	321.6074
612.861	302.64268
613.316	311.68843
613.772	274.5732
614.227	221.47881
614.683	309.60531
615.138	285.61824
615.593	336.72187
616.048	296.62663
616.503	266.59092
616.958	266.61028
617.412	262.57526
617.867	309.63969
618.321	350.67281
618.776	289.58864
619.23	314.67403
619.684	292.61545
620.138	247.52187
620.592	272.606
621.046	251.54055
621.5	284.64033
621.954	248.51858
622.407	291.59784
622.861	287.64908
623.314	280.58861
623.768	210.4609
624.221	217.40517
624.674	218.47079
625.127	161.35566
625.58	207.43602
626.033	198.4065
626.485	204.46561
626.938	203.45163
627.39	246.53877
627.843	165.36069
628.295	185.40252
628.747	204.45959
629.199	177.38283
629.651	204.44528
630.103	187.40964
630.555	210.43095
631.006	148.33248
631.458	207.46816
631.909	132.28947
632.361	142.3211
632.812	162.36184
633.263	135.28111
633.714	150.31561
634.165	59.13838
634.616	100.23018
635.067	105.22351
635.518	88.20393
635.968	109.21413
636.419	68.14516
636.869	24.05546
637.319	124.28656
637.769	72.15809
638.219	107.2487
638.669	65.1518
639.119	34.08044
639.569	68.16132
640.019	24.05449
640.468	30.06676
640.918	75.17439
641.367	87.1934
641.816	3.00661
642.265	62.13986
642.714	38.08666
643.163	24.05458
643.612	36.08626
644.061	-5.01064
644.51	63.14237
644.958	12.02671
645.406	24.05705
645.855	74.18029
646.303	72.16613
646.751	-1.00229
647.199	40.08971
647.647	-8.01842
648.095	27.06181
648.543	109.22404
648.99	63.14972
649.438	15.03456
649.885	36.08718
650.333	64.1257
650.78	73.17475
651.227	67.16192
651.674	24.05531
652.121	62.15003
652.568	30.07312
653.015	87.21673
653.461	35.08286
653.908	41.09469
654.354	81.19168
654.801	88.20861
655.247	-9.01979
655.693	26.06687
656.139	62.15015
656.585	53.1276
657.031	68.16101
657.477	28.062
657.922	34.07954
658.368	50.12409
658.813	54.12564
659.259	39.094
659.704	29.06834
660.149	44.1037
660.594	25.05996
661.039	27.06199
661.484	59.14043
661.929	37.08664
662.373	74.18732
662.818	38.09455
663.262	-8.01959
663.707	48.12125
664.151	24.05849
664.595	92.22422
665.039	34.08462
665.483	64.16454
665.927	34.07988
666.371	45.10731
666.814	21.05087
667.258	57.13666
667.701	68.14811
668.145	52.12975
668.588	49.12114
669.031	38.09137
669.474	12.02933
669.917	17.0382
670.36	-1.00252
670.803	48.11699
671.245	84.1825
671.688	17.04164
672.13	63.14591
672.573	51.1294
673.015	39.09464
673.457	42.09435
673.899	49.11954
674.341	38.09255
674.783	32.07825
675.225	32.08023
675.666	43.10584
676.108	-25.05553
676.549	31.0741
676.991	44.09982
677.432	115.24159
677.873	45.10604
678.314	17.04135
678.755	55.13642
679.196	62.14669
679.637	50.12372
680.078	24.05749
680.518	12.02848
680.959	-4.00968
681.399	20.05032
681.839	15.03726
682.28	29.07321
682.72	58.13691
683.16	20.05086
683.6	50.11546
684.039	52.11076
684.479	19.04756
684.919	38.09126
685.358	2.00513
685.798	54.14426
686.237	-1.00247
686.676	-29.06828
687.115	47.11247
687.554	36.08764
687.993	-1.00229
688.432	19.04465
688.871	16.03758
689.309	70.17041
689.748	56.12094
690.186	75.18139
690.625	44.10603
691.063	48.11816
691.501	52.13098
691.939	75.19083
692.377	15.03775
692.815	-2.00494
693.253	2.0049
693.69	43.09741
694.128	47.11713
694.565	26.06342
695.003	25.06433
695.44	60.14503
695.877	49.11775
696.314	15.03341
696.751	64.14726
697.188	34.07951
697.625	5.01166
698.061	50.12327
698.498	55.13517
698.934	3.00741
699.371	-1.00243
699.807	37.08965
700.243	6.01473
700.679	45.10422
701.115	-24.0574
701.551	12.02883
701.987	90.20592
702.422	58.14088
702.858	68.16536
703.294	-39.0905
703.729	54.13357
704.164	-11.02707
704.599	-25.05772
705.035	-18.04193
705.47	9.02227
705.904	22.05314
706.339	-8.0191
706.774	-9.02189
707.209	30.07172
707.643	15.03685
708.078	-10.02488
708.512	10.02562
708.946	28.06804
709.38	37.08982
709.814	51.1206
710.248	23.05755
710.682	14.03436
711.116	38.09437
711.549	3.00796
711.983	0
712.416	33.07969
712.85	34.08653
713.283	33.07939
713.716	40.10071
714.149	21.05079
714.582	56.12952
715.015	36.0909
715.448	38.09729
715.881	-54.12086
716.313	-37.08844
716.746	3.00729
717.178	9.02227
717.61	20.05131
718.043	2.00508
718.475	-17.04215
718.907	1.00255
719.339	16.03778
719.77	-11.02693
720.202	51.13082
720.634	30.07497
721.065	49.11927
721.497	54.13494
721.928	11.0278
722.359	0
722.79	12.02972
723.221	-4.01023
723.652	22.05707
724.083	42.0981
724.514	43.1003
724.945	0
725.375	60.14421
725.806	-54.13674
726.236	24.06177
726.666	62.15026
727.096	49.12322
727.526	21.05451
727.956	18.04265
728.386	68.17036
728.816	52.13606
729.246	4.00999
729.675	-18.04544
730.105	39.09793
730.534	-14.03389
730.964	18.04612
731.393	62.15387
731.822	-8.02062
732.251	7.01821
732.68	8.01912
733.109	47.11921
733.537	8.01988
733.966	-14.03563
734.395	-18.04305
734.823	34.07854
735.251	9.02223
735.68	50.12625
736.108	26.06719
736.536	74.17907
736.964	32.07618
737.392	34.0865
737.82	11.02656
738.247	53.12987
738.675	23.05525
739.102	34.08756
739.53	-22.05731
739.957	-14.03666
740.384	54.13362
740.811	18.04628
741.238	8.01988
741.665	-5.01196
742.092	-1.00244
742.519	45.11438
742.945	3.00738
743.372	45.11341
743.798	55.1431
744.225	24.05884
744.651	23.05873
745.077	6.01527
745.503	46.11487
745.929	41.10047
746.355	-30.07434
746.781	14.0354
747.207	-11.02666
747.632	22.05519
748.058	22.05537
748.483	26.06192
748.908	9.02284
749.334	42.1056
749.759	11.0269
750.184	-15.03681
750.609	53.13074
751.033	-37.08847
751.458	30.06842
751.883	-11.0275
752.307	19.04633
752.732	47.12111
753.156	53.13357
753.58	32.07712
754.005	31.07938
754.429	25.06035
754.853	42.10666
755.277	-26.06292
755.7	37.09291
756.124	21.05319
756.548	32.07819
756.971	28.06979
757.394	50.12989
757.818	10.02623
758.241	38.0979
758.664	53.13709
759.087	23.05327
759.51	22.05543
759.933	-15.03687
760.356	11.02842
760.778	83.20977
761.201	44.10892
761.623	58.14252
762.046	27.06449
762.468	24.05843
762.89	8.01984
763.312	19.04687
763.734	4.00988
764.156	-11.02793
764.578	-9.02118
765	79.19595
765.421	63.16526
765.843	30.07948
766.264	25.06065
766.686	25.06325
767.107	25.06224
767.528	-3.00781
767.949	-37.09567
768.37	42.10537
768.791	43.1056
769.212	6.0156
769.632	7.01686
770.053	20.05345
770.473	15.03723
770.894	-24.06069
771.314	-14.03384
771.734	72.17121
772.154	37.0962
772.575	24.05648
772.994	19.04439
773.414	-8.0196
773.834	-32.08092
774.254	56.14009
774.673	-2.00496
775.093	-16.04029
775.512	41.10366
775.931	5.01296
776.351	12.03037
776.77	26.06556
777.189	0
777.607	-13.03359
778.026	4.0101
778.445	-21.05353
778.864	-4.01033
779.282	39.09606
779.701	-25.06449
780.119	12.03095
780.537	17.04344
780.955	15.03861
781.373	4.01004
781.791	25.05737
782.209	8.01855
782.627	-18.04802
783.045	-7.01657
783.462	-14.03626
783.88	7.0185
784.297	26.06684
784.715	16.04188
785.132	-28.06941
785.549	19.04863
785.966	-17.04348
786.383	6.01504
786.8	-8.01879
787.217	-18.04371
787.633	-5.01288
788.05	-33.07888
788.466	38.09071
788.883	-18.04676
789.299	19.0464
789.715	21.05235
790.131	4.01017
790.547	-53.13438
790.963	-5.01268
791.379	9.02301
791.795	0
792.21	24.05742
792.626	-2.00481
793.041	14.03519
793.457	4.01002
793.872	-53.1278
794.287	51.1259
794.702	-21.05239
795.117	34.08656
795.532	4.01021
795.947	11.02679
796.362	1.00239
796.776	35.08148
797.191	6.01509
797.605	11.02669
798.02	6.01498
798.434	28.06319
798.848	0
799.262	0
799.676	-15.037
800.09	-63.15746
800.504	5.01238
800.918	13.03088
801.331	10.02622
801.745	-8.01858
802.158	0
802.572	-32.07819
802.985	-14.0345
803.398	13.03158
803.811	-16.04124
804.224	-3.00754
804.637	3.00729
805.05	35.0826
805.462	96.23789
805.875	26.0687
806.288	-24.05893
806.7	14.03565
807.112	3.0071
807.525	15.03731
807.937	-25.06336
808.349	-34.08607
808.761	-28.06954
809.173	-7.01731
809.584	-30.0744
809.996	-5.01258
810.408	-25.06616
810.819	56.1348
811.231	48.12738
811.642	43.10693
812.053	7.01725
812.464	17.04141
812.875	-4.01044
813.286	-22.05727
813.697	-42.09787
814.108	-39.09659
814.519	-31.07029
814.929	-26.06652
815.34	14.03429
815.75	38.09729
816.16	14.03515
816.571	48.12572
816.981	-29.06895
817.391	37.0905
817.801	-10.02528
818.211	-45.10912
818.62	-2.00494
819.03	-1.00249
819.44	12.03142
819.849	12.0307
820.259	-20.05144
820.668	-5.01254
821.077	24.06086
821.486	0
821.895	-23.05724
822.304	8.02131
822.713	17.04071
823.122	-5.01259
823.531	-35.0842
823.939	11.02719
824.348	9.02214
824.756	1.00253
825.164	-16.0405
825.573	-36.09246
825.981	-16.03972
826.389	-2.0051
826.797	47.11967
827.205	18.04247
827.612	13.03223
828.02	-23.05577
828.428	-48.12422
828.835	-32.08529
829.243	-1.00241
829.65	-32.08112
830.057	-20.04896
830.464	-28.06928
830.871	-39.09436
831.278	1.00245
831.685	-13.02974
832.092	13.03229
832.499	-30.06759
832.905	-15.03838
833.312	35.08055
833.718	-12.03012
834.124	-4.00923
834.531	-13.03317
834.937	26.06691
835.343	31.07551
835.749	-6.01417
836.155	6.01591
836.561	-28.06961
836.966	37.09053
837.372	7.01808
837.777	-10.02526
838.183	25.05657
838.588	11.02772
838.993	-42.10305
839.399	34.08502
839.804	-9.02245
840.209	-8.02073
840.613	-16.03649
841.018	9.02302
841.423	-22.05717
841.828	-10.02556
842.232	-11.02736
842.637	67.15843
843.041	-11.02866
843.445	2.00509
843.849	2.00502
844.253	30.07156
844.657	5.01282
845.061	-24.0554
845.465	35.08624
845.869	-21.04987
846.272	8.0199
846.676	-28.06737
847.079	-19.04942
847.483	-5.01251
847.886	-9.02209
848.289	5.01349
848.692	24.06078
849.095	32.0775
849.498	14.03524
849.901	-19.04442
850.304	-16.03853
850.707	-26.06696
851.109	-28.07101
851.512	10.02511
851.914	2.00522
852.316	3.00768
852.718	32.08521
853.121	10.02502
853.523	65.15638
853.925	30.07922
854.326	-4.01021
854.728	9.02341
855.13	-28.07339
855.531	37.0904
855.933	13.03158
856.334	-32.08121
856.736	59.13616
857.137	12.0285
857.538	13.03338
857.939	23.05813
858.34	9.02217
858.741	23.06048
859.142	-29.07064
859.542	8.02129
859.943	38.09606
860.343	44.11106
860.744	3.00738
861.144	11.0271
861.544	3.00745
861.945	-15.03892
862.345	26.06391
862.745	-15.03763
863.145	-7.01678
863.544	7.01789
863.944	73.17455
864.344	-17.04246
864.743	19.04709
865.143	22.05731
865.542	-2.00475
865.941	-18.04503
866.34	12.02878
866.74	-10.02704
867.139	-51.12511
867.537	-9.02321
867.936	17.04135
868.335	-15.03853
868.734	-22.05719
869.132	-19.04498
869.531	-49.11864
869.929	35.08193
870.327	25.06117
870.726	9.02242
871.124	-29.06842
871.522	-20.05137
871.92	21.05237
872.318	-25.06167
872.715	-23.05692
873.113	-1.00247
873.511	-63.15752
873.908	-62.16018
874.306	10.02532
874.703	-11.02778
875.1	-5.01278
875.497	-4.00973
875.894	-38.09619
876.291	-21.05161
876.688	-1.00261
877.085	25.06021
877.482	19.048
877.878	24.05878
878.275	-10.02566
878.671	-29.06449
879.068	14.03406
879.464	5.01231
879.86	17.04104
880.256	39.09613
880.652	13.03365
881.048	-11.02752
881.444	-37.08901
881.84	22.05654
882.236	4.01012
882.631	47.11525
883.027	5.01209
883.422	-1.0026
883.817	15.03862
884.213	23.05959
884.608	23.05784
885.003	5.01237
885.398	-40.10248
885.793	-4.01019
886.188	37.09358
886.582	21.05404
886.977	28.06727
887.371	-40.10126
887.766	-50.12751
888.16	-12.03041
888.554	-25.06165
888.949	27.06768
889.343	5.01233
889.737	-12.03255
890.131	10.02539
890.525	-8.02085
890.918	22.05597
891.312	19.04555
891.706	-9.02376
892.099	7.01788
892.492	-51.11234
892.886	24.06002
893.279	43.11103
893.672	14.03608
894.065	-7.01769
894.458	-26.06589
894.851	0
895.244	-2.0052
895.637	33.07981
896.029	35.08684
896.422	-10.02475
896.814	2.00508
897.206	11.02664
897.599	-1.00247
897.991	40.09778
898.383	0
898.775	-5.01149
899.167	-27.06508
899.559	-36.09171
899.951	3.0072
900.342	29.07423
900.734	-6.01528
901.125	33.08756
901.517	-53.13218
901.908	-1.0024
902.299	52.12966
902.69	24.05729
903.082	-15.03628
903.473	-9.02213
903.863	-12.03074
904.254	-26.06128
904.645	-23.05715
905.036	-40.09956
905.426	15.03471
905.817	1.00249
906.207	19.04626
906.597	-39.09358
906.987	-36.09326
907.378	19.04819
907.768	-12.03211
908.158	-2.00494
908.547	29.07633
908.937	-25.06424
909.327	3.00734
909.717	25.06312
910.106	59.14377
910.495	38.09451
910.885	37.09428
911.274	4.01013
911.663	4.01017
912.052	-25.06208
912.441	15.03872
912.83	20.0469
913.219	16.04176
913.608	-23.05634
913.997	-3.00768
914.385	27.06533
914.774	-17.042
915.162	19.04619
915.55	-5.01213
915.939	-18.04616
916.327	-12.02982
916.715	34.08839
917.103	28.06901
917.491	48.11886
917.878	24.0598
918.266	5.01298
918.654	15.03852
919.041	-25.06607
919.429	-21.05008
919.816	25.0637
920.203	0
920.591	-37.09271
920.978	1.00247
921.365	6.01586
921.752	13.0312
922.139	-1.0022
922.525	22.05454
922.912	-3.00737
923.299	45.11381
923.685	-39.10279
924.072	8.01861
924.458	35.08729
924.844	18.04545
925.231	7.01659
925.617	38.09858
926.003	-2.00515
926.389	-37.09448
926.774	-14.03593
927.16	17.04257
927.546	-2.00517
927.931	30.0757
928.317	60.13855
928.702	-11.02618
929.088	63.15197
929.473	9.02313
929.858	17.04229
930.243	-11.02685
930.628	17.04223
931.013	-9.02262
931.398	-53.12265
931.783	-5.01309
932.167	-56.13882
932.552	-26.06523
932.937	21.05222
933.321	13.03317
933.705	-2.00509
934.09	-26.06514
934.474	47.11221
934.858	-40.10434
935.242	-24.05656
935.626	-32.08344
936.009	5.01344
936.393	-16.04091
936.777	-44.11352
937.16	26.06819
937.544	-33.07824
937.927	-28.07199
938.311	11.02696
938.694	15.03943
939.077	-1.00244
939.46	8.01959
939.843	22.04625
940.226	27.06994
940.609	39.09147
940.991	-8.02072
941.374	-12.0297
941.757	23.0574
942.139	-28.06404
942.522	-21.04991
942.904	7.0169
943.286	17.04326
943.668	39.10178
944.05	53.1317
944.432	30.07532
944.814	22.05514
945.196	-3.00754
945.578	56.13608
945.959	14.03321
946.341	-13.03181
946.722	-31.07347
947.104	-4.00962
947.485	24.05711
947.866	6.01538
948.247	-25.06422
948.628	20.04911
949.009	-19.0495
949.39	-29.07277
949.771	-9.02126
950.152	27.06695
950.532	11.02764
950.913	35.08592
951.293	3.00822
951.674	-12.0294
952.054	-8.02006
952.434	-31.07784
952.814	-39.09269
953.194	-16.04166
953.574	-28.06931
953.954	26.06249
954.334	-10.0252
954.714	6.01486
955.093	-34.08361
955.473	-21.0533
955.853	-11.02853
956.232	-2.00546
956.611	6.01438
956.99	-55.13905
957.37	-1.00256
957.749	5.01204
958.128	11.02779
958.506	4.01049
958.885	-7.01786
959.264	26.06492
959.643	28.06489
960.021	-47.11815
960.4	-14.03224
960.778	-9.02213
961.156	4.01018
961.535	10.02352
961.913	6.01422
962.291	3.00784
962.669	-43.10902
963.047	-18.04658
963.424	4.01028
963.802	10.02474
964.18	20.05052
964.557	51.1184
964.935	-24.05733
965.312	19.05013
965.69	42.1053
966.067	-24.0593
966.444	9.02227
966.821	-9.02319
967.198	-28.06804
967.575	-33.08164
967.952	-12.02821
968.329	-18.04438
968.705	33.07235
969.082	38.09878
969.458	-21.0514
969.835	-46.1127
970.211	31.08016
970.587	-20.0503
970.963	14.03604
971.339	-18.04756
971.715	15.03772
972.091	3.00748
972.467	6.01503
972.843	6.01519
973.219	9.02157
973.594	19.05014
973.97	23.05504
974.345	-7.01707
974.721	43.10412
975.096	15.0368
975.471	-55.13041
975.846	-13.03182
976.221	-3.00779
976.596	12.02925
976.971	-13.03213
977.346	15.0351
977.72	-21.05351
978.095	-5.01293
978.469	-30.07246
978.844	-27.06807
979.218	-9.02218
979.593	-3.00717
979.967	49.12025
980.341	14.0328
980.715	-9.02279
981.089	29.07327
981.463	-32.0753
981.837	-23.0574
982.21	-46.10631
982.584	-44.109
982.957	3.00758
983.331	-20.04789
983.704	8.01998
984.078	-37.09248
984.451	-34.08419
984.824	-4.01001
985.197	-12.02951
985.57	31.07787
985.943	-3.00738
986.316	-9.02226
986.688	9.02184
987.061	17.04042
987.434	-13.03402
987.806	-67.16466
988.179	9.02178
988.551	36.09162
988.923	-42.10404
989.295	1.00252
989.667	12.02958
990.039	-5.01256
990.411	-8.01871
990.783	-13.02989
991.155	29.07138
991.527	-7.01705
991.898	-2.00503
992.27	0
992.641	8.02015
993.012	27.06397
993.384	14.03382
993.755	24.06155
994.126	6.01455
994.497	30.07483
994.868	5.01158
995.239	0
995.61	7.01791
995.98	4.0099
996.351	15.03783
996.722	-15.03569
997.092	5.01198
997.462	11.02648
997.833	-23.05477
998.203	48.11598
998.573	-15.03777
998.943	23.05479
999.313	-41.09916
999.683	-35.08541
1000.053	-10.02327
1000.423	-8.01953
1000.792	35.09175
1001.162	2.00498
1001.531	-33.08275
1001.901	-2.00502
1002.27	21.04775
1002.639	-28.07251
1003.009	20.04809
1003.378	-65.16865
1003.747	-5.01199
1004.116	-7.01705
1004.485	-39.09404
1004.853	21.05324
1005.222	59.14895
1005.591	1.0024
1005.959	62.14408
1006.328	34.07779
1006.696	-49.12011
1007.064	-9.02302
1007.433	-23.05765
1007.801	-30.07363
1008.169	2.00513
1008.537	17.03763
1008.905	-3.00713
1009.273	11.02738
1009.64	21.05102
1010.008	18.04336
1010.375	-48.11515
1010.743	28.06496
1011.11	-26.06297
1011.478	13.03215
1011.845	-28.06674
1012.212	19.04393
1012.579	-1.00248
1012.946	34.08141
1013.313	-15.0357
1013.68	-26.05918
1014.047	6.01472
1014.414	14.03353
1014.78	-24.06028
1015.147	-3.00727
1015.513	-24.05882
1015.88	1.00256
1016.246	13.0322
1016.612	12.02779
1016.978	4.00994
1017.344	-24.06006
1017.71	-8.01932
1018.076	10.02365
1018.442	-12.03104
1018.808	-1.00253
1019.174	33.08355
1019.539	17.03884
1019.905	-21.0502
1020.27	-29.07298
1020.636	3.00721
1021.001	21.05102
1021.366	-30.07279
1021.731	5.01294
1022.096	-6.01521
1022.461	-35.08318
1022.826	36.08653
1023.191	18.04732
1023.556	-2.00475
1023.92	-19.0469
1024.285	-6.01472
1024.649	-17.04192
1025.014	-9.02236
1025.378	10.02548
1025.742	16.04004
1026.107	18.041
1026.471	-21.04925
1026.835	-18.04478
1027.199	-31.07647
1027.562	49.1151
1027.926	-34.08376
1028.29	41.10528
1028.654	26.06059
1029.017	46.11232
1029.381	80.19425
1029.744	27.06955
1030.107	7.01649
1030.471	24.05768
1030.834	3.00689
1031.197	2.0048
1031.56	0
1031.923	-12.03128
1032.286	-34.07992
1032.648	32.07715
1033.011	29.06818
1033.374	26.06075
1033.736	9.02402
1034.099	23.0569
1034.461	24.0619
1034.823	-19.04805
1035.185	-10.02551
1035.548	7.01724
1035.91	28.06799
1036.272	-2.00463
1036.634	-38.09344
1036.995	-33.07824
1037.357	-49.12154
1037.719	0
1038.08	24.05652
1038.442	10.02394
1038.803	29.07046
1039.165	-11.02792
1039.526	-1.00243
1039.887	3.00727
1040.248	41.10296
1040.609	-22.05464
1040.97	15.03744
1041.331	-69.17712
1041.692	-8.0191
1042.053	1.00229
1042.413	-2.00469
1042.774	24.05845
1043.134	-13.03094
1043.495	-20.0507
1043.855	36.08728
1044.215	-27.06729
1044.576	14.03415
1044.936	-33.07573
1045.296	13.03249
1045.656	16.03949
1046.016	-2.00487
1046.375	36.08869
1046.735	11.0256
1047.095	20.04739
1047.454	-38.0814
1047.814	-32.07715
1048.173	-7.01667
1048.533	-47.11041
1048.892	-6.01479
1049.251	11.02762
1049.61	3.00748
1049.969	-14.03316
1050.328	-2.0044
1050.687	-20.04951
1051.046	-30.07391
1051.405	26.06495
1051.763	-17.03989
1052.122	18.04576
1052.48	-6.01477
1052.839	7.01667
1053.197	-32.07589
1053.555	-22.04965
1053.914	21.05171
1054.272	16.03857
1054.63	1.0025
1054.988	-38.09178
1055.345	13.02855
1055.703	-20.04822
1056.061	-2.00519
1056.419	-9.02353
1056.776	21.05069
1057.134	44.10277
1057.491	4.01006
1057.848	-5.01256
1058.206	10.02381
1058.563	0
1058.92	-2.00465
1059.277	-9.0222
1059.634	18.0429
1059.991	-35.08379
1060.348	25.05808
1060.704	-17.04127
1061.061	-34.07792
1061.418	16.0394
1061.774	-4.01
1062.131	-38.10179
1062.487	-29.06876
1062.843	9.02262
1063.199	-34.08533
1063.555	0
1063.911	1.00256
1064.267	55.11437
1064.623	-19.04708
1064.979	-42.09914
1065.335	-39.09283
1065.691	-38.09133
1066.046	-22.04881
1066.402	-20.04666
1066.757	-14.03534
1067.112	-28.06845
1067.468	-33.07987
1067.823	10.02427
1068.178	-2.00486
1068.533	-19.04632
1068.888	55.13182
1069.243	-6.01497
1069.598	15.03691
1069.952	0
1070.307	17.04275
1070.662	22.05312
1071.016	7.0161
1071.371	7.01612
1071.725	1.0024
1072.079	-32.07735
1072.434	6.01476
1072.788	28.06804
1073.142	22.05414
1073.496	47.11461
1073.85	-18.04216
1074.203	2.00483
1074.557	26.06946
1074.911	-16.03834
1075.265	-27.06362
1075.618	10.02458
1075.971	-11.02657
1076.325	-26.06731
1076.678	1.00237
1077.031	-26.06056
1077.385	13.0292
1077.738	27.06261
1078.091	48.11194
1078.444	11.02587
1078.796	3.00742
1079.149	3.00748
1079.502	-11.02663
1079.855	-17.0406
1080.207	-22.05448
1080.56	2.00525
1080.912	34.08321
1081.264	-25.06119
1081.617	5.01247
1081.969	-28.07239
1082.321	55.13552
1082.673	6.01415
1083.025	-18.043
1083.377	-224.50795
1083.728	27.06335
1084.08	-15.03817
1084.432	3.00737
1084.783	-26.06111
1085.135	-38.09705
1085.486	5.01175
1085.838	13.03228
1086.189	22.0539
1086.54	-21.05039
1086.891	14.03599
1087.242	-16.03936
1087.593	27.06491
1087.944	29.06709
1088.295	-5.01139
1088.646	17.04149
1088.996	-26.06431
1089.347	30.07385
1089.698	-15.03663
1090.048	27.06994
1090.398	-22.05175
1090.749	11.02637
1091.099	2.0051
1091.449	-20.05012
1091.799	26.06593
1092.149	24.06026
1092.499	-35.0858
1092.849	-33.08506
1093.199	-25.06269
1093.548	-27.06569
1093.898	18.04571
1094.248	-4.01027
1094.597	35.09069
1094.947	7.01875
1095.296	-10.02509
1095.645	13.03379
1095.994	56.13572
1096.343	5.01265
1096.692	41.10904
1097.041	-10.02747
1097.39	-21.05317
1097.739	-13.03378
1098.088	17.04557
1098.437	-11.02929
1098.785	21.05702
1099.134	16.04252
1099.482	-49.1359
1099.83	7.01826
1100.179	0
1100.527	33.08826
1100.875	-14.03744
1101.223	17.04499
1101.571	18.05013
1101.919	-24.06407
1102.267	-9.02547
1102.615	-8.02578
1102.962	-4.01288
1103.31	5.0161
1103.658	-1.00322
