Data from N2 R1 sample 6_Subt2__1__13-33-04-957.txt Node

Date: Wed Aug 27 13:33:04 PDT 2025
User: uwsun
Spectrometer: HDX01956
Trigger mode: 0
Integration Time (sec): 5.000000E-1
Scans to average: 1
Nonlinearity correction enabled: true
Boxcar width: 0
Storing dark spectrum: false
XAxis mode: Wavelengths
Number of Pixels in Spectrum: 2068
>>>>>Begin Spectral Data<<<<<
194.03	185.52533
194.578	203.6468
195.127	189.59505
195.676	207.65203
196.225	208.55269
196.773	196.54263
197.321	343.92684
197.87	383.96188
198.418	463.15663
198.966	430.09163
199.513	420.03141
200.061	426.06117
200.609	438.11393
201.156	430.92658
201.704	450.11132
202.251	432.10676
202.798	472.19631
203.345	443.0633
203.892	409.00194
204.438	472.09148
204.985	455.05064
205.532	469.18807
206.078	452.08145
206.624	443.06773
207.17	478.07382
207.716	494.17221
208.262	426.82287
208.808	410.99755
209.354	512.20611
209.899	443.07898
210.445	437.05641
210.99	430.01226
211.535	470.06962
212.08	485.09692
212.625	400.97722
213.17	376.92408
213.715	384.85478
214.259	429.97014
214.804	473.12769
215.348	412.92431
215.892	408.9547
216.436	386.87381
216.98	451.97119
217.524	412.95008
218.068	381.92858
218.612	448.093
219.155	413.9484
219.698	377.87579
220.242	431.02739
220.785	371.85061
221.328	427.03065
221.871	364.88666
222.414	383.93414
222.956	345.82169
223.499	408.89878
224.041	438.99995
224.583	387.81011
225.126	419.90849
225.668	385.92219
226.21	369.90705
226.751	379.82458
227.293	363.81423
227.835	348.83248
228.376	397.90035
228.918	395.96735
229.459	445.07619
230	398.91378
230.541	399.90525
231.082	424.0012
231.622	433.98356
232.163	360.86151
232.704	422.01875
233.244	366.8762
233.784	325.77822
234.324	417.89799
234.864	415.91669
235.404	395.90635
235.944	336.78103
236.484	386.92758
237.023	399.92469
237.563	414.93375
238.102	356.81148
238.641	359.88312
239.18	409.93696
239.719	415.01066
240.258	402.87963
240.797	426.99797
241.335	408.9659
241.874	389.744
242.412	372.87253
242.95	446.03941
243.488	447.99807
244.026	400.89739
244.564	412.82217
245.102	438.96768
245.64	447.03827
246.177	385.84119
246.715	388.90045
247.252	369.82565
247.789	386.69667
248.326	417.98548
248.863	407.87495
249.4	375.8235
249.936	481.96721
250.473	401.91385
251.009	464.03293
251.546	462.99893
252.082	358.76483
252.618	429.93889
253.154	433.0045
253.69	406.89812
254.226	346.79855
254.761	425.93131
255.297	424.916
255.832	372.85513
256.367	463.05727
256.903	466.99164
257.438	440.98589
257.972	455.99284
258.507	453.01693
259.042	415.86526
259.576	392.83419
260.111	429.95789
260.645	392.8233
261.179	419.94406
261.713	414.90052
262.247	432.96558
262.781	363.74609
263.315	402.95097
263.849	421.01881
264.382	404.89743
264.915	496.12525
265.449	454.0759
265.982	438.96162
266.515	497.15461
267.048	407.83086
267.58	428.89732
268.113	427.90332
268.646	443.05605
269.178	452.99318
269.71	425.88532
270.243	453.99475
270.775	472.15123
271.307	400.92829
271.838	497.11132
272.37	425.00493
272.902	446.98164
273.433	424.90345
273.965	471.09412
274.496	415.9891
275.027	479.1407
275.558	516.18961
276.089	487.15712
276.62	453.09845
277.15	482.13358
277.681	433.91321
278.211	493.15161
278.741	469.00238
279.272	464.02183
279.802	505.20225
280.332	512.15832
280.861	479.10265
281.391	505.09531
281.921	451.02899
282.45	508.2101
282.98	492.21787
283.509	513.10417
284.038	429.94681
284.567	498.09317
285.096	471.0842
285.625	443.96175
286.153	457.03222
286.682	547.19713
287.21	480.1021
287.739	487.10011
288.267	507.16999
288.795	521.29468
289.323	522.15939
289.851	536.17426
290.378	577.23311
290.906	522.21636
291.433	517.2172
291.961	544.17928
292.488	480.12537
293.015	533.18656
293.542	530.2751
294.069	571.32833
294.596	515.20073
295.122	548.23284
295.649	530.09851
296.175	555.27329
296.702	556.2626
297.228	582.3153
297.754	544.15319
298.28	580.243
298.806	519.16822
299.332	555.17578
299.857	542.15395
300.383	544.28159
300.908	595.37116
301.433	581.31544
301.958	579.27047
302.483	570.34603
303.008	557.26768
303.533	623.50896
304.058	556.2166
304.582	602.34563
305.107	555.36223
305.631	594.25716
306.155	604.32233
306.679	653.41801
307.203	601.3022
307.727	634.40792
308.251	566.29052
308.775	591.31205
309.298	641.43437
309.822	640.48461
310.345	673.45343
310.868	597.32374
311.391	644.44139
311.914	704.62416
312.437	588.23467
312.96	719.53498
313.482	653.42402
314.005	696.61015
314.527	698.66377
315.049	677.55595
315.571	703.42944
316.093	707.58348
316.615	698.52193
317.137	682.34921
317.659	689.4969
318.18	719.55551
318.702	765.61635
319.223	709.32125
319.744	785.57973
320.265	747.62851
320.786	758.69464
321.307	758.7002
321.828	736.48474
322.348	764.58994
322.869	824.73618
323.389	1016.42195
323.909	828.68202
324.43	737.57141
324.95	823.66616
325.47	866.87095
325.989	814.68734
326.509	836.64046
327.029	916.79091
327.548	859.68447
328.067	879.86145
328.587	948.98364
329.106	971.91334
329.625	889.00484
330.144	868.72255
330.662	935.86472
331.181	910.81187
331.7	952.87805
332.218	1007.81863
332.736	1010.95077
333.255	1058.04898
333.773	992.9534
334.291	1003.06442
334.808	1055.92295
335.326	1072.9791
335.844	1097.09698
336.361	1077.25157
336.879	1144.18233
337.396	1066.1076
337.913	1186.22134
338.43	1118.01883
338.947	1155.21661
339.464	1176.023
339.981	1186.23873
340.497	1168.30003
341.014	1187.31519
341.53	1174.09778
342.046	1246.38312
342.562	1238.39615
343.078	1291.34129
343.594	1259.34638
344.11	1287.33519
344.626	1329.55626
345.141	1257.17847
345.657	1301.17704
346.172	1248.34581
346.687	1319.30205
347.202	1417.37108
347.717	1364.4288
348.232	1439.68952
348.747	1375.36277
349.261	1383.23002
349.776	1412.46968
350.29	1521.74774
350.805	1462.67999
351.319	1499.50651
351.833	1473.44409
352.347	1458.49629
352.861	1528.56709
353.374	1507.44515
353.888	1500.54281
354.401	1589.57504
354.915	1626.59097
355.428	1653.85557
355.941	1644.62141
356.454	1555.3813
356.967	1587.59177
357.48	1570.47695
357.993	1621.75889
358.505	1698.84421
359.018	1793.92985
359.53	1716.72357
360.042	1693.48519
360.554	1666.69273
361.066	1715.83973
361.578	1723.44
362.09	1760.76585
362.602	1766.46851
363.113	1804.68976
363.625	1842.5832
364.136	1844.5295
364.647	1825.69972
365.158	1917.78227
365.669	1916.90015
366.18	1896.7755
366.691	1870.5267
367.201	1883.8019
367.712	1924.71905
368.222	1967.67193
368.733	1998.51204
369.243	2055.62208
369.753	2014.69618
370.263	2070.95708
370.773	2152.14984
371.282	2122.88701
371.792	2194.79868
372.301	2229.03533
372.811	2191.29759
373.32	2358.55204
373.829	2396.85521
374.338	2534.64442
374.847	2531.76246
375.356	2630.86159
375.865	2751.36941
376.373	2751.58538
376.882	2837.12149
377.39	2914.85785
377.898	3079.9831
378.407	3190.48903
378.915	3338.04251
379.423	3395.44025
379.93	3516.13828
380.438	3748.40638
380.946	3923.00982
381.453	4113.07688
381.96	4403.68818
382.468	4662.43847
382.975	4810.46869
383.482	4946.05461
383.989	4978.66545
384.495	5267.87885
385.002	5607.21873
385.509	5904.49189
386.015	6232.89766
386.521	6518.17794
387.028	6702.22012
387.534	7023.28517
388.04	7199.56307
388.546	7609.92861
389.051	8098.7514
389.557	8688.00219
390.063	8921.85495
390.568	9274.63674
391.073	9653.52661
391.578	10133.37452
392.084	10313.83144
392.589	11121.38647
393.093	12197.37252
393.598	12987.80188
394.103	14065.14708
394.607	15305.35617
395.112	16336.14464
395.616	17256.60731
396.12	18711.9746
396.624	20716.44325
397.128	22320.68481
397.632	24447.62786
398.136	26403.33528
398.639	29079.5065
399.143	33307.21713
399.646	36968.10015
400.15	40966.74835
400.653	46188.20833
401.156	52665.14402
401.659	55243.59806
402.162	53756.95089
402.664	47275.14456
403.167	32260.27245
403.67	3851.94142
404.172	0
404.674	0
405.176	0
405.678	0
406.18	0
406.682	0
407.184	0
407.686	12367.42319
408.187	34596.90747
408.688	44563.94194
409.19	48906.19284
409.691	51236.67962
410.192	52883.26968
410.693	53713.23343
411.194	54189.54801
411.694	54767.79104
412.195	55625.98899
412.696	55971.27715
413.196	55815.15953
413.696	55753.94838
414.196	55740.09561
414.696	56000.32296
415.196	52271.45372
415.696	43244.4359
416.196	33873.79382
416.695	28784.16545
417.195	26732.39101
417.694	25357.04191
418.194	23415.99348
418.693	22462.73367
419.192	21861.56857
419.691	21358.3101
420.19	20519.50382
420.688	20030.05091
421.187	19093.71721
421.685	17309.42354
422.184	15488.1824
422.682	13393.84501
423.18	11799.67252
423.678	10710.02002
424.176	10107.71552
424.674	9487.92125
425.172	8803.35313
425.669	8128.72978
426.167	7428.71952
426.664	6852.23468
427.161	6300.16474
427.659	5913.52643
428.156	5541.04047
428.652	5384.17404
429.149	5159.02735
429.646	4771.86127
430.143	4542.44526
430.639	4277.58539
431.135	4060.10752
431.632	3859.86276
432.128	3568.11112
432.624	3549.65828
433.12	3481.01754
433.616	3444.90236
434.111	3274.50128
434.607	3228.52658
435.103	3015.01623
435.598	2789.92958
436.093	2652.53104
436.588	2584.34337
437.083	2530.48809
437.578	2322.38289
438.073	2254.90685
438.568	2203.76815
439.062	2124.23889
439.557	2002.53442
440.051	2036.48981
440.546	1950.4869
441.04	1921.64324
441.534	1899.79589
442.028	1835.55146
442.522	1785.55919
443.015	1810.31181
443.509	1792.68115
444.002	1704.59319
444.496	1613.15285
444.989	1696.57331
445.482	1618.57665
445.975	1618.31412
446.468	1621.20064
446.961	1528.02489
447.454	1560.30207
447.947	1430.25549
448.439	1475.38352
448.931	1427.0967
449.424	1468.48291
449.916	1440.34407
450.408	1366.06541
450.9	1318.18712
451.392	1355.37136
451.884	1331.09516
452.375	1217.16324
452.867	1294.97749
453.358	1204.9445
453.849	1285.88819
454.341	1232.92204
454.832	1209.83748
455.323	1229.16783
455.814	1145.90022
456.304	1161.93534
456.795	1157.94443
457.285	1124.80754
457.776	1131.84399
458.266	1100.96133
458.756	1139.0449
459.247	1078.94175
459.737	1058.94834
460.226	973.68929
460.716	1018.86143
461.206	1033.90268
461.695	992.94153
462.185	991.8206
462.674	988.75206
463.163	964.66965
463.653	933.53528
464.142	948.80031
464.63	918.76607
465.119	911.67083
465.608	899.66696
466.096	868.53319
466.585	884.64194
467.073	864.66601
467.561	802.58106
468.05	830.57281
468.538	817.64421
469.026	754.48839
469.513	742.29447
470.001	886.68401
470.489	812.62776
470.976	716.37295
471.463	747.56176
471.951	713.49192
472.438	698.39832
472.925	721.45677
473.412	612.29644
473.899	644.27392
474.385	664.40857
474.872	617.25036
475.359	629.35193
475.845	665.20172
476.331	668.25733
476.817	570.21681
477.303	620.25902
477.789	577.22725
478.275	556.22582
478.761	573.233
479.247	558.0994
479.732	540.20787
480.218	488.13523
480.703	490.09452
481.188	421.82081
481.673	479.99602
482.158	474.9437
482.643	523.19499
483.128	490.02858
483.612	391.84743
484.097	443.99485
484.581	376.80223
485.066	434.97565
485.55	427.86654
486.034	415.83835
486.518	396.85259
487.002	440.00889
487.486	350.80585
487.969	376.85637
488.453	362.8461
488.936	388.81885
489.42	408.84443
489.903	317.74516
490.386	398.61755
490.869	314.6464
491.352	264.60618
491.835	286.56595
492.318	350.75389
492.8	345.69214
493.283	321.76747
493.765	293.68822
494.247	297.65882
494.73	260.54873
495.212	238.54364
495.694	267.60114
496.175	258.59027
496.657	272.61403
497.139	236.40436
497.62	285.65216
498.102	265.63796
498.583	265.63796
499.064	203.43662
499.545	266.58404
500.026	233.5089
500.507	245.55094
500.988	262.62344
501.469	231.55949
501.949	183.43472
502.43	195.45483
502.91	210.42919
503.39	213.51279
503.87	225.51405
504.35	220.49848
504.83	177.38299
505.31	167.39473
505.79	170.4005
506.269	194.43957
506.749	169.37895
507.228	163.37586
507.707	198.42595
508.187	204.46955
508.666	154.36647
509.145	176.40268
509.623	158.36774
510.102	173.4086
510.581	140.32675
511.059	212.51782
511.538	148.37023
512.016	202.47458
512.494	224.5318
512.972	137.31754
513.45	126.29118
513.928	193.4583
514.406	163.39139
514.884	177.44285
515.361	146.33887
515.839	146.32933
516.316	193.45406
516.793	155.3836
517.27	119.28291
517.747	173.43581
518.224	125.28387
518.701	107.23766
519.178	111.27108
519.654	143.33224
520.131	117.28456
520.607	116.28123
521.083	88.2011
521.56	111.25779
522.036	123.26774
522.512	123.29467
522.987	162.37809
523.463	122.28709
523.939	84.20182
524.414	86.19811
524.89	155.36396
525.365	57.12829
525.84	82.19454
526.315	128.3046
526.79	79.17642
527.265	150.3396
527.74	147.34881
528.215	146.34583
528.689	103.22668
529.164	138.29867
529.638	129.32509
530.112	85.19998
530.587	99.21486
531.061	154.36675
531.534	148.35409
532.008	120.2871
532.482	91.20557
532.956	78.19618
533.429	124.29338
533.903	69.15147
534.376	172.37782
534.849	107.24309
535.322	97.2275
535.795	69.16638
536.268	140.33213
536.741	70.16575
537.213	125.28398
537.686	60.1453
538.158	77.17422
538.631	113.26648
539.103	102.23018
539.575	82.17018
540.047	123.27013
540.519	106.24778
540.991	84.20105
541.463	136.3219
541.934	64.14502
542.406	69.16215
542.877	111.2448
543.348	94.21758
543.82	168.39794
544.291	150.33753
544.762	190.43872
545.233	133.32432
545.703	135.29474
546.174	183.41422
546.645	132.31158
547.115	247.57407
547.585	140.31167
548.056	180.41927
548.526	249.562
548.996	240.54931
549.466	243.56232
549.935	240.54821
550.405	233.49272
550.875	270.60802
551.344	268.60846
551.814	305.66445
552.283	301.61392
552.752	316.68592
553.221	321.66006
553.69	327.67513
554.159	335.77425
554.628	402.84058
555.096	398.92985
555.565	428.89573
556.033	370.80825
556.502	399.89938
556.97	328.67583
557.438	352.77446
557.906	367.81034
558.374	360.77376
558.842	394.87594
559.31	423.87802
559.777	417.93456
560.245	500.04499
560.712	452.95223
561.18	442.90292
561.647	485.97885
562.114	567.17821
562.581	546.18765
563.048	552.14062
563.514	564.24088
563.981	636.28157
564.448	650.2672
564.914	640.28787
565.381	685.33776
565.847	720.43846
566.313	800.59113
566.779	786.51974
567.245	733.4506
567.711	813.65265
568.176	771.45549
568.642	827.7406
569.108	898.82437
569.573	940.78422
570.038	943.59394
570.504	940.71851
570.969	951.90542
571.434	965.68067
571.899	1071.01077
572.363	1073.89389
572.828	1047.84404
573.293	1163.05838
573.757	1104.95332
574.222	1161.99033
574.686	1102.92255
575.15	1142.10834
575.614	1156.0338
576.078	1139.03448
576.542	1140.96616
577.006	1104.90285
577.469	1132.09397
577.933	1190.01793
578.396	1097.01043
578.86	1121.02786
579.323	1149.12183
579.786	1100.79972
580.249	1027.83788
580.712	1051.9977
581.175	954.90133
581.637	967.74977
582.1	927.58461
582.563	956.61555
583.025	974.89101
583.487	878.44888
583.95	913.59153
584.412	856.43903
584.874	877.74973
585.336	805.58958
585.797	779.39316
586.259	734.45427
586.721	713.42742
587.182	710.38764
587.643	704.33172
588.105	664.31723
588.566	580.0374
589.027	642.3257
589.488	611.18737
589.949	604.26163
590.41	581.99072
590.87	541.0486
591.331	578.07536
591.791	518.05157
592.252	451.91399
592.712	481.0041
593.172	535.0498
593.632	444.84407
594.092	470.92093
594.552	410.77677
595.011	472.96289
595.471	427.8523
595.931	403.80103
596.39	488.04059
596.849	477.98038
597.308	360.6877
597.768	448.02563
598.227	441.93661
598.685	393.80228
599.144	381.81061
599.603	463.9709
600.062	413.79068
600.52	462.91638
600.978	423.90073
601.437	412.84088
601.895	369.69686
602.353	429.83641
602.811	507.99507
603.269	410.87021
603.727	465.98671
604.184	457.92022
604.642	471.00754
605.099	571.1591
605.557	490.04622
606.014	543.01337
606.471	524.14938
606.928	489.92352
607.385	602.26856
607.842	608.20484
608.299	613.22298
608.755	557.15328
609.212	629.20266
609.668	622.17633
610.125	608.24192
610.581	601.19122
611.037	580.12193
611.493	599.20331
611.949	582.20002
612.405	661.14587
612.861	653.2818
613.316	664.35955
613.772	608.17619
614.227	541.0901
614.683	636.14833
615.138	648.29502
615.593	652.30362
616.048	685.32511
616.503	596.23113
616.958	636.34852
617.412	600.22167
617.867	653.24622
618.321	643.14768
618.776	620.16625
619.23	627.25327
619.684	632.23088
620.138	559.09854
620.592	555.16195
621.046	569.13979
621.5	565.19856
621.954	575.11357
622.407	548.0589
622.861	553.18072
623.314	539.06663
623.768	525.07382
624.221	512.8864
624.674	511.03238
625.127	513.0478
625.58	457.90964
626.033	483.92784
626.485	513.09566
626.938	492.02688
627.39	492.01961
627.843	450.92426
628.295	412.85309
628.747	468.99719
629.199	422.8648
629.651	410.85579
630.103	388.81382
630.555	434.84556
631.006	363.77937
631.458	418.90459
631.909	350.73218
632.361	400.85676
632.812	344.73938
633.263	343.68113
633.714	379.75719
634.165	319.70997
634.616	286.63376
635.067	308.62662
635.518	325.71762
635.968	322.60079
636.419	314.63446
636.869	263.57879
637.319	387.84735
637.769	250.52832
638.219	295.6601
638.669	197.44809
639.119	200.45795
639.569	188.43566
640.019	205.44831
640.468	215.46004
640.918	193.43828
641.367	225.48581
641.816	144.30765
642.265	189.41525
642.714	118.26476
643.163	184.40486
643.612	214.49531
644.061	178.36363
644.51	161.35656
644.958	218.46454
645.406	204.46805
645.855	243.57324
646.303	213.47761
646.751	190.41894
647.199	205.44414
647.647	182.40315
648.095	147.3284
648.543	275.54406
648.99	189.43824
649.438	149.33411
649.885	138.32777
650.333	193.36751
650.78	242.56056
651.227	177.41885
651.674	199.44255
652.121	202.47588
652.568	197.46509
653.015	238.57655
653.461	207.47369
653.908	174.39121
654.354	164.38185
654.801	221.5104
655.247	178.37601
655.693	148.3725
656.139	187.44217
656.585	177.4161
657.031	209.48134
657.477	180.3859
657.922	214.48291
658.368	215.51741
658.813	199.4497
659.259	170.39956
659.704	149.34289
660.149	203.4636
660.594	189.4391
661.039	141.3163
661.484	171.39823
661.929	103.23808
662.373	177.4398
662.818	163.39629
663.262	169.40008
663.707	163.40325
664.151	149.35464
664.595	161.38732
665.039	137.33458
665.483	198.49708
665.927	99.22965
666.371	147.34369
666.814	151.35678
667.258	101.24012
667.701	176.37455
668.145	162.39614
668.588	145.35213
669.031	121.28634
669.474	124.29678
669.917	138.30237
670.36	132.32447
670.803	160.38177
671.245	171.36463
671.688	126.30238
672.13	129.29485
672.573	106.26632
673.015	104.2493
673.457	146.32098
673.899	96.23213
674.341	116.27838
674.783	123.29568
675.225	143.35131
675.666	113.27453
676.108	74.16098
676.549	101.23818
676.991	108.24183
677.432	194.40045
677.873	69.16183
678.314	130.30948
678.755	125.30607
679.196	163.3781
679.637	172.41605
680.078	81.19191
680.518	166.38224
680.959	75.17886
681.399	111.27471
681.839	131.31849
682.28	114.28343
682.72	87.20421
683.16	130.32414
683.6	125.28433
684.039	76.16104
684.479	78.19315
684.919	100.23733
685.358	102.2571
685.798	176.46064
686.237	77.18749
686.676	54.12509
687.115	106.2508
687.554	88.21215
687.993	66.14906
688.432	84.19489
688.871	48.11203
689.309	77.18721
689.748	70.15072
690.186	121.2901
690.625	123.29197
691.063	110.26769
691.501	146.36153
691.939	83.21089
692.377	128.31556
692.815	99.24007
693.253	56.13587
693.69	70.15771
694.128	106.26133
694.565	97.23345
695.003	68.17366
695.44	102.2446
695.877	105.24963
696.314	48.10619
696.751	78.17896
697.188	43.10038
697.625	67.15437
698.061	71.17436
698.498	100.24372
698.934	102.24739
699.371	43.10376
699.807	67.16143
700.243	81.19612
700.679	86.19756
701.115	48.11322
701.551	66.15694
701.987	84.19242
702.422	73.17682
702.858	131.31479
703.294	64.14549
703.729	76.18723
704.164	40.09753
704.599	61.13842
705.035	48.11035
705.47	35.08618
705.904	69.16518
706.339	48.11335
706.774	68.163
707.209	96.22661
707.643	76.1846
708.078	58.14252
708.512	53.13476
708.946	29.07046
709.38	81.19501
709.814	101.23651
710.248	78.19322
710.682	77.18679
711.116	67.16551
711.549	94.24553
711.983	71.16776
712.416	81.19383
712.85	80.20193
713.283	38.09133
713.716	70.1753
714.149	74.17718
714.582	85.19546
715.015	89.2226
715.448	112.28301
715.881	15.0331
716.313	29.06844
716.746	58.13946
717.178	55.13492
717.61	76.19307
718.043	70.17556
718.475	48.1176
718.907	27.06843
719.339	77.17968
719.77	55.13302
720.202	74.18905
720.634	28.06999
721.065	93.2245
721.497	119.29386
721.928	58.14536
722.359	40.09978
722.79	85.20766
723.221	34.08634
723.652	70.18009
724.083	52.12122
724.514	85.19663
724.945	44.10567
725.375	104.24787
725.806	18.045
726.236	42.10775
726.666	122.29233
727.096	92.22956
727.526	86.22071
727.956	96.22406
728.386	67.16788
728.816	113.29258
729.246	83.20429
729.675	52.12961
730.105	108.26782
730.534	65.15501
730.964	73.18522
731.393	92.22706
731.822	36.0921
732.251	72.18517
732.68	70.1653
733.109	108.27095
733.537	63.155
733.966	70.17549
734.395	92.2154
734.823	100.22797
735.251	56.13715
735.68	120.29921
736.108	94.24006
736.536	134.32059
736.964	62.14675
737.392	70.17694
737.82	42.10083
738.247	86.20944
738.675	54.12895
739.102	105.26707
739.53	90.22993
739.957	87.22386
740.384	85.20913
740.811	87.22097
741.238	49.12083
741.665	68.16033
742.092	62.14981
742.519	86.217
742.945	84.20358
743.372	95.23726
743.798	80.20725
744.225	67.16296
744.651	94.23702
745.077	87.21831
745.503	111.27391
745.929	101.24473
746.355	24.05889
746.781	81.20237
747.207	51.12218
747.632	69.17164
748.058	40.10035
748.483	108.25315
748.908	66.16582
749.334	108.26831
749.759	103.2476
750.184	55.13322
750.609	56.13806
751.033	57.13384
751.458	92.20719
751.883	71.17488
752.307	123.29411
752.732	77.19737
753.156	94.23515
753.58	76.18162
754.005	66.16796
754.429	93.22161
754.853	101.2538
755.277	60.14284
755.7	102.25313
756.124	107.26685
756.548	54.13141
756.971	115.28211
757.394	72.18633
757.818	73.18941
758.241	90.22977
758.664	107.27417
759.087	63.14475
759.51	63.15757
759.933	27.06584
760.356	52.13341
760.778	103.25938
761.201	109.26659
761.623	89.21744
762.046	55.13066
762.468	49.11873
762.89	15.03715
763.312	24.05915
763.734	37.0908
764.156	60.15042
764.578	66.15307
765	104.25677
765.421	86.22471
765.843	78.20499
766.264	28.06789
766.686	33.08337
767.107	70.17283
767.528	35.09056
767.949	1.00257
768.37	96.2385
768.791	56.1372
769.212	62.15962
769.632	60.14306
770.053	47.12504
770.473	46.11353
770.894	21.05268
771.314	42.10045
771.734	53.12649
772.154	75.19373
772.575	70.16325
772.994	-23.05418
773.414	11.02685
773.834	-2.00503
774.254	60.14999
774.673	17.04198
775.093	-17.04281
775.512	54.13621
775.931	79.20222
776.351	28.07065
776.77	74.18498
777.189	52.12579
777.607	-1.00258
778.026	15.03779
778.445	11.02788
778.864	40.10251
779.282	59.14479
779.701	28.07156
780.119	11.02837
780.537	27.06887
780.955	26.0668
781.373	12.03006
781.791	5.01152
782.209	27.06238
782.627	36.09519
783.045	35.08215
783.462	-9.02329
783.88	33.08683
784.297	41.10513
784.715	24.06273
785.132	-17.04206
785.549	22.05628
785.966	2.0051
786.383	23.05746
786.8	19.04439
787.217	28.0674
787.633	23.05898
788.05	-2.00475
788.466	43.10255
788.883	-3.00777
789.299	33.08038
789.715	70.17296
790.131	68.17091
790.547	5.01255
790.963	40.10061
791.379	11.02812
791.795	-43.10014
792.21	16.03834
792.626	0
793.041	14.03519
793.457	30.07478
793.872	4.00954
794.287	49.121
794.702	-15.03738
795.117	47.11938
795.532	-2.00511
795.947	40.09691
796.362	8.01912
796.776	25.05831
797.191	21.05268
797.605	8.01942
798.02	45.11153
798.434	68.1522
798.848	21.05275
799.262	38.09612
799.676	42.10252
800.09	25.06149
800.504	15.03708
800.918	46.10858
801.331	9.0236
801.745	-25.05827
802.158	6.01528
802.572	-9.0219
802.985	44.10728
803.398	24.05819
803.811	9.02309
804.224	30.07494
804.637	4.00972
805.05	40.09431
805.462	56.13979
805.875	6.01591
806.288	-8.01959
806.7	19.04834
807.112	-8.01898
807.525	-16.04003
807.937	7.01764
808.349	-12.03026
808.761	-6.01484
809.173	-20.04958
809.584	10.02462
809.996	28.07005
810.408	74.19257
810.819	67.16094
811.231	101.26566
811.642	93.22915
812.053	32.07851
812.464	33.08014
812.875	25.06493
813.286	1.00259
813.697	-22.05106
814.108	-1.00246
814.519	-49.1115
814.929	7.0178
815.34	2.00491
815.75	11.0283
816.16	-32.081
816.571	41.10751
816.981	-16.03794
817.391	6.01476
817.801	11.0277
818.211	0
818.62	5.01234
819.03	30.0744
819.44	-8.02102
819.849	28.07143
820.259	-9.0231
820.668	2.00501
821.077	39.09864
821.486	40.09771
821.895	40.0984
822.304	-22.05889
822.713	11.02637
823.122	-18.04542
823.531	2.00478
823.939	34.0837
824.348	38.09296
824.756	18.04545
825.164	-13.03289
825.573	2.0051
825.981	-25.06217
826.389	17.04319
826.797	51.12977
827.205	29.06828
827.612	-12.02989
828.02	-1.00241
828.428	8.0205
828.835	-18.04786
829.243	-19.04592
829.65	-33.08367
830.057	-21.05142
830.464	-8.01972
830.871	-31.07489
831.278	-16.0393
831.685	36.08154
832.092	6.01492
832.499	14.03126
832.905	7.01784
833.312	-7.01624
833.718	16.03995
834.124	-5.01153
834.531	24.06084
834.937	9.02323
835.343	29.07067
835.749	-5.0118
836.155	33.08712
836.561	-32.07962
836.966	13.03195
837.372	20.05153
837.777	-8.0202
838.183	8.01816
838.588	35.08783
838.993	-45.11047
839.399	20.05014
839.804	-16.03997
840.209	35.09003
840.613	21.04754
841.018	10.02557
841.423	-1.00259
841.828	-2.0051
842.232	47.11568
842.637	17.04059
843.041	0
843.445	42.10609
843.849	17.0426
844.253	20.0478
844.657	4.01026
845.061	-16.03687
845.465	32.07889
845.869	38.08921
846.272	18.0447
846.676	-56.13546
847.079	4.01036
847.483	8.01997
847.886	16.0391
848.289	-14.03789
848.692	-5.01273
849.095	-4.00975
849.498	59.1473
849.901	16.03715
850.304	-33.07972
850.707	-32.0825
851.109	-24.06082
851.512	21.05262
851.914	51.13192
852.316	18.04595
852.718	24.06399
853.121	22.05492
853.523	63.15162
853.925	28.07396
854.326	1.00255
854.728	-10.02609
855.13	-19.04972
855.531	13.0319
855.933	9.02188
856.334	-19.04811
856.736	24.05577
857.137	-8.01907
857.538	11.02826
857.939	15.03796
858.34	40.09796
858.741	2.00528
859.142	-16.03888
859.542	-13.03471
859.943	31.07846
860.343	40.10104
860.744	22.05394
861.144	10.02464
861.544	23.05692
861.945	19.04901
862.345	20.04922
862.745	-3.00751
863.145	42.09972
863.544	-27.0694
863.944	34.08191
864.344	0
864.743	-2.00498
865.143	42.10903
865.542	13.03081
865.941	3.00748
866.34	-13.03132
866.74	10.02695
867.139	-41.10039
867.537	1.00257
867.936	-25.06128
868.335	-24.06175
868.734	18.04647
869.132	-5.0118
869.531	-7.01681
869.929	30.07029
870.327	7.01718
870.726	36.08924
871.124	-17.04001
871.522	-17.04364
871.92	58.14368
872.318	-10.0246
872.715	18.04421
873.113	8.01976
873.511	-57.14236
873.908	-28.07191
874.306	11.02785
874.703	-3.00757
875.1	-2.00511
875.497	-20.0488
875.894	7.01758
876.291	-29.07138
876.688	-25.06545
877.085	5.01209
877.482	-14.03558
877.878	23.05634
878.275	-25.06433
878.671	-35.07793
879.068	31.07517
879.464	18.04421
879.86	1.00242
880.256	-10.02487
880.652	35.09025
881.048	14.03487
881.444	-52.12546
881.84	-8.02067
882.236	-20.05083
882.631	-15.03721
883.027	-10.02424
883.422	35.09056
883.817	22.05658
884.213	50.12895
884.608	-3.00758
885.003	20.04936
885.398	7.01779
885.793	32.08103
886.188	11.02795
886.582	64.16345
886.977	26.06249
887.371	-63.16013
887.766	-38.09671
888.16	46.11537
888.554	-26.06412
888.949	-30.07597
889.343	27.06631
889.737	14.03782
890.131	23.05825
890.525	23.05964
890.918	26.0661
891.312	-5.01204
891.706	-9.02376
892.099	-8.02049
892.492	-13.02841
892.886	40.09974
893.279	54.13917
893.672	5.01291
894.065	8.02016
894.458	16.04024
894.851	-32.07857
895.244	3.00779
895.637	-27.06604
896.029	44.109
896.422	43.10541
896.814	34.08591
897.206	33.0796
897.599	3.00742
897.991	9.02213
898.383	-17.0406
898.775	24.05482
899.167	-13.03125
899.559	-13.03298
899.951	29.06926
900.342	42.10726
900.734	-20.05106
901.125	31.08228
901.517	-31.077
901.908	9.0216
902.299	10.02512
902.69	-5.012
903.082	29.06956
903.473	-11.02705
903.863	-29.07452
904.254	-4.00939
904.645	-15.03722
905.036	-10.02475
905.426	68.15571
905.817	-2.00499
906.207	-7.01713
906.597	15.03562
906.987	-17.0439
907.378	-18.04595
907.768	9.024
908.158	47.11496
908.547	23.0606
908.937	-15.03848
909.327	4.00978
909.717	15.03794
910.106	40.09782
910.495	20.04991
910.885	32.08161
911.274	26.06556
911.663	6.01524
912.052	18.04434
912.441	23.05929
912.83	36.08415
913.219	36.09365
913.608	-41.10076
913.997	-16.04105
914.385	36.08695
914.774	7.01722
915.162	40.09687
915.55	-25.06087
915.939	5.01277
916.327	-2.00496
916.715	48.12448
917.103	4.0099
917.491	27.06712
917.878	52.12891
918.266	-33.08624
918.654	4.01029
919.041	-44.11665
919.429	-43.10298
919.816	28.07131
920.203	-4.00983
920.591	-25.06251
920.978	44.10776
921.365	-14.03714
921.752	-14.03378
922.139	-28.06189
922.525	52.1282
922.912	-3.00737
923.299	54.13635
923.685	0
924.072	18.0418
924.458	4.01003
924.844	22.05551
925.231	-4.0095
925.617	11.02867
926.003	0
926.389	2.00507
926.774	-7.01794
927.16	5.01255
927.546	7.01808
927.931	11.02785
928.317	32.0743
928.702	-71.17094
929.088	-16.03917
929.473	6.01543
929.858	4.00997
930.243	-10.02441
930.628	27.06695
931.013	10.02505
931.398	-38.08768
931.783	-8.02096
932.167	-27.06658
932.552	-16.04007
932.937	28.06954
933.321	25.06366
933.705	19.04814
934.09	-52.13088
934.474	26.06232
934.858	-35.09122
935.242	-29.06842
935.626	11.02847
936.009	-10.02694
936.393	-10.02554
936.777	-34.08756
937.16	18.04727
937.544	-6.01415
937.927	11.02809
938.311	60.14574
938.694	-12.03169
939.077	9.02196
939.46	13.0318
939.843	42.0879
940.226	12.03116
940.609	26.06114
940.991	30.07718
941.374	-62.15488
941.757	43.10693
942.139	-20.04567
942.522	-9.02134
942.904	-7.01694
943.286	-6.01533
943.668	18.04715
944.05	-1.00251
944.432	19.0478
944.814	45.11231
945.196	23.05755
945.578	10.02451
945.959	-31.07418
946.341	10.02436
946.722	-37.0878
947.104	8.0192
947.485	43.10196
947.866	14.03583
948.247	11.02808
948.628	15.03687
949.009	-3.00779
949.39	14.03486
949.771	14.03292
950.152	26.06448
950.532	10.02513
950.913	33.08104
951.293	16.04377
951.674	4.00977
952.054	-24.06036
952.434	-52.13107
952.814	-54.1287
953.194	-28.07306
953.574	15.03684
953.954	10.02411
954.334	-1.00252
954.714	7.01733
955.093	25.06081
955.473	-6.01519
955.853	-27.07022
956.232	-18.04929
956.611	7.01677
956.99	-51.12885
957.37	-10.02567
957.749	-3.00723
958.128	-5.01267
958.506	-8.02103
958.885	14.03558
959.264	30.07486
959.643	46.10622
960.021	-13.03248
960.4	-27.06233
960.778	-20.04927
961.156	38.09612
961.535	8.01883
961.913	7.01659
962.291	-16.04194
962.669	-63.1603
963.047	3.00774
963.424	16.04105
963.802	-33.0823
964.18	10.02531
964.557	34.0792
964.935	13.03084
965.312	30.079
965.69	22.05535
966.067	3.00738
966.444	32.07886
966.821	0
967.198	-44.10724
967.575	9.02209
967.952	-32.07551
968.329	0
968.705	45.09841
969.082	66.17074
969.458	-5.0122
969.835	24.05803
970.211	17.04406
970.587	22.05492
970.963	14.03604
971.339	27.0708
971.715	11.02768
972.091	35.08672
972.467	-13.03268
972.843	60.15048
973.219	4.0096
973.594	25.06591
973.97	39.09304
974.345	-10.0244
974.721	18.04379
975.096	-5.01231
975.471	-56.1328
975.846	8.01951
976.221	20.05176
976.596	-10.02447
976.971	-11.02717
977.346	-5.01175
977.72	-55.14098
978.095	-61.15925
978.469	27.06451
978.844	12.03004
979.218	27.06609
979.593	-38.09144
979.967	27.06653
980.341	10.02345
980.715	-19.04819
981.089	23.05817
981.463	-17.03989
981.837	17.04212
982.21	-58.13436
982.584	3.00737
982.957	-10.02534
983.331	6.01429
983.704	37.09191
984.078	28.06916
984.451	-50.12418
984.824	53.13127
985.197	19.04645
985.57	26.06537
985.943	-5.01231
986.316	27.06633
986.688	25.06049
987.061	29.06879
987.434	-13.03402
987.806	2.00485
988.179	7.01695
988.551	14.03577
988.923	-29.07167
989.295	48.12016
989.667	21.05169
990.039	9.02254
990.411	-9.02105
990.783	-21.04837
991.155	23.05667
991.527	-4.00974
991.898	-17.04284
992.27	2.00504
992.641	-9.02274
993.012	61.14357
993.384	10.02417
993.755	19.04877
994.126	4.0097
994.497	15.03752
994.868	-14.03256
995.239	-17.04181
995.61	3.00768
995.98	44.10812
996.351	21.0529
996.722	0
997.092	-21.05056
997.462	-6.01449
997.833	-17.04043
998.203	1.00244
998.573	-13.03273
998.943	18.04292
999.313	-43.10404
999.683	-8.01942
1000.053	7.01623
1000.423	15.03647
1000.792	65.16952
1001.162	15.03725
1001.531	-2.00499
1001.901	31.07731
1002.27	49.11078
1002.639	23.05904
1003.009	56.13373
1003.378	6.01538
1003.747	15.03584
1004.116	-10.02437
1004.485	-25.06012
1004.853	13.03301
1005.222	-2.0051
1005.591	16.03831
1005.959	76.17612
1006.328	35.08006
1006.696	-23.05611
1007.064	46.11653
1007.433	-16.04005
1007.801	-26.06377
1008.169	9.02305
1008.537	-13.02896
1008.905	11.02607
1009.273	41.10151
1009.64	5.01218
1010.008	22.05296
1010.375	-45.10789
1010.743	70.16106
1011.11	35.08379
1011.478	-11.02732
1011.845	8.01894
1012.212	32.0738
1012.579	2.00495
1012.946	24.05757
1013.313	-8.01902
1013.68	13.02935
1014.047	46.11203
1014.414	-29.07003
1014.78	-24.06028
1015.147	13.03141
1015.513	-13.0318
1015.88	14.03579
1016.246	41.10103
1016.612	44.10124
1016.978	22.0545
1017.344	-10.02496
1017.71	-51.12414
1018.076	-8.01899
1018.442	16.04119
1018.808	-1.00253
1019.174	-12.03063
1019.539	41.09322
1019.905	-35.08388
1020.27	21.05237
1020.636	3.00721
1021.001	40.09683
1021.366	-67.16369
1021.731	6.01552
1022.096	-51.13032
1022.461	-69.16505
1022.826	31.07458
1023.191	-25.0662
1023.556	24.05672
1023.92	-13.03206
1024.285	-2.0049
1024.649	-10.02463
1025.014	1.00248
1025.378	19.04833
1025.742	18.04503
1026.107	13.02964
1026.471	-5.01169
1026.835	-42.10495
1027.199	0
1027.562	34.0801
1027.926	11.02687
1028.29	44.11292
1028.654	27.0629
1029.017	2.00492
1029.381	43.10513
1029.744	20.05158
1030.107	-5.0118
1030.471	-9.02177
1030.834	21.04804
1031.197	8.01918
1031.56	-15.03569
1031.923	-18.04697
1032.286	2.00467
1032.648	61.14625
1033.011	53.12401
1033.374	5.01173
1033.736	39.10359
1034.099	41.1011
1034.461	46.11818
1034.823	-28.07093
1035.185	23.05834
1035.548	1.00246
1035.91	20.04864
1036.272	49.11236
1036.634	-21.05148
1036.995	-28.06633
1037.357	7.01718
1037.719	-44.10812
1038.08	-16.03797
1038.442	-15.03609
1038.803	34.08252
1039.165	-1.00253
1039.526	14.03393
1039.887	-13.03161
1040.248	-17.04313
1040.609	-31.07712
1040.97	16.03992
1041.331	-14.03559
1041.692	-41.09849
1042.053	33.07525
1042.413	-14.03289
1042.774	10.02442
1043.134	2.00475
1043.495	-28.07108
1043.855	-14.03426
1044.215	-14.03481
1044.576	0
1044.936	-26.05958
1045.296	-12.03013
1045.656	-11.02728
1046.016	-3.00731
1046.375	50.12286
1046.735	38.08796
1047.095	16.03794
1047.454	-23.04911
1047.814	-47.11363
1048.173	30.07093
1048.533	-34.07967
1048.892	-6.01479
1049.251	-2.00503
1049.61	-14.03502
1049.969	-16.03791
1050.328	-7.01542
1050.687	9.02216
1051.046	-19.04671
1051.405	8.02005
1051.763	7.01635
1052.122	51.12889
1052.48	-26.06422
1052.839	-30.07197
1053.197	-31.0735
1053.555	-62.14106
1053.914	5.01235
1054.272	18.04338
1054.63	-31.07784
1054.988	-26.06266
1055.345	26.05694
1055.703	-10.02406
1056.061	-8.02077
1056.419	-21.05501
1056.776	-30.07312
1057.134	6.01412
1057.491	-16.0404
1057.848	-1.00251
1058.206	21.04989
1058.563	14.03146
1058.92	-10.02328
1059.277	-44.10923
1059.634	46.10905
1059.991	-10.02382
1060.348	54.12474
1060.704	-7.01696
1061.061	-17.03883
1061.418	22.05412
1061.774	3.00749
1062.131	4.01064
1062.487	-21.04972
1062.843	34.08506
1063.199	3.00748
1063.555	-17.03997
1063.911	-12.03078
1064.267	19.03983
1064.623	-10.02474
1064.979	-24.05645
1065.335	-39.09283
1065.691	-39.09375
1066.046	-61.13645
1066.402	8.01856
1066.757	1.00252
1067.112	-14.03413
1067.468	-17.04102
1067.823	1.00243
1068.178	-24.05856
1068.533	19.04599
1068.888	-7.01697
1069.243	-7.01746
1069.598	5.01232
1069.952	29.06695
1070.307	7.01763
1070.662	32.07712
1071.016	-2.00461
1071.371	11.0253
1071.725	21.05025
1072.079	-35.08465
1072.434	-11.02714
1072.788	44.1066
1073.142	0
1073.496	48.11703
1073.85	-30.07043
1074.203	8.01928
1074.557	-8.02149
1074.911	14.03335
1075.265	-8.01878
1075.618	-3.00739
1075.971	54.12885
1076.325	-19.04913
1076.678	38.08946
1077.031	8.01851
1077.385	63.14005
1077.738	70.16093
1078.091	45.10501
1078.444	65.15126
1078.796	-9.02232
1079.149	-4.00998
1079.502	12.02893
1079.855	33.07806
1080.207	22.05404
1080.56	26.06796
1080.912	32.07834
1081.264	3.0073
1081.617	34.08435
1081.969	3.00771
1082.321	-7.01744
1082.673	46.10766
1083.025	-15.03581
1083.377	-7.01517
1083.728	-9.02127
1084.08	3.00761
1084.432	16.03923
1084.783	-28.06584
1085.135	11.02785
1085.486	-25.05909
1085.838	-36.09019
1086.189	-3.00738
1086.54	-13.03114
1086.891	20.05137
1087.242	-21.05171
1087.593	-6.01451
1087.944	15.0348
1088.295	-17.03881
1088.646	-28.0689
1088.996	10.02457
1089.347	-13.03226
1089.698	43.10388
1090.048	31.08024
1090.398	9.02104
1090.749	-12.0289
1091.099	-7.01789
1091.449	-16.04007
1091.799	29.0735
1092.149	16.04023
1092.499	-6.01463
1092.849	1.00256
1093.199	-22.05514
1093.548	-24.05836
1093.898	39.09867
1094.248	-16.04118
1094.597	1.00261
1094.947	-12.03224
1095.296	-1.0025
1095.645	12.03119
1095.994	17.0415
1096.343	-17.04319
1096.692	7.01872
1097.041	6.01644
1097.39	30.07527
1097.739	-33.08604
1098.088	16.0429
1098.437	-34.09089
1098.785	45.1217
1099.134	28.07426
1099.482	0
1099.83	-48.1264
1100.179	16.04204
1100.527	32.0856
1100.875	-21.05622
1101.223	0
1101.571	11.03067
1101.919	-5.01331
1102.267	-10.02831
1102.615	-2.00644
1102.962	-1.00322
1103.31	9.02896
1103.658	0
