Data from N2 R1 sample 2_Subt2__2__13-48-50-934.txt Node

Date: Wed Aug 27 13:48:50 PDT 2025
User: uwsun
Spectrometer: HDX01956
Trigger mode: 0
Integration Time (sec): 5.000000E-1
Scans to average: 1
Nonlinearity correction enabled: true
Boxcar width: 0
Storing dark spectrum: false
XAxis mode: Wavelengths
Number of Pixels in Spectrum: 2068
>>>>>Begin Spectral Data<<<<<
194.03	210.59406
194.578	240.76124
195.127	215.67471
195.676	216.67962
196.225	222.58851
196.773	241.66247
197.321	324.87822
197.87	415.03391
198.418	485.20686
198.966	488.22641
199.513	466.13488
200.061	511.25365
200.609	487.22805
201.156	461.98675
201.704	536.30317
202.251	451.15169
202.798	525.31833
203.345	492.17014
203.892	438.06738
204.438	481.11034
204.985	502.14855
205.532	463.17409
206.078	544.27911
206.624	537.27169
207.17	532.18213
207.716	481.14416
208.262	476.90844
208.808	505.20455
209.354	500.18054
209.899	551.31542
210.445	514.22488
210.99	494.14876
211.535	521.17369
212.08	505.13759
212.625	504.20514
213.17	483.16123
213.715	496.07644
214.259	484.0802
214.804	481.14504
215.348	487.07369
215.892	458.05905
216.436	480.06376
216.98	473.01182
217.524	433.99431
218.068	501.19135
218.612	497.2017
219.155	498.12203
219.698	432.99261
220.242	442.05144
220.785	440.9948
221.328	445.07053
221.871	408.98563
222.414	439.05727
222.956	445.03728
223.499	408.89878
224.041	493.11097
224.583	457.94182
225.126	431.93212
225.668	434.02763
226.21	466.12262
226.751	423.91169
227.293	441.97329
227.835	416.98217
228.376	523.15368
228.918	501.20047
229.459	449.08507
230	399.91589
230.541	392.89064
231.082	483.12778
231.622	520.15829
232.163	469.09675
232.704	508.20686
233.244	386.92054
233.784	435.0175
234.324	400.86453
234.864	406.8985
235.404	439.9984
235.944	427.97465
236.484	472.11347
237.023	488.10886
237.563	461.02772
238.102	422.94907
238.641	402.98101
239.18	408.93486
239.719	479.1529
240.258	438.9511
240.797	493.13764
241.335	463.08227
241.874	468.87801
242.412	488.11647
242.95	468.08607
243.488	488.07837
244.026	476.04918
244.564	410.81856
245.102	504.09615
245.64	481.1099
246.177	422.9148
246.715	475.08124
247.252	445.98006
247.789	426.76101
248.326	456.06734
248.863	456.96994
249.4	405.88376
249.936	489.98149
250.473	483.08041
251.009	486.07708
251.546	485.04157
252.082	459.95911
252.618	503.08169
253.154	461.06368
253.69	471.02578
254.226	415.9446
254.761	479.03573
255.297	459.98417
255.832	461.03874
256.367	514.16191
256.903	455.97055
257.438	484.07264
257.972	536.14758
258.507	473.05757
259.042	415.86526
259.576	490.01862
260.111	480.05845
260.645	501.0251
261.179	465.0358
261.713	490.04667
262.247	479.05823
262.781	411.8356
263.315	447.04603
263.849	501.19454
264.382	531.14641
264.915	533.20027
265.449	535.2484
265.982	497.07563
266.515	514.19017
267.048	420.85487
267.58	504.03707
268.113	528.09045
268.646	513.20683
269.178	515.11466
269.71	430.89474
270.243	511.10646
270.775	561.34595
271.307	493.12092
271.838	521.15933
272.37	481.1253
272.902	544.17076
273.433	525.09225
273.965	501.15704
274.496	489.14672
275.027	525.23941
275.558	514.18547
276.089	545.28072
276.62	523.25183
277.15	506.18457
277.681	550.12835
278.211	514.19581
278.741	558.17004
279.272	497.08708
279.802	558.31512
280.332	572.2785
280.861	526.19969
281.391	538.15882
281.921	524.17829
282.45	558.31665
282.98	527.29629
283.509	551.17644
284.038	548.17736
284.567	530.15572
285.096	521.18755
285.625	535.1368
286.153	553.22504
286.682	603.30431
287.21	555.25549
287.739	571.26812
288.267	554.26668
288.795	602.47414
289.323	553.22047
289.851	552.2053
290.378	563.20678
290.906	597.37086
291.433	561.30966
291.961	611.30587
292.488	556.2845
293.015	615.34616
293.542	610.44558
294.069	609.40624
294.596	637.44996
295.122	612.35901
295.649	635.28572
296.175	650.46318
296.702	624.39773
297.228	650.44886
297.754	609.27293
298.28	616.31004
298.806	589.30707
299.332	657.36127
299.857	598.25791
300.383	628.45561
300.908	664.50933
301.433	636.42405
301.958	685.4699
302.483	665.54173
303.008	579.31197
303.533	659.58544
304.058	660.41285
304.582	638.41563
305.107	647.56125
305.631	684.41949
306.155	695.49266
306.679	661.43296
307.203	708.4994
307.727	689.51275
308.251	655.46693
308.775	634.39509
309.298	708.56263
309.822	724.65177
310.345	705.51221
310.868	673.46892
311.391	727.59959
311.914	708.63209
312.437	712.45467
312.96	740.57269
313.482	696.50411
314.005	765.74569
314.527	750.76999
315.049	755.70835
315.571	743.49717
316.093	767.69681
316.615	783.67678
317.137	779.50654
317.659	752.61207
318.18	839.76897
318.702	852.76617
319.223	809.47074
319.744	842.67244
320.265	841.79719
320.786	849.86269
321.307	850.87074
321.828	856.67976
322.348	850.73538
322.869	911.88312
323.389	853.25488
323.909	965.89973
324.43	897.84672
324.95	906.79972
325.47	948.01074
325.989	912.84948
326.509	983.86282
327.029	1057.99844
327.548	988.87913
328.067	1070.17059
328.587	948.98364
329.106	1022.98997
329.625	1047.28575
330.144	969.87816
330.662	1065.05914
331.181	1063.04062
331.7	1068.04877
332.218	1135.98394
332.736	1085.05705
333.255	1106.11778
333.773	1094.10178
334.291	1094.20629
334.808	1095.97596
335.326	1167.10283
335.844	1221.26529
336.361	1222.47379
336.879	1259.33601
337.396	1268.39047
337.913	1231.28052
338.43	1259.19342
338.947	1303.41314
339.464	1307.17172
339.981	1249.32197
340.497	1338.53138
341.014	1359.54452
341.53	1323.27536
342.046	1333.49691
342.562	1348.54173
343.078	1397.46683
343.594	1422.54549
344.11	1424.49596
344.626	1446.70462
345.141	1410.34717
345.657	1381.26171
346.172	1453.5966
346.687	1445.44049
347.202	1514.4682
347.717	1492.57108
348.232	1520.78534
348.747	1536.52929
349.261	1535.37235
349.776	1608.672
350.29	1631.86605
350.805	1707.94179
351.319	1660.6576
351.833	1662.61912
352.347	1648.68263
352.861	1726.74889
353.374	1653.57593
353.888	1594.63562
354.401	1685.65952
354.915	1843.76268
355.428	1728.92757
355.941	1766.72181
356.454	1757.53701
356.967	1755.73674
357.48	1725.60483
357.993	1791.91371
358.505	1863.98545
359.018	1942.04628
359.53	1922.87874
360.042	1844.58767
360.554	1898.87585
361.066	1950.02783
361.578	1913.55529
362.09	1989.92904
362.602	1948.57356
363.113	2009.81973
363.625	1933.63649
364.136	1967.59673
364.647	2023.82213
365.158	2139.90426
365.669	2114.02081
366.18	2100.89279
366.691	2083.63028
367.201	2123.94283
367.712	2150.83502
368.222	2187.77166
368.733	2182.58042
369.243	2197.67612
369.753	2295.80811
370.263	2293.06189
370.773	2372.25371
371.282	2397.99113
371.792	2440.87129
372.301	2520.13325
372.811	2581.46577
373.32	2535.57232
373.829	2624.89342
374.338	2720.64976
374.847	2820.77231
375.356	2865.86551
375.865	2972.33351
376.373	3035.54885
376.882	3215.09378
377.39	3242.80629
377.898	3373.92467
378.407	3480.39456
378.915	3602.9295
379.423	3748.29763
379.93	3809.00372
380.438	4031.27088
380.946	4312.79927
381.453	4408.91418
381.96	4675.53395
382.468	4994.25663
382.975	5322.20274
383.482	5455.81807
383.989	5446.42497
384.495	5728.70567
385.002	5993.1626
385.509	6244.45994
386.015	6695.0712
386.521	7002.40878
387.028	7265.59712
387.534	7509.79233
388.04	7751.15227
388.546	7901.35968
389.051	8501.62986
389.557	9143.27589
390.063	9850.17421
390.568	10121.80317
391.073	10427.01021
391.578	10896.22944
392.084	11240.06005
392.589	11607.66404
393.093	12675.22512
393.598	13703.64431
394.103	14809.29929
394.607	16302.76332
395.112	17614.20051
395.616	18515.18545
396.12	19941.80145
396.624	22291.9491
397.128	24178.74777
397.632	26707.25762
398.136	28927.85909
398.639	30620.84825
399.143	34463.62499
399.646	38693.55371
400.15	42464.60829
400.653	47126.67728
401.156	53474.65062
401.659	55266.044
402.162	53821.55638
402.664	47275.14456
403.167	32260.27245
403.67	3851.94142
404.172	0
404.674	0
405.176	0
405.678	0
406.18	0
406.682	0
407.184	0
407.686	12367.42319
408.187	34596.90747
408.688	44563.94194
409.19	48906.19284
409.691	51236.67962
410.192	52883.26968
410.693	53713.23343
411.194	54189.54801
411.694	54767.79104
412.195	55625.98899
412.696	55971.27715
413.196	55815.15953
413.696	55802.1488
414.196	55740.09561
414.696	56340.4775
415.196	57067.59327
415.696	54193.50479
416.196	43194.15663
416.695	34347.38032
417.195	30491.13399
417.694	28963.45111
418.194	27027.09469
418.693	25432.16517
419.192	24721.88291
419.691	24504.13567
420.19	23691.98628
420.688	22779.33058
421.187	22009.77001
421.685	20444.34112
422.184	18220.40456
422.682	15875.63983
423.18	13658.47758
423.678	12349.02158
424.176	11354.62215
424.674	10762.83759
425.172	10265.65747
425.669	9553.38492
426.167	8908.49891
426.664	7984.48956
427.161	7498.85659
427.659	6922.62779
428.156	6319.0276
428.652	6181.91819
429.149	5797.7761
429.646	5695.4773
430.143	5365.01623
430.639	5002.18246
431.135	4786.7028
431.632	4503.50803
432.128	4255.76114
432.624	4071.42855
433.12	3880.827
433.616	3841.71166
434.111	3607.38201
434.607	3614.39184
435.103	3471.84589
435.598	3297.76418
436.093	3178.45187
436.588	3033.2788
437.083	2833.47498
437.578	2637.39713
438.073	2657.00113
438.568	2507.84663
439.062	2421.27852
439.557	2411.65761
440.051	2295.56881
440.546	2261.59887
441.04	2152.75441
441.534	2095.91035
442.028	2044.6631
442.522	2012.69169
443.015	2069.42341
443.509	2068.85122
444.002	1972.77445
444.496	1813.268
444.989	1879.70297
445.482	1809.73023
445.975	1860.46916
446.468	1825.32118
446.961	1684.1212
447.454	1813.479
447.947	1720.49569
448.439	1671.55652
448.931	1625.249
449.424	1656.66303
449.916	1726.59331
450.408	1581.243
450.9	1551.414
451.392	1574.60087
451.884	1568.30565
452.375	1459.43522
452.867	1422.09245
453.358	1449.1824
453.849	1416.99999
454.341	1412.09018
454.832	1416.02305
455.323	1391.35253
455.814	1367.13258
456.304	1343.12871
456.795	1358.1594
457.285	1278.9678
457.776	1265.98698
458.266	1238.12903
458.756	1247.1781
459.247	1229.1286
459.737	1239.17876
460.226	1201.96195
460.716	1192.08434
461.206	1183.09716
461.695	1156.17453
462.185	1129.0021
462.674	1095.88879
463.163	1148.89322
463.653	1060.68398
464.142	1106.01938
464.63	1021.91618
465.119	1049.85813
465.608	1054.88005
466.096	1024.73647
466.585	1046.86574
467.073	961.81044
467.561	975.84494
468.05	936.72839
468.538	919.80652
469.026	905.72393
469.513	791.3624
470.001	999.84726
470.489	991.90536
470.976	862.59545
471.463	898.81526
471.951	833.69719
472.438	821.59849
472.925	851.66876
473.412	777.58727
473.899	730.41534
474.385	830.69757
474.872	729.43998
475.359	716.51042
475.845	741.31348
476.331	704.31354
476.817	691.43691
477.303	685.37066
477.789	663.38412
478.275	651.40707
478.761	624.32822
479.247	617.19905
479.732	570.26721
480.218	557.2784
480.703	588.28726
481.188	549.03624
481.673	596.20525
482.158	614.18102
482.643	538.22562
483.128	578.19016
483.612	557.16254
484.097	520.14729
484.581	516.06563
485.066	578.25895
485.55	455.91746
486.034	529.03898
486.518	421.90154
487.002	493.11866
487.486	453.01943
487.969	444.9973
488.453	404.93645
488.936	469.97219
489.42	398.82558
489.903	335.7847
490.386	451.68899
490.869	371.75393
491.352	338.76455
491.835	359.69826
492.318	413.87753
492.8	375.74711
493.283	373.8829
493.765	366.84739
494.247	394.8563
494.73	294.61586
495.212	304.68514
495.694	279.62661
496.175	313.70816
496.657	350.77749
497.139	316.52984
497.62	316.71858
498.102	319.76007
498.583	298.7129
499.064	243.51814
499.545	279.6109
500.026	267.57895
500.507	252.56586
500.988	291.68858
501.469	245.59183
501.949	248.58174
502.43	267.61392
502.91	229.46601
503.39	222.53355
503.87	279.63047
504.35	240.54158
504.83	199.42857
505.31	201.47196
505.79	204.47741
506.269	198.44827
506.749	210.46691
507.228	218.49716
507.707	204.43829
508.187	182.42075
508.666	142.3387
509.145	185.4225
509.623	223.51235
510.102	208.48792
510.581	175.40562
511.059	203.49667
511.538	182.45247
512.016	243.56633
512.494	220.52271
512.972	116.26999
513.45	130.30018
513.928	220.51969
514.406	208.49515
514.884	204.5079
515.361	111.25942
515.839	228.50567
516.316	187.44046
516.793	200.49087
517.27	146.3453
517.747	200.50138
518.224	96.21929
518.701	167.3663
519.178	156.37778
519.654	179.41291
520.131	145.35081
520.607	140.33789
521.083	129.29235
521.56	150.34567
522.036	118.25713
522.512	128.30636
522.987	108.25474
523.463	124.29168
523.939	106.25361
524.414	168.38066
524.89	158.37078
525.365	85.19021
525.84	118.278
526.315	110.26267
526.79	80.17861
527.265	162.36587
527.74	125.29786
528.215	207.48453
528.689	85.18778
529.164	118.25648
529.638	117.29548
530.112	124.28952
530.587	151.32408
531.061	158.37599
531.534	122.29333
532.008	112.26837
532.482	76.17221
532.956	100.25052
533.429	120.28414
533.903	129.27961
534.376	166.3651
534.849	68.15571
535.322	131.3052
535.795	101.24206
536.268	134.31827
536.741	132.3088
537.213	89.20367
537.686	61.1477
538.158	132.29532
538.631	80.18987
539.103	105.2368
539.575	143.29273
540.047	142.31061
540.519	110.25693
540.991	71.17036
541.463	123.29186
541.934	75.16956
542.406	62.1459
542.877	81.17976
543.348	88.20393
543.82	151.35885
544.291	108.24511
544.762	135.31514
545.233	117.28616
545.703	111.24357
546.174	141.32189
546.645	125.29546
547.115	160.37826
547.585	124.27696
548.056	109.25744
548.526	149.34317
548.996	205.47251
549.466	156.36723
549.935	247.5634
550.405	229.48469
550.875	184.42165
551.344	198.45592
551.814	221.49004
552.283	223.4629
552.752	229.5063
553.221	258.53806
553.69	252.52905
554.159	299.696
554.628	272.58514
555.096	290.69191
555.565	276.59706
556.033	265.59175
556.502	305.70072
556.97	271.56554
557.438	237.53404
557.906	213.48546
558.374	268.58744
558.842	273.62219
559.31	268.57554
559.777	260.60153
560.245	279.61271
560.712	273.59777
561.18	271.57508
561.647	328.68586
562.114	346.75551
562.581	305.69848
563.048	441.93539
563.514	389.88865
563.981	388.82747
564.448	373.77597
564.914	398.84659
565.381	502.02228
565.847	462.97928
566.313	554.1642
566.779	591.1954
567.245	505.05197
567.711	583.24648
568.176	614.20314
568.642	620.36368
569.108	667.4257
569.573	691.39034
570.038	713.27947
570.504	737.41567
570.969	757.58408
571.434	760.39442
571.899	842.67011
572.363	821.54324
572.828	913.66359
573.293	952.77726
573.757	936.72753
574.222	979.75896
574.686	947.71872
575.15	985.89018
575.614	1019.85719
576.078	972.81109
576.542	1010.80136
577.006	1021.79811
577.469	1017.93578
577.933	1080.88603
578.396	1029.91893
578.86	1027.90292
579.323	1017.94046
579.786	968.6412
580.249	949.73195
580.712	872.72889
581.175	942.8826
581.637	871.61415
582.1	858.49344
582.563	863.49466
583.025	872.73371
583.487	787.33099
583.95	795.42842
584.412	766.31888
584.874	723.49352
585.336	749.49821
585.797	756.35993
586.259	657.32486
586.721	696.3988
587.182	698.36802
587.643	611.18173
588.105	619.24069
588.566	572.02516
589.027	551.16068
589.488	557.09614
589.949	582.22152
590.41	526.91017
590.87	468.92438
591.331	526.99269
591.791	444.91811
592.252	459.9285
592.712	420.89027
593.172	429.86424
593.632	412.78933
594.092	446.87886
594.552	329.63564
595.011	417.86132
595.471	388.78147
595.931	387.7721
596.39	361.79243
596.849	363.76526
597.308	317.61187
597.768	379.88148
598.227	335.72793
598.685	322.66794
599.144	324.69789
599.603	364.78
600.062	346.67314
600.52	350.71239
600.978	406.86773
601.437	335.69568
601.895	272.52589
602.353	314.62893
602.811	329.67285
603.269	347.74663
603.727	333.72697
604.184	323.67046
604.642	333.73497
605.099	361.76906
605.557	401.87429
606.014	320.63116
606.471	415.93276
606.928	352.6871
607.385	447.97538
607.842	441.90925
608.299	480.98854
608.755	410.87818
609.212	477.9468
609.668	439.86852
610.125	443.94004
610.581	450.92468
611.037	374.7602
611.493	421.88167
611.949	418.89492
612.405	414.76558
612.861	393.81976
613.316	400.86897
613.772	409.83002
614.227	386.80677
614.683	414.79087
615.138	435.9134
615.593	414.87448
616.048	433.88915
616.503	394.85193
616.958	415.92358
617.412	400.85269
617.867	420.84786
618.321	468.87411
618.776	367.73424
619.23	368.78074
619.684	418.85661
620.138	372.76441
620.592	326.71817
621.046	380.79564
621.5	377.83381
621.954	354.72283
622.407	403.80701
622.861	398.87969
623.314	334.69376
623.768	332.7099
624.221	298.54525
624.674	292.62059
625.127	309.66144
625.58	311.64008
626.033	311.6222
626.485	281.63136
626.938	290.63351
627.39	332.71389
627.843	264.565
628.295	244.52423
628.747	264.58745
629.199	211.45304
629.651	229.4972
630.103	250.54036
630.555	252.51223
631.006	269.58926
631.458	205.46383
631.909	194.41986
632.361	224.49804
632.812	181.40269
633.263	225.45912
633.714	228.47148
634.165	176.40332
634.616	141.32189
635.067	183.38292
635.518	206.46619
635.968	184.35506
636.419	160.33472
636.869	105.23874
637.319	188.42892
637.769	115.25022
638.219	193.44095
638.669	124.28622
639.119	84.19682
639.569	112.26345
640.019	96.21478
640.468	65.14359
640.918	86.19953
641.367	123.27138
641.816	88.19029
642.265	85.19084
642.714	88.19867
643.163	67.15104
643.612	73.17369
644.061	61.12792
644.51	70.15797
644.958	64.14094
645.406	75.17652
645.855	116.28039
646.303	65.15018
646.751	78.17602
647.199	26.05848
647.647	19.04352
648.095	56.12746
648.543	129.26395
648.99	78.18483
649.438	27.06206
649.885	41.0992
650.333	91.17758
650.78	62.14873
651.227	94.22601
651.674	80.1823
652.121	48.11646
652.568	59.14302
653.015	65.16258
653.461	46.10867
653.908	77.17656
654.354	73.17302
654.801	111.26196
655.247	56.12146
655.693	33.08477
656.139	115.27572
656.585	79.18926
657.031	72.17035
657.477	100.21809
657.922	70.1626
658.368	103.25314
658.813	66.15319
659.259	55.13217
659.704	70.16363
660.149	19.045
660.594	50.11935
661.039	20.04598
661.484	86.20363
661.929	21.04933
662.373	50.12711
662.818	9.02251
663.262	16.039
663.707	33.08358
664.151	10.02444
664.595	87.21223
665.039	16.03995
665.483	63.162
665.927	29.0682
666.371	25.05985
666.814	59.14189
667.258	14.03384
667.701	68.14811
668.145	71.17655
668.588	50.12359
669.031	-1.00242
669.474	35.08519
669.917	20.04491
670.36	14.03516
670.803	92.22238
671.245	116.2503
671.688	58.14099
672.13	56.12988
672.573	31.07893
673.015	25.06083
673.457	48.1077
673.899	25.06126
674.341	-4.00982
674.783	59.14355
675.225	16.04023
675.666	61.14964
676.108	-3.00663
676.549	38.09071
676.991	84.18902
677.432	98.20665
677.873	-4.00952
678.314	9.02192
678.755	83.20481
679.196	81.19094
679.637	70.17258
680.078	71.16854
680.518	59.13876
680.959	-4.00968
681.399	18.04531
681.839	64.15755
682.28	38.09578
682.72	95.22264
683.16	55.139
683.6	50.11546
684.039	4.00861
684.479	4.01004
684.919	74.17651
685.358	4.01026
685.798	72.19178
686.237	81.19708
686.676	55.12738
687.115	49.11721
687.554	81.19553
687.993	45.10207
688.432	72.16745
688.871	43.10046
689.309	56.13669
689.748	-5.01094
690.186	54.13112
690.625	73.17495
691.063	66.16194
691.501	81.20296
691.939	61.15559
692.377	83.20632
692.815	47.11508
693.253	68.16462
693.69	40.09067
694.128	41.10229
694.565	29.07069
695.003	38.09756
695.44	87.20922
695.877	38.09151
696.314	45.09962
696.751	63.14498
697.188	44.10269
697.625	74.17026
698.061	54.13303
698.498	68.16672
698.934	41.10058
699.371	22.0533
699.807	59.14237
700.243	36.0879
700.679	44.10193
701.115	31.07336
701.551	34.08135
701.987	79.18115
702.422	58.14088
702.858	82.19888
703.294	40.09137
703.729	82.20179
704.164	46.11203
704.599	87.19637
705.035	23.05314
705.47	2.00495
705.904	107.25429
706.339	94.21999
706.774	99.23591
707.209	63.14966
707.643	82.19895
708.078	59.14495
708.512	38.09688
708.946	43.10419
709.38	39.09464
709.814	95.22272
710.248	62.15403
710.682	71.17243
711.116	67.16551
711.549	79.20688
711.983	28.06671
712.416	58.1394
712.85	21.05357
713.283	38.09133
713.716	64.16045
714.149	40.0964
714.582	79.18188
715.015	106.2643
715.448	45.11507
715.881	35.0769
716.313	16.03786
716.746	43.10368
717.178	23.05676
717.61	8.02057
718.043	43.10837
718.475	53.12973
718.907	-3.00764
719.339	53.12426
719.77	36.08738
720.202	68.17391
720.634	66.16385
721.065	72.1745
721.497	57.14236
721.928	49.123
722.359	46.11462
722.79	33.0814
723.221	38.09643
723.652	51.13164
724.083	74.17176
724.514	25.05852
724.945	60.14366
725.375	29.07011
725.806	-1.00251
726.236	39.10011
726.666	32.07799
727.096	55.13816
727.526	52.13425
727.956	17.04029
728.386	78.19505
728.816	92.23908
729.246	25.06219
729.675	9.02261
730.105	52.13027
730.534	61.14558
730.964	41.10462
731.393	41.10214
731.822	25.06408
732.251	37.09574
732.68	40.09501
733.109	81.2042
733.537	17.04218
733.966	44.11083
734.395	6.01428
734.823	43.09915
735.251	23.05667
735.68	121.30165
736.108	57.14652
736.536	94.22661
736.964	36.08564
737.392	24.06116
737.82	-26.06323
738.247	68.16616
738.675	20.04807
739.102	34.08756
739.53	16.04141
739.957	6.01566
740.384	18.04483
740.811	25.0642
741.238	-6.01494
741.665	-6.01435
742.092	22.05356
742.519	56.14206
742.945	33.08074
743.372	29.07329
743.798	40.10434
744.225	38.09293
744.651	12.0307
745.077	9.0229
745.503	51.12724
745.929	52.12716
746.355	-29.07185
746.781	26.06561
747.207	7.01691
747.632	26.06518
748.058	-13.03293
748.483	31.07376
748.908	17.04309
749.334	67.1677
749.759	36.08764
750.184	14.03417
750.609	-7.01746
751.033	-10.02379
751.458	28.06388
751.883	4.00997
752.307	21.05119
752.732	27.06981
753.156	50.12607
753.58	31.07472
754.005	37.09464
754.429	19.04592
754.853	31.07888
755.277	-44.10684
755.7	21.05288
756.124	15.03803
756.548	51.12418
756.971	53.13151
757.394	1.00262
757.818	12.03146
758.241	10.02589
758.664	55.14221
759.087	-19.04437
759.51	49.12287
759.933	8.01958
760.356	8.02068
760.778	94.2371
761.201	74.18217
761.623	64.15709
762.046	16.0383
762.468	41.0995
762.89	-5.01243
763.312	21.05178
763.734	38.09324
764.156	40.10064
764.578	19.04448
765	67.16655
765.421	40.10534
765.843	39.10317
766.264	-9.02197
766.686	28.0708
767.107	-10.02505
767.528	3.00781
767.949	4.01027
768.37	12.03027
768.791	34.08364
769.212	52.13411
769.632	7.01686
770.053	2.00536
770.473	26.06441
770.894	-38.09633
771.314	-11.02657
771.734	55.13121
772.154	9.02351
772.575	-28.06656
772.994	6.01405
773.414	14.03416
773.834	-34.08601
774.254	23.05788
774.673	20.04936
775.093	-20.05039
775.512	45.11369
775.931	-2.00519
776.351	-10.0254
776.77	39.09811
777.189	-19.04658
777.607	-5.0129
778.026	-17.04307
778.445	-47.12035
778.864	5.01289
779.282	28.06911
779.701	18.04608
780.119	-10.02589
780.537	0
780.955	13.03347
781.373	3.00753
781.791	-15.0347
782.209	12.02781
782.627	-30.0802
783.045	27.06347
783.462	-9.02329
783.88	4.01058
784.297	12.03093
784.715	-19.05003
785.132	-17.04206
785.549	21.05374
785.966	11.028
786.383	6.01504
786.8	-9.02114
787.217	32.07697
787.633	44.11241
788.05	-6.01427
788.466	51.12144
788.883	-11.02854
789.299	0
789.715	43.10677
790.131	42.10605
790.547	-26.06561
790.963	-2.00507
791.379	5.01279
791.795	-31.07202
792.21	54.12846
792.626	-5.01204
793.041	18.04521
793.457	34.08469
793.872	-15.03591
794.287	38.09403
794.702	0
795.117	60.15205
795.532	-8.02047
795.947	14.03408
796.362	-34.08191
796.776	-5.01173
797.191	20.05018
797.605	-25.06108
798.02	23.05724
798.434	48.10788
798.848	24.06026
799.262	55.13871
799.676	-15.037
800.09	-15.03716
800.504	38.09355
800.918	18.04272
801.331	-1.00263
801.745	-30.06999
802.158	8.02037
802.572	31.07486
802.985	22.05386
803.398	23.05577
803.811	16.04101
804.224	-22.05547
804.637	1.00243
805.05	9.02135
805.462	15.03772
805.875	57.14983
806.288	-29.07127
806.7	-3.00766
807.112	33.07767
807.525	-19.04756
807.937	31.07779
808.349	35.08751
808.761	-28.06954
809.173	46.11266
809.584	-38.09437
809.996	-7.01762
810.408	6.0158
810.819	58.13956
811.231	87.22938
811.642	100.24608
812.053	110.26599
812.464	91.21859
812.875	66.17021
813.286	1.00259
813.697	-18.04175
814.108	3.00737
814.519	17.03817
814.929	-6.0153
815.34	15.03673
815.75	17.04368
816.16	42.10492
816.571	39.1023
816.981	-12.02844
817.391	34.08321
817.801	5.01261
818.211	-7.01685
818.62	47.11508
819.03	61.15042
819.44	20.05229
819.849	40.10183
820.259	-1.00256
820.668	-5.01254
821.077	3.00764
821.486	20.04904
821.895	14.0346
822.304	29.07697
822.713	26.06216
823.122	-6.01511
823.531	16.03812
823.939	-35.08726
824.348	42.10267
824.756	-4.01014
825.164	17.04278
825.573	13.0331
825.981	-7.01735
826.389	50.1263
826.797	38.09691
827.205	0
827.612	-10.0249
828.02	5.01206
828.428	-14.03602
828.835	-17.0452
829.243	-14.0338
829.65	-14.03538
830.057	-17.0416
830.464	-28.06928
830.871	-7.01683
831.278	28.06822
831.685	18.04092
832.092	43.10623
832.499	-16.03594
832.905	34.08625
833.312	-14.03253
833.718	33.08215
834.124	2.00461
834.531	25.06336
834.937	-11.02849
835.343	50.12136
835.749	16.03762
836.155	11.02915
836.561	-13.03223
836.966	-35.08678
837.372	40.10269
837.777	3.00756
838.183	21.04755
838.588	18.04531
838.993	-9.02195
839.399	38.09496
839.804	-30.07513
840.209	5.01293
840.613	8.01816
841.018	10.02557
841.423	11.02842
841.828	-15.03837
842.232	0
842.637	9.02152
843.041	-5.01301
843.445	29.07342
843.849	-13.03275
844.253	-6.01441
844.657	-13.03343
845.061	-19.04381
845.465	12.02969
845.869	41.0962
846.272	52.12834
846.676	-46.11106
847.079	42.10809
847.483	10.02495
847.886	30.07312
848.289	-5.01351
848.692	-21.0536
849.095	10.02432
849.498	8.02016
849.901	33.07637
850.304	-1.0024
850.707	-10.02568
851.109	7.01764
851.512	44.10979
851.914	18.04682
852.316	26.06628
852.718	38.10108
853.121	51.12664
853.523	95.22725
853.925	22.05817
854.326	35.08871
854.728	-11.02871
855.13	-12.03137
855.531	31.07582
855.933	-23.05625
856.334	-43.10933
856.736	51.11788
857.137	5.01189
857.538	28.07171
857.939	44.11079
858.34	44.10768
858.741	-1.00264
859.142	-21.05108
859.542	12.03191
859.943	42.10609
860.343	-7.01783
860.744	7.01721
861.144	11.0271
861.544	22.05446
861.945	48.12319
862.345	13.03203
862.745	-33.08305
863.145	13.03104
863.544	17.04336
863.944	91.21685
864.344	21.05209
864.743	-38.09516
865.143	22.05731
865.542	-14.03335
865.941	-40.10046
866.34	19.0455
866.74	-5.01351
867.139	-32.07822
867.537	16.04108
867.936	19.04619
868.335	3.00768
868.734	-24.06241
869.132	16.03762
869.531	-8.01922
869.929	-2.00472
870.327	-8.01969
870.726	-41.10307
871.124	7.0164
871.522	18.04592
871.92	62.15347
872.318	12.0294
872.715	7.01723
873.113	21.05174
873.511	-28.06956
873.908	-30.07707
874.306	3.00761
874.703	4.01008
875.1	-27.06928
875.497	0
875.894	-2.00503
876.291	-4.0098
876.688	6.01562
877.085	-1.00242
877.482	0
877.878	50.12186
878.275	8.02047
878.671	-21.04662
879.068	21.05102
879.464	61.14864
879.86	2.00484
880.256	10.02478
880.652	20.05171
881.048	15.03735
881.444	-3.00717
881.84	42.10756
882.236	-21.05338
882.631	-42.10469
883.027	5.01209
883.422	57.14693
883.817	17.04376
884.213	4.0104
884.608	34.08533
885.003	34.0837
885.398	14.03553
885.793	6.01526
886.188	19.04821
886.582	19.04891
886.977	39.09351
887.371	-24.06058
887.766	-2.00506
888.16	-9.02279
888.554	-31.07653
888.949	46.11491
889.343	8.01972
889.737	-18.04888
890.131	40.101
890.525	17.04412
890.918	7.01786
891.312	10.02402
891.706	0
892.099	65.16434
892.492	38.08214
892.886	54.13431
893.279	36.09307
893.672	14.03608
894.065	25.06282
894.458	-13.03287
894.851	-9.022
895.244	0
895.637	8.01944
896.029	60.1482
896.422	-8.0198
896.814	9.02284
897.206	-22.05362
897.599	48.11773
897.991	5.0123
898.383	-75.18112
898.775	29.06618
899.167	22.05254
899.559	-19.04826
899.951	19.04547
900.342	35.0895
900.734	-13.03315
901.125	62.16371
901.517	-8.01979
901.908	1.0024
902.299	41.10244
902.69	20.04778
903.082	-34.08252
903.473	25.06108
903.863	-2.00511
904.254	-1.00235
904.645	16.03948
905.036	-13.0322
905.426	46.1058
905.817	59.14564
906.207	4.00977
906.597	-25.05983
906.987	11.02827
907.378	-19.04852
907.768	14.0373
908.158	35.0858
908.547	26.06847
908.937	0
909.327	-2.0049
909.717	14.03541
910.106	7.01722
910.495	13.03248
910.885	37.09428
911.274	42.1056
911.663	-5.01273
912.052	-8.0198
912.441	68.17391
912.83	43.10038
913.219	11.02874
913.608	-37.09087
913.997	31.07888
914.385	35.08455
914.774	16.03929
915.162	11.02678
915.55	-32.07802
915.939	-13.03331
916.327	-32.07982
916.715	31.08063
917.103	14.03459
917.491	26.06464
917.878	19.04738
918.266	7.01817
918.654	-11.02837
919.041	-44.11665
919.429	-5.01189
919.816	4.01023
920.203	-11.02706
920.591	5.01243
920.978	3.0074
921.365	13.03433
921.752	-35.08478
922.139	-18.03971
922.525	51.12576
922.912	-16.0394
923.299	45.11381
923.685	20.05219
924.072	3.00699
924.458	-9.02262
924.844	41.1031
925.231	43.10121
925.617	26.06759
926.003	19.04872
926.389	-1.00254
926.774	-3.00768
927.16	27.06748
927.546	-21.05449
927.931	58.14562
928.317	21.04887
928.702	13.0308
929.088	13.03165
929.473	18.0462
929.858	26.06457
930.243	1.00244
930.628	26.06448
931.013	7.01755
931.398	-21.04829
931.783	-9.02358
932.167	-42.10385
932.552	-40.10061
932.937	-9.0225
933.321	17.04335
933.705	3.00762
934.09	-22.05508
934.474	64.1523
934.858	-30.07812
935.242	-51.12083
935.626	-9.02338
936.009	-28.07567
936.393	-19.0486
936.777	-20.05138
937.16	28.07341
937.544	-29.06871
937.927	-4.01024
938.311	49.11927
938.694	4.01053
939.077	12.02926
939.46	4.0098
939.843	-7.01481
940.226	36.0931
940.609	18.04239
940.991	9.02324
941.374	4.00987
941.757	19.04745
942.139	-21.04796
942.522	-3.0071
942.904	13.03135
943.286	37.09381
943.668	18.04715
944.05	39.09716
944.432	26.06532
944.814	51.12714
945.196	19.04757
945.578	29.07082
945.959	26.06154
946.341	-30.07363
946.722	-2.00471
947.104	-3.00721
947.485	56.13245
947.866	1.00257
948.247	7.01788
948.628	-5.01233
949.009	0
949.39	-10.02501
949.771	37.08661
950.152	7.01742
950.532	-19.048
950.913	18.04433
951.293	28.07645
951.674	19.04628
952.054	-29.07301
952.434	-14.03505
952.814	-46.10947
953.194	-34.08881
953.574	-10.02467
953.954	14.03373
954.334	-4.01007
954.714	-32.07979
955.093	-34.08361
955.473	-10.02533
955.853	-31.08068
956.232	-36.09886
956.611	7.01677
956.99	-59.14927
957.37	-16.04112
957.749	-60.14623
958.128	-30.07635
958.506	-5.01314
958.885	8.02035
959.264	28.06989
959.643	25.05797
960.021	-8.01997
960.4	-37.08559
960.778	3.00736
961.156	-11.02807
961.535	-5.0118
961.913	58.13611
962.291	-14.03668
962.669	-83.21193
963.047	14.03603
963.424	-22.05682
963.802	-15.03729
964.18	38.09568
964.557	38.08845
964.935	13.03084
965.312	45.1182
965.69	44.11027
966.067	9.0221
966.444	-3.00744
966.821	-19.04904
967.198	-4.00968
967.575	30.07336
967.952	-6.01409
968.329	2.00491
968.705	60.1308
969.082	49.12714
969.458	9.02191
969.835	-19.04632
970.211	18.04665
970.587	23.0574
970.963	-12.03103
971.339	0
971.715	16.04023
972.091	31.07686
972.467	-22.05539
972.843	38.09568
973.219	25.05973
973.594	12.03171
973.97	9.02159
974.345	-29.07101
974.721	10.02436
975.096	-18.04443
975.471	-38.0898
975.846	43.10415
976.221	-16.04166
976.596	6.01464
976.971	2.00493
977.346	10.02342
977.72	-34.08683
978.095	-23.05966
978.469	-24.0579
978.844	17.04252
979.218	8.01965
979.593	-11.02633
979.967	41.10076
980.341	54.12554
980.715	-15.03802
981.089	22.05565
981.463	0
981.837	2.00497
982.21	-52.12031
982.584	11.02697
982.957	17.04287
983.331	38.08998
983.704	34.0845
984.078	-56.14044
984.451	14.03436
984.824	52.12881
985.197	41.09983
985.57	27.06787
985.943	-9.02218
986.316	37.09073
986.688	36.08692
987.061	1.00238
987.434	-23.06029
987.806	17.04113
988.179	41.09864
988.551	43.1093
988.923	-39.09656
989.295	43.10774
989.667	24.05904
990.039	53.1317
990.411	28.06502
990.783	-15.03451
991.155	34.08361
991.527	-11.02681
991.898	25.06253
992.27	37.09268
992.641	14.03523
993.012	51.12027
993.384	4.00968
993.755	5.01287
994.126	-21.05117
994.497	9.02253
994.868	-5.01161
995.239	27.06587
995.61	42.10681
995.98	59.14457
996.351	29.07295
996.722	16.03784
997.092	-15.03607
997.462	51.12186
997.833	16.03781
998.203	8.01948
998.573	-7.0176
998.943	55.13021
999.313	-54.13092
999.683	-8.01942
1000.053	21.04856
1000.423	-18.04403
1000.792	30.07871
1001.162	-30.0751
1001.531	24.05956
1001.901	5.01253
1002.27	35.07935
1002.639	-1.00258
1003.009	0
1003.378	-18.04633
1003.747	40.09512
1004.116	21.05089
1004.485	-11.02638
1004.853	-14.03572
1005.222	23.05844
1005.591	0
1005.959	46.10723
1006.328	14.03216
1006.696	-1.00243
1007.064	28.07116
1007.433	-26.06521
1007.801	4.00976
1008.169	23.05877
1008.537	10.02217
1008.905	-5.01189
1009.273	13.03235
1009.64	26.06311
1010.008	50.11972
1010.375	-34.08135
1010.743	42.09718
1011.11	19.04562
1011.478	-31.07728
1011.845	-5.01186
1012.212	3.00696
1012.579	18.04441
1012.946	50.11935
1013.313	7.01659
1013.68	1.00226
1014.047	34.08299
1014.414	36.08587
1014.78	14.03492
1015.147	7.01693
1015.513	43.10408
1015.88	14.03579
1016.246	-11.02736
1016.612	28.06463
1016.978	39.09631
1017.344	-13.03247
1017.71	-23.05569
1018.076	19.04486
1018.442	-6.01551
1018.808	-3.0076
1019.174	29.07348
1019.539	34.07742
1019.905	-29.06942
1020.27	-23.05782
1020.636	4.00962
1021.001	66.15899
1021.366	-47.1144
1021.731	21.05419
1022.096	-59.15097
1022.461	-38.09036
1022.826	36.08653
1023.191	11.02895
1023.556	32.07551
1023.92	-6.01478
1024.285	4.00979
1024.649	-14.0345
1025.014	-22.05478
1025.378	1.00255
1025.742	34.08481
1026.107	27.06139
1026.471	11.02564
1026.835	-3.00744
1027.199	16.03913
1027.562	-28.06676
1027.926	9.022
1028.29	37.09508
1028.654	4.00936
1029.017	-6.01479
1029.381	48.11725
1029.744	37.09514
1030.107	-4.00944
1030.471	-5.01208
1030.834	3.00689
1031.197	33.07873
1031.56	-7.01663
1031.923	13.03374
1032.286	-10.02339
1032.648	27.06515
1033.011	2.00473
1033.374	20.04679
1033.736	4.01069
1034.099	24.05937
1034.461	27.0696
1034.823	-13.03284
1035.185	38.09612
1035.548	7.01724
1035.91	38.0921
1036.272	-1.00232
1036.634	16.03895
1036.995	-21.04968
1037.357	-34.0841
1037.719	20.04856
1038.08	16.03774
1038.442	-3.0072
1038.803	43.10419
1039.165	-22.05595
1039.526	-5.01216
1039.887	-30.07317
1040.248	33.08299
1040.609	-3.00742
1040.97	39.09691
1041.331	-34.08674
1041.692	6.01428
1042.053	-19.04378
1042.413	-29.06834
1042.774	-4.00979
1043.134	1.00237
1043.495	25.06287
1043.855	4.00976
1044.215	-20.04978
1044.576	20.04873
1044.936	-27.06189
1045.296	21.05241
1045.656	10.02471
1046.016	3.0073
1046.375	23.0568
1046.735	1.00233
1047.095	8.019
1047.454	3.00637
1047.814	-23.05535
1048.173	-16.03816
1048.533	15.03481
1048.892	6.01476
1049.251	4.01006
1049.61	-9.02249
1049.969	-58.13856
1050.328	-11.02425
1050.687	18.04425
1051.046	-32.07886
1051.405	36.08977
1051.763	-13.03048
1052.122	21.05336
1052.48	35.08548
1052.839	-38.0913
1053.197	-38.09022
1053.555	-2.00449
1053.914	39.09571
1054.272	18.04338
1054.63	2.00499
1054.988	-14.03366
1055.345	1.0022
1055.703	-13.0313
1056.061	13.03363
1056.419	-23.06027
1056.776	-4.0097
1057.134	23.05394
1057.491	23.05767
1057.848	-4.01005
1058.206	1.00238
1058.563	1.00225
1058.92	3.00696
1059.277	-18.04448
1059.634	53.12547
1059.991	17.04029
1060.348	20.04651
1060.704	-3.00726
1061.061	-56.1289
1061.418	-18.04461
1061.774	30.07456
1062.131	-24.06414
1062.487	-4.00944
1062.843	46.11482
1063.199	-3.00749
1063.555	1.00234
1063.911	30.07637
1064.267	25.05234
1064.623	2.00494
1064.979	-14.03287
1065.335	-24.05696
1065.691	-11.0263
1066.046	-25.05551
1066.402	9.02088
1066.757	1.00252
1067.112	-30.07336
1067.468	-2.00481
1067.823	24.0581
1068.178	-10.02434
1068.533	5.01213
1068.888	19.04585
1069.243	-11.02746
1069.598	77.18728
1069.952	-21.04896
1070.307	-25.06334
1070.662	13.03144
1071.016	59.13431
1071.371	6.01382
1071.725	-4.00962
1072.079	-52.12617
1072.434	8.01967
1072.788	16.03897
1073.142	12.02958
1073.496	58.14115
1073.85	-8.0187
1074.203	-60.14645
1074.557	21.05615
1074.911	26.0618
1075.265	-9.02113
1075.618	23.0564
1075.971	-3.00724
1076.325	30.07691
1076.678	21.0496
1077.031	9.02082
1077.385	38.08491
1077.738	32.07413
1078.091	36.08415
1078.444	9.02117
1078.796	-13.03227
1079.149	2.00499
1079.502	-14.03392
1079.855	-36.0863
1080.207	8.0197
1080.56	10.02621
1080.912	22.05396
1081.264	14.03402
1081.617	31.07695
1081.969	18.04616
1082.321	14.03476
1082.673	4.00944
1083.025	3.00714
1083.377	-219.49611
1083.728	-11.026
1084.08	26.06568
1084.432	-6.01477
1084.783	6.01401
1085.135	35.08824
1085.486	-11.02593
1085.838	52.1282
1086.189	-10.02464
1086.54	8.01909
1086.891	12.03086
1087.242	4.0098
1087.593	-1.00242
1087.944	-15.035
1088.295	22.04983
1088.646	-2.0049
1088.996	-5.01232
1089.347	17.04195
1089.698	-2.00487
1090.048	-20.05222
1090.398	22.05131
1090.749	-17.04098
1091.099	4.0102
1091.449	-6.015
1091.799	52.13126
1092.149	7.01763
1092.499	-2.00487
1092.849	-4.01026
1093.199	17.0423
1093.548	-8.0194
1093.898	4.01018
1094.248	5.01282
1094.597	-7.01827
1094.947	14.03745
1095.296	-14.03515
1095.645	-5.01304
1095.994	55.13332
1096.343	11.02781
1096.692	20.05338
1097.041	-20.05503
1097.39	-16.04047
1097.739	-38.09916
1098.088	49.13067
1098.437	-27.0721
1098.785	17.04619
1099.134	22.0584
1099.482	19.05214
1099.83	-6.01569
1100.179	7.01842
1100.527	4.01075
1100.875	-7.0187
1101.223	-12.03191
1101.571	4.01117
1101.919	5.01328
1102.267	-16.04534
1102.615	4.01287
1102.962	6.01929
1103.31	7.02253
1103.658	1.00322
