Data from N2 R1 sample 1_Subt2__1__13-46-11-939.txt Node

Date: Wed Aug 27 13:46:11 PDT 2025
User: uwsun
Spectrometer: HDX01956
Trigger mode: 0
Integration Time (sec): 5.000000E-1
Scans to average: 1
Nonlinearity correction enabled: true
Boxcar width: 0
Storing dark spectrum: false
XAxis mode: Wavelengths
Number of Pixels in Spectrum: 2068
>>>>>Begin Spectral Data<<<<<
194.03	171.48661
194.578	208.66233
195.127	198.62269
195.676	181.57198
196.225	195.51927
196.773	238.65454
197.321	283.77221
197.87	376.9455
198.418	424.06648
198.966	446.12912
199.513	399.98582
200.061	402.00562
200.609	397.01676
201.156	396.85955
201.704	486.19246
202.251	386.99904
202.798	459.16599
203.345	444.0655
203.892	435.06064
204.438	460.06621
204.985	450.04011
205.532	440.12021
206.078	496.17696
206.624	467.12058
207.17	425.96696
207.716	476.13333
208.262	397.77218
208.808	428.03559
209.354	491.16127
209.899	402.98868
210.445	442.06752
210.99	415.9819
211.535	470.06962
212.08	449.02277
212.625	403.984
213.17	384.94234
213.715	398.88337
214.259	421.9536
214.804	439.05328
215.348	404.90785
215.892	465.07377
216.436	393.88839
216.98	454.97702
217.524	403.93099
218.068	418.00945
218.612	434.06154
219.155	434.99242
219.698	377.87579
220.242	339.82409
220.785	412.93682
221.328	406.98597
221.871	358.87303
222.414	443.06612
222.956	396.93388
223.499	386.85424
224.041	435.99371
224.583	351.74061
225.126	356.78228
225.668	363.87316
226.21	379.9299
226.751	419.90384
227.293	349.78509
227.835	337.80787
228.376	450.0075
228.918	422.02602
229.459	408.99565
230	298.69791
230.541	393.89273
231.082	432.01856
231.622	397.90838
232.163	366.87486
232.704	460.10271
233.244	353.84718
233.784	370.87834
234.324	367.79882
234.864	383.85167
235.404	357.82541
235.944	383.88199
236.484	411.98295
237.023	407.94173
237.563	357.81458
238.102	362.82416
238.641	366.89918
239.18	389.89473
239.719	447.08225
240.258	375.82523
240.797	424.99368
241.335	430.01148
241.874	385.73707
242.412	416.96731
242.95	390.92081
243.488	449.00009
244.026	417.93226
244.564	382.76761
245.102	457.00365
245.64	405.95046
246.177	355.78057
246.715	427.98328
247.252	428.94599
247.789	426.76101
248.326	431.01364
248.863	387.83554
249.4	406.88575
249.936	389.7988
250.473	410.93265
251.009	445.99647
251.546	472.01643
252.082	410.86604
252.618	411.90292
253.154	383.8992
253.69	449.98431
254.226	360.82854
254.761	390.86094
255.297	447.96093
255.832	409.9332
256.367	443.01558
256.903	397.8575
257.438	432.96956
257.972	448.97901
258.507	438.98827
259.042	392.82149
259.576	415.87871
260.111	431.96196
260.645	402.84244
261.179	372.84624
261.713	436.94393
262.247	421.94314
262.781	349.71958
263.315	406.95968
263.849	422.02104
264.382	414.91772
264.915	444.01767
265.449	463.09537
265.982	409.90344
266.515	438.02913
267.048	368.7579
267.58	360.7661
268.113	451.94908
268.646	479.13416
269.178	462.01103
269.71	467.96372
270.243	408.90443
270.775	458.11993
271.307	449.02977
271.838	458.03217
272.37	421.9984
272.902	471.02925
273.433	434.92275
273.965	468.08778
274.496	421.00005
275.027	443.06209
275.558	450.0508
276.089	462.10289
276.62	459.11177
277.15	457.0799
277.681	457.95874
278.211	486.13679
278.741	505.07108
279.272	471.03575
279.802	452.08679
280.332	483.09904
280.861	451.04387
281.391	453.99517
281.921	487.10324
282.45	525.24659
282.98	475.17937
283.509	501.08107
284.038	484.05392
284.567	448.99555
285.096	494.13203
285.625	477.02612
286.153	429.97645
286.682	530.16402
287.21	494.13113
287.739	498.12248
288.267	447.04358
288.795	509.26758
289.323	479.07321
289.851	461.0256
290.378	502.08995
290.906	514.19957
291.433	522.2278
291.961	522.13681
292.488	460.0826
293.015	538.19647
293.542	567.35469
294.069	554.29304
294.596	505.17969
295.122	506.14797
295.649	496.0357
296.175	536.23431
296.702	546.24236
297.228	523.19595
297.754	488.0469
298.28	545.17668
298.806	511.15207
299.332	542.15145
299.857	553.1746
300.383	558.31105
300.908	564.30765
301.433	536.22449
301.958	553.21996
302.483	551.30589
303.008	525.20246
303.533	573.40075
304.058	551.20692
304.582	579.30028
305.107	561.37544
305.631	556.18637
306.155	597.30891
306.679	575.26909
307.203	562.22768
307.727	608.35738
308.251	566.29052
308.775	564.25904
309.298	656.46345
309.822	631.46632
310.345	640.39181
310.868	602.33346
311.391	605.36484
311.914	679.57421
312.437	632.31436
312.96	657.42126
313.482	639.39758
314.005	651.51936
314.527	647.55714
315.049	644.48978
315.571	675.38116
316.093	694.55848
316.615	672.47323
317.137	662.3157
317.659	671.46331
318.18	665.45511
318.702	753.59514
319.223	714.32894
319.744	722.47379
320.265	695.53168
320.786	709.60097
321.307	738.66209
321.828	721.45944
322.348	729.5288
322.869	821.73099
323.389	917.32316
323.909	764.57443
324.43	743.58216
324.95	753.54861
325.47	831.80868
325.989	827.70935
326.509	897.73511
327.029	827.65062
327.548	850.67032
328.067	872.84942
328.587	844.80632
329.106	885.77876
329.625	882.99372
330.144	858.70664
330.662	886.7869
331.181	908.80872
331.7	867.74415
332.218	962.75705
332.736	944.85181
333.255	945.88033
333.773	929.85616
334.291	974.01763
334.808	952.77988
335.326	1041.93657
335.844	1076.06712
336.361	1066.23393
336.879	1099.11898
337.396	1069.11207
337.913	1146.16723
338.43	1106.00317
338.947	1155.21661
339.464	1121.95734
339.981	1146.18405
340.497	1175.31006
341.014	1164.28252
341.53	1172.09526
342.046	1144.24112
342.562	1193.33348
343.078	1168.18325
343.594	1250.3347
344.11	1214.24281
344.626	1217.40284
345.141	1276.20051
345.657	1236.1042
346.172	1276.38224
346.687	1285.26235
347.202	1343.29162
347.717	1332.39101
348.232	1405.64759
348.747	1405.39547
349.261	1372.21897
349.776	1395.45059
350.29	1400.60554
350.805	1474.69402
351.319	1367.36634
351.833	1404.37274
352.347	1508.54827
352.861	1385.4153
353.374	1506.44419
353.888	1387.42132
354.401	1480.46984
354.915	1581.55058
355.428	1518.714
355.941	1549.53479
356.454	1539.36757
356.967	1558.56439
357.48	1633.53128
357.993	1650.787
358.505	1588.73755
359.018	1720.86588
359.53	1638.65589
360.042	1642.44652
360.554	1666.69273
361.066	1675.80312
361.578	1717.43591
362.09	1669.68938
362.602	1668.40144
363.113	1678.59357
363.625	1703.48951
364.136	1767.48159
364.647	1763.65515
365.158	1896.76881
365.669	1900.88904
366.18	1781.6953
366.691	1862.52216
367.201	1801.7436
367.712	1919.71605
368.222	1928.65056
368.733	1925.47826
369.243	1956.57591
369.753	1981.67932
370.263	2096.97122
370.773	2114.12829
371.282	2088.8704
371.792	2165.78739
372.301	2237.03881
372.811	2242.32585
373.32	2316.54439
373.829	2279.82257
374.338	2433.633
374.847	2433.74785
375.356	2515.84788
375.865	2715.37298
376.373	2688.58786
376.882	2815.12071
377.39	2812.86281
377.898	2907.9978
378.407	3145.50074
378.915	3223.08475
379.423	3308.46901
379.93	3445.16735
380.438	3540.49255
380.946	3836.05361
381.453	3953.15999
381.96	4131.83998
382.468	4354.61301
382.975	4650.55843
383.482	4885.08664
383.989	4904.70638
384.495	5136.93969
385.002	5317.30488
385.509	5547.58432
386.015	5973.86379
386.521	6303.12927
387.028	6296.09743
387.534	6723.075
388.04	7035.43969
388.546	7050.32874
389.051	7531.81169
389.557	8270.04655
390.063	8550.82825
390.568	8933.61776
391.073	9277.11649
391.578	9644.31448
392.084	9967.1759
392.589	10391.07751
393.093	11425.80811
393.598	12261.53425
394.103	13381.22119
394.607	14671.96589
395.112	15572.54638
395.616	16562.28389
396.12	17821.26818
396.624	19981.77777
397.128	21307.35471
397.632	23725.38086
398.136	25696.39492
398.639	27026.7329
399.143	30919.13924
399.646	34853.46979
400.15	37788.86147
400.653	41806.11278
401.156	47390.51963
401.659	54321.03348
402.162	53224.70442
402.664	47275.14456
403.167	32260.27245
403.67	3851.94142
404.172	0
404.674	0
405.176	0
405.678	0
406.18	0
406.682	0
407.184	0
407.686	12367.42319
408.187	34596.90747
408.688	44563.94194
409.19	48906.19284
409.691	51236.67962
410.192	52883.26968
410.693	53713.23343
411.194	54189.54801
411.694	54767.79104
412.195	55625.98899
412.696	55971.27715
413.196	55815.15953
413.696	55622.7577
414.196	55549.43555
414.696	56169.28253
415.196	54680.93253
415.696	48141.82291
416.196	38273.09551
416.695	30484.19352
417.195	26944.64889
417.694	25786.97741
418.194	24013.7392
418.693	22687.82494
419.192	22075.57636
419.691	21402.94765
420.19	21100.90262
420.688	20367.96236
421.187	19530.05833
421.685	18049.77958
422.184	16332.80865
422.682	14068.7314
423.18	12207.74763
423.678	11078.16854
424.176	10247.38345
424.674	9639.51135
425.172	9098.20531
425.669	8429.30663
426.167	7843.26592
426.664	7193.49051
427.161	6627.24534
427.659	6064.50414
428.156	5740.00601
428.652	5368.18135
429.149	5252.98282
429.646	5050.72081
430.143	4695.35905
430.639	4478.47144
431.135	4140.0651
431.632	3964.80794
432.128	3703.04988
432.624	3575.64873
433.12	3423.04177
433.616	3363.93637
434.111	3289.49677
434.607	3127.55242
435.103	3009.01797
435.598	2848.91555
436.093	2744.52715
436.588	2569.34376
437.083	2483.48555
437.578	2301.37985
438.073	2302.92374
438.568	2150.74808
439.062	2104.23423
439.557	2037.54946
440.051	2020.48342
440.546	1939.4817
441.04	1871.61398
441.534	1830.74858
442.028	1797.52763
442.522	1765.54562
443.015	1825.3196
443.509	1736.63943
444.002	1654.5531
444.496	1676.19239
444.989	1621.51248
445.482	1600.56065
445.975	1671.35196
446.468	1594.1823
446.961	1472.98645
447.454	1499.2518
447.947	1491.31171
448.439	1495.40262
448.931	1431.10009
449.424	1385.39389
449.916	1376.279
450.408	1319.02154
450.9	1215.07214
451.392	1336.34951
451.884	1213.97396
452.375	1237.18764
452.867	1260.94444
453.358	1267.0097
453.849	1196.80416
454.341	1179.8671
454.832	1293.91739
455.323	1222.15933
455.814	1130.88293
456.304	1188.96596
456.795	1170.95945
457.285	1135.81966
457.776	1103.81217
458.266	1077.93155
458.756	1077.96512
459.247	1100.97039
459.737	1078.97536
460.226	982.70092
460.716	998.83395
461.206	972.81735
461.695	944.86834
462.185	988.81644
462.674	917.65573
463.163	945.64487
463.653	973.58363
464.142	928.77081
464.63	905.74644
465.119	858.59435
465.608	887.64957
466.096	882.55231
466.585	889.6492
467.073	861.66141
467.561	851.65856
468.05	824.5637
468.538	799.61457
469.026	760.49815
469.513	734.28318
470.001	781.52194
470.489	818.63754
470.976	709.3618
471.463	702.48215
471.951	676.42595
472.438	694.39157
472.925	740.48872
473.412	673.40689
473.899	624.24006
474.385	667.41402
474.872	585.19406
475.359	646.38345
475.845	632.15157
476.331	648.2256
476.817	577.22991
477.303	603.22918
477.789	539.15576
478.275	534.18265
478.761	551.19118
479.247	532.05448
479.732	521.16986
480.218	517.19594
480.703	505.1246
481.188	435.84529
481.673	502.03666
482.158	539.05517
482.643	456.05567
483.128	457.96805
483.612	442.94752
484.097	442.99281
484.581	415.87794
485.066	416.93864
485.55	440.89027
486.034	407.82369
486.518	359.77908
487.002	396.91792
487.486	411.93474
487.969	356.8141
488.453	368.85911
488.936	364.77225
489.42	379.78951
489.903	318.74736
490.386	345.5436
490.869	277.57498
491.352	315.71587
491.835	336.65711
492.318	337.72792
492.8	354.70872
493.283	306.73371
493.765	297.69706
494.247	269.60019
494.73	244.51677
495.212	234.53493
495.694	283.63507
496.175	262.59893
496.657	270.60976
497.139	261.4442
497.62	252.58048
498.102	275.66078
498.583	282.67669
499.064	200.43044
499.545	265.58197
500.026	258.56051
500.507	233.52524
500.988	234.55982
501.469	200.48724
501.949	161.38408
502.43	234.5416
502.91	245.49675
503.39	219.52664
503.87	216.49438
504.35	208.47244
504.83	212.45529
505.31	177.41756
505.79	225.52439
506.269	192.43521
506.749	195.43491
507.228	164.37809
507.707	192.41358
508.187	146.33994
508.666	148.3526
509.145	133.30693
509.623	241.55171
510.102	176.41544
510.581	144.33582
511.059	193.47308
511.538	157.3921
512.016	230.53741
512.494	189.45174
512.972	127.29495
513.45	166.38056
513.928	126.30307
514.406	139.33528
514.884	152.38202
515.361	133.30949
515.839	144.32496
516.316	209.49017
516.793	122.30376
517.27	189.44327
517.747	123.31263
518.224	97.22153
518.701	130.28736
519.178	122.29734
519.654	142.32998
520.131	106.25834
520.607	96.23362
521.083	112.25471
521.56	74.17312
522.036	134.291
522.512	86.20748
522.987	107.25243
523.463	108.25483
523.939	96.23012
524.414	130.29684
524.89	158.37078
525.365	84.18801
525.84	116.27339
526.315	140.33239
526.79	76.16982
527.265	173.38984
527.74	62.14953
528.215	147.34813
528.689	127.27809
529.164	128.27762
529.638	106.26823
530.112	79.18608
530.587	130.28027
531.061	52.12626
531.534	80.19388
532.008	97.23309
532.482	67.15209
532.956	80.20114
533.429	94.22369
533.903	74.16228
534.376	115.25564
534.849	63.1444
535.322	122.28474
535.795	81.19487
536.268	80.19199
536.741	47.11178
537.213	131.29725
537.686	81.19538
538.158	81.18313
538.631	76.18051
539.103	60.13656
539.575	96.19861
540.047	113.24869
540.519	89.20874
540.991	63.15139
541.463	77.18433
541.934	96.21611
542.406	48.11326
542.877	10.02252
543.348	10.02353
543.82	82.19746
544.291	72.1646
544.762	99.23274
545.233	101.24776
545.703	130.28412
546.174	131.29966
546.645	100.23751
547.115	129.3068
547.585	88.19802
548.056	135.31724
548.526	157.36101
548.996	194.44814
549.466	186.43529
549.935	193.44503
550.405	159.34169
550.875	168.38623
551.344	137.3193
551.814	139.31348
552.283	215.44709
552.752	249.54821
553.221	241.5045
553.69	219.46312
554.159	255.59874
554.628	205.44737
555.096	274.65575
555.565	295.63557
556.033	261.5833
556.502	250.5807
556.97	206.43611
557.438	246.5533
557.906	228.51807
558.374	221.48922
558.842	253.57894
559.31	262.56339
559.777	270.62343
560.245	204.45508
560.712	236.52079
561.18	270.57309
561.647	291.61348
562.114	349.76158
562.581	330.75193
563.048	357.77111
563.514	313.726
563.981	354.76054
564.448	355.74149
564.914	376.80362
565.381	371.77937
565.847	400.85935
566.313	458.98436
566.779	508.04673
567.245	407.8678
567.711	449.98928
568.176	458.93179
568.642	480.08625
569.108	576.25512
569.573	494.03836
570.038	589.09016
570.504	557.11571
570.969	594.28728
571.434	623.18197
571.899	716.46153
572.363	655.28089
572.828	708.35628
573.293	724.42708
573.757	675.3263
574.222	695.33871
574.686	722.38448
575.15	741.50476
575.614	821.57048
576.078	751.47518
576.542	784.47899
577.006	741.39944
577.469	731.48713
577.933	762.44093
578.396	731.46283
578.86	779.5317
579.323	772.5596
579.786	735.32377
580.249	719.38767
580.712	713.4656
581.175	686.4515
581.637	617.21501
582.1	623.15093
582.563	713.2834
583.025	635.33145
583.487	645.13228
583.95	583.10378
584.412	590.06293
584.874	583.24164
585.336	597.23568
585.797	529.00623
586.259	569.17028
586.721	464.98352
587.182	496.01783
587.643	418.84692
588.105	434.90829
588.566	435.80824
589.027	414.89976
589.488	394.80633
589.949	450.97341
590.41	426.75669
590.87	331.6748
591.331	361.70885
591.791	380.79705
592.252	312.6524
592.712	311.67493
593.172	321.66274
593.632	314.61583
594.092	293.59814
594.552	278.54368
595.011	316.6675
595.471	289.59534
595.931	304.6182
596.39	319.70643
596.849	312.66512
597.308	281.54707
597.768	307.72418
598.227	283.62175
598.685	268.56264
599.144	267.58216
599.603	332.71635
600.062	287.5662
600.52	311.63864
600.978	289.63333
601.437	280.58861
601.895	281.54212
602.353	299.60097
602.811	314.64436
603.269	296.64388
603.727	317.69439
604.184	330.68392
604.642	279.62275
605.099	387.81979
605.557	356.78359
606.014	396.76712
606.471	351.79928
606.928	337.66016
607.385	469.01666
607.842	517.04595
608.299	441.9162
608.755	430.91703
609.212	479.95032
609.668	455.8968
610.125	441.9362
610.581	431.88944
611.037	458.91311
611.493	430.89872
611.949	391.84201
612.405	525.94399
612.861	438.90449
613.316	464.99425
613.772	461.92443
614.227	433.89557
614.683	488.91554
615.138	498.0293
615.593	531.09102
616.048	507.02194
616.503	433.92843
616.958	467.02608
617.412	488.01852
617.867	491.97504
618.321	538.98749
618.776	461.90222
619.23	472.97863
619.684	509.01986
620.138	480.96231
620.592	422.9109
621.046	457.94055
621.5	468.01341
621.954	464.92379
622.407	491.96321
622.861	469.01925
623.314	459.9268
623.768	443.92445
624.221	409.72743
624.674	406.84142
625.127	433.90198
625.58	404.81407
626.033	415.81027
626.485	395.86668
626.938	395.84368
627.39	457.9562
627.843	349.73316
628.295	348.7309
628.747	374.81318
629.199	335.70003
629.651	351.74224
630.103	333.70695
630.555	377.74446
631.006	354.76152
631.458	386.84106
631.909	290.61473
632.361	299.65442
632.812	270.58958
633.263	231.47072
633.714	318.64431
634.165	256.57721
634.616	201.4533
635.067	252.51924
635.518	235.52867
635.968	266.5032
636.419	216.44626
636.869	200.44597
637.319	313.69604
637.769	204.43546
638.219	222.50423
638.669	185.42182
639.119	174.4005
639.569	204.47123
640.019	192.42104
640.468	133.28963
640.918	159.36356
641.367	178.3882
641.816	123.26398
642.265	149.33012
642.714	138.30836
643.163	117.26106
643.612	129.30362
644.061	121.25038
644.51	155.3437
644.958	140.30339
645.406	109.25485
645.855	221.52357
646.303	192.43238
646.751	164.36358
647.199	118.2604
647.647	118.26487
648.095	155.3457
648.543	138.28179
648.99	142.33232
649.438	101.22871
649.885	86.20631
650.333	184.35114
650.78	137.32395
651.227	189.44621
651.674	126.28445
652.121	186.43955
652.568	157.37354
653.015	198.48327
653.461	137.31792
653.908	147.33233
654.354	140.32752
654.801	171.39886
655.247	88.18956
655.693	106.2688
656.139	157.37339
656.585	156.36823
657.031	114.26753
657.477	130.28172
657.922	128.29392
658.368	113.2772
658.813	142.32463
659.259	115.27319
659.704	83.19353
660.149	103.23997
660.594	117.2757
661.039	167.37262
661.484	107.25233
661.929	100.23128
662.373	131.32824
662.818	114.2797
663.262	95.22811
663.707	111.27722
664.151	94.2261
664.595	116.28145
665.039	73.1804
665.483	137.34772
665.927	75.1748
666.371	102.24058
666.814	120.28524
667.258	108.25642
667.701	119.25639
668.145	115.28367
668.588	95.23287
669.031	103.24459
669.474	102.24515
669.917	108.23814
670.36	94.23268
670.803	142.33999
671.245	128.27549
671.688	93.22458
672.13	129.29485
672.573	119.29828
673.015	80.19264
673.457	83.18489
673.899	119.2865
674.341	93.22416
674.783	89.21533
675.225	93.23059
675.666	103.2507
676.108	9.01985
676.549	49.11672
676.991	130.28977
677.432	170.3528
677.873	84.19644
678.314	104.24882
678.755	119.2917
679.196	78.18398
679.637	125.30504
680.078	68.16151
680.518	76.17815
680.959	3.00725
681.399	81.20157
681.839	73.17941
682.28	86.2149
682.72	113.26389
683.16	83.20872
683.6	70.161
684.039	79.16728
684.479	60.14907
684.919	65.15531
685.358	50.1272
685.798	94.24946
686.237	106.2567
686.676	28.0652
687.115	34.08156
687.554	88.21215
687.993	92.20668
688.432	53.12372
688.871	42.09814
689.309	85.20635
689.748	78.16766
690.186	87.20994
690.625	77.1844
691.063	69.1692
691.501	103.25706
691.939	132.33247
692.377	67.16703
692.815	41.1005
693.253	51.12386
693.69	66.14882
694.128	87.21524
694.565	112.26878
695.003	70.17871
695.44	91.21868
695.877	68.16282
696.314	75.16499
696.751	59.13589
697.188	74.17169
697.625	78.17932
698.061	47.11594
698.498	91.22216
698.934	87.2116
699.371	21.05089
699.807	38.09206
700.243	17.04166
700.679	50.11569
701.115	9.02139
701.551	38.09085
701.987	78.17889
702.422	85.20542
702.858	101.24409
703.294	16.03673
703.729	51.12622
704.164	46.11203
704.599	24.05487
705.035	41.09439
705.47	13.03214
705.904	75.17934
706.339	44.10398
706.774	67.16064
707.209	52.12379
707.643	70.17022
708.078	23.05688
708.512	50.1272
708.946	16.03897
709.38	50.12109
709.814	99.23192
710.248	55.13682
710.682	65.15803
711.116	90.22139
711.549	113.2942
711.983	66.1561
712.416	39.09407
712.85	79.19944
713.283	21.05064
713.716	62.15549
714.149	42.10118
714.582	70.16145
715.015	40.10093
715.448	58.14797
715.881	26.05723
716.313	40.0942
716.746	99.23618
717.178	50.12277
717.61	44.11241
718.043	32.0808
718.475	54.13215
718.907	83.20827
719.339	83.19345
719.77	36.08738
720.202	96.24431
720.634	56.13928
721.065	50.12168
721.497	69.17196
721.928	56.14039
722.359	61.15158
722.79	65.15939
723.221	48.12159
723.652	49.12652
724.083	47.10967
724.514	53.12338
724.945	55.13182
725.375	62.14896
725.806	28.06987
726.236	41.10521
726.666	76.1837
727.096	79.19759
727.526	67.17252
727.956	71.16652
728.386	75.18765
728.816	88.22884
729.246	3.00749
729.675	13.03263
730.105	51.12779
730.534	71.16912
730.964	37.09448
731.393	50.12436
731.822	49.12507
732.251	55.14187
732.68	42.09972
733.109	84.21165
733.537	62.15257
733.966	24.06067
734.395	58.1367
734.823	46.10601
735.251	10.0247
735.68	68.17115
736.108	68.17446
736.536	90.21713
736.964	35.08328
737.392	40.10165
737.82	0
738.247	29.07138
738.675	31.07435
739.102	83.21193
739.53	24.06203
739.957	34.08829
740.384	56.13852
740.811	66.16826
741.238	32.07915
741.665	26.0618
742.092	38.09223
742.519	43.10933
742.945	-5.01232
743.372	56.14085
743.798	54.14052
744.225	66.16056
744.651	88.22213
745.077	18.04573
745.503	59.14698
745.929	48.11747
746.355	-33.08182
746.781	51.12811
747.207	20.0482
747.632	28.07017
748.058	3.00758
748.483	56.1326
748.908	-22.05615
749.334	66.16523
749.759	95.22872
750.184	37.08992
750.609	27.06692
751.033	11.02606
751.458	43.09781
751.883	35.08678
752.307	47.11401
752.732	30.07753
753.156	52.13107
753.58	58.13908
754.005	43.10988
754.429	16.03869
754.853	38.09657
755.277	12.02883
755.7	35.08792
756.124	-12.03057
756.548	32.07819
756.971	34.08466
757.394	23.06003
757.818	11.02885
758.241	11.02847
758.664	82.21104
759.087	49.1129
759.51	3.00758
759.933	16.0391
760.356	-3.00777
760.778	78.19731
761.201	50.12363
761.623	48.11816
762.046	19.04545
762.468	33.0802
762.89	-27.06739
763.312	-4.00991
763.734	29.07127
764.156	17.04295
764.578	23.0538
765	28.0701
765.421	66.17304
765.843	41.10843
766.264	30.07271
766.686	5.0127
767.107	61.15086
767.528	8.0208
767.949	18.0461
768.37	35.08792
768.791	38.09341
769.212	29.07509
769.632	12.02887
770.053	16.04279
770.473	29.0718
770.894	-1.00252
771.314	-28.06786
771.734	21.05043
772.154	25.06513
772.575	8.01888
772.994	5.01171
773.414	41.09953
773.834	-15.03782
774.254	65.16234
774.673	11.02719
775.093	-25.06305
775.512	53.13371
775.931	49.12609
776.351	-15.03814
776.77	26.06556
777.189	33.08011
777.607	-12.031
778.026	-40.10176
778.445	-34.08686
778.864	-1.00258
779.282	25.06174
779.701	29.0741
780.119	32.08224
780.537	9.02303
780.955	28.07191
781.373	8.02006
781.791	-41.09533
782.209	23.05318
782.627	-25.06678
783.045	15.03535
783.462	-22.05705
783.88	38.0999
784.297	9.02321
784.715	42.10944
785.132	17.0418
785.549	7.01796
785.966	1.00255
786.383	13.03254
786.8	-11.02585
787.217	-17.04127
787.633	29.07428
788.05	6.01423
788.466	57.13557
788.883	-34.08857
789.299	30.07312
789.715	26.06476
790.131	47.11857
790.547	-47.11904
790.963	28.07058
791.379	0
791.795	-13.0301
792.21	45.10723
792.626	-15.0362
793.041	9.02264
793.457	20.04994
793.872	-35.08411
794.287	22.0546
794.702	2.00497
795.117	6.01535
795.532	-49.12626
795.947	48.11611
796.362	-9.02158
796.776	3.00703
797.191	55.13712
797.605	2.00486
798.02	8.01996
798.434	-7.01591
798.848	26.06525
799.262	44.11118
799.676	43.10494
800.09	-1.00247
800.504	40.09843
800.918	43.10156
801.331	-13.03422
801.745	-59.13843
802.158	10.02545
802.572	-25.06101
802.985	46.11211
803.398	6.0146
803.811	36.09194
804.224	-2.00502
804.637	15.03637
805.05	0
805.462	38.09516
805.875	34.08972
806.288	-39.09603
806.7	23.05848
807.112	23.05424
807.525	1.00249
807.937	-7.01769
808.349	-33.08352
808.761	-47.11713
809.173	45.11023
809.584	-34.08438
809.996	-8.02014
810.408	11.02893
810.819	63.15145
811.231	87.22938
811.642	63.15609
812.053	83.20172
812.464	80.19257
812.875	80.20582
813.286	27.06969
813.697	-31.07208
814.108	-14.03452
814.519	-6.01353
814.929	-23.05881
815.34	-39.09645
815.75	-20.05172
816.16	-2.00504
816.571	28.07359
816.981	-12.02844
817.391	30.07347
817.801	3.00757
818.211	-16.03859
818.62	31.07613
819.03	34.08425
819.44	17.04447
819.849	23.05873
820.259	-4.01026
820.668	-39.09839
821.077	9.02288
821.486	28.06855
821.895	-12.0298
822.304	-33.0885
822.713	4.0096
823.122	1.00251
823.531	-27.06486
823.939	11.02719
824.348	2.00493
824.756	12.03033
825.164	-21.05321
825.573	38.09633
825.981	-25.06217
826.389	-4.0102
826.797	57.14488
827.205	43.10097
827.612	-9.0224
828.02	8.01929
828.428	-20.05151
828.835	-26.06923
829.243	-8.01929
829.65	7.01762
830.057	-24.0588
830.464	-34.08422
830.871	-20.04822
831.278	13.03176
831.685	-3.00685
832.092	33.08167
832.499	9.02011
832.905	17.04326
833.312	2.00463
833.718	-6.01504
834.124	-15.03467
834.531	-7.01784
834.937	5.01292
835.343	43.10451
835.749	41.09594
836.155	9.02386
836.561	-25.06212
836.966	7.01722
837.372	22.05666
837.777	-22.05569
838.183	-5.01138
838.588	15.03777
838.993	-29.07098
839.399	1.00252
839.804	-9.02245
840.209	9.02326
840.613	11.02495
841.018	-14.03596
841.423	27.06957
841.828	-35.08984
842.232	-5.01242
842.637	2.00479
843.041	-5.01301
843.445	-6.01529
843.849	-20.05045
844.253	12.02872
844.657	-15.03858
845.061	-15.03456
845.465	29.07154
845.869	36.08455
846.272	-3.00748
846.676	-76.18454
847.079	12.03104
847.483	11.02744
847.886	2.0049
848.289	-5.01351
848.692	-24.06129
849.095	50.12068
849.498	8.02016
849.901	23.05333
850.304	-26.06273
850.707	34.08665
851.109	-10.02528
851.512	33.08251
851.914	39.10109
852.316	-1.00256
852.718	31.08256
853.121	63.15609
853.523	50.12063
853.925	33.08709
854.326	32.08115
854.728	37.09577
855.13	-24.06286
855.531	34.08311
855.933	10.02431
856.334	-35.08887
856.736	-28.06574
857.137	40.09449
857.538	33.08444
857.939	-1.00254
858.34	19.04671
858.741	14.03687
859.142	-24.05841
859.542	-11.02936
859.943	7.01779
860.343	0
860.744	45.10986
861.144	3.0074
861.544	3.00745
861.945	-1.00259
862.345	11.02711
862.745	-18.04518
863.145	-28.06737
863.544	2.00511
863.944	52.12484
864.344	13.03229
864.743	13.03226
865.143	13.03392
865.542	48.113
865.941	-5.01248
866.34	6.0144
866.74	5.01349
867.139	-37.09053
867.537	44.11241
867.936	-44.10824
868.335	13.03323
868.734	-1.00259
869.132	16.03762
869.531	-36.08695
869.929	-8.01888
870.327	27.06604
870.726	-19.04757
871.124	20.04673
871.522	-48.12388
871.92	35.08707
872.318	-35.0865
872.715	-45.11182
873.113	12.02962
873.511	-77.19301
873.908	-65.16801
874.306	11.02785
874.703	25.06273
875.1	-28.07186
875.497	11.02668
875.894	-15.03782
876.291	9.022
876.688	-35.09178
877.085	-1.00242
877.482	22.05555
877.878	10.02455
878.275	-13.03338
878.671	-18.03994
879.068	4.00975
879.464	11.02705
879.86	0
880.256	17.04207
880.652	7.01814
881.048	11.02741
881.444	-6.01435
881.84	15.0386
882.236	8.02023
882.631	5.01236
883.027	28.0674
883.422	37.0957
883.817	-2.00517
884.213	2.0052
884.608	23.05784
885.003	34.0837
885.398	-25.06388
885.793	-4.01019
886.188	3.00763
886.582	23.05916
886.977	42.10064
887.371	-50.12679
887.766	-27.06858
888.16	-12.03041
888.554	-22.05422
888.949	26.06518
889.343	22.05408
889.737	-9.0244
890.131	40.101
890.525	37.0957
890.918	26.0661
891.312	2.00481
891.706	22.05778
892.099	9.02298
892.492	5.01088
892.886	23.05753
893.279	22.05701
893.672	-24.06226
894.065	-5.01263
894.458	-36.09139
894.851	-10.02445
895.244	37.09547
895.637	30.0726
896.029	21.05224
896.422	9.0222
896.814	29.07335
897.206	4.0097
897.599	12.02963
897.991	-28.06931
898.383	-30.07183
898.775	-9.0207
899.167	40.09519
899.559	-1.00253
899.951	30.07164
900.342	36.09204
900.734	-23.05875
901.125	69.18198
901.517	-30.07451
901.908	3.00721
902.299	34.08506
902.69	11.02632
903.082	-7.0169
903.473	-11.02705
903.863	18.04587
904.254	11.02574
904.645	-21.05216
905.036	2.00494
905.426	40.09211
905.817	16.03981
906.207	-7.01713
906.597	-4.00953
906.987	-11.02837
907.378	7.01779
907.768	25.06649
908.158	41.10039
908.547	62.16228
908.937	-40.10305
909.327	-33.08125
909.717	3.0076
910.106	42.10267
910.495	32.07968
910.885	62.15728
911.274	-14.03555
911.663	26.06582
912.052	-20.04962
912.441	32.08236
912.83	6.01411
913.219	15.03916
913.608	-3.00732
913.997	-14.03591
914.385	32.07735
914.774	0
915.162	31.0752
915.55	5.01211
915.939	-10.02561
916.327	-25.06228
916.715	34.08839
917.103	30.07391
917.491	22.05474
917.878	26.06476
918.266	16.04146
918.654	23.05898
919.041	-46.12199
919.429	-25.05967
919.816	20.05101
920.203	7.01717
920.591	-9.02244
920.978	-1.00247
921.365	-19.05045
921.752	-14.03378
922.139	-13.02865
922.525	36.08902
922.912	-15.03693
923.299	51.12885
923.685	-32.08424
924.072	7.01629
924.458	15.03754
924.844	25.06305
925.231	-6.01426
925.617	24.06241
926.003	-29.07499
926.389	8.02027
926.774	-5.01281
927.16	39.09726
927.546	7.01808
927.931	35.08824
928.317	15.03495
928.702	12.02844
929.088	9.02193
929.473	17.04364
929.858	-1.0025
930.243	-3.00731
930.628	8.0199
931.013	2.00502
931.398	11.02513
931.783	9.02351
932.167	-17.04184
932.552	-8.02001
932.937	-5.01249
933.321	32.08138
933.705	-43.11015
934.09	-56.14105
934.474	29.06948
934.858	-29.0755
935.242	-11.02586
935.626	16.04138
936.009	7.01881
936.393	-20.05117
936.777	-44.11352
937.16	-33.08742
937.544	-19.04493
937.927	17.04336
938.311	-20.04931
938.694	-13.03433
939.077	35.08497
939.46	22.05372
939.843	8.01687
940.226	11.02857
940.609	33.07749
940.991	64.16368
941.374	17.04186
941.757	33.08221
942.139	-26.05944
942.522	18.04246
942.904	-18.04366
943.286	7.01784
943.668	46.11991
944.05	15.03753
944.432	-2.00505
944.814	69.17146
945.196	16.04008
945.578	23.05623
945.959	7.01663
946.341	3.00732
946.722	-9.02124
947.104	-5.01203
947.485	8.0191
947.866	-8.02055
948.247	-8.02049
948.628	11.02705
949.009	18.0466
949.39	7.01745
949.771	27.06333
950.152	20.04965
950.532	-30.07594
950.913	60.14661
951.293	-16.04399
951.674	-1.00244
952.054	6.01501
952.434	28.06956
952.814	-53.1263
953.194	-35.09144
953.574	-3.00739
953.954	-6.01451
954.334	6.01507
954.714	-12.02981
955.093	-31.07619
955.473	-11.02787
955.853	-8.02074
956.232	4.01091
956.611	14.0335
956.99	-18.04521
957.37	-23.05918
957.749	-5.01206
958.128	-14.03553
958.506	14.03667
958.885	0
959.264	-2.00502
959.643	14.03253
960.021	-13.03248
960.4	-53.12299
960.778	-7.0172
961.156	16.04063
961.535	13.03056
961.913	37.08719
962.291	-28.07354
962.669	-47.11925
963.047	38.09739
963.424	0
963.802	11.02721
964.18	12.03036
964.557	37.08614
964.935	-13.03099
965.312	15.0396
965.69	25.06287
966.067	31.07582
966.444	-25.06226
966.821	-4.0103
967.198	-43.10478
967.575	-5.01231
967.952	-6.01409
968.329	-5.0123
968.705	65.14155
969.082	59.15282
969.458	-16.03913
969.835	-19.04632
970.211	38.09814
970.587	-31.07812
970.963	13.03347
971.339	-13.03432
971.715	19.04775
972.091	0
972.467	-25.06298
972.843	11.02783
973.219	-5.01202
973.594	-6.0159
973.97	39.09304
974.345	20.04853
974.721	19.04621
975.096	1.00246
975.471	-34.08029
975.846	14.0341
976.221	43.11084
976.596	-18.04412
976.971	-24.05943
977.346	14.03277
977.72	-44.11257
978.095	-8.0207
978.469	-51.12367
978.844	-8.0201
979.218	4.00983
979.593	-28.06725
979.967	45.11051
980.341	-6.01411
980.715	-8.02025
981.089	9.02282
981.463	21.04891
981.837	19.04706
982.21	-33.07607
982.584	20.04896
982.957	10.02525
983.331	23.05462
983.704	39.09684
984.078	-21.05233
984.451	-47.11666
984.824	11.02745
985.197	39.095
985.57	23.05786
985.943	-25.06178
986.316	17.04184
986.688	-6.0146
987.061	10.02381
987.434	-28.07346
987.806	-5.01215
988.179	22.05312
988.551	-2.00512
988.923	-30.07415
989.295	44.11023
989.667	11.02712
990.039	18.04501
990.411	-1.00234
990.783	-25.05763
991.155	17.04193
991.527	-2.00487
991.898	-17.04284
992.27	20.05025
992.641	29.07277
993.012	48.11326
993.384	15.03622
993.755	-33.08548
994.126	-24.05852
994.497	-7.01758
994.868	-10.02324
995.239	-1.00245
995.61	17.04342
995.98	19.0469
996.351	0
996.722	14.03312
997.092	-45.10883
997.462	4.00964
997.833	-21.04998
998.203	6.01461
998.573	-14.03525
998.943	39.09261
999.313	-6.01442
999.683	8.01937
1000.053	-4.0093
1000.423	-6.01465
1000.792	45.11776
1001.162	-25.06253
1001.531	13.03233
1001.901	14.03502
1002.27	6.01368
1002.639	-40.1038
1003.009	11.02649
1003.378	-32.08256
1003.747	17.0406
1004.116	-4.00974
1004.485	-37.08918
1004.853	17.04313
1005.222	-10.02556
1005.591	9.02158
1005.959	39.09104
1006.328	8.0184
1006.696	-25.06101
1007.064	-8.02046
1007.433	6.01496
1007.801	-45.11076
1008.169	62.15734
1008.537	-16.03566
1008.905	0
1009.273	42.10397
1009.64	28.06794
1010.008	7.0169
1010.375	-27.06451
1010.743	38.08799
1011.11	5.01204
1011.478	-29.07227
1011.845	20.04723
1012.212	44.10124
1012.579	12.02964
1012.946	-12.02898
1013.313	5.01186
1013.68	-38.0867
1014.047	8.01962
1014.414	-4.00961
1014.78	1.0025
1015.147	29.06985
1015.513	-3.00732
1015.88	39.09927
1016.246	5.0124
1016.612	60.13761
1016.978	17.04215
1017.344	16.03975
1017.71	-8.01932
1018.076	12.02837
1018.442	22.05658
1018.808	23.05796
1019.174	24.06086
1019.539	47.10673
1019.905	-52.12503
1020.27	5.01251
1020.636	19.04555
1021.001	25.06069
1021.366	-38.09234
1021.731	24.0619
1022.096	-52.1329
1022.461	-43.10235
1022.826	34.08175
1023.191	-32.08484
1023.556	4.00949
1023.92	13.0319
1024.285	-23.05659
1024.649	27.06604
1025.014	-1.00248
1025.378	6.0153
1025.742	33.08233
1026.107	8.01826
1026.471	-23.05397
1026.835	-2.00496
1027.199	13.03181
1027.562	16.03783
1027.926	-9.02207
1028.29	42.10783
1028.654	23.05363
1029.017	-10.02467
1029.381	52.12692
1029.744	30.07724
1030.107	2.00472
1030.471	-3.00725
1030.834	12.0275
1031.197	1.0024
1031.56	-19.04524
1031.923	-8.02084
1032.286	-19.04453
1032.648	53.12726
1033.011	24.05648
1033.374	21.04912
1033.736	19.05063
1034.099	40.09865
1034.461	36.09265
1034.823	4.01008
1035.185	37.09361
1035.548	19.04668
1035.91	20.04864
1036.272	21.04842
1036.634	-28.06873
1036.995	-7.01651
1037.357	3.00737
1037.719	-3.00732
1038.08	-30.07139
1038.442	-5.01201
1038.803	64.15447
1039.165	-30.0764
1039.526	-6.0146
1039.887	-11.02673
1040.248	26.06546
1040.609	20.04929
1040.97	17.04241
1041.331	-4.01015
1041.692	-37.08881
1042.053	-37.08556
1042.413	1.00234
1042.774	4.00978
1043.134	6.01423
1043.495	-31.07874
1043.855	8.0195
1044.215	-8.01987
1044.576	-1.00245
1044.936	-14.03201
1045.296	29.07227
1045.656	29.0714
1046.016	-5.01219
1046.375	30.07399
1046.735	-34.07982
1047.095	36.08504
1047.454	-36.07708
1047.814	-59.14296
1048.173	7.01662
1048.533	16.03712
1048.892	-17.042
1049.251	14.03514
1049.61	6.01496
1049.969	-2.00473
1050.328	-39.08648
1050.687	-6.01481
1051.046	-22.05412
1051.405	20.05001
1051.763	17.03962
1052.122	37.09375
1052.48	11.02698
1052.839	12.02856
1053.197	7.01648
1053.555	-39.08832
1053.914	37.09083
1054.272	-12.02908
1054.63	13.03239
1054.988	-6.0144
1055.345	26.05694
1055.703	-22.05306
1056.061	-15.03899
1056.419	-5.01306
1056.776	28.0675
1057.134	0
1057.491	7.0176
1057.848	-7.01759
1058.206	1.00238
1058.563	23.0516
1058.92	-34.07951
1059.277	-23.05688
1059.634	35.08315
1059.991	-25.05973
1060.348	52.12017
1060.704	-16.03884
1061.061	-51.11727
1061.418	10.02465
1061.774	-15.03759
1062.131	-27.07219
1062.487	-19.04496
1062.843	11.02763
1063.199	-1.00249
1063.555	9.02105
1063.911	19.04846
1064.267	59.12258
1064.623	-29.07198
1064.979	4.00936
1065.335	-58.13856
1065.691	-31.07441
1066.046	6.01324
1066.402	3.00697
1066.757	29.07264
1067.112	5.01215
1067.468	-13.03135
1067.823	-2.00487
1068.178	-7.01703
1068.533	3.00728
1068.888	19.04585
1069.243	-8.01996
1069.598	61.14881
1069.952	-1.00232
1070.307	6.01512
1070.662	9.02178
1071.016	33.07552
1071.371	13.02989
1071.725	2.0048
1072.079	-26.06278
1072.434	23.0564
1072.788	70.16876
1073.142	30.07372
1073.496	37.0904
1073.85	12.02794
1074.203	-9.02176
1074.557	2.00536
1074.911	-20.04796
1075.265	-6.01408
1075.618	25.06128
1075.971	4.00964
1076.325	23.05904
1076.678	31.07308
1077.031	20.04616
1077.385	26.05824
1077.738	55.12683
1078.091	39.09111
1078.444	7.01648
1078.796	33.08122
1079.149	-26.06516
1079.502	13.03133
1079.855	-2.00476
1080.207	5.01232
1080.56	8.02097
1080.912	16.03929
1081.264	-29.07104
1081.617	44.10896
1081.969	23.05894
1082.321	28.06934
1082.673	4.00944
1083.025	-16.03821
1083.377	-212.47957
1083.728	14.03293
1084.08	19.04805
1084.432	34.08308
1084.783	-10.02343
1085.135	-8.02032
1085.486	-13.03066
1085.838	24.05947
1086.189	5.01229
1086.54	-18.04316
1086.891	6.01545
1087.242	22.05374
1087.593	3.00724
1087.944	44.10148
1088.295	-22.05028
1088.646	17.04149
1088.996	0
1089.347	-14.03474
1089.698	14.03401
1090.048	-20.05222
1090.398	30.06985
1090.749	3.0072
1091.099	-4.01022
1091.449	1.0025
1091.799	40.10118
1092.149	27.06775
1092.499	-37.09073
1092.849	-43.11103
1093.199	8.01994
1093.548	-30.07303
1093.898	37.09365
1094.248	0
1094.597	-11.02873
1094.947	-7.01879
1095.296	7.01751
1095.645	5.01301
1095.994	41.09965
1096.343	-2.00507
1096.692	9.02406
1097.041	-11.03022
1097.39	3.00756
1097.739	-2.00519
1098.088	23.0616
1098.437	18.04771
1098.785	36.09751
1099.134	26.06898
1099.482	18.0494
1099.83	-30.07876
1100.179	-13.03432
1100.527	24.06429
1100.875	-10.02672
1101.223	-35.09343
1101.571	41.11379
1101.919	-8.0213
1102.267	6.01694
1102.615	-5.01611
1102.962	-1.00322
1103.31	1.00322
1103.658	-8.02578
