Data from N2 R1 sample 8_Subt2__5__13-30-50-459.txt Node

Date: Wed Aug 27 13:30:50 PDT 2025
User: uwsun
Spectrometer: HDX01956
Trigger mode: 0
Integration Time (sec): 5.000000E-1
Scans to average: 1
Nonlinearity correction enabled: true
Boxcar width: 0
Storing dark spectrum: false
XAxis mode: Wavelengths
Number of Pixels in Spectrum: 2068
>>>>>Begin Spectral Data<<<<<
194.03	74.21364
194.578	81.26186
195.127	69.22046
195.676	72.23056
196.225	50.13635
196.773	69.19483
197.321	100.28085
197.87	144.37715
198.418	160.42232
198.966	174.46266
199.513	177.45511
200.061	167.43642
200.609	144.38596
201.156	127.29145
201.704	198.51256
202.251	174.46681
202.798	186.49621
203.345	140.35602
203.892	120.31033
204.438	179.43877
204.985	172.42028
205.532	171.45688
206.078	187.4709
206.624	182.46118
207.17	197.46888
207.716	224.56012
208.262	138.28499
208.808	157.40003
209.354	152.38366
209.899	197.50282
210.445	115.29539
210.99	161.39961
211.535	186.44839
212.08	174.41915
212.625	158.40336
213.17	146.37404
213.715	139.32511
214.259	139.33287
214.804	171.432
215.348	144.34083
215.892	141.34716
216.436	130.3096
216.98	162.3705
217.524	102.24971
218.068	151.38379
218.612	172.44203
219.155	141.34139
219.698	157.38056
220.242	111.28133
220.785	106.25593
221.328	151.3842
221.871	108.27562
222.414	138.35193
222.956	136.33689
223.499	212.4862
224.041	191.45774
224.583	148.3262
225.126	134.30819
225.668	139.34853
226.21	130.33363
226.751	158.35989
227.293	127.29868
227.835	124.3093
228.376	134.3201
228.918	161.41138
229.459	142.36366
230	97.2361
230.541	169.40131
231.082	184.45561
231.622	200.47574
232.163	145.36122
232.704	181.45775
233.244	110.27617
233.784	139.34463
234.324	152.34595
234.864	137.32018
235.404	97.23583
235.944	124.30029
236.484	121.30537
237.023	131.31969
237.563	172.4071
238.102	85.20433
238.641	146.37325
239.18	120.29082
239.719	177.45114
240.258	132.30529
240.797	205.501
241.335	118.29497
241.874	135.2741
242.412	159.38845
242.95	166.40894
243.488	218.50977
244.026	146.34463
244.564	204.42677
245.102	194.45045
245.64	195.47639
246.177	131.30159
246.715	153.37156
247.252	151.35304
247.789	113.21821
248.326	164.40654
248.863	125.28502
249.4	101.23457
249.936	191.40975
250.473	150.35915
251.009	107.25624
251.546	168.38607
252.082	146.32624
252.618	165.38123
253.154	157.38484
253.69	168.39009
254.226	120.2894
254.761	169.39031
255.297	150.34305
255.832	106.2566
256.367	193.46553
256.903	148.33671
257.438	140.33303
257.972	205.471
258.507	182.4321
259.042	105.23399
259.576	149.33383
260.111	200.46769
260.645	113.25193
261.179	109.26113
261.713	162.37124
262.247	132.31328
262.781	156.3356
263.315	178.4393
263.849	153.3897
264.382	182.42293
264.915	192.4632
265.449	180.44994
265.982	179.41439
266.515	176.43549
267.048	64.14082
267.58	122.27306
268.113	176.39278
268.646	186.46612
269.178	199.46051
269.71	207.45211
270.243	166.38651
270.775	170.43871
271.307	157.38185
271.838	162.38788
272.37	204.50402
272.902	204.4718
273.433	161.36265
273.965	171.42149
274.496	164.40966
275.027	222.55572
275.558	178.43866
276.089	179.45124
276.62	150.38509
277.15	205.509
277.681	171.38139
278.211	189.46859
278.741	137.31439
279.272	166.3891
279.802	198.49994
280.332	181.43774
280.861	150.36857
281.391	202.46717
281.921	157.38013
282.45	211.53209
282.98	176.46158
283.509	167.38677
284.038	191.44252
284.567	173.40638
285.096	161.39421
285.625	123.28521
286.153	179.428
286.682	186.4387
287.21	184.44826
287.739	200.47903
288.267	191.46922
288.795	209.54969
289.323	140.3361
289.851	153.36276
290.378	227.52259
290.906	210.52018
291.433	178.44736
291.961	233.53939
292.488	153.38225
293.015	221.52458
293.542	251.63679
294.069	223.5551
294.596	196.48639
295.122	227.54504
295.649	150.3378
296.175	260.63268
296.702	205.49932
297.228	240.58096
297.754	202.46086
298.28	230.53086
298.806	168.40592
299.332	227.51611
299.857	179.41176
300.383	223.55893
300.908	218.54078
301.433	202.49321
301.958	244.57392
302.483	251.63023
303.008	153.37712
303.533	254.65863
304.058	144.34294
304.582	268.64115
305.107	234.60929
305.631	228.52185
306.155	232.54846
306.679	241.56984
307.203	209.49132
307.727	280.66832
308.251	208.50918
308.775	251.59739
309.298	264.63736
309.822	233.58462
310.345	227.53758
310.868	219.52444
311.391	226.54995
311.914	322.80016
312.437	229.5196
312.96	287.67071
313.482	241.57205
314.005	266.66848
314.527	263.67973
315.049	243.60751
315.571	247.55498
316.093	281.68517
316.615	255.60877
317.137	278.60267
317.659	245.58311
318.18	277.65647
318.702	312.72525
319.223	310.63558
319.744	286.6422
320.265	277.66457
320.786	322.78526
321.307	322.7876
321.828	281.6267
322.348	255.59125
322.869	315.73844
323.389	441.73123
323.909	314.71316
324.43	300.70094
324.95	315.71239
325.47	319.77026
325.989	330.7586
326.509	385.83656
327.029	338.75178
327.548	292.64975
328.067	371.87341
328.587	314.74945
329.106	394.88212
329.625	367.91708
330.144	341.76049
330.662	372.83939
331.181	391.87306
331.7	380.85078
332.218	373.78323
332.736	338.75832
333.255	384.86434
333.773	354.80204
334.291	372.87526
334.808	351.75426
335.326	380.82342
335.844	436.96769
336.361	404.97119
336.879	468.03798
337.396	409.93395
337.913	482.05844
338.43	459.96931
338.947	417.94339
339.464	418.86551
339.981	391.88243
340.497	451.03643
341.014	516.16549
341.53	502.0515
342.046	472.07028
342.562	493.12273
343.078	525.13634
343.594	512.12961
344.11	538.1608
344.626	572.29898
345.141	474.99287
345.657	451.93112
346.172	496.10338
346.687	514.08617
347.202	555.14657
347.717	527.14019
348.232	566.2843
348.747	579.20532
349.261	552.09827
349.776	557.19184
350.29	539.21578
350.805	598.33283
351.319	511.0843
351.833	574.18721
352.347	571.20868
352.861	581.22666
353.374	611.23987
353.888	572.21159
354.401	616.27023
354.915	686.38501
355.428	587.29938
355.941	618.27265
356.454	586.15359
356.967	637.31507
357.48	603.21525
357.993	632.36042
358.505	640.38002
359.018	702.49445
359.53	616.28445
360.042	679.30533
360.554	640.3322
361.066	613.32202
361.578	728.3537
362.09	687.41273
362.602	698.30747
363.113	743.4615
363.625	690.32174
364.136	754.39867
364.647	710.40534
365.158	823.59632
365.669	783.58365
366.18	740.46618
366.691	727.35017
367.201	742.48385
367.712	760.46799
368.222	742.41057
368.733	805.43163
369.243	800.4606
369.753	821.53114
370.263	809.61017
370.773	877.78288
371.282	816.5816
371.792	825.54697
372.301	861.69316
372.811	876.83452
373.32	930.56977
373.829	918.67989
374.338	1004.69327
374.847	1015.75965
375.356	1016.79999
375.865	1087.66568
376.373	1085.76177
376.882	1087.00002
377.39	1126.93679
377.898	1200.08854
378.407	1266.94236
378.915	1282.7657
379.423	1322.00186
379.93	1413.9538
380.438	1522.22909
380.946	1509.05694
381.453	1607.21381
381.96	1711.15225
382.468	1873.16734
382.975	1919.25651
383.482	1981.05441
383.989	2020.4817
384.495	2098.06694
385.002	2260.63887
385.509	2325.94166
386.015	2517.26306
386.521	2613.52744
387.028	2684.46892
387.534	2681.1893
388.04	2808.48922
388.546	3006.12254
389.051	3184.82034
389.557	3374.88882
390.063	3510.51417
390.568	3746.74906
391.073	3826.23004
391.578	4034.23925
392.084	4205.83809
392.589	4365.43549
393.093	4901.3925
393.598	5266.0709
394.103	5421.02032
394.607	6146.32533
395.112	6501.6643
395.616	6959.44713
396.12	7485.25126
396.624	8244.27589
397.128	8876.79989
397.632	9624.06561
398.136	10625.7673
398.639	11888.83682
399.143	13477.24148
399.646	14912.07754
400.15	16321.22604
400.653	18600.09248
401.156	21129.47917
401.659	24260.43865
402.162	31642.09009
402.664	44548.50301
403.167	31987.68044
403.67	3851.94142
404.172	0
404.674	0
405.176	0
405.678	0
406.18	0
406.682	0
407.184	0
407.686	12367.42319
408.187	34596.90747
408.688	44563.94194
409.19	46710.43572
409.691	39024.84522
410.192	33872.74266
410.693	30792.55032
411.194	29148.07306
411.694	27260.42422
412.195	25422.53258
412.696	24041.18863
413.196	23338.76539
413.696	23728.68615
414.196	23294.00074
414.696	22104.62804
415.196	20351.00784
415.696	16446.3808
416.196	13024.72015
416.695	11040.89346
417.195	10313.60823
417.694	9844.72484
418.194	9093.56973
418.693	8645.7453
419.192	8683.30685
419.691	8357.4654
420.19	8093.9296
420.688	7733.35897
421.187	7225.27869
421.685	6584.08789
422.184	5920.16037
422.682	5202.95498
423.18	4581.43536
423.678	4191.80778
424.176	3746.14567
424.674	3686.2817
425.172	3375.80481
425.669	3149.26267
426.167	2898.25245
426.664	2629.3705
427.161	2432.60797
427.659	2340.97457
428.156	2116.47152
428.652	2128.32461
429.149	1990.11121
429.646	1866.83431
430.143	1754.07874
430.639	1635.01229
431.135	1559.18105
431.632	1474.94003
432.128	1337.89024
432.624	1360.16874
433.12	1303.79895
433.616	1344.76675
434.111	1247.94053
434.607	1200.89783
435.103	1151.58933
435.598	1039.42249
436.093	1015.65503
436.588	921.46437
437.083	935.54113
437.578	810.34816
438.073	864.64053
438.568	760.43504
439.062	741.21642
439.557	715.30873
440.051	665.21152
440.546	704.28305
441.04	725.38255
441.534	644.31081
442.028	680.29502
442.522	618.2087
443.015	660.17657
443.509	652.30965
444.002	561.14292
444.496	558.00567
444.989	593.19452
445.482	528.10167
445.975	569.0809
446.468	559.02267
446.961	492.87941
447.454	589.12604
447.947	523.03974
448.439	472.9795
448.931	418.80548
449.424	536.13423
449.916	489.00728
450.408	417.8107
450.9	410.85161
451.392	436.94796
451.884	425.84515
452.375	446.95197
452.867	430.82621
453.358	398.7898
453.849	451.83297
454.341	382.74424
454.832	379.71926
455.323	403.86486
455.814	377.75879
456.304	412.82866
456.795	380.77451
457.285	332.65452
457.776	375.74155
458.266	369.78269
458.756	362.7804
459.247	362.77203
459.737	366.79139
460.226	331.67296
460.716	298.64437
461.206	346.74751
461.695	314.71345
462.185	289.62505
462.674	332.68961
463.163	315.64013
463.653	296.57394
464.142	287.63319
464.63	290.64262
465.119	268.57157
465.608	307.65375
466.096	293.5957
466.585	290.61876
467.073	281.61814
467.561	270.5993
468.05	286.61446
468.538	214.49079
469.026	216.48065
469.513	228.45223
470.001	294.6398
470.489	307.68779
470.976	194.41932
471.463	189.4443
471.951	203.47312
472.438	205.45797
472.925	206.46581
473.412	225.51757
473.899	198.4331
474.385	199.46544
474.872	163.36505
475.359	198.46555
475.845	192.38938
476.331	188.39608
476.817	143.33394
477.303	173.3876
477.789	180.41646
478.275	189.44932
478.761	172.40253
479.247	144.31179
479.732	162.39113
480.218	117.29253
480.703	158.37772
481.188	101.2119
481.673	149.3326
482.158	181.38494
482.643	133.32819
483.128	131.29725
483.612	128.29298
484.097	137.32696
484.581	120.27024
485.066	131.31276
485.55	116.25213
486.034	137.29441
486.518	78.1794
487.002	137.33383
487.486	111.26775
487.969	95.22863
488.453	121.29616
488.936	107.23973
489.42	96.21256
489.903	89.21849
490.386	92.15559
490.869	51.1112
491.352	62.14811
491.835	73.15167
492.318	65.14857
492.8	41.08803
493.283	56.14065
493.765	83.20293
494.247	59.13735
494.73	42.09288
495.212	47.11148
495.694	39.0919
496.175	29.0694
496.657	90.21071
497.139	32.05784
497.62	51.12218
498.102	86.21405
498.583	71.1772
499.064	-16.03603
499.545	43.09884
500.026	81.1826
500.507	29.0681
500.988	64.15807
501.469	35.08789
501.949	-7.01724
502.43	34.08181
502.91	-6.01286
503.39	44.10931
503.87	-6.01434
504.35	11.02598
504.83	2.00449
505.31	16.03892
505.79	32.07741
506.269	66.15343
506.749	-24.05595
507.228	31.07336
507.707	1.00224
508.187	30.07145
508.666	-5.01226
509.145	-2.00474
509.623	38.09053
510.102	48.11611
510.581	15.03587
511.059	23.05815
511.538	14.03587
512.016	40.09694
512.494	39.09588
512.972	-82.19828
513.45	0
513.928	8.01967
514.406	21.05178
514.884	19.04889
515.361	-48.11567
515.839	11.0255
516.316	6.01463
516.793	49.12362
517.27	-17.04147
517.747	34.08778
518.224	-35.08206
518.701	-31.07083
519.178	-64.16137
519.654	-7.01674
520.131	-21.05239
520.607	-33.08224
521.083	-26.06078
521.56	-32.07642
522.036	10.02229
522.512	-19.04675
522.987	-47.11419
523.463	20.048
523.939	-3.00733
524.414	-35.08257
524.89	-45.10978
525.365	-51.11732
525.84	-44.10692
526.315	-16.03913
526.79	-37.0846
527.265	13.03025
527.74	-59.14554
528.215	41.09909
528.689	-16.03609
529.164	24.05321
529.638	10.02574
530.112	-40.0964
530.587	-22.04898
531.061	21.05129
531.534	-10.02464
532.008	-34.08373
532.482	-46.10681
532.956	-23.05889
533.429	-70.17181
533.903	-46.10342
534.376	12.02725
534.849	-60.14092
535.322	5.01194
535.795	-36.08853
536.268	-46.11303
536.741	-37.08942
537.213	0
537.686	-37.09124
538.158	4.00919
538.631	-38.09223
539.103	-18.04161
539.575	-24.05099
540.047	21.04711
540.519	-16.0383
540.991	-55.13512
541.463	-5.01216
541.934	-17.03915
542.406	-96.23283
542.877	-42.09559
543.348	-46.10943
543.82	-25.06142
544.291	-67.15745
544.762	-17.04087
545.233	-14.03507
545.703	18.04027
546.174	-13.0306
546.645	-13.03155
547.115	38.09196
547.585	-29.06682
548.056	-10.02416
548.526	25.059
548.996	37.08814
549.466	21.05073
549.935	63.14903
550.405	29.06406
550.875	97.22617
551.344	58.13728
551.814	122.2761
552.283	73.15661
552.752	62.14185
553.221	73.1585
553.69	64.13993
554.159	101.24427
554.628	140.30973
555.096	150.36748
555.565	178.39314
556.033	137.31402
556.502	220.51405
556.97	93.20175
557.438	162.37065
557.906	192.43946
558.374	199.44255
558.842	223.51338
559.31	285.60981
559.777	288.6626
560.245	269.59199
560.712	282.6163
561.18	329.68932
561.647	342.71291
562.114	386.8357
562.581	346.78583
563.048	442.9373
563.514	429.97211
563.981	460.96567
564.448	462.94206
564.914	492.02324
565.381	502.02228
565.847	555.15067
566.313	605.2573
566.779	672.33436
567.245	609.23974
567.711	713.48205
568.176	662.28268
568.642	789.67437
569.108	799.65953
569.573	830.61719
570.038	832.44807
570.504	851.59033
570.969	881.79345
571.434	946.65571
571.899	996.90536
572.363	1018.8222
572.828	1117.93197
573.293	1178.07697
573.757	1075.91613
574.222	1173.00338
574.686	1159.99218
575.15	1200.18392
575.614	1267.16589
576.078	1237.15492
576.542	1271.11617
577.006	1193.0073
577.469	1188.16744
577.933	1263.10049
578.396	1218.16558
578.86	1260.20034
579.323	1228.22383
579.786	1191.90021
580.249	1230.08722
580.712	1107.07449
581.175	1173.21897
581.637	1101.92533
582.1	1076.76714
582.563	1116.80575
583.025	1058.01204
583.487	1090.69539
583.95	1040.75325
584.412	987.60112
584.874	971.89546
585.336	910.75317
585.797	912.576
586.259	926.75334
586.721	834.62346
587.182	858.61884
587.643	739.38612
588.105	673.33231
588.566	716.23652
589.027	712.44744
589.488	654.2581
589.949	667.37401
590.41	619.04338
590.87	524.0197
591.331	583.08334
591.791	525.06411
592.252	497.99662
592.712	491.02275
593.172	522.02738
593.632	440.83728
594.092	419.83089
594.552	438.82415
595.011	412.85195
595.471	407.81615
595.931	370.7411
596.39	450.96925
596.849	401.8383
597.308	316.61008
597.768	369.85992
598.227	354.76611
598.685	378.77429
599.144	337.72386
599.603	339.73036
600.062	274.54221
600.52	298.61374
600.978	341.73908
601.437	312.65125
601.895	303.58147
602.353	291.58597
602.811	348.70865
603.269	291.63368
603.727	321.70256
604.184	291.60836
604.642	264.5911
605.099	316.67978
605.557	361.79376
606.014	317.62568
606.471	337.76958
606.928	304.60016
607.385	331.74003
607.842	375.78465
608.299	337.71638
608.755	318.69467
609.212	382.77505
609.668	335.67891
610.125	372.80161
610.581	340.71599
611.037	266.554
611.493	307.65915
611.949	292.6422
612.405	381.71036
612.861	348.73315
613.316	389.84705
613.772	362.74252
614.227	281.60099
614.683	347.67364
615.138	342.73286
615.593	387.8223
616.048	345.72252
616.503	300.66173
616.958	287.65568
617.412	288.62888
617.867	327.67422
618.321	367.7026
618.776	233.48063
619.23	288.62169
619.684	337.70327
620.138	261.54976
620.592	288.63952
621.046	301.64125
621.5	301.6763
621.954	286.593
622.407	294.60359
622.861	324.72722
623.314	267.56289
623.768	236.51512
624.221	233.43332
624.674	204.44188
625.127	211.46124
625.58	182.38547
626.033	201.41238
626.485	218.49615
626.938	207.46015
627.39	230.50543
627.843	171.37333
628.295	152.33304
628.747	213.47898
629.199	186.40152
629.651	194.42435
630.103	158.34823
630.555	202.41528
631.006	142.31939
631.458	158.36091
631.909	141.30862
632.361	191.42758
632.812	164.36615
633.263	89.18722
633.714	154.32374
634.165	111.25769
634.616	93.21436
635.067	96.20475
635.518	100.23119
635.968	100.19686
636.419	90.1912
636.869	81.18507
637.319	125.28881
637.769	51.11248
638.219	97.2259
638.669	72.16791
639.119	40.09453
639.569	81.19168
640.019	36.08154
640.468	95.20855
640.918	57.13301
641.367	114.252
641.816	74.1605
642.265	33.07488
642.714	30.06853
643.163	1.00228
643.612	35.08388
644.061	-10.0213
644.51	57.12897
644.958	76.16695
645.406	54.12762
645.855	80.19469
646.303	99.22719
646.751	7.01603
647.199	64.14283
647.647	-9.02073
648.095	18.04128
648.543	68.14106
648.99	32.0765
649.438	46.10533
649.885	29.07032
650.333	68.13343
650.78	47.11307
651.227	57.13801
651.674	10.02311
652.121	58.14046
652.568	60.14541
653.015	43.10798
653.461	-13.03106
653.908	21.04869
654.354	37.0883
654.801	73.17355
655.247	40.08705
655.693	-5.01293
656.139	77.18595
656.585	83.19869
657.031	72.17035
657.477	93.20313
657.922	72.16718
658.368	81.19988
658.813	43.10026
659.259	26.06282
659.704	49.11501
660.149	72.16877
660.594	28.06712
661.039	22.05056
661.484	61.14514
661.929	8.01884
662.373	45.1145
662.818	39.09702
663.262	53.12828
663.707	51.12876
664.151	39.09479
664.595	41.10088
665.039	44.10931
665.483	78.20004
665.927	21.04947
666.371	72.17081
666.814	58.13951
667.258	53.12717
667.701	68.14811
668.145	76.18882
668.588	10.0249
669.031	35.0842
669.474	46.11174
669.917	62.13803
670.36	59.14698
670.803	55.13387
671.245	71.15468
671.688	30.07331
672.13	107.24565
672.573	59.14948
673.015	49.11869
673.457	101.22415
673.899	81.19642
674.341	4.0098
674.783	17.04169
675.225	81.20127
675.666	79.19315
676.108	41.08982
676.549	70.16607
676.991	81.18238
677.432	131.27424
677.873	82.19183
678.314	72.17331
678.755	132.32279
679.196	90.21179
679.637	78.19202
680.078	63.14978
680.518	83.19429
680.959	42.10079
681.399	64.15976
681.839	92.22531
682.28	62.1556
682.72	93.21804
683.16	81.20376
683.6	104.23757
684.039	60.12758
684.479	57.14169
684.919	89.21167
685.358	52.13224
685.798	109.28854
686.237	86.20905
686.676	31.07214
687.115	104.24616
687.554	104.24996
687.993	61.13791
688.432	74.17203
688.871	98.22647
689.309	103.2492
689.748	97.20764
690.186	104.25015
690.625	88.2103
691.063	78.19095
691.501	100.24971
691.939	92.23338
692.377	103.2551
692.815	98.23769
693.253	65.15744
693.69	124.27628
694.128	104.25649
694.565	101.24289
695.003	92.23396
695.44	129.30775
695.877	98.2333
696.314	68.14981
696.751	86.197
697.188	66.15337
697.625	64.14755
698.061	108.26341
698.498	127.30796
698.934	63.15392
699.371	81.19405
699.807	83.19938
700.243	79.19135
700.679	88.20207
701.115	54.12722
701.551	128.30074
701.987	102.23281
702.422	92.22204
702.858	108.26066
703.294	96.21682
703.729	61.15069
704.164	59.14334
704.599	73.16524
705.035	101.22974
705.47	44.10816
705.904	86.20521
706.339	113.26347
706.774	127.301
707.209	113.26586
707.643	117.28201
708.078	53.13035
708.512	58.14734
708.946	69.16638
709.38	77.18553
709.814	162.37482
710.248	93.22974
710.682	101.2439
711.116	113.27679
711.549	111.28909
711.983	75.17707
712.416	102.2431
712.85	72.182
713.283	66.15779
713.716	80.19998
714.149	76.1819
714.582	117.26731
715.015	74.18559
715.448	58.14797
715.881	62.13545
716.313	25.05905
716.746	78.18683
717.178	41.10084
717.61	49.12507
718.043	75.18793
718.475	54.13215
718.907	55.13871
719.339	80.18657
719.77	16.03898
720.202	60.15366
720.634	61.15158
721.065	77.18644
721.497	80.19897
721.928	37.09308
722.359	70.17366
722.79	46.1132
723.221	53.13414
723.652	68.17501
724.083	25.05859
724.514	62.14408
724.945	40.09614
725.375	72.17266
725.806	-15.03772
726.236	38.09756
726.666	80.19323
727.096	70.17537
727.526	60.15469
727.956	44.10374
728.386	60.15053
728.816	78.20318
729.246	42.10416
729.675	-12.03026
730.105	54.13523
730.534	47.11247
730.964	29.07415
731.393	28.06992
731.822	-1.00257
732.251	45.11628
732.68	33.07849
733.109	63.15934
733.537	39.09638
733.966	45.11332
734.395	25.0593
734.823	50.11514
735.251	5.01236
735.68	63.15871
736.108	67.17192
736.536	60.14558
736.964	1.00239
737.392	35.08902
737.82	-9.02182
738.247	54.1323
738.675	3.00723
739.102	21.05421
739.53	-23.05992
739.957	10.02608
740.384	16.03987
740.811	6.01546
741.238	-8.01993
741.665	-1.00239
742.092	30.07293
742.519	20.05106
742.945	9.02212
743.372	13.03295
743.798	49.12762
744.225	41.10021
744.651	25.06381
745.077	-7.01786
745.503	66.16421
745.929	28.06878
746.355	-52.12938
746.781	1.00253
747.207	-37.09013
747.632	13.03267
748.058	-12.03039
748.483	25.05955
748.908	-22.05615
749.334	37.09311
749.759	4.0098
750.184	-10.02452
750.609	2.00498
751.033	-14.03333
751.458	17.03887
751.883	-7.01749
752.307	7.01711
752.732	59.15171
753.156	37.09351
753.58	-2.00485
754.005	30.07683
754.429	5.01212
754.853	-6.01537
755.277	-14.0338
755.7	33.08293
756.124	-11.02802
756.548	-14.0345
756.971	22.0549
757.394	2.00524
757.818	-16.04215
758.241	22.05684
758.664	46.11913
759.087	-14.03266
759.51	9.02273
759.933	-25.06156
760.356	-33.08592
760.778	64.1623
761.201	8.01993
761.623	44.1084
762.046	18.04307
762.468	28.06811
762.89	-6.01492
763.312	0
763.734	-4.00989
764.156	35.08814
764.578	5.01174
765	41.1024
765.421	48.12623
765.843	-12.03202
766.264	14.03403
766.686	-3.00763
767.107	37.09191
767.528	-1.0026
767.949	-39.10088
768.37	29.07293
768.791	19.04687
769.212	9.02338
769.632	-6.01449
770.053	-11.02955
770.473	18.04465
770.894	-2.00504
771.314	-19.04597
771.734	-14.03384
772.154	-9.02358
772.575	30.07051
772.994	-9.02114
773.414	-19.04664
773.834	-43.10895
774.254	36.09038
774.673	-50.12499
775.093	-32.0808
775.512	11.02796
775.931	26.06717
776.351	27.06814
776.77	14.03538
777.189	10.02438
777.607	-27.06994
778.026	-7.0177
778.445	-53.13586
778.864	-19.0492
779.282	11.02723
779.701	19.04863
780.119	-14.03627
780.537	3.00768
780.955	34.08723
781.373	-23.05798
781.791	-13.03006
782.209	-9.02094
782.627	-36.09633
783.045	23.05411
783.462	-45.11716
783.88	8.02114
784.297	10.02578
784.715	-17.04475
785.132	13.03199
785.549	-26.06708
785.966	-10.02555
786.383	7.01754
786.8	-19.04472
787.217	-39.09507
787.633	5.01286
788.05	-6.01427
788.466	49.11672
788.883	-39.10168
789.299	-10.02455
789.715	24.0598
790.131	11.02793
790.547	-7.0176
790.963	29.07308
791.379	17.04341
791.795	-32.07436
792.21	19.0455
792.626	2.00481
793.041	26.06521
793.457	-53.13409
793.872	-18.04312
794.287	26.06448
794.702	-22.0549
795.117	36.09162
795.532	-17.04356
795.947	44.10652
796.362	-15.036
796.776	20.0467
797.191	15.03767
797.605	-11.0268
798.02	17.04235
798.434	7.01586
798.848	28.07025
799.262	27.06843
799.676	31.07582
800.09	-27.06704
800.504	-15.03729
800.918	19.04508
801.331	0
801.745	-48.11238
802.158	8.02037
802.572	-17.04143
802.985	29.0709
803.398	21.05094
803.811	25.06397
804.224	35.08735
804.637	-29.0709
805.05	-2.00475
805.462	65.16199
805.875	23.0608
806.288	-32.07869
806.7	16.04073
807.112	-18.04279
807.525	9.02241
807.937	-25.06336
808.349	-41.10392
808.761	-36.08954
809.173	32.07857
809.584	-55.13702
809.996	1.00251
810.408	-4.01055
810.819	60.14432
811.231	6.01603
811.642	34.08469
812.053	6.01479
812.464	24.05838
812.875	13.03384
813.286	-28.07296
813.697	6.01385
814.108	1.00246
814.519	-21.04752
814.929	-34.08711
815.34	16.03917
815.75	-23.05951
816.16	-5.0126
816.571	38.0997
816.981	-43.10251
817.391	1.00246
817.801	-36.09142
818.211	-13.03133
818.62	28.0688
819.03	19.04721
819.44	12.03142
819.849	30.07651
820.259	-25.06435
820.668	2.00501
821.077	4.01018
821.486	23.05636
821.895	-17.04226
822.304	-30.08041
822.713	15.03594
823.122	-10.0252
823.531	2.00478
823.939	-3.00744
824.348	-15.03706
824.756	8.02024
825.164	-12.03036
825.573	-14.03582
825.981	-62.15521
826.389	17.04319
826.797	17.04352
827.205	-6.01422
827.612	-43.10771
828.02	11.0265
828.428	-37.09557
828.835	-18.04786
829.243	-13.03138
829.65	-31.07857
830.057	-37.09087
830.464	-30.07426
830.871	-4.00961
831.278	17.0415
831.685	11.02504
832.092	44.10868
832.499	-31.06986
832.905	-25.06408
833.312	7.0162
833.718	-19.04775
834.124	14.03217
834.531	21.05326
834.937	3.00775
835.343	5.01224
835.749	11.02589
836.155	17.045
836.561	38.09334
836.966	-18.04449
837.372	21.05409
837.777	-25.06332
838.183	-18.04108
838.588	13.03275
838.993	-50.12286
839.399	33.08254
839.804	-26.06507
840.209	-15.03892
840.613	0
841.018	-14.03596
841.423	4.01035
841.828	-17.0435
842.232	-8.01989
842.637	5.01197
843.041	-31.08104
843.445	37.09355
843.849	-29.07327
844.253	-24.05784
844.657	-34.08775
845.061	-32.07398
845.465	45.11068
845.869	-1.00237
846.272	15.03727
846.676	-45.10863
847.079	43.11065
847.483	10.02495
847.886	1.00245
848.289	-36.09779
848.692	-2.00509
849.095	23.05579
849.498	9.02267
849.901	14.03252
850.304	-28.06758
850.707	2.00513
851.109	-37.09398
851.512	25.0626
851.914	27.07013
852.316	-9.02309
852.718	56.14851
853.121	9.02252
853.523	34.08228
853.925	-23.06127
854.326	8.02037
854.728	-7.01826
855.13	6.01563
855.531	-1.00246
855.933	-8.01951
856.334	-22.05573
856.736	24.05577
857.137	-13.03103
857.538	17.04362
857.939	17.04301
858.34	9.02217
858.741	19.04999
859.142	-18.04376
859.542	1.00266
859.943	63.15854
860.343	14.03553
860.744	-27.0668
861.144	7.01726
861.544	15.03718
861.945	-5.01295
862.345	12.02957
862.745	-27.06787
863.145	26.06192
863.544	14.03573
863.944	17.04108
864.344	-31.07762
864.743	-6.01494
865.143	17.04432
865.542	6.01424
865.941	-1.00249
866.34	34.08119
866.74	21.0565
867.139	-2.00486
867.537	19.04875
867.936	-5.01221
868.335	11.02813
868.734	-1.00259
869.132	-5.0118
869.531	-11.02644
869.929	17.03993
870.327	10.02454
870.726	12.02988
871.124	-19.04474
871.522	-15.03849
871.92	65.16081
872.318	-32.07904
872.715	-22.05444
873.113	13.03208
873.511	-72.18031
873.908	-32.08224
874.306	1.00254
874.703	36.09016
875.1	0
875.497	7.01699
875.894	-8.02014
876.291	-11.02698
876.688	3.00782
877.085	-18.04371
877.482	42.10567
877.878	0
878.275	12.03068
878.671	-49.10942
879.068	10.02434
879.464	25.06133
879.86	18.04344
880.256	6.01488
880.652	7.01814
881.048	7.01746
881.444	-42.10114
881.84	14.03603
882.236	-1.00253
882.631	-6.01486
883.027	-9.02182
883.422	41.10598
883.817	1.00258
884.213	-6.01562
884.608	-9.02276
885.003	28.06901
885.398	3.00763
885.793	43.10868
886.188	4.01018
886.582	29.07452
886.977	39.09351
887.371	-33.08343
887.766	-34.08647
888.16	8.0202
888.554	-14.03445
888.949	-8.02018
889.343	-15.03712
889.737	-2.00542
890.131	10.02539
890.525	11.02858
890.918	3.00766
891.312	0
891.706	1.00264
892.099	28.07126
892.492	-35.07683
892.886	28.06997
893.279	20.05185
893.672	-1.00258
894.065	4.01009
894.458	-37.09394
894.851	-57.1406
895.244	34.08778
895.637	-9.02194
896.029	16.03984
896.422	-10.02475
896.814	47.11849
897.206	10.02423
897.599	28.06893
897.991	42.10263
898.383	-27.06461
898.775	-9.0207
899.167	-15.03607
899.559	-16.04062
899.951	27.06451
900.342	42.10726
900.734	-5.01273
901.125	42.11127
901.517	-41.10203
901.908	-1.0024
902.299	21.05266
902.69	17.04063
903.082	-27.06545
903.473	-3.00737
903.863	-14.03588
904.254	-43.10168
904.645	-6.01486
905.036	22.05414
905.426	18.04163
905.817	-5.01249
906.207	36.08738
906.597	33.07809
906.987	-37.09587
907.378	-10.02549
907.768	2.00534
908.158	-10.02472
908.547	18.04747
908.937	-53.13685
909.327	-10.02452
909.717	2.00507
910.106	30.0735
910.495	-12.03012
910.885	45.1145
911.274	17.04293
911.663	-1.00254
912.052	9.02221
912.441	3.00776
912.83	42.09806
913.219	9.02352
913.608	-51.12557
913.997	32.08141
914.385	29.07014
914.774	44.10748
915.162	32.07761
915.55	-23.05598
915.939	-4.01023
916.327	-31.07731
916.715	32.08321
917.103	18.04444
917.491	21.05226
917.878	37.09197
918.266	-7.01821
918.654	-32.08284
919.041	-28.07403
919.429	-46.11022
919.816	5.01279
920.203	-7.01721
920.591	-24.06
920.978	37.09073
921.365	-4.01059
921.752	-19.04588
922.139	18.03941
922.525	49.12087
922.912	20.04893
923.299	63.15882
923.685	-14.03674
924.072	30.06949
924.458	0
924.844	45.11308
925.231	-23.05483
925.617	14.03647
926.003	12.03081
926.389	4.01014
926.774	0
927.16	-10.02516
927.546	0
927.931	18.04552
928.317	44.10193
928.702	-14.03334
929.088	44.10652
929.473	-8.02062
929.858	23.05715
930.243	-3.00731
930.628	22.0546
931.013	11.02755
931.398	-22.0506
931.783	-17.04461
932.167	-24.05915
932.552	-43.10821
932.937	23.05717
933.321	12.03063
933.705	12.03044
934.09	-16.04001
934.474	34.08138
934.858	-15.03896
935.242	-27.06367
935.626	38.0979
936.009	-19.05127
936.393	-36.09236
936.777	-48.12392
937.16	20.05251
937.544	8.01882
937.927	-7.01793
938.311	5.01227
938.694	0
939.077	17.04141
939.46	6.01469
939.843	26.05461
940.226	0
940.609	26.06114
940.991	8.02066
941.374	-8.01979
941.757	2.00501
942.139	7.0159
942.522	10.02362
942.904	-17.04122
943.286	-19.04865
943.668	19.04976
944.05	1.00251
944.432	12.03023
944.814	39.09744
945.196	-18.04537
945.578	-3.00737
945.959	26.06154
946.341	-23.05638
946.722	-6.01415
947.104	-5.01203
947.485	38.09019
947.866	7.01794
948.247	-54.13941
948.628	28.06865
949.009	10.02592
949.39	-13.03253
949.771	10.02353
950.152	35.08665
950.532	-16.0404
950.913	-4.00989
951.293	37.10088
951.674	22.05356
952.054	-44.11106
952.434	9.02244
952.814	-55.13111
953.194	-24.06258
953.574	-8.01973
953.954	-30.07287
954.334	-7.01763
954.714	-3.00744
955.093	-20.04905
955.473	-8.02026
955.853	-33.08592
956.232	-11.03009
956.611	-13.03126
956.99	-41.1034
957.37	-27.06952
957.749	-2.00482
958.128	-19.04826
958.506	-18.0474
958.885	-16.04088
959.264	34.08478
959.643	26.06028
960.021	-19.04752
960.4	-30.0693
960.778	-37.09144
961.156	14.03557
961.535	11.02587
961.913	32.07548
962.291	4.01045
962.669	-113.29005
963.047	10.02575
963.424	-45.11668
963.802	-31.07728
964.18	8.02025
964.557	22.05137
964.935	-43.1031
965.312	4.01058
965.69	17.04281
966.067	3.00738
966.444	26.06415
966.821	-6.01545
967.198	-24.05827
967.575	-13.03204
967.952	-45.10645
968.329	21.0514
968.705	45.09841
969.082	1.00262
969.458	-37.09083
969.835	-19.04632
970.211	10.02595
970.587	18.04496
970.963	-16.04141
971.339	-12.03168
971.715	-6.01515
972.091	20.04969
972.467	-37.09341
972.843	20.05052
973.219	43.10239
973.594	-20.05313
973.97	26.06218
974.345	-3.00731
974.721	-7.01711
975.096	20.04902
975.471	-60.1424
975.846	-10.02446
976.221	29.07493
976.596	4.00976
976.971	-13.03213
977.346	-14.03294
977.72	-19.0484
978.095	-13.03366
978.469	8.01918
978.844	3.00752
979.218	24.05878
979.593	-31.07449
979.967	6.01484
980.341	-16.03771
980.715	26.06542
981.089	26.06572
981.463	-4.00936
981.837	-54.13553
982.21	-39.09
982.584	-6.01476
982.957	8.02021
983.331	14.0333
983.704	-11.02756
984.078	-31.0774
984.451	-54.13421
984.824	37.09191
985.197	-8.01966
985.57	10.02521
985.943	-28.06923
986.316	34.08342
986.688	19.04602
987.061	6.01429
987.434	-13.03402
987.806	-47.11508
988.179	23.05552
988.551	8.02046
988.923	-23.05678
989.295	61.15235
989.667	28.06883
990.039	11.02754
990.411	13.03028
990.783	-35.08084
991.155	9.02223
991.527	-25.0611
991.898	-19.0479
992.27	25.06276
992.641	-10.02527
993.012	20.04745
993.384	21.05066
993.755	-1.00258
994.126	-21.05117
994.497	3.00752
994.868	-30.06999
995.239	20.04885
995.61	-5.01282
995.98	-14.03477
996.351	26.06544
996.722	12.0284
997.092	-33.07963
997.462	11.02648
997.833	3.00711
998.203	-17.04158
998.573	3.00753
998.943	14.03341
999.313	-45.10892
999.683	-10.02429
1000.053	-4.0093
1000.423	-10.02443
1000.792	9.0237
1001.162	13.03229
1001.531	14.03481
1001.901	-6.01506
1002.27	-8.0183
1002.639	14.03599
1003.009	32.07677
1003.378	-41.10594
1003.747	13.03107
1004.116	-28.06847
1004.485	-31.07464
1004.853	-4.01019
1005.222	8.02038
1005.591	32.07639
1005.959	33.07713
1006.328	-27.06253
1006.696	-47.11517
1007.064	-8.02046
1007.433	-10.02501
1007.801	-1.00244
1008.169	-12.03085
1008.537	-2.00445
1008.905	-18.0429
1009.273	21.05218
1009.64	-29.07111
1010.008	20.04816
1010.375	-25.05971
1010.743	33.07649
1011.11	7.01685
1011.478	-6.01489
1011.845	-39.09315
1012.212	0
1012.579	-31.07717
1012.946	34.08141
1013.313	-19.04526
1013.68	-25.05689
1014.047	9.02207
1014.414	10.02397
1014.78	-12.03007
1015.147	-14.03399
1015.513	1.00244
1015.88	12.03069
1016.246	8.01983
1016.612	43.09896
1016.978	-4.00996
1017.344	-17.04249
1017.71	-31.07517
1018.076	-35.0835
1018.442	14.03606
1018.808	6.01517
1019.174	11.02796
1019.539	13.02973
1019.905	-20.0478
1020.27	-23.05782
1020.636	-21.05073
1021.001	30.07276
1021.366	-52.12669
1021.731	0
1022.096	-52.1329
1022.461	-6.01418
1022.826	27.06501
1023.191	-15.03965
1023.556	-9.02141
1023.92	-21.05186
1024.285	5.01224
1024.649	-25.06174
1025.014	2.00496
1025.378	25.06352
1025.742	23.05749
1026.107	-30.069
1026.471	-9.02106
1026.835	-31.07731
1027.199	-15.03689
1027.562	-4.00949
1027.926	7.01711
1028.29	63.16115
1028.654	6.01404
1029.017	3.00738
1029.381	34.08327
1029.744	-13.03372
1030.107	-34.08072
1030.471	23.05529
1030.834	25.05714
1031.197	-17.04094
1031.56	-29.06918
1031.923	-26.06794
1032.286	-38.08939
1032.648	54.12964
1033.011	47.1101
1033.374	0
1033.736	31.08245
1034.099	10.0248
1034.461	-7.01815
1034.823	31.0777
1035.185	33.08355
1035.548	19.04668
1035.91	11.02679
1036.272	-4.00927
1036.634	-4.00977
1036.995	-61.14542
1037.357	-14.0345
1037.719	-3.00732
1038.08	-47.11221
1038.442	-8.01922
1038.803	32.0777
1039.165	-21.0534
1039.526	-2.00486
1039.887	-8.01943
1040.248	-4.01013
1040.609	6.01483
1040.97	62.15342
1041.331	-17.04324
1041.692	13.03091
1042.053	12.02748
1042.413	22.05133
1042.774	10.02442
1043.134	-23.05485
1043.495	-22.05579
1043.855	-32.07857
1044.215	16.03956
1044.576	33.0802
1044.936	-3.00684
1045.296	17.04246
1045.656	1.00247
1046.016	18.04371
1046.375	8.01981
1046.735	23.0534
1047.095	46.10846
1047.454	-49.10521
1047.814	-30.0723
1048.173	-8.01905
1048.533	11.02555
1048.892	-29.0718
1049.251	22.05514
1049.61	-1.0025
1049.969	-18.04267
1050.328	19.04162
1050.687	6.01478
1051.046	-26.06401
1051.405	-33.08331
1051.763	-19.0446
1052.122	21.05336
1052.48	-24.05926
1052.839	-4.00955
1053.197	-29.06873
1053.555	-44.09974
1053.914	28.06885
1054.272	-25.06074
1054.63	3.00749
1054.988	-28.0675
1055.345	0
1055.703	-17.04096
1056.061	-13.03378
1056.419	-7.01829
1056.776	-30.07312
1057.134	23.05394
1057.491	35.08757
1057.848	1.00251
1058.206	28.06643
1058.563	-13.02938
1058.92	9.02087
1059.277	-12.02962
1059.634	18.0429
1059.991	-21.05014
1060.348	5.01166
1060.704	-33.08035
1061.061	-38.08715
1061.418	4.00987
1061.774	14.0349
1062.131	-17.04538
1062.487	-13.03073
1062.843	10.02512
1063.199	-3.00749
1063.555	-12.02818
1063.911	-11.02821
1064.267	53.11026
1064.623	-15.03714
1064.979	-29.06828
1065.335	10.02358
1065.691	-23.05512
1066.046	-30.06668
1066.402	9.02088
1066.757	-28.07085
1067.112	-54.13264
1067.468	-21.05071
1067.823	32.07735
1068.178	7.01698
1068.533	-9.0219
1068.888	59.14129
1069.243	-16.03998
1069.598	13.032
1069.952	10.02317
1070.307	19.04776
1070.662	-6.01456
1071.016	26.05958
1071.371	-27.06258
1071.725	14.03355
1072.079	-27.0652
1072.434	-8.01973
1072.788	35.08494
1073.142	6.01481
1073.496	74.17954
1073.85	-33.07752
1074.203	-50.12182
1074.557	-24.06465
1074.911	-31.07449
1075.265	-23.05416
1075.618	11.02703
1075.971	25.05998
1076.325	-6.01548
1076.678	7.01658
1077.031	10.02313
1077.385	25.05601
1077.738	38.08792
1078.091	14.03287
1078.444	18.04228
1078.796	-1.00248
1079.149	-14.03501
1079.502	-7.01694
1079.855	38.0898
1080.207	-4.00987
1080.56	-7.0184
1080.912	-19.04695
1081.264	1.00244
1081.617	13.03237
1081.969	26.06659
1082.321	-23.05749
1082.673	4.00944
1083.025	-3.00715
1083.377	8.01728
1083.728	5.01178
1084.08	-1.00254
1084.432	13.03189
1084.783	12.028
1085.135	2.00507
1085.486	-8.01885
1085.838	22.05454
1086.189	7.0172
1086.54	-5.01196
1086.891	-6.01548
1087.242	-33.08143
1087.593	-39.09493
1087.944	31.07168
1088.295	-12.02737
1088.646	5.01223
1088.996	-17.04198
1089.347	-3.00743
1089.698	27.06542
1090.048	-8.02085
1090.398	12.02804
1090.749	-12.0289
1091.099	8.02039
1091.449	-28.07027
1091.799	1.00255
1092.149	1.00252
1092.499	-35.0858
1092.849	3.00768
1093.199	3.00748
1093.548	-36.08774
1093.898	34.0861
1094.248	-30.0774
1094.597	1.00261
1094.947	-14.03762
1095.296	-37.09328
1095.645	-33.08645
1095.994	10.02445
1096.343	-1.00253
1096.692	10.02673
1097.041	28.07645
1097.39	51.12747
1097.739	-19.04942
1098.088	26.0696
1098.437	-23.06137
1098.785	40.10827
1099.134	13.03456
1099.482	-43.11915
1099.83	-35.09197
1100.179	-12.03168
1100.527	18.04826
1100.875	-17.04548
1101.223	-6.01594
1101.571	-20.05603
1101.919	15.03979
1102.267	-9.02547
1102.615	-10.03224
1102.962	-5.0161
1103.31	-6.01934
1103.658	-2.00644
