Data from N2 R1 sample 11_Subt2__4__13-31-34-959.txt Node

Date: Wed Aug 27 13:31:34 PDT 2025
User: uwsun
Spectrometer: HDX01956
Trigger mode: 0
Integration Time (sec): 5.000000E-1
Scans to average: 1
Nonlinearity correction enabled: true
Boxcar width: 0
Storing dark spectrum: false
XAxis mode: Wavelengths
Number of Pixels in Spectrum: 2068
>>>>>Begin Spectral Data<<<<<
194.03	81.23361
194.578	111.35758
195.127	110.34972
195.676	109.3475
196.225	80.2171
196.773	120.33619
197.321	160.4452
197.87	209.54131
198.418	266.6895
198.966	273.71385
199.513	208.53192
200.061	248.63908
200.609	218.57713
201.156	232.52117
201.704	280.7145
202.251	216.57547
202.798	257.67751
203.345	252.62807
203.892	223.56637
204.438	249.6024
204.985	253.60885
205.532	230.60849
206.078	255.63428
206.624	252.63058
207.17	244.57548
207.716	253.6293
208.262	173.35446
208.808	259.64797
209.354	260.64353
209.899	244.6176
210.445	273.68176
210.99	214.52601
211.535	249.59308
212.08	267.6318
212.625	228.57485
213.17	178.45345
213.715	184.42656
214.259	233.54794
214.804	213.53406
215.348	181.42533
215.892	273.65572
216.436	198.46537
216.98	202.45825
217.524	196.47142
218.068	196.49418
218.612	241.61186
219.155	199.47655
219.698	194.46697
220.242	166.4166
220.785	212.50157
221.328	206.51902
221.871	197.49484
222.414	232.5818
222.956	193.47308
223.499	234.53429
224.041	215.5129
224.583	203.44225
225.126	201.45608
225.668	213.52693
226.21	177.4505
226.751	215.48408
227.293	176.40995
227.835	182.44918
228.376	242.56611
228.918	243.6119
229.459	177.4505
230	184.44055
230.541	216.50827
231.082	229.56235
231.622	193.45971
232.163	209.51457
232.704	235.58858
233.244	156.3884
233.784	169.41671
234.324	220.49381
234.864	218.50137
235.404	199.47455
235.944	178.42667
236.484	217.5382
237.023	200.48177
237.563	209.49113
238.102	171.40434
238.641	203.51375
239.18	194.4636
239.719	215.54431
240.258	203.46286
240.797	245.59429
241.335	196.48301
241.874	210.41906
242.412	162.39555
242.95	228.55523
243.488	264.61176
244.026	208.48506
244.564	219.45662
245.102	211.48827
245.64	241.58371
246.177	173.39494
246.715	209.50221
247.252	202.46754
247.789	143.27415
248.326	209.51381
248.863	216.48344
249.4	211.47935
249.936	202.43231
250.473	200.47428
251.009	263.61101
251.546	268.60352
252.082	242.53001
252.618	238.54189
253.154	198.48164
253.69	222.50995
254.226	193.45901
254.761	197.45244
255.297	251.56235
255.832	206.48926
256.367	271.64399
256.903	215.48249
257.438	203.47703
257.972	226.51706
258.507	226.532
259.042	213.46404
259.576	236.51927
260.111	210.49011
260.645	233.50653
261.179	220.51586
261.713	217.49178
262.247	240.55769
262.781	167.35842
263.315	208.51051
263.849	213.53675
264.382	181.42069
264.915	287.6799
265.449	242.59811
265.982	259.59005
266.515	265.64496
267.048	141.30523
267.58	195.42987
268.113	190.4228
268.646	205.51197
269.178	255.58352
269.71	178.39116
270.243	196.45366
270.775	271.68703
271.307	222.53334
271.838	254.59744
272.37	210.51827
272.902	240.55108
273.433	231.51285
273.965	267.64642
274.496	252.61939
275.027	270.66999
275.558	262.63563
276.089	214.53608
276.62	223.56516
277.15	261.64139
277.681	181.40285
278.211	246.60353
278.741	252.56493
279.272	257.59164
279.802	244.611
280.332	275.65324
280.861	243.58678
281.391	266.60734
281.921	214.51256
282.45	301.74676
282.98	258.66715
283.509	250.56943
284.038	229.52656
284.567	249.5762
285.096	282.67489
285.625	245.55432
286.153	278.6521
286.682	295.681
287.21	282.67438
287.739	295.69372
288.267	219.53521
288.795	296.76698
289.323	226.53366
289.851	260.60368
290.378	255.58376
290.906	275.67304
291.433	256.63433
291.961	301.68738
292.488	273.66716
293.015	276.64816
293.542	309.77582
294.069	345.83961
294.596	261.63997
295.122	306.72365
295.649	269.591
296.175	344.82386
296.702	262.63134
297.228	323.7696
297.754	289.64774
298.28	306.69556
298.806	269.63752
299.332	325.72422
299.857	281.63318
300.383	267.66388
300.908	322.78351
301.433	301.72131
301.958	349.80403
302.483	312.77475
303.008	281.67622
303.533	332.84923
304.058	264.61418
304.582	338.79776
305.107	313.80387
305.631	351.78344
306.155	368.84695
306.679	332.77113
307.203	361.82338
307.727	373.87436
308.251	275.66479
308.775	322.75587
309.298	370.87529
309.822	336.82733
310.345	333.77238
310.868	374.86899
311.391	325.77614
311.914	360.88836
312.437	362.79914
312.96	349.80564
313.482	335.7807
314.005	345.85464
314.527	314.80433
315.049	371.9059
315.571	317.702
316.093	357.85808
316.615	406.94109
317.137	379.8039
317.659	372.86367
318.18	368.85675
318.702	424.96371
319.223	394.79245
319.744	415.90711
320.265	427.99503
320.786	443.05363
321.307	439.04809
321.828	389.84813
322.348	399.89864
322.869	420.96428
323.389	607.9607
323.909	429.95156
324.43	417.95183
324.95	429.9476
325.47	434.02288
325.989	480.06817
326.509	458.9797
327.029	499.07077
327.548	452.9723
328.067	443.02613
328.587	459.06283
329.106	500.09297
329.625	485.18364
330.144	498.07252
330.662	519.13385
331.181	508.10487
331.7	444.98093
332.218	476.97678
332.736	541.16105
333.255	532.15911
333.773	530.15572
334.291	506.15725
334.808	509.05467
335.326	591.22106
335.844	561.21076
336.361	550.28319
336.879	597.28912
337.396	582.28054
337.913	591.26852
338.43	622.26481
338.947	612.32747
339.464	631.24263
339.981	650.38723
340.497	623.38318
341.014	625.38073
341.53	654.32455
342.046	654.42891
342.562	651.43583
343.078	640.3517
343.594	702.48798
344.11	646.362
344.626	661.47431
345.141	710.40797
345.657	696.35638
346.172	708.50658
346.687	769.53543
347.202	732.45301
347.717	726.50475
348.232	764.66454
348.747	738.48265
349.261	744.41507
349.776	820.65592
350.29	781.67537
350.805	842.78266
351.319	792.57885
351.833	816.5974
352.347	767.55479
352.861	863.71063
353.374	799.55265
353.888	784.58459
354.401	874.69902
354.915	918.75592
355.428	860.79624
355.941	841.64602
356.454	834.54737
356.967	872.70638
357.48	846.61098
357.993	854.75143
358.505	854.75773
359.018	942.90169
359.53	864.70345
360.042	977.7455
360.554	914.78784
361.066	932.87376
361.578	932.64652
362.09	938.82102
362.602	983.7139
363.113	924.74104
363.625	992.76372
364.136	990.73022
364.647	964.79616
365.158	1020.88665
365.669	1092.05282
366.18	1046.92619
366.691	1027.76737
367.201	1005.88887
367.712	1031.86397
368.222	1028.82036
368.733	1090.79816
369.243	1160.92891
369.753	1063.86549
370.263	1162.1241
370.773	1172.22298
371.282	1163.06901
371.792	1230.07939
372.301	1229.20936
372.811	1245.39547
373.32	1273.95375
373.829	1320.17491
374.338	1381.09634
374.847	1313.09978
375.356	1421.25845
375.865	1550.06266
376.373	1515.17229
376.882	1578.55635
377.39	1565.38559
377.898	1713.59257
378.407	1782.33706
378.915	1744.0621
379.423	1834.37495
379.93	1932.25179
380.438	2050.54604
380.946	2116.3551
381.453	2250.50567
381.96	2375.36041
382.468	2521.28805
382.975	2701.36996
383.482	2809.06731
383.989	2749.60293
384.495	2944.01857
385.002	3019.45834
385.509	3165.7676
386.015	3420.88269
386.521	3513.16582
387.028	3716.01183
387.534	3850.6183
388.04	3882.98448
388.546	4050.57063
389.051	4337.18546
389.557	4773.13341
390.063	4764.85218
390.568	5085.06205
391.073	5254.60263
391.578	5510.65959
392.084	5820.44852
392.589	6131.39095
393.093	6601.74568
393.598	7158.44258
394.103	7662.47169
394.607	8321.43142
395.112	8958.65838
395.616	9620.29005
396.12	10334.31398
396.624	11708.94381
397.128	12441.19991
397.632	13822.8429
398.136	15079.34566
398.639	16558.38103
399.143	18887.61677
399.646	20976.63599
400.15	23177.33306
400.653	26220.87053
401.156	29557.35151
401.659	34333.33569
402.162	44635.8873
402.664	45885.76159
403.167	32260.27245
403.67	3851.94142
404.172	0
404.674	0
405.176	0
405.678	0
406.18	0
406.682	0
407.184	0
407.686	12367.42319
408.187	34596.90747
408.688	44563.94194
409.19	48906.19284
409.691	51236.67962
410.192	47411.39538
410.693	42368.79193
411.194	39945.13775
411.694	37610.44801
412.195	34656.21236
412.696	32389.47099
413.196	31398.98735
413.696	31618.99737
414.196	31014.27708
414.696	29662.70601
415.196	27044.68586
415.696	22184.74832
416.196	17585.70994
416.695	14980.34701
417.195	14288.79642
417.694	13305.00971
418.194	12405.61159
418.693	11797.18458
419.192	11525.6019
419.691	11267.74801
420.19	11004.68979
420.688	10571.81556
421.187	9857.08767
421.685	8945.07637
422.184	8159.06211
422.682	7073.41075
423.18	6297.51333
423.678	5741.4145
424.176	5162.51771
424.674	5107.61518
425.172	4727.0739
425.669	4243.67747
426.167	3937.72684
426.664	3629.92883
427.161	3380.28437
427.659	3168.80616
428.156	2941.2784
428.652	2833.35447
429.149	2715.15261
429.646	2608.8604
430.143	2467.24067
430.639	2285.22256
431.135	2208.49729
431.632	2072.21934
432.128	1941.25193
432.624	1888.57956
433.12	1862.13448
433.616	1822.0333
434.111	1829.38657
434.607	1689.31086
435.103	1643.92693
435.598	1491.75524
436.093	1401.04437
436.588	1339.8824
437.083	1375.99833
437.578	1197.7858
438.073	1188.07949
438.568	1090.89458
439.062	1138.6671
439.557	1020.72593
440.051	1006.67739
440.546	1045.74314
441.04	954.71963
441.534	884.70219
442.028	960.7058
442.522	959.72646
443.015	906.51425
443.509	975.81445
444.002	884.67043
444.496	795.34747
444.989	824.57281
445.482	823.60619
445.975	840.49209
446.468	819.40175
446.961	706.19139
447.454	799.45105
447.947	728.37921
448.439	719.40825
448.931	702.25936
449.424	717.45795
449.916	700.37453
450.408	618.14253
450.9	621.22749
451.392	659.36299
451.884	642.21067
452.375	590.21818
452.867	533.99875
453.358	555.05938
453.849	598.06251
454.341	567.05459
454.832	586.05463
455.323	648.31537
455.814	542.04779
456.304	568.09972
456.795	663.26289
457.285	563.04817
457.776	476.91902
458.266	508.04297
458.756	548.13234
459.247	509.04903
459.737	495.03887
460.226	519.00827
460.716	531.08905
461.206	512.06492
461.695	475.04194
462.185	474.98453
462.674	497.99432
463.163	489.95431
463.653	445.83218
464.142	441.94151
464.63	412.8897
465.119	407.8418
465.608	482.98731
466.096	435.85577
466.585	416.8633
467.073	424.90463
467.561	413.88938
468.05	415.8668
468.538	407.89714
469.026	369.79498
469.513	361.69379
470.001	450.94677
470.489	425.92896
470.976	351.73313
471.463	345.78626
471.951	285.65347
472.438	376.81023
472.925	326.71907
473.412	349.78284
473.899	309.66001
474.385	322.73489
474.872	307.6671
475.359	318.73015
475.845	287.56939
476.331	337.68672
476.817	271.61689
477.303	291.6361
477.789	234.53558
478.275	274.64071
478.761	264.60666
479.247	245.51901
479.732	280.66089
480.218	185.45683
480.703	225.53099
481.188	209.42802
481.673	272.59168
482.158	240.50386
482.643	233.56433
483.128	192.43026
483.612	187.42293
484.097	233.54581
484.581	153.34223
485.066	228.5342
485.55	189.40441
486.034	207.43813
486.518	179.40336
487.002	224.53692
487.486	180.4285
487.969	175.41476
488.453	164.3982
488.936	138.30721
489.42	165.36008
489.903	122.29767
490.386	183.30186
490.869	130.27871
491.352	90.21385
491.835	120.2467
492.318	160.3587
492.8	179.37289
493.283	127.31488
493.765	131.31742
494.247	156.3562
494.73	72.15823
495.212	116.27148
495.694	132.30541
496.175	87.20588
496.657	113.26337
497.139	118.20859
497.62	120.2837
498.102	138.34022
498.583	126.31132
499.064	71.15704
499.545	110.24945
500.026	106.23774
500.507	114.26324
500.988	124.30289
501.469	116.28703
501.949	55.13387
502.43	110.26086
502.91	46.09751
503.39	57.14128
503.87	66.15561
504.35	82.19101
504.83	78.17235
505.31	73.17569
505.79	45.10859
506.269	35.08186
506.749	63.14435
507.228	55.12955
507.707	62.13728
508.187	48.11392
508.666	1.00245
509.145	34.08001
509.623	65.15406
510.102	74.17813
510.581	34.081
511.059	53.13328
511.538	21.05374
512.016	84.20189
512.494	82.2
512.972	-17.0406
513.45	13.03072
513.928	103.24883
514.406	7.01731
514.884	12.03092
515.361	-20.04794
515.839	83.18963
516.316	53.12809
516.793	32.08098
517.27	7.017
517.747	103.26272
518.224	25.05792
518.701	53.11904
519.178	-17.0425
519.654	25.05944
520.131	14.03471
520.607	-12.02979
521.083	-21.04904
521.56	29.06844
522.036	13.02896
522.512	-6.01473
522.987	26.0623
523.463	26.06232
523.939	19.04621
524.414	-7.01642
524.89	28.06737
525.365	-3.00683
525.84	21.05041
526.315	6.01461
526.79	17.03845
527.265	22.0511
527.74	-12.02934
528.215	92.2202
528.689	6.01347
529.164	12.02667
529.638	17.0437
530.112	-24.05766
530.587	35.077
531.061	9.02203
531.534	31.07582
532.008	10.02443
532.482	2.0046
532.956	-21.05375
533.429	0
533.903	18.03994
534.376	-4.00911
534.849	-33.0771
535.322	31.07364
535.795	-32.07863
536.268	38.09192
536.741	-50.12113
537.213	-23.05382
537.686	29.07064
538.158	2.00459
538.631	-53.129
539.103	42.09594
539.575	-27.0574
540.047	-13.02937
540.519	14.03332
540.991	-39.09553
541.463	26.06285
541.934	-21.04841
542.406	-34.0815
542.877	-11.02488
543.348	-63.15036
543.82	16.03901
544.291	-25.05827
544.762	11.0263
545.233	5.01248
545.703	0
546.174	-35.08273
546.645	13.03139
547.115	66.15887
547.585	15.03426
548.056	17.04087
548.526	40.09413
548.996	31.07393
549.466	56.13439
549.935	50.11858
550.405	27.05967
550.875	62.14556
551.344	66.15598
551.814	75.17136
552.283	94.20074
552.752	21.04844
553.221	88.19046
553.69	68.14855
554.159	100.2419
554.628	131.29036
555.096	127.31246
555.565	160.35471
556.033	133.30509
556.502	154.3645
556.97	59.12892
557.438	116.26786
557.906	192.43946
558.374	124.28005
558.842	154.35942
559.31	176.38547
559.777	170.40034
560.245	167.37539
560.712	146.32826
561.18	219.47001
561.647	174.37626
562.114	255.56754
562.581	204.47667
563.048	313.68245
563.514	283.66032
563.981	278.60704
564.448	278.59058
564.914	300.65175
565.381	347.73282
565.847	363.78608
566.313	377.82441
566.779	456.95221
567.245	353.76149
567.711	444.97929
568.176	403.83016
568.642	446.01613
569.108	476.05882
569.573	478.0082
570.038	527.99189
570.504	531.06991
570.969	559.22035
571.434	551.06344
571.899	537.14007
572.363	584.16098
572.828	536.06886
573.293	642.28953
573.757	624.24064
574.222	691.33227
574.686	646.26118
575.15	669.38061
575.614	729.42517
576.078	653.31196
576.542	663.28738
577.006	688.316
577.469	593.24382
577.933	707.35469
578.396	642.31088
578.86	622.26769
579.323	642.33519
579.786	639.17878
580.249	583.16141
580.712	623.30626
581.175	572.24007
581.637	579.15022
582.1	557.04572
582.563	533.00303
583.025	535.14618
583.487	486.88977
583.95	501.96891
584.412	505.93087
584.874	477.03887
585.336	473.00571
585.797	425.83019
586.259	389.83374
586.721	439.93561
587.182	415.86872
587.643	329.68017
588.105	264.5733
588.566	277.53491
589.027	338.74647
589.488	288.60355
589.949	317.70522
590.41	283.52134
590.87	166.35112
591.331	234.47325
591.791	205.44661
592.252	226.48158
592.712	162.36273
593.172	205.43427
593.632	200.40282
594.092	190.39695
594.552	141.28471
595.011	214.46216
595.471	173.36568
595.931	135.28511
596.39	203.46043
596.849	131.29024
597.308	94.19116
597.768	184.44441
598.227	102.23262
598.685	112.24323
599.144	203.44863
599.603	180.40104
600.062	169.34266
600.52	152.32334
600.978	181.40569
601.437	149.32227
601.895	143.28503
602.353	121.25319
602.811	198.41697
603.269	178.39692
603.727	199.44677
604.184	173.37113
604.642	135.3103
605.099	192.42405
605.557	164.37552
606.014	165.3373
606.471	253.58755
606.928	199.40256
607.385	270.61125
607.842	244.52536
608.299	259.55993
608.755	267.58956
609.212	296.61236
609.668	242.50088
610.125	298.65236
610.581	247.53079
611.037	281.58329
611.493	218.47704
611.949	221.4933
612.405	339.63863
612.861	232.50124
613.316	292.64894
613.772	264.55351
614.227	264.56671
614.683	297.58345
615.138	278.60396
615.593	287.62311
616.048	291.61672
616.503	247.55088
616.958	240.5535
617.412	315.6839
617.867	316.65315
618.321	288.5619
618.776	278.56765
619.23	319.68402
619.684	281.5937
620.138	251.52986
620.592	259.5786
621.046	294.62729
621.5	267.6041
621.954	232.48685
622.407	285.58631
622.861	309.69569
623.314	262.55295
623.768	252.54818
624.221	211.39455
624.674	245.52604
625.127	195.42771
625.58	201.42394
626.033	188.38685
626.485	189.43268
626.938	216.47925
627.39	221.48657
627.843	145.31831
628.295	179.38997
628.747	210.47253
629.199	174.37658
629.651	161.35462
630.103	177.38856
630.555	190.39167
631.006	165.36938
631.458	191.43339
631.909	130.2852
632.361	144.32549
632.812	119.26816
633.263	126.26289
633.714	156.3278
634.165	113.26223
634.616	87.20077
635.067	70.15014
635.518	112.25831
635.968	143.27866
636.419	94.19952
636.869	57.13086
637.319	156.35821
637.769	56.12337
638.219	130.30078
638.669	25.05884
639.119	29.06868
639.569	92.21725
640.019	25.05675
640.468	74.16317
640.918	60.13993
641.367	50.112
641.816	22.04825
642.265	79.17758
642.714	77.17422
643.163	35.07942
643.612	70.16665
644.061	33.06963
644.51	63.14237
644.958	125.27175
645.406	59.1393
645.855	98.23769
646.303	74.17067
646.751	47.10673
647.199	61.13622
647.647	38.0867
648.095	57.12971
648.543	104.214
648.99	73.17315
649.438	13.02997
649.885	53.12794
650.333	86.16803
650.78	54.12974
651.227	65.15715
651.674	66.15082
652.121	42.10202
652.568	63.1526
653.015	99.24609
653.461	9.02141
653.908	40.0924
654.354	84.19867
654.801	54.12885
655.247	60.13002
655.693	8.02064
656.139	82.19783
656.585	76.18218
657.031	41.09759
657.477	61.13414
657.922	89.20596
658.368	106.26037
658.813	110.25309
659.259	35.08443
659.704	61.14285
660.149	52.12237
660.594	68.16176
661.039	30.06883
661.484	74.17563
661.929	6.01414
662.373	44.11198
662.818	3.00751
663.262	17.04143
663.707	32.08106
664.151	21.05121
664.595	70.1713
665.039	82.20231
665.483	73.18738
665.927	3.00709
666.371	33.07888
666.814	48.11567
667.258	-12.02915
667.701	73.15884
668.145	31.07765
668.588	21.05218
669.031	32.07703
669.474	29.07067
669.917	14.03148
670.36	32.08011
670.803	36.08794
671.245	93.20166
671.688	23.05628
672.13	54.12529
672.573	-3.00768
673.015	22.05356
673.457	33.07427
673.899	30.07344
674.341	12.02937
674.783	1.00246
675.225	46.11503
675.666	43.10584
676.108	-20.04438
676.549	19.04552
676.991	42.09532
677.432	85.17975
677.873	9.02136
678.314	3.00732
678.755	50.12413
679.196	84.1979
679.637	59.14575
680.078	34.08128
680.518	40.09442
680.959	-3.00726
681.399	27.06785
681.839	-11.02745
682.28	11.02786
682.72	43.1018
683.16	11.02802
683.6	8.01863
684.039	-18.03892
684.479	33.08239
684.919	37.08888
685.358	6.01538
685.798	43.11508
686.237	44.1078
686.676	20.04664
687.115	8.01929
687.554	23.05613
687.993	44.09982
688.432	11.02589
688.871	24.05628
689.309	79.192
689.748	27.05867
690.186	31.0756
690.625	50.12036
691.063	23.05688
691.501	63.15837
691.939	66.1682
692.377	36.09025
692.815	20.04922
693.253	18.04398
693.69	73.16437
694.128	62.15409
694.565	51.12381
695.003	4.01033
695.44	16.039
695.877	37.08912
696.314	27.06
696.751	-15.03506
697.188	9.02115
697.625	35.08116
698.061	31.07669
698.498	56.1376
698.934	33.08107
699.371	10.02428
699.807	24.0583
700.243	12.02943
700.679	40.09273
701.115	-38.09112
701.551	26.0623
701.987	41.09473
702.422	9.02206
702.858	53.12924
703.294	-14.03233
703.729	15.03737
704.164	-3.00737
704.599	26.05942
705.035	-18.04193
705.47	0
705.904	39.0939
706.339	46.10867
706.774	-6.01459
707.209	33.07885
707.643	41.10024
708.078	5.01241
708.512	11.02818
708.946	-1.00244
709.38	5.01221
709.814	29.06887
710.248	64.15894
710.682	9.02211
711.116	8.01998
711.549	25.06607
711.983	-13.03122
712.416	33.07969
712.85	32.08147
713.283	39.09372
713.716	33.08319
714.149	-1.00243
714.582	25.05818
715.015	24.06073
715.448	36.0922
715.881	-10.02218
716.313	-4.0095
716.746	32.07732
717.178	0
717.61	38.09718
718.043	2.00508
718.475	22.05416
718.907	33.08355
719.339	17.04014
719.77	27.06565
720.202	32.08236
720.634	7.01757
721.065	55.13372
721.497	69.17196
721.928	43.10806
722.359	13.03259
722.79	5.0124
723.221	-10.02559
723.652	23.05966
724.083	40.09347
724.514	34.07945
724.945	0
725.375	21.05085
725.806	-21.05287
726.236	21.05407
726.666	45.10941
727.096	85.21237
727.526	7.01821
727.956	37.08736
728.386	54.13562
728.816	66.17228
729.246	27.06714
729.675	-12.03026
730.105	41.10292
730.534	41.09823
730.964	-4.01029
731.393	10.02505
731.822	-13.03354
732.251	23.05966
732.68	4.00957
733.109	35.08896
733.537	3.00746
733.966	-7.01779
734.395	67.15763
734.823	27.06246
735.251	11.02716
735.68	43.10871
736.108	61.15669
736.536	41.09983
736.964	18.04297
737.392	33.08397
737.82	1.00242
738.247	21.05176
738.675	-3.00724
739.102	37.09524
739.53	-11.0286
739.957	0
740.384	25.06219
740.811	25.0642
741.238	-13.03242
741.665	22.05233
742.092	38.09223
742.519	58.14708
742.945	17.04172
743.372	34.08585
743.798	47.12245
744.225	34.08321
744.651	20.0511
745.077	36.09116
745.503	52.12971
745.929	19.04675
746.355	-36.08931
746.781	38.09568
747.207	-37.09013
747.632	1.00252
748.058	16.04031
748.483	33.07849
748.908	34.08591
749.334	42.1056
749.759	56.13582
750.184	23.05605
750.609	14.03478
751.033	-6.01426
751.458	-6.01378
751.883	25.0621
752.307	47.11401
752.732	16.04145
753.156	72.18083
753.58	34.08191
754.005	30.07683
754.429	6.01454
754.853	57.14437
755.277	-1.00241
755.7	29.07293
756.124	34.08591
756.548	5.01228
756.971	68.16826
757.394	29.07561
757.818	43.11215
758.241	18.04653
758.664	66.17033
759.087	8.01858
759.51	2.00506
759.933	-6.01472
760.356	24.06187
760.778	80.20229
761.201	40.09909
761.623	43.10595
762.046	16.0383
762.468	20.04873
762.89	15.03715
763.312	12.02964
763.734	14.0345
764.156	29.07311
764.578	15.03514
765	67.16655
765.421	75.19634
765.843	41.10843
766.264	54.13028
766.686	0
767.107	38.09437
767.528	4.01041
767.949	0
768.37	35.08792
768.791	60.14689
769.212	53.13666
769.632	24.05762
770.053	45.11976
770.473	29.0718
770.894	3.00755
771.314	8.01926
771.734	55.13121
772.154	28.07291
772.575	28.06584
772.994	34.0792
773.414	41.09953
773.834	-8.02014
774.254	59.14752
774.673	18.04444
775.093	6.01505
775.512	38.09612
775.931	51.13119
776.351	65.16293
776.77	79.1973
777.189	41.09938
777.607	19.04882
778.026	5.01262
778.445	-6.01525
778.864	12.03091
779.282	65.15933
779.701	-33.08524
780.119	26.06689
780.537	22.05617
780.955	32.08213
781.373	12.03006
781.791	-28.06494
782.209	5.0116
782.627	28.07413
783.045	20.04708
783.462	1.00258
783.88	16.04222
784.297	29.07452
784.715	21.05492
785.132	-28.06941
785.549	44.11213
785.966	27.06853
786.383	22.05498
786.8	-16.03764
787.217	-15.0364
787.633	24.06153
788.05	-25.05967
788.466	49.11672
788.883	-28.07286
789.299	-2.0049
789.715	60.14852
790.131	31.07843
790.547	-17.04283
790.963	30.07559
791.379	-16.04109
791.795	-12.02778
792.21	29.06932
792.626	-18.04346
793.041	-30.076
793.457	21.05243
793.872	-3.00717
794.287	39.09649
794.702	-27.06743
795.117	43.1093
795.532	-17.04356
795.947	-1.00244
796.362	17.04056
796.776	-21.04943
797.191	12.03015
797.605	2.00486
798.02	38.0943
798.434	4.00907
798.848	8.02014
799.262	20.05075
799.676	8.01965
800.09	-33.08203
800.504	10.02474
800.918	22.05217
801.331	-5.01314
801.745	-18.0419
802.158	54.13635
802.572	-7.01703
802.985	32.07819
803.398	33.07987
803.811	-16.04124
804.224	-11.02768
804.637	-27.06599
805.05	-8.01904
805.462	85.21106
805.875	25.06607
806.288	-23.05646
806.7	31.07871
807.112	14.03307
807.525	-34.08533
807.937	14.03524
808.349	-44.11158
808.761	-18.04462
809.173	10.02465
809.584	-11.02718
809.996	48.11964
810.408	14.03681
810.819	61.1467
811.231	71.1877
811.642	33.08221
812.053	43.10529
812.464	20.04869
812.875	23.05976
813.286	-31.08082
813.697	-4.00925
814.108	-35.08662
814.519	-21.04752
814.929	-20.05111
815.34	-21.05176
815.75	-13.03358
816.16	11.02763
816.571	13.03425
816.981	-12.02844
817.391	16.03929
817.801	-4.0101
818.211	-6.01444
818.62	1.00247
819.03	11.02737
819.44	10.02619
819.849	-19.04887
820.259	11.02814
820.668	-16.0402
821.077	-16.04086
821.486	55.13397
821.895	-19.04725
822.304	3.008
822.713	-11.02648
823.122	-27.06824
823.531	-32.07694
823.939	0
824.348	15.03685
824.756	7.01771
825.164	-17.04304
825.573	4.0102
825.981	-37.09221
826.389	13.03305
826.797	46.11715
827.205	8.01891
827.612	-26.06492
828.02	3.00724
828.428	-2.00513
828.835	-17.0452
829.243	12.02883
829.65	-15.03791
830.057	-10.02444
830.464	-32.07924
830.871	-32.07732
831.278	-10.02454
831.685	22.04997
832.092	13.03229
832.499	12.0268
832.905	-8.02045
833.312	-30.06994
833.718	-12.03012
834.124	22.05048
834.531	20.05074
834.937	14.03611
835.343	-9.02209
835.749	22.05167
836.155	29.07661
836.561	-34.08462
836.966	8.01968
837.372	32.08227
837.777	21.05275
838.183	-9.0205
838.588	10.02521
838.993	-12.02928
839.399	14.03514
839.804	-21.05251
840.209	29.07467
840.613	-25.05712
841.018	8.02047
841.423	-8.02074
841.828	-59.15208
842.232	10.02478
842.637	22.05248
843.041	7.01818
843.445	15.03807
843.849	0
844.253	9.02155
844.657	6.01538
845.061	-35.08096
845.465	18.04449
845.869	18.04242
846.272	1.00249
846.676	-35.08433
847.079	20.05167
847.483	1.0025
847.886	46.11178
848.289	-21.05691
848.692	-42.1076
849.095	8.01946
849.498	23.0578
849.901	0
850.304	9.02157
850.707	-13.0334
851.109	-20.05065
851.512	43.10732
851.914	71.18301
852.316	10.02557
852.718	61.16164
853.121	46.11433
853.523	62.14924
853.925	-13.03457
854.326	13.03308
854.728	11.0286
855.13	-17.04447
855.531	34.08311
855.933	38.09189
856.334	-36.09142
856.736	53.12246
857.137	38.0898
857.538	12.03082
857.939	17.04301
858.34	77.18728
858.741	20.05262
859.142	-22.05352
859.542	-38.10189
859.943	40.10108
860.343	-1.00254
860.744	-5.01232
861.144	-27.06699
861.544	19.04706
861.945	1.00259
862.345	43.10537
862.745	-3.00751
863.145	12.02866
863.544	32.08141
863.944	40.09625
864.344	7.01741
864.743	-9.02242
865.143	44.11418
865.542	12.02845
865.941	17.04226
866.34	-10.02408
866.74	3.0081
867.139	36.08689
867.537	28.07174
867.936	-26.06375
868.335	0
868.734	42.10798
869.132	15.03528
869.531	-28.06753
869.929	31.07262
870.327	15.03677
870.726	-14.03502
871.124	-24.05656
871.522	-46.11868
871.92	16.03994
872.318	-22.05424
872.715	9.02214
873.113	-3.00742
873.511	-26.06457
873.908	-34.08741
874.306	7.01774
874.703	25.06273
875.1	-1.00255
875.497	-10.02435
875.894	10.0251
876.291	-56.13852
876.688	-12.03134
877.085	2.00484
877.482	26.06561
877.878	70.16997
878.275	-2.00513
878.671	-33.07345
879.068	24.05827
879.464	40.09785
879.86	23.05546
880.256	17.04207
880.652	13.03365
881.048	-15.03756
881.444	-13.03113
881.84	29.07444
882.236	-13.033
882.631	0
883.027	6.0145
883.422	-5.01303
883.817	34.08726
884.213	-5.01302
884.608	13.03275
885.003	15.03706
885.398	18.04565
885.793	27.06843
886.188	18.04568
886.582	33.08474
886.977	27.06488
887.371	-22.05551
887.766	-31.07879
888.16	52.13027
888.554	-38.09393
888.949	26.06518
889.343	41.10043
889.737	-18.04888
890.131	16.04057
890.525	27.06996
890.918	-19.04869
891.312	46.10972
891.706	-2.00527
892.099	17.04335
892.492	-22.04816
892.886	39.09726
893.279	26.06733
893.672	-19.04925
894.065	-18.04558
894.458	27.06778
894.851	-15.03672
895.244	1.0026
895.637	-3.0073
896.029	43.10654
896.422	5.01234
896.814	11.02791
897.206	0
897.599	-8.01982
897.991	-16.03952
898.383	13.03087
898.775	-1.0023
899.167	6.01437
899.559	0
899.951	40.09534
900.342	-16.04128
900.734	-8.02038
901.125	47.12442
901.517	-48.1196
901.908	30.07172
902.299	30.0751
902.69	43.10227
903.082	8.01926
903.473	5.01226
903.863	-55.14197
904.254	39.09076
904.645	-16.03971
905.036	-12.02972
905.426	-3.00697
905.817	-1.0025
906.207	-13.03184
906.597	-5.01192
906.987	-33.08545
907.378	-21.05364
907.768	-8.02139
908.158	-2.00494
908.547	43.11291
908.937	-31.07974
909.327	11.02686
909.717	4.01014
910.106	16.0393
910.495	-5.01253
910.885	-13.03342
911.274	-8.02029
911.663	9.02285
912.052	-12.02973
912.441	11.02841
912.83	11.02584
913.219	-16.04199
913.608	3.00731
913.997	-3.00768
914.385	27.06533
914.774	20.04907
915.162	29.07038
915.55	-9.02185
915.939	1.00256
916.327	-7.01738
916.715	23.0599
917.103	-1.00248
917.491	25.06217
917.878	-10.02507
918.266	-16.04169
918.654	12.03083
919.041	4.01052
919.429	-31.07407
919.816	16.04083
920.203	-4.00983
920.591	-28.07005
920.978	-31.07698
921.365	-9.02386
921.752	-20.04831
922.139	-3.0066
922.525	47.11598
922.912	-19.04682
923.299	51.12885
923.685	-39.10279
924.072	13.03022
924.458	-8.02011
924.844	40.10061
925.231	-2.00475
925.617	26.06759
926.003	28.07168
926.389	-5.0127
926.774	20.05102
927.16	37.09231
927.546	11.02838
927.931	29.07319
928.317	-32.07524
928.702	-14.03334
929.088	24.05832
929.473	11.02827
929.858	40.09909
930.243	31.07509
930.628	27.06695
931.013	13.03255
931.398	-15.03445
931.783	-22.05778
932.167	-44.10884
932.552	-2.005
932.937	12.02989
933.321	10.02553
933.705	1.00254
934.09	-47.11819
934.474	48.11458
934.858	-31.08074
935.242	-31.07316
935.626	-15.039
936.009	12.03222
936.393	-11.0281
936.777	-28.07204
937.16	-3.00791
937.544	-33.07824
937.927	-13.03333
938.311	21.05138
938.694	-9.02375
939.077	9.02196
939.46	11.02691
939.843	46.09619
940.226	26.06736
940.609	54.12628
940.991	12.03097
941.374	0
941.757	26.06485
942.139	-22.05025
942.522	26.06123
942.904	-1.00242
943.286	28.07111
943.668	9.02361
944.05	12.03004
944.432	46.11516
944.814	20.05014
945.196	-6.01509
945.578	35.08538
945.959	47.11079
946.341	-3.00733
946.722	-13.0307
947.104	-2.00481
947.485	57.13478
947.866	13.03328
948.247	5.01278
948.628	-6.0148
949.009	-2.0052
949.39	-13.03253
949.771	26.06099
950.152	-4.00997
950.532	1.00252
950.913	34.08348
951.293	27.07373
951.674	19.04628
952.054	-5.01253
952.434	6.01497
952.814	-37.0879
953.194	-15.03905
953.574	-12.02962
953.954	14.03373
954.334	-9.02267
954.714	-29.07227
955.093	-9.02203
955.473	-28.07116
955.853	-11.02853
956.232	0
956.611	-31.07481
956.99	-49.12375
957.37	12.03069
957.749	-32.07758
958.128	-33.08403
958.506	16.04189
958.885	4.01018
959.264	22.05498
959.643	22.05104
960.021	-17.0425
960.4	-43.09959
960.778	-14.03445
961.156	-2.0051
961.535	25.05864
961.913	-6.01426
962.291	-15.03931
962.669	-51.12949
963.047	12.03089
963.424	-31.08019
963.802	-4.00992
964.18	4.01013
964.557	35.08151
964.935	8.01899
965.312	14.03697
965.69	41.10281
966.067	4.00983
966.444	29.07151
966.821	-14.03611
967.198	-25.06071
967.575	4.00983
967.952	-14.03292
968.329	-4.00984
968.705	68.14799
969.082	12.03133
969.458	-7.01709
969.835	-39.09542
970.211	27.06986
970.587	29.0723
970.963	2.00516
971.339	19.04989
971.715	-23.05823
972.091	38.0941
972.467	36.0897
972.843	-3.00761
973.219	-20.0482
973.594	3.00794
973.97	55.13081
974.345	15.03643
974.721	48.11611
975.096	13.0319
975.471	-37.08742
975.846	12.02924
976.221	20.05176
976.596	38.09216
976.971	-13.03213
977.346	-16.03767
977.72	-17.04329
978.095	-42.10929
978.469	40.09534
978.844	-7.01758
979.218	21.05146
979.593	-36.08659
979.967	23.05671
980.341	16.03748
980.715	12.03027
981.089	50.12585
981.463	18.04194
981.837	-19.04738
982.21	-41.09466
982.584	-11.02708
982.957	4.01011
983.331	-4.00955
983.704	23.05728
984.078	-45.11263
984.451	-7.01725
984.824	3.0075
985.197	-3.00736
985.57	17.04281
985.943	-14.03453
986.316	42.1029
986.688	-31.07579
987.061	45.10641
987.434	-5.01307
987.806	-6.01458
988.179	51.12246
988.551	-14.03594
988.923	-47.11653
989.295	38.0953
989.667	17.04187
990.039	9.02254
990.411	9.02098
990.783	1.00229
991.155	7.0173
991.527	8.01943
991.898	-39.09867
992.27	16.04023
992.641	-7.01768
993.012	4.00952
993.384	-22.0535
993.755	-5.01289
994.126	-40.09782
994.497	41.10207
994.868	-21.04891
995.239	-15.03688
995.61	6.01536
995.98	20.04936
996.351	20.05039
996.722	9.02131
997.092	-31.07478
997.462	-9.02175
997.833	-8.01899
998.203	-3.00732
998.573	-12.0302
998.943	52.12318
999.313	-65.15792
999.683	-18.04379
1000.053	-8.01861
1000.423	8.01948
1000.792	20.05256
1001.162	-7.01745
1001.531	2.00498
1001.901	-2.00502
1002.27	-29.06661
1002.639	44.11253
1003.009	42.10056
1003.378	-2.00513
1003.747	-9.0216
1004.116	-17.04149
1004.485	-47.1135
1004.853	-11.02805
1005.222	8.02038
1005.591	31.07401
1005.959	18.04219
1006.328	-10.02308
1006.696	-66.1623
1007.064	53.13409
1007.433	-5.01249
1007.801	-1.00244
1008.169	22.05623
1008.537	-32.07156
1008.905	-9.02141
1009.273	21.05218
1009.64	14.03406
1010.008	10.02413
1010.375	-7.01666
1010.743	28.06496
1011.11	13.03125
1011.478	-40.09988
1011.845	5.01184
1012.212	8.01854
1012.579	-3.00743
1012.946	11.02645
1013.313	-8.01902
1013.68	-30.06834
1014.047	-1.00246
1014.414	-28.0676
1014.78	-11.02756
1015.147	34.08181
1015.513	-4.00977
1015.88	-4.01026
1016.246	15.03714
1016.612	53.12173
1016.978	21.05203
1017.344	-23.05755
1017.71	-19.04597
1018.076	-17.04042
1018.442	-25.06482
1018.808	2.00506
1019.174	-13.03318
1019.539	7.01603
1019.905	-24.0574
1020.27	-3.00751
1020.636	29.0694
1021.001	31.07517
1021.366	-8.01933
1021.731	18.04647
1022.096	-38.09688
1022.461	-27.06407
1022.826	32.07697
1023.191	-29.07685
1023.556	24.05672
1023.92	-37.09164
1024.285	-14.03439
1024.649	-14.0345
1025.014	8.01981
1025.378	17.04326
1025.742	25.06246
1026.107	37.08396
1026.471	-59.13941
1026.835	-45.11251
1027.199	39.09496
1027.562	12.02839
1027.926	-1.00245
1028.29	-15.03889
1028.654	37.08603
1029.017	23.0564
1029.381	21.05155
1029.744	0
1030.107	-40.09508
1030.471	18.04331
1030.834	-20.04613
1031.197	-17.04094
1031.56	14.03312
1031.923	19.04926
1032.286	-7.01637
1032.648	17.0411
1033.011	13.03066
1033.374	-32.07562
1033.736	-14.03751
1034.099	53.1304
1034.461	16.04132
1034.823	-33.08367
1035.185	34.08607
1035.548	3.00739
1035.91	9.02193
1036.272	9.0208
1036.634	15.03652
1036.995	-36.08541
1037.357	-18.04439
1037.719	-9.02197
1038.08	-32.07618
1038.442	14.0335
1038.803	-10.02447
1039.165	-17.04319
1039.526	11.02667
1039.887	-14.03404
1040.248	32.08049
1040.609	-32.07962
1040.97	51.12645
1041.331	-26.06624
1041.692	19.04512
1042.053	-6.01379
1042.413	-3.00703
1042.774	8.01954
1043.134	-1.00237
1043.495	11.02773
1043.855	-7.01711
1044.215	-48.12008
1044.576	31.07537
1044.936	8.01821
1045.296	28.06979
1045.656	22.05424
1046.016	5.01217
1046.375	34.08379
1046.735	12.02792
1047.095	46.10846
1047.454	8.01697
1047.814	-53.12828
1048.173	32.07562
1048.533	39.09007
1048.892	0
1049.251	-9.02268
1049.61	12.02988
1049.969	-30.07128
1050.328	-10.02204
1050.687	-2.00493
1051.046	-14.03439
1051.405	-16.04027
1051.763	-13.03048
1052.122	53.1339
1052.48	-42.10404
1052.839	-36.08646
1053.197	-36.08544
1053.555	-40.0906
1053.914	-21.05211
1054.272	29.06974
1054.63	6.01497
1054.988	-28.0675
1055.345	49.1068
1055.703	-31.07489
1056.061	-50.13074
1056.419	-20.05238
1056.776	-24.05843
1057.134	11.02586
1057.491	-18.04547
1057.848	16.04004
1058.206	-8.01911
1058.563	7.01575
1058.92	-45.10546
1059.277	-35.08675
1059.634	31.0737
1059.991	-48.11519
1060.348	18.04188
1060.704	-44.10736
1061.061	-56.1289
1061.418	23.05657
1061.774	19.04732
1062.131	-34.09101
1062.487	-19.04496
1062.843	18.04516
1063.199	0
1063.555	-5.01173
1063.911	6.01534
1064.267	41.08553
1064.623	-19.04708
1064.979	-20.04701
1065.335	-45.10723
1065.691	-50.12045
1066.046	-17.03768
1066.402	28.06471
1066.757	-40.10144
1067.112	-35.08567
1067.468	1.0024
1067.823	-21.05127
1068.178	-14.0341
1068.533	25.06044
1068.888	35.0842
1069.243	15.03727
1069.598	15.03691
1069.952	1.00232
1070.307	21.05277
1070.662	3.00727
1071.016	4.00921
1071.371	-37.08593
1071.725	-1.0024
1072.079	-23.0555
1072.434	-24.05937
1072.788	36.08735
1073.142	-21.05209
1073.496	44.10736
1073.85	-18.04216
1074.203	-57.13905
1074.557	10.02679
1074.911	-49.11815
1075.265	8.01872
1075.618	42.10263
1075.971	1.00241
1076.325	31.07946
1076.678	34.0801
1077.031	58.13286
1077.385	31.06937
1077.738	23.05337
1078.091	-13.03068
1078.444	9.02117
1078.796	-30.0747
1079.149	-23.05761
1079.502	29.06969
1079.855	-6.0143
1080.207	7.01724
1080.56	-3.00788
1080.912	13.03194
1081.264	7.01703
1081.617	0
1081.969	43.1098
1082.321	17.04218
1082.673	-11.02603
1083.025	-51.1226
1083.377	-234.5317
1083.728	-22.05211
1084.08	-5.0127
1084.432	1.00246
1084.783	-23.05403
1085.135	-17.04326
1085.486	1.00235
1085.838	9.02236
1086.189	20.04902
1086.54	14.03337
1086.891	1.00258
1087.242	-10.02457
1087.593	-65.15898
1087.944	36.08316
1088.295	19.04306
1088.646	-21.05161
1088.996	-18.04446
1089.347	-5.01239
1089.698	10.02431
1090.048	-4.01042
1090.398	-26.06121
1090.749	8.01919
1091.099	-38.09763
1091.449	-35.08795
1091.799	44.11122
1092.149	2.00504
1092.499	-54.13284
1092.849	0
1093.199	2.00499
1093.548	-4.00969
1093.898	37.09365
1094.248	-28.07221
1094.597	-46.12085
1094.947	12.03211
1095.296	-32.0806
1095.645	-60.1579
1095.994	33.08032
1096.343	-24.06106
1096.692	42.11168
1097.041	28.07645
1097.39	4.01008
1097.739	-8.02077
1098.088	-14.03772
1098.437	3.00797
1098.785	39.10558
1099.134	-4.01066
1099.482	-2.00551
1099.83	-37.09726
1100.179	-35.09274
1100.527	28.07495
1100.875	-25.06698
1101.223	-15.03991
1101.571	8.02232
1101.919	-26.06944
1102.267	-8.02264
1102.615	-13.04192
1102.962	-6.01932
1103.31	-4.01289
1103.658	-4.01288
