Data from N2 R1 sample 11_Subt2__0__13-31-30-959.txt Node

Date: Wed Aug 27 13:31:30 PDT 2025
User: uwsun
Spectrometer: HDX01956
Trigger mode: 0
Integration Time (sec): 5.000000E-1
Scans to average: 1
Nonlinearity correction enabled: true
Boxcar width: 0
Storing dark spectrum: false
XAxis mode: Wavelengths
Number of Pixels in Spectrum: 2068
>>>>>Begin Spectral Data<<<<<
194.03	89.25638
194.578	121.38934
195.127	112.35599
195.676	106.33806
196.225	106.28644
196.773	111.3114
197.321	143.39895
197.87	201.52131
198.418	195.51166
198.966	236.62101
199.513	245.62245
200.061	259.66615
200.609	195.51824
201.156	201.45441
201.704	243.62413
202.251	204.54459
202.798	299.78261
203.345	203.51046
203.892	204.51986
204.438	266.64146
204.985	228.55129
205.532	242.63894
206.078	264.65558
206.624	251.62819
207.17	203.4826
207.716	294.7258
208.262	201.40921
208.808	247.61929
209.354	251.62228
209.899	234.59335
210.445	245.61494
210.99	229.56131
211.535	243.57946
212.08	243.57768
212.625	246.61823
213.17	198.50261
213.715	222.51077
214.259	188.446
214.804	232.5797
215.348	213.4974
215.892	212.51512
216.436	242.56389
216.98	195.443
217.524	165.3992
218.068	219.54989
218.612	221.56307
219.155	175.421
219.698	184.44374
220.242	199.49644
220.785	168.40086
221.328	190.48008
221.871	205.51419
222.414	220.5529
222.956	181.44466
223.499	197.45316
224.041	263.62161
224.583	170.37295
225.126	237.53382
225.668	241.59313
226.21	213.53867
226.751	177.40162
227.293	189.4391
227.835	191.47061
228.376	255.595
228.918	189.48053
229.459	215.54353
230	171.41044
230.541	211.49698
231.082	213.52461
231.622	272.63803
232.163	207.50984
232.704	223.55973
233.244	159.39566
233.784	194.47615
234.324	251.5598
234.864	148.34514
235.404	162.38906
235.944	226.53676
236.484	189.47116
237.023	229.54859
237.563	201.47306
238.102	165.39061
238.641	215.54295
239.18	134.3239
239.719	219.55404
240.258	177.4057
240.797	217.52914
241.335	224.54916
241.874	194.38858
242.412	214.51744
242.95	208.50843
243.488	243.56544
244.026	197.4604
244.564	222.46257
245.102	260.5958
245.64	240.58139
246.177	182.41473
246.715	179.43258
247.252	201.46532
247.789	156.29814
248.326	213.52326
248.863	199.44695
249.4	182.4159
249.936	228.48521
250.473	205.48567
251.009	235.54898
251.546	268.60352
252.082	171.38012
252.618	257.58289
253.154	202.49101
253.69	230.52748
254.226	194.4613
254.761	236.53777
255.297	281.62566
255.832	194.46183
256.367	263.62594
256.903	238.53158
257.438	236.551
257.972	233.53233
258.507	239.56118
259.042	199.43482
259.576	213.47093
260.111	216.50351
260.645	211.46085
261.179	213.50013
261.713	226.51124
262.247	246.57095
262.781	188.40166
263.315	192.47263
263.849	235.58985
264.382	197.45642
264.915	272.64624
265.449	244.60283
265.982	247.56408
266.515	223.54701
267.048	131.28419
267.58	210.46148
268.113	262.57429
268.646	241.59793
269.178	265.60518
269.71	215.46879
270.243	240.55063
270.775	223.57017
271.307	228.54713
271.838	247.58177
272.37	228.56083
272.902	228.52478
273.433	208.464
273.965	260.63031
274.496	242.59592
275.027	306.75431
275.558	227.55435
276.089	275.68128
276.62	272.68331
277.15	247.60856
277.681	227.50041
278.211	289.70336
278.741	261.58403
279.272	257.59164
279.802	269.67055
280.332	240.57395
280.861	288.68951
281.391	285.64823
281.921	214.51256
282.45	280.69733
282.98	251.64984
283.509	268.60821
284.038	283.64368
284.567	263.6069
285.096	265.63627
285.625	267.60139
286.153	270.63432
286.682	274.63518
287.21	269.64489
287.739	295.69372
288.267	256.62131
288.795	309.79886
289.323	252.59204
289.851	259.60148
290.378	271.61838
290.906	289.70546
291.433	229.57024
291.961	315.71732
292.488	261.63926
293.015	307.71659
293.542	270.68267
294.069	300.73626
294.596	297.72337
295.122	323.76133
295.649	262.57647
296.175	328.78794
296.702	300.71769
297.228	271.65216
297.754	298.66667
298.28	296.6742
298.806	255.60597
299.332	322.71798
299.857	257.58195
300.383	292.72272
300.908	304.74221
301.433	309.73935
301.958	383.87636
302.483	360.88607
303.008	274.66025
303.533	351.89482
304.058	295.68209
304.582	358.84167
305.107	311.79901
305.631	336.75229
306.155	324.75225
306.679	362.8358
307.203	334.76595
307.727	402.93698
308.251	282.68081
308.775	305.71835
309.298	367.8687
309.822	332.81808
310.345	313.72887
310.868	350.8171
311.391	325.77614
311.914	387.95022
312.437	367.80932
312.96	328.76033
313.482	385.88836
314.005	371.91465
314.527	360.91468
315.049	334.82119
315.571	355.77992
316.093	372.89157
316.615	364.85077
317.137	361.76873
317.659	344.80309
318.18	338.79157
318.702	459.0338
319.223	412.82522
319.744	407.89113
320.265	383.90025
320.786	487.14869
321.307	452.07651
321.828	418.90575
322.348	405.91103
322.869	440.00405
323.389	614.96984
323.909	449.99177
324.43	437.99345
324.95	455.99956
325.47	474.10868
325.989	459.02579
326.509	491.04088
327.029	472.0186
327.548	450.96842
328.067	512.17006
328.587	464.07337
329.106	513.11836
329.625	494.20362
330.144	490.05707
330.662	482.0611
331.181	477.04414
331.7	492.07409
332.218	542.09387
332.736	546.17054
333.255	535.16492
333.773	545.18472
334.291	540.22671
334.808	544.11853
335.326	591.22106
335.844	627.33433
336.361	594.37402
336.879	615.32293
337.396	657.42307
337.913	664.40306
338.43	660.33062
338.947	649.39676
339.464	629.23926
339.981	647.38171
340.497	637.41019
341.014	643.41521
341.53	604.23708
342.046	688.4925
342.562	685.50018
343.078	642.35533
343.594	666.42264
344.11	675.41419
344.626	715.57711
345.141	688.37127
345.657	688.34331
346.172	711.51199
346.687	763.52555
347.202	759.49722
347.717	740.52902
348.232	842.80436
348.747	768.53237
349.261	770.45537
349.776	781.59113
350.29	810.7268
350.805	825.7531
351.319	762.52952
351.833	836.6289
352.347	823.64718
352.861	803.61378
353.374	816.57934
353.888	813.6324
354.401	831.63179
354.915	912.74695
355.428	898.85995
355.941	831.63026
356.454	866.5941
356.967	819.62255
357.48	826.58044
357.993	925.86691
358.505	961.93079
359.018	1017.01661
359.53	917.78569
360.042	883.61531
360.554	932.81536
361.066	970.93325
361.578	957.67984
362.09	907.77371
362.602	983.7139
363.113	965.80024
363.625	1000.77432
364.136	1016.76371
364.647	974.81035
365.158	1033.90457
365.669	1082.03893
366.18	999.86104
366.691	1027.76737
367.201	1065.9725
367.712	1128.98972
368.222	1035.82948
368.733	1053.75461
369.243	1137.9024
369.753	1083.89079
370.263	1135.08862
370.773	1204.26619
371.282	1138.03738
371.792	1213.05988
372.301	1252.23771
372.811	1249.40089
373.32	1342.01798
373.829	1280.13183
374.338	1403.11622
374.847	1407.19171
375.356	1432.26898
375.865	1497.02586
376.373	1519.17541
376.882	1584.56187
377.39	1614.42585
377.898	1724.601
378.407	1836.36647
378.915	1749.06444
379.423	1850.38335
379.93	1977.26839
380.438	2072.55477
380.946	2123.35701
381.453	2231.50118
381.96	2354.35824
382.468	2613.28476
382.975	2667.3725
383.482	2705.0859
383.989	2728.60389
384.495	2842.04342
385.002	3121.41713
385.509	3248.735
386.015	3352.91832
386.521	3582.12965
387.028	3700.02061
387.534	3813.63928
388.04	3955.94336
388.546	4046.57289
389.051	4409.14772
389.557	4824.11037
390.063	4871.80922
390.568	5161.03455
391.073	5325.58877
391.578	5412.67381
392.084	5726.43673
392.589	6176.41511
393.093	6748.87521
393.598	7170.46145
394.103	7734.63312
394.607	8420.74673
395.112	9099.22205
395.616	9567.02364
396.12	10377.59723
396.624	11610.09907
397.128	12684.61364
397.632	13811.71247
398.136	15185.74344
398.639	16625.32846
399.143	19097.66052
399.646	21172.30126
400.15	23196.56305
400.653	26325.85153
401.156	29671.25709
401.659	34713.29516
402.162	44931.45237
402.664	45955.01112
403.167	32260.27245
403.67	3851.94142
404.172	0
404.674	0
405.176	0
405.678	0
406.18	0
406.682	0
407.184	0
407.686	12367.42319
408.187	34596.90747
408.688	44563.94194
409.19	48906.19284
409.691	51236.67962
410.192	47553.23923
410.693	42565.0293
411.194	40501.23207
411.694	38017.37176
412.195	34897.89444
412.696	32793.17691
413.196	31827.72634
413.696	32069.9874
414.196	31585.19095
414.696	29647.58549
415.196	27158.65663
415.696	22165.50949
416.196	17905.35342
416.695	15327.96154
417.195	14247.27845
417.694	13629.84526
418.194	12652.18714
418.693	11908.21797
419.192	11819.21785
419.691	11437.16845
420.19	11156.88552
420.688	10582.89355
421.187	9910.4238
421.685	9027.44687
422.184	8158.05912
422.682	7094.44507
423.18	6420.59353
423.678	5824.42656
424.176	5386.47997
424.674	5117.6125
425.172	4766.05618
425.669	4366.60883
426.167	4081.64508
426.664	3700.88974
427.161	3389.27997
427.659	3113.82623
428.156	3060.22904
428.652	2831.35477
429.149	2824.13419
429.646	2545.86987
430.143	2436.2402
430.639	2311.22522
431.135	2121.47233
431.632	2091.22412
432.128	1901.2363
432.624	1965.6213
433.12	1864.13527
433.616	1768.01154
434.111	1786.36262
434.607	1647.28283
435.103	1578.893
435.598	1476.74675
436.093	1432.07035
436.588	1326.87159
437.083	1292.92457
437.578	1236.82281
438.073	1221.11913
438.568	1127.94006
439.062	1115.64467
439.557	1028.73577
440.051	1080.7649
440.546	1022.71534
441.04	1012.79752
441.534	952.80353
442.028	947.68829
442.522	936.69484
443.015	983.60891
443.509	965.80024
444.002	861.63602
444.496	854.42474
444.989	871.64382
445.482	867.6746
445.975	780.40679
446.468	837.42575
446.961	806.32383
447.454	847.51973
447.947	726.37609
448.439	726.41963
448.931	708.2682
449.424	750.51371
449.916	739.43793
450.408	720.29769
450.9	634.24942
451.392	668.37885
451.884	631.19309
452.375	634.29628
452.867	626.14465
453.358	607.14427
453.849	636.11907
454.341	568.05619
454.832	612.0942
455.323	584.20253
455.814	609.15873
456.304	597.14798
456.795	597.15515
457.285	543.01587
457.776	533.01337
458.266	557.13115
458.756	568.16848
459.247	503.03803
459.737	561.16054
460.226	547.0557
460.716	511.05268
461.206	508.05752
461.695	500.09112
462.185	510.04897
462.674	476.95694
463.163	476.9318
463.653	494.91264
464.142	432.92409
464.63	436.93668
465.119	473.96383
465.608	464.95431
466.096	437.8593
466.585	448.92306
467.073	406.86961
467.561	403.86971
468.05	406.84969
468.538	408.89916
469.026	357.77111
469.513	379.72523
470.001	491.02184
470.489	407.89301
470.976	338.70802
471.463	369.83687
471.951	310.70722
472.438	339.73631
472.925	330.72729
473.412	317.71574
473.899	314.66996
474.385	359.8132
474.872	271.59339
475.359	318.73015
475.845	329.64632
476.331	305.62603
476.817	279.63407
477.303	237.52398
477.789	258.58765
478.275	276.64513
478.761	286.65432
479.247	270.56884
479.732	260.61607
480.218	225.55151
480.703	204.48339
481.188	161.3333
481.673	197.43537
482.158	244.5118
482.643	192.46862
483.128	236.52406
483.612	214.48133
484.097	232.54357
484.581	176.39181
485.066	198.46664
485.55	186.39825
486.034	205.43408
486.518	162.36632
487.002	191.4607
487.486	181.4308
487.969	141.33637
488.453	158.38406
488.936	139.30938
489.42	168.36639
489.903	164.397
490.386	146.2433
490.869	126.27036
491.352	80.19045
491.835	147.30037
492.318	166.37169
492.8	153.32057
493.283	153.37754
493.765	144.34807
494.247	142.32515
494.73	79.17335
495.212	65.15364
495.694	68.15933
496.175	85.20123
496.657	158.36498
497.139	77.13757
497.62	103.24431
498.102	105.26043
498.583	121.29924
499.064	41.09126
499.545	118.26715
500.026	98.22016
500.507	138.31713
500.988	73.18001
501.469	64.15987
501.949	40.09763
502.43	104.24692
502.91	60.1268
503.39	63.15598
503.87	90.21121
504.35	65.15191
504.83	32.07139
505.31	31.0752
505.79	116.27615
506.269	67.15573
506.749	36.08293
507.228	48.11322
507.707	34.07572
508.187	95.22342
508.666	-16.03932
509.145	57.13353
509.623	56.13296
510.102	42.10171
510.581	-4.0096
511.059	68.17054
511.538	13.03331
512.016	56.13531
512.494	73.17835
512.972	8.01902
513.45	30.07065
513.928	73.17735
514.406	36.08853
514.884	59.15076
515.361	-6.01434
515.839	21.04858
516.316	38.0921
516.793	50.12612
517.27	34.08215
517.747	39.1006
518.224	21.04869
518.701	14.0317
519.178	40.09898
519.654	1.00239
520.131	42.10358
520.607	5.01237
521.083	11.02553
521.56	-5.01188
522.036	2.00447
522.512	-4.00981
522.987	5.01203
523.463	16.03843
523.939	-12.02936
524.414	38.08838
524.89	31.07455
525.365	-58.13361
525.84	-3.00723
526.315	-14.03422
526.79	10.02265
527.265	39.09029
527.74	-8.01955
528.215	28.06783
528.689	-30.06787
529.164	13.02889
529.638	-6.01548
530.112	-5.01197
530.587	15.03314
531.061	13.0318
531.534	7.0172
532.008	0
532.482	-30.06944
532.956	0
533.429	18.04346
533.903	4.0089
534.376	20.04534
534.849	-69.16234
535.322	34.08072
535.795	-38.09348
536.268	31.07509
536.741	-20.04818
537.213	10.02325
537.686	-7.01717
538.158	17.03893
538.631	-23.05567
539.103	-32.07419
539.575	25.05254
540.047	9.02024
540.519	-3.00716
540.991	-7.01704
541.463	-15.03654
541.934	5.01147
542.406	-33.07909
542.877	-58.13244
543.348	-94.22567
543.82	18.04387
544.291	-13.03023
544.762	57.1351
545.233	19.04732
545.703	2.00449
546.174	52.12084
546.645	19.04583
547.115	65.15649
547.585	-17.03908
548.056	-6.01449
548.526	91.21201
548.996	67.15868
549.466	82.19581
549.935	75.177
550.405	55.12084
550.875	101.23531
551.344	69.16297
551.814	116.26284
552.283	134.28368
552.752	146.32839
553.221	107.23064
553.69	173.36953
554.159	148.35476
554.628	169.37162
555.096	193.46904
555.565	200.43969
556.033	151.34513
556.502	199.4669
556.97	152.32559
557.438	183.41692
557.906	187.42844
558.374	215.47654
558.842	208.48028
559.31	222.48149
559.777	226.52641
560.245	228.50609
560.712	274.59983
561.18	277.58705
561.647	317.66447
562.114	382.82775
562.581	331.75405
563.048	373.80291
563.514	381.87178
563.981	367.78626
564.448	427.87762
564.914	408.86597
565.381	440.91025
565.847	468.9907
566.313	517.09515
566.779	548.11917
567.245	488.02032
567.711	567.21641
568.176	527.05356
568.642	572.27061
569.108	645.38517
569.573	616.26056
570.038	676.22444
570.504	742.42358
570.969	731.53839
571.434	704.30964
571.899	764.54271
572.363	788.49309
572.828	790.48378
573.293	838.60808
573.757	839.58564
574.222	846.57123
574.686	837.56104
575.15	903.76671
575.614	878.65665
576.078	882.67964
576.542	881.62299
577.006	880.60617
577.469	824.64121
577.933	894.63671
578.396	835.63118
578.86	857.65447
579.323	837.66597
579.786	835.46595
580.249	761.45413
580.712	782.58271
581.175	767.59442
581.637	715.37598
582.1	702.27164
582.563	737.31856
583.025	698.44343
583.487	700.21139
583.95	660.22642
584.412	620.10853
584.874	577.23044
585.336	571.18864
585.797	594.11231
586.259	514.07004
586.721	554.14936
587.182	531.0812
587.643	461.92486
588.105	424.88932
588.566	435.80824
589.027	448.9666
589.488	411.83788
589.949	428.93018
590.41	385.69113
590.87	362.73279
591.331	353.69445
591.791	315.6702
592.252	256.54195
592.712	302.65665
593.172	282.58732
593.632	291.57382
594.092	308.62662
594.552	255.50141
595.011	268.57207
595.471	281.5799
595.931	262.5379
596.39	251.56373
596.849	246.53194
597.308	171.34163
597.768	323.75955
598.227	257.56772
598.685	252.53092
599.144	257.56155
599.603	250.54891
600.062	287.5662
600.52	212.44507
600.978	238.52718
601.437	236.50092
601.895	227.44362
602.353	255.51773
602.811	280.579
603.269	245.53873
603.727	288.63473
604.184	269.56511
604.642	262.58687
605.099	319.6858
605.557	314.69725
606.014	288.57231
606.471	335.76532
606.928	297.58731
607.385	358.79592
607.842	371.77697
608.299	376.79249
608.755	313.68448
609.212	376.76392
609.668	390.78043
610.125	377.81152
610.581	378.78935
611.037	400.80823
611.493	331.707
611.949	353.76639
612.405	433.79692
612.861	396.82547
613.316	427.92228
613.772	392.79861
614.227	374.78377
614.683	417.79602
615.138	430.9039
615.593	436.91651
616.048	439.90025
616.503	385.83407
616.958	406.90524
617.412	389.83122
617.867	420.84786
618.321	470.87742
618.776	405.80313
619.23	397.83693
619.684	481.97167
620.138	382.78319
620.592	389.84561
621.046	388.81095
621.5	431.94247
621.954	386.78245
622.407	384.77234
622.861	365.81233
623.314	386.79246
623.768	386.81571
624.221	410.72902
624.674	340.71504
625.127	352.74647
625.58	276.57252
626.033	288.57926
626.485	312.69655
626.938	327.70874
627.39	285.61903
627.843	285.60717
628.295	295.62683
628.747	324.71197
629.199	239.51006
629.651	230.49926
630.103	247.53422
630.555	312.6255
631.006	249.54775
631.458	264.59013
631.909	228.48986
632.361	241.53394
632.812	187.41552
633.263	247.50149
633.714	257.52799
634.165	158.36338
634.616	189.42728
635.067	149.31413
635.518	170.38754
635.968	167.32357
636.419	142.29825
636.869	154.34667
637.319	241.54394
637.769	90.19687
638.219	183.41894
638.669	133.30644
639.119	116.27009
639.569	147.34342
640.019	137.30391
640.468	135.29386
640.918	115.26528
641.367	132.29069
641.816	115.24724
642.265	134.29782
642.714	93.20974
643.163	146.32381
643.612	83.1971
644.061	89.18549
644.51	125.27891
644.958	149.32227
645.406	147.34113
645.855	161.38585
646.303	148.3363
646.751	120.26847
647.199	128.28188
647.647	75.16984
648.095	98.22115
648.543	202.40647
648.99	112.26366
649.438	48.10987
649.885	97.23221
650.333	128.24759
650.78	135.31934
651.227	149.35451
651.674	150.33697
652.121	99.2379
652.568	135.32255
653.015	141.3478
653.461	103.24063
653.908	107.24388
654.354	139.32524
654.801	137.32169
655.247	51.11073
655.693	104.26382
656.139	132.31545
656.585	126.29915
657.031	130.30412
657.477	122.26483
657.922	137.31402
658.368	107.26277
658.813	125.28674
659.259	107.25458
659.704	87.20269
660.149	79.18492
660.594	109.25724
661.039	74.16829
661.484	75.17797
661.929	78.18119
662.373	94.2371
662.818	38.09455
663.262	102.2446
663.707	109.27233
664.151	66.15959
664.595	109.26481
665.039	54.13391
665.483	102.26049
665.927	67.1564
666.371	91.2151
666.814	81.19398
667.258	96.22845
667.701	129.27734
668.145	68.16919
668.588	114.27846
669.031	74.17671
669.474	82.19783
669.917	70.15558
670.36	62.15437
670.803	92.22238
671.245	55.12023
671.688	80.19366
672.13	77.17784
672.573	79.19944
673.015	56.13546
673.457	67.14974
673.899	63.15329
674.341	96.23126
674.783	81.19627
675.225	73.18166
675.666	67.16418
676.108	10.02205
676.549	48.11436
676.991	72.16241
677.432	148.30866
677.873	15.03555
678.314	34.08243
678.755	57.14133
679.196	89.20947
679.637	90.22107
680.078	50.11917
680.518	53.12479
680.959	63.15059
681.399	46.1152
681.839	74.18183
682.28	48.12077
682.72	57.13458
683.16	66.16648
683.6	77.17685
684.039	34.0727
684.479	49.12198
684.919	75.17886
685.358	40.10194
685.798	60.16013
686.237	31.07613
686.676	17.03967
687.115	50.11958
687.554	43.10455
687.993	69.15574
688.432	37.08664
688.871	49.11434
689.309	64.15598
689.748	63.13585
690.186	77.18616
690.625	56.13465
691.063	59.14495
691.501	70.17574
691.939	70.17827
692.377	10.02519
692.815	52.12721
693.253	34.08283
693.69	30.06814
694.128	76.1884
694.565	49.119
695.003	30.07713
695.44	48.11629
695.877	38.09151
696.314	31.06883
696.751	45.10393
697.188	19.04456
697.625	30.06963
698.061	94.22987
698.498	60.14732
698.934	58.14183
699.371	21.05089
699.807	68.16381
700.243	-6.01477
700.679	23.0535
701.115	30.07101
701.551	22.05276
701.987	47.10846
702.422	58.14088
702.858	70.17016
703.294	-9.02076
703.729	48.11886
704.164	31.07571
704.599	49.11146
705.035	34.07839
705.47	-9.02234
705.904	83.19816
706.339	27.06402
706.774	46.11073
707.209	73.17309
707.643	30.0735
708.078	6.01488
708.512	13.03329
708.946	29.07046
709.38	49.11869
709.814	53.12528
710.248	40.09978
710.682	17.0417
711.116	59.14597
711.549	80.20946
711.983	12.02868
712.416	37.08928
712.85	46.11682
713.283	5.01209
713.716	45.1132
714.149	35.08443
714.582	60.13866
715.015	54.13592
715.448	83.21081
715.881	10.02209
716.313	8.01896
716.746	25.06049
717.178	34.08373
717.61	10.0257
718.043	26.06572
718.475	-12.02973
718.907	14.03557
719.339	27.06362
719.77	5.01221
720.202	47.12064
720.634	33.08242
721.065	56.13613
721.497	48.12008
721.928	19.04795
722.359	37.09234
722.79	41.10099
723.221	-11.02816
723.652	90.23074
724.083	39.09115
724.514	53.12338
724.945	3.00726
725.375	39.09411
725.806	-37.09341
726.236	6.01549
726.666	37.09009
727.096	67.16794
727.526	43.11119
727.956	34.08032
728.386	65.16293
728.816	102.26461
729.246	24.05971
729.675	-33.08352
730.105	28.07045
730.534	59.14086
730.964	57.14503
731.393	69.17102
731.822	-8.02062
732.251	30.07772
732.68	27.06429
733.109	54.13679
733.537	37.09147
733.966	41.10333
734.395	31.07345
734.823	64.14696
735.251	9.02223
735.68	68.17115
736.108	94.24006
736.536	79.19099
736.964	43.10215
737.392	37.09408
737.82	10.02415
738.247	68.16616
738.675	37.08864
739.102	49.12587
739.53	31.08002
739.957	40.10377
740.384	60.1483
740.811	38.09735
741.238	28.06931
741.665	45.10657
742.092	79.19027
742.519	46.1169
742.945	17.04172
743.372	46.11591
743.798	68.17653
744.225	81.19649
744.651	73.18476
745.077	44.11126
745.503	76.18875
745.929	43.10533
746.355	36.08813
746.781	67.16782
747.207	34.08172
747.632	81.20105
748.058	22.05537
748.483	81.19087
748.908	50.12598
749.334	74.18498
749.759	75.18125
750.184	48.11642
750.609	30.07432
751.033	31.07316
751.458	75.16949
751.883	28.06951
752.307	51.12362
752.732	102.26031
753.156	82.20558
753.58	67.16039
754.005	84.21309
754.429	52.12489
754.853	96.24145
755.277	70.16633
755.7	50.12526
756.124	54.13596
756.548	87.21041
756.971	121.29649
757.394	54.14018
757.818	43.11215
758.241	85.21719
758.664	86.22118
759.087	93.2124
759.51	58.1452
759.933	19.0464
760.356	48.12323
760.778	118.29636
761.201	108.2642
761.623	74.1813
762.046	55.13066
762.468	120.28688
762.89	40.09862
763.312	81.19752
763.734	67.16351
764.156	103.25622
764.578	40.09325
765	105.2592
765.421	101.26323
765.843	101.2644
766.264	82.19679
766.686	77.19301
767.107	88.21655
767.528	76.19525
767.949	57.14498
768.37	105.26043
768.791	54.13235
769.212	108.27582
769.632	46.10997
770.053	60.15928
770.473	74.1817
770.894	78.19364
771.314	86.20395
771.734	118.27811
772.154	99.25465
772.575	53.12401
772.994	62.14362
773.414	75.18091
773.834	22.0551
774.254	148.36406
774.673	39.09592
775.093	40.0997
775.512	61.15367
775.931	90.22993
776.351	41.10321
776.77	85.21206
777.189	66.15923
777.607	-3.00774
778.026	19.04783
778.445	-29.07402
778.864	71.18097
779.282	80.19556
779.701	42.10707
780.119	66.16862
780.537	50.12702
780.955	62.15828
781.373	25.06248
781.791	-6.01385
782.209	29.06698
782.627	13.03451
783.045	1.00236
783.462	39.10007
783.88	53.13898
784.297	64.16345
784.715	21.05492
785.132	27.06626
785.549	42.10707
785.966	38.09626
786.383	9.02254
786.8	4.00937
787.217	29.06979
787.633	53.13519
788.05	16.03789
788.466	66.1567
788.883	5.01294
789.299	37.09006
789.715	63.15586
790.131	57.14354
790.547	28.06997
790.963	33.0831
791.379	8.02046
791.795	-17.03939
792.21	48.11432
792.626	-4.00963
793.041	43.10751
793.457	-20.0503
793.872	22.05229
794.287	59.14543
794.702	13.03223
795.117	47.11938
795.532	-2.00511
795.947	46.11132
796.362	-34.08191
796.776	4.00937
797.191	65.16175
797.605	-8.01948
798.02	14.0349
798.434	37.08334
798.848	4.01008
799.262	39.09864
799.676	66.16038
800.09	5.01234
800.504	38.09355
800.918	16.03799
801.331	10.02622
801.745	-22.05125
802.158	32.08112
802.572	-41.10035
802.985	45.1097
803.398	13.03158
803.811	27.06906
804.224	11.02757
804.637	12.02912
805.05	11.02608
805.462	69.17183
805.875	-6.01594
806.288	-8.01959
806.7	7.01785
807.112	30.07065
807.525	-22.0551
807.937	0
808.349	4.01006
808.761	2.00494
809.173	10.02465
809.584	-29.0719
809.996	20.0501
810.408	47.12287
810.819	24.05812
811.231	65.17201
811.642	14.035
812.053	44.10772
812.464	39.09461
812.875	-11.02875
813.286	-46.12024
813.697	-21.04873
814.108	1.00246
814.519	-11.02484
814.929	-36.09226
815.34	-6.01475
815.75	1.00258
816.16	-14.03533
816.571	30.07882
816.981	-30.07134
817.391	11.02703
817.801	4.01009
818.211	6.01441
818.62	-27.06702
819.03	41.10147
819.44	30.07831
819.849	12.0307
820.259	-46.11884
820.668	-12.03013
821.077	14.03557
821.486	40.09771
821.895	50.12277
822.304	35.09281
822.713	0
823.122	-14.0353
823.531	-40.09632
823.939	18.04444
824.348	20.04909
824.756	9.02276
825.164	-9.02275
825.573	-3.00766
825.981	-16.03972
826.389	21.05332
826.797	12.03074
827.205	10.02363
827.612	-6.01493
828.02	15.03611
828.428	3.0077
828.835	-5.01327
829.243	2.00481
829.65	-13.03284
830.057	-12.02933
830.464	-16.0395
830.871	-3.00721
831.278	17.0415
831.685	10.02277
832.092	29.07183
832.499	-17.0382
832.905	21.0534
833.312	11.02544
833.718	-5.01253
834.124	-54.12578
834.531	-21.05366
834.937	19.04896
835.343	46.11174
835.749	6.01414
836.155	9.02386
836.561	-30.07461
836.966	-19.04697
837.372	22.05666
837.777	8.02014
838.183	12.02722
838.588	40.10028
838.993	-3.00731
839.399	40.09992
839.804	-32.08017
840.209	26.06698
840.613	23.05204
841.018	-3.00769
841.423	2.00518
841.828	-20.0512
842.232	12.02973
842.637	7.01674
843.041	-23.06005
843.445	38.09606
843.849	-14.03528
844.253	-22.053
844.657	30.07656
845.061	-14.03225
845.465	2.00496
845.869	10.02361
846.272	-19.04751
846.676	-38.09161
847.079	40.10298
847.483	21.0523
847.886	13.03178
848.289	-7.01893
848.692	-34.08698
849.095	18.04371
849.498	-11.02781
849.901	19.04409
850.304	2.0048
850.707	11.02815
851.109	3.00757
851.512	22.05512
851.914	31.08046
852.316	4.01024
852.718	37.09844
853.121	16.03998
853.523	83.199
853.925	16.04235
854.326	37.09375
854.728	46.11888
855.13	-4.01044
855.531	6.01474
855.933	18.04369
856.334	-21.05319
856.736	64.14755
857.137	21.04979
857.538	35.08953
857.939	12.03039
858.34	20.04916
858.741	-35.09293
859.142	2.00484
859.542	20.05311
859.943	19.04819
860.343	30.07591
860.744	-5.01232
861.144	21.05165
861.544	54.13289
861.945	20.05158
862.345	18.04431
862.745	-23.05778
863.145	-1.00239
863.544	-8.0205
863.944	67.16039
864.344	3.00747
864.743	8.01987
865.143	54.13989
865.542	17.04026
865.941	4.00997
866.34	-25.06037
866.74	-24.06505
867.139	-7.01703
867.537	-14.03613
867.936	-23.05636
868.335	29.07392
868.734	-3.00777
869.132	-13.03074
869.531	-20.04816
869.929	32.07495
870.327	32.07819
870.726	-11.0275
871.124	-30.07079
871.522	-8.0205
871.92	24.05982
872.318	-9.02214
872.715	-6.0148
873.113	-14.03472
873.511	-56.13984
873.908	-28.07191
874.306	-19.04836
874.703	-18.04552
875.1	7.01786
875.497	38.09171
875.894	-12.03024
876.291	-35.08624
876.688	-24.06282
877.085	-12.0291
877.482	9.02278
877.878	21.05146
878.275	16.04088
878.671	-17.03771
879.068	-21.05142
879.464	21.05155
879.86	-35.08532
880.256	2.00496
880.652	0
881.048	5.01247
881.444	-9.02154
881.84	24.06166
882.236	0
882.631	-4.0099
883.027	-7.01696
883.422	5.013
883.817	23.05914
884.213	3.0078
884.608	26.06535
885.003	25.06165
885.398	-36.09217
885.793	43.10868
886.188	31.07849
886.582	32.08218
886.977	27.06488
887.371	-67.17042
887.766	-14.03548
888.16	36.09045
888.554	-43.10638
888.949	29.07266
889.343	20.04918
889.737	-39.10626
890.131	19.04816
890.525	12.03117
890.918	13.03312
891.312	-26.06287
891.706	-22.05821
892.099	5.01278
892.492	9.01957
892.886	32.07991
893.279	28.07249
893.672	-7.01811
894.065	29.07282
894.458	-2.00505
894.851	-11.0269
895.244	17.04402
895.637	11.02671
896.029	17.04232
896.422	17.04187
896.814	26.06579
897.206	-17.04139
897.599	29.07138
897.991	-12.02962
898.383	-25.0598
898.775	14.03204
899.167	-10.02403
899.559	-14.03553
899.951	51.1213
900.342	25.06404
900.734	-33.08444
901.125	41.10864
901.517	-24.05954
901.908	16.03835
902.299	55.13707
902.69	19.0454
903.082	2.00482
903.473	22.05378
903.863	-7.01792
904.254	-16.03764
904.645	-23.05715
905.036	-44.10959
905.426	26.06004
905.817	-3.00749
906.207	27.06565
906.597	-12.02864
906.987	-39.10109
907.378	0
907.768	14.0373
908.158	-18.04456
908.547	19.05009
908.937	-29.07457
909.327	-15.03681
909.717	-10.0254
910.106	47.11478
910.495	20.04991
910.885	18.04602
911.274	24.06054
911.663	25.0633
912.052	4.00988
912.441	29.07467
912.83	48.11194
913.219	9.02352
913.608	-29.07111
913.997	-9.02306
914.385	52.12522
914.774	-4.00986
915.162	13.03164
915.55	-11.02671
915.939	-30.0771
916.327	-37.09238
916.715	31.08063
917.103	67.16393
917.491	19.0473
917.878	21.05235
918.266	-7.01821
918.654	2.00515
919.041	-44.11665
919.429	-37.08851
919.816	-6.01537
920.203	4.00981
920.591	4.00995
920.978	16.03939
921.365	7.01851
921.752	-23.05558
922.139	-19.04192
922.525	34.0841
922.912	3.00736
923.299	46.11632
923.685	-27.07102
924.072	26.06028
924.458	-16.04027
924.844	26.06556
925.231	-24.05722
925.617	-4.01045
926.003	23.05894
926.389	-56.14347
926.774	8.02045
927.16	27.06748
927.546	-7.01812
927.931	71.17784
928.317	5.01167
928.702	-15.03573
929.088	47.11371
929.473	8.02057
929.858	-3.00749
930.243	7.01703
930.628	25.06201
931.013	-3.00753
931.398	-11.02524
931.783	-39.10272
932.167	-11.02704
932.552	6.01497
932.937	39.09666
933.321	28.07126
933.705	18.04561
934.09	13.03234
934.474	18.04321
934.858	-42.10959
935.242	-7.01644
935.626	-11.02858
936.009	18.04828
936.393	-34.0872
936.777	-50.12913
937.16	6.01579
937.544	-2.00471
937.927	-7.01793
938.311	-17.04189
938.694	17.04467
939.077	32.07773
939.46	0
939.843	23.04834
940.226	34.08796
940.609	9.02123
940.991	37.09508
941.374	18.04431
941.757	48.11925
942.139	-23.05255
942.522	-7.01659
942.904	-4.00968
943.286	14.03564
943.668	37.0966
944.05	20.05
944.432	47.11764
944.814	57.14195
945.196	45.11215
945.578	-10.0246
945.959	-13.031
946.341	16.03894
946.722	-22.05205
947.104	-21.05067
947.485	69.16278
947.866	11.02817
948.247	21.05351
948.628	8.01969
949.009	16.04144
949.39	-19.04759
949.771	21.04931
950.152	-16.03998
950.532	-8.02017
950.913	48.11755
951.293	28.07645
951.674	-13.03186
952.054	-10.02509
952.434	3.00749
952.814	-35.08312
953.194	-35.09144
953.574	4.00984
953.954	14.03373
954.334	-5.01259
954.714	-21.05226
955.093	-22.05398
955.473	-26.06605
955.853	5.01293
956.232	-18.04929
956.611	7.01677
956.99	-43.10848
957.37	-21.05402
957.749	3.00723
958.128	-23.05846
958.506	17.0445
958.885	-22.05626
959.264	28.06989
959.643	-6.014
960.021	-38.09537
960.4	-5.01149
960.778	-7.0172
961.156	26.06591
961.535	16.03759
961.913	38.08953
962.291	13.0339
962.669	-55.13975
963.047	3.00774
963.424	-12.03094
963.802	5.01238
964.18	17.04296
964.557	12.02807
964.935	-46.11035
965.312	26.06852
965.69	28.07037
966.067	0
966.444	-2.00496
966.821	-16.04128
967.198	-3.00726
967.575	-1.00246
967.952	-33.07788
968.329	-20.04933
968.705	14.03082
969.082	1.00262
969.458	-44.10816
969.835	-56.13745
970.211	12.03113
970.587	13.0325
970.963	-8.02068
971.339	-11.02903
971.715	-2.00504
972.091	25.06205
972.467	-6.01506
972.843	-11.02794
973.219	17.04068
973.594	-11.02918
973.97	20.04789
974.345	-19.04644
974.721	0
975.096	8.01965
975.471	-48.11366
975.846	31.07526
976.221	39.1006
976.596	27.06562
976.971	-21.05197
977.346	-2.0047
977.72	-36.09197
978.095	-33.08574
978.469	-30.07246
978.844	-19.04783
979.218	11.027
979.593	-29.06966
979.967	54.1324
980.341	-28.06615
980.715	-42.10696
981.089	11.02788
981.463	1.00234
981.837	4.00993
982.21	-62.14374
982.584	1.00246
982.957	9.02273
983.331	29.06879
983.704	5.01249
984.078	-16.03984
984.451	-27.06677
984.824	4.01
985.197	-7.0172
985.57	19.04783
985.943	11.027
986.316	13.03202
986.688	-16.03901
987.061	31.0735
987.434	-22.05766
987.806	-12.02919
988.179	21.05071
988.551	32.08149
988.923	-26.06422
989.295	41.10277
989.667	8.01974
990.039	25.06244
990.411	-15.03513
990.783	-20.04605
991.155	8.01977
991.527	-22.05374
991.898	-36.09103
992.27	-19.04807
992.641	-4.0101
993.012	2.00476
993.384	6.01451
993.755	0
994.126	-5.01215
994.497	8.02003
994.868	-40.0935
995.239	-14.03441
995.61	18.04597
995.98	-21.05222
996.351	-1.00253
996.722	-7.01663
997.092	-73.17748
997.462	5.01205
997.833	-34.08113
998.203	-10.02443
998.573	-5.01257
998.943	22.05241
999.313	-61.14809
999.683	-19.04623
1000.053	-20.04662
1000.423	6.01461
1000.792	26.06826
1001.162	9.02237
1001.531	-3.00748
1001.901	-22.05539
1002.27	53.11973
1002.639	20.05137
1003.009	-51.12427
1003.378	-59.15293
1003.747	-14.03364
1004.116	-12.02926
1004.485	-53.12813
1004.853	15.03807
1005.222	-2.0051
1005.591	28.06689
1005.959	23.05386
1006.328	-44.10225
1006.696	-45.11023
1007.064	41.10395
1007.433	-16.04005
1007.801	-33.08104
1008.169	17.04348
1008.537	-29.06481
1008.905	-33.07888
1009.273	39.09659
1009.64	2.00488
1010.008	-13.0315
1010.375	-45.10789
1010.743	44.10176
1011.11	43.10278
1011.478	-15.03729
1011.845	-13.0309
1012.212	7.01623
1012.579	-8.01983
1012.946	24.05757
1013.313	-18.04287
1013.68	-3.0068
1014.047	14.0343
1014.414	3.0072
1014.78	-14.0351
1015.147	14.03382
1015.513	38.09206
1015.88	40.1018
1016.246	19.04701
1016.612	27.06233
1016.978	18.04462
1017.344	-37.09281
1017.71	12.02886
1018.076	27.06365
1018.442	19.04889
1018.808	-1.00253
1019.174	17.04316
1019.539	20.04567
1019.905	-36.0863
1020.27	8.02
1020.636	0
1021.001	13.03163
1021.366	-20.04843
1021.731	-9.02334
1022.096	-56.14322
1022.461	-20.04739
1022.826	-1.00242
1023.191	22.0578
1023.556	17.04023
1023.92	-11.02711
1024.285	-13.03193
1024.649	-14.0345
1025.014	-26.06478
1025.378	38.09633
1025.742	40.09967
1026.107	26.05913
1026.471	19.04421
1026.835	-18.04478
1027.199	2.0049
1027.562	44.10346
1027.926	-29.07138
1028.29	2.00517
1028.654	27.0629
1029.017	14.03439
1029.381	44.10756
1029.744	20.05158
1030.107	-10.02363
1030.471	12.02891
1030.834	55.12495
1031.197	-23.05546
1031.56	-4.0095
1031.923	-17.04435
1032.286	-16.03748
1032.648	42.10106
1033.011	20.0471
1033.374	-16.0377
1033.736	18.04798
1034.099	38.09375
1034.461	41.10543
1034.823	-3.00757
1035.185	35.08858
1035.548	12.02952
1035.91	40.09691
1036.272	22.05072
1036.634	-18.0441
1036.995	-25.05918
1037.357	-1.00246
1037.719	-7.01708
1038.08	-7.01658
1038.442	13.03111
1038.803	36.08735
1039.165	16.04042
1039.526	28.06768
1039.887	27.06515
1040.248	11.02777
1040.609	-19.04716
1040.97	71.1754
1041.331	-14.03559
1041.692	36.08521
1042.053	-1.0023
1042.413	10.02339
1042.774	-7.01715
1043.134	-26.06204
1043.495	8.02018
1043.855	5.01219
1044.215	-27.06729
1044.576	-4.00979
1044.936	-75.17356
1045.296	-18.04524
1045.656	32.07875
1046.016	18.04371
1046.375	69.16895
1046.735	10.02328
1047.095	47.11079
1047.454	22.04651
1047.814	-50.12095
1048.173	-22.05254
1048.533	43.09923
1048.892	7.01722
1049.251	31.07756
1049.61	11.02739
1049.969	-37.08803
1050.328	38.08291
1050.687	23.05648
1051.046	-21.05165
1051.405	-7.01759
1051.763	-31.07293
1052.122	12.03054
1052.48	-18.04439
1052.839	6.01429
1053.197	-18.04257
1053.555	-37.08375
1053.914	6.01481
1054.272	-29.07051
1054.63	-1.0025
1054.988	-29.06993
1055.345	3.0066
1055.703	-21.05064
1056.061	22.05682
1056.419	0
1056.776	7.01694
1057.134	2.00471
1057.491	-17.04293
1057.848	-7.01759
1058.206	9.02143
1058.563	7.01575
1058.92	-28.0654
1059.277	-23.05688
1059.634	18.0429
1059.991	-3.00714
1060.348	23.05346
1060.704	-5.01211
1061.061	-21.048
1061.418	3.00741
1061.774	12.02992
1062.131	-34.09101
1062.487	-21.04972
1062.843	-4.01008
1063.199	-40.1005
1063.555	0
1063.911	32.08144
1064.267	53.11026
1064.623	-9.02226
1064.979	15.03502
1065.335	-9.0213
1065.691	-37.08891
1066.046	-8.0177
1066.402	-12.02795
1066.757	-2.00504
1067.112	-5.01217
1067.468	11.0264
1067.823	23.05569
1068.178	14.03392
1068.533	-22.05366
1068.888	13.03141
1069.243	-19.04751
1069.598	10.02463
1069.952	-8.01861
1070.307	17.04275
1070.662	-6.01456
1071.016	24.05502
1071.371	25.05735
1071.725	17.04071
1072.079	-30.07249
1072.434	17.04173
1072.788	46.1114
1073.142	46.1127
1073.496	69.16757
1073.85	-6.01402
1074.203	-4.00966
1074.557	5.0134
1074.911	-5.01196
1075.265	-16.03762
1075.618	-36.08924
1075.971	15.03606
1076.325	-10.02582
1076.678	32.07542
1077.031	-24.05588
1077.385	17.03815
1077.738	16.03718
1078.091	38.08879
1078.444	18.04228
1078.796	-12.02978
1079.149	-8.01998
1079.502	-27.06557
1079.855	35.08276
1080.207	-15.0371
1080.56	11.02883
1080.912	9.02213
1081.264	-31.07596
1081.617	27.06707
1081.969	9.02312
1082.321	22.05454
1082.673	19.0447
1083.025	-16.03821
1083.377	-214.48429
1083.728	8.01884
1084.08	42.10579
1084.432	52.12664
1084.783	-2.00468
1085.135	8.02027
1085.486	8.01879
1085.838	18.04465
1086.189	-13.03206
1086.54	-7.01675
1086.891	25.06415
1087.242	-14.03443
1087.593	-17.04121
1087.944	66.15155
1088.295	-39.08943
1088.646	-30.07385
1088.996	-4.00985
1089.347	-32.07968
1089.698	4.00973
1090.048	-2.00521
1090.398	12.02804
1090.749	-23.0555
1091.099	-32.08213
1091.449	5.01247
1091.799	16.04065
1092.149	6.01511
1092.499	-43.10556
1092.849	-4.01026
1093.199	-22.05514
1093.548	0
1093.898	17.04318
1094.248	-22.05668
1094.597	-10.02611
1094.947	7.01875
1095.296	56.13882
1095.645	28.07259
1095.994	23.05609
1096.343	4.01013
1096.692	-12.0322
1097.041	-13.03573
1097.39	-23.05825
1097.739	-55.14393
1098.088	1.00269
1098.437	-31.08283
1098.785	20.05431
1099.134	-1.00266
1099.482	-43.11915
1099.83	-7.01831
1100.179	-38.10074
1100.527	26.06962
1100.875	-14.03744
1101.223	-19.05058
1101.571	-9.02517
1101.919	-16.04266
1102.267	-17.04818
1102.615	-12.03869
1102.962	-5.0161
1103.31	-1.00322
1103.658	-2.00644
