Data from N2 R13 sample 12_Subt2__5__12-04-27-779.txt Node

Date: Tue Sep 02 12:04:27 PDT 2025
User: uwsun
Spectrometer: HDX01956
Trigger mode: 0
Integration Time (sec): 5.000000E-1
Scans to average: 1
Nonlinearity correction enabled: true
Boxcar width: 0
Storing dark spectrum: false
XAxis mode: Wavelengths
Number of Pixels in Spectrum: 2068
>>>>>Begin Spectral Data<<<<<
194.03	-113.32263
194.578	-114.36548
195.127	-116.36673
195.676	-116.36781
196.225	-58.15536
196.773	-86.239
197.321	-170.46889
197.87	-174.4442
198.418	-184.46476
198.966	-216.55179
199.513	-236.57793
200.061	-203.50201
200.609	-145.3744
201.156	-206.44183
201.704	-213.52481
202.251	-221.57317
202.798	-219.55759
203.345	-163.39377
203.892	-238.59038
204.438	-178.41673
204.985	-207.47788
205.532	-236.60922
206.078	-225.54373
206.624	-243.58722
207.17	-179.40698
207.716	-260.62344
208.262	-188.36697
208.808	-279.67674
209.354	-194.46023
209.899	-188.46671
210.445	-199.48127
210.99	-237.56104
211.535	-183.4218
212.08	-195.44569
212.625	-177.43258
213.17	-176.43533
213.715	-276.60778
214.259	-226.52101
214.804	-203.49353
215.348	-191.42987
215.892	-186.43717
216.436	-165.37515
216.98	-159.34551
217.524	-174.40178
218.068	-141.34499
218.612	-188.46449
219.155	-152.34861
219.698	-145.33648
220.242	-174.42612
220.785	-188.43289
221.328	-185.4528
221.871	-159.39523
222.414	-139.33807
222.956	-202.47773
223.499	-211.47098
224.041	-117.26624
224.583	-127.26986
225.126	-162.35121
225.668	-176.41914
226.21	-189.46602
226.751	-219.47427
227.293	-175.3945
227.835	-169.40332
228.376	-124.27994
228.918	-161.3983
229.459	-187.45531
230	-192.44968
230.541	-155.35028
231.082	-193.45971
231.622	-153.34562
232.163	-203.48334
232.704	-165.3986
233.244	-175.42419
233.784	-138.33029
234.324	-204.43962
234.864	-177.39395
235.404	-155.36083
235.944	-153.35477
236.484	-192.47107
237.023	-178.41134
237.563	-203.46117
238.102	-167.38569
238.641	-179.44218
239.18	-201.45996
239.719	-167.4086
240.258	-211.46923
240.797	-218.51257
241.335	-188.45115
241.874	-195.37078
242.412	-200.47062
242.95	-225.52707
243.488	-164.3654
244.026	-184.41403
244.564	-196.39822
245.102	-209.46112
245.64	-170.4005
246.177	-190.41788
246.715	-174.40817
247.252	-198.44717
247.789	-150.27889
248.326	-243.57212
248.863	-197.4228
249.4	-168.37229
249.936	-173.34804
250.473	-194.441
251.009	-211.47254
251.546	-183.39343
252.082	-211.45441
252.618	-206.44869
253.154	-190.44308
253.69	-161.35165
254.226	-211.49157
254.761	-177.38659
255.297	-248.53558
255.832	-230.53277
256.367	-207.47579
256.903	-170.36194
257.438	-191.43726
257.972	-165.35611
258.507	-239.5348
259.042	-208.44188
259.576	-245.51628
260.111	-187.42069
260.645	-201.42561
261.179	-214.48547
261.713	-157.33637
262.247	-198.44425
262.781	-214.43757
263.315	-191.45111
263.849	-220.53335
264.382	-206.46163
264.915	-243.5545
265.449	-248.58424
265.982	-217.48197
266.515	-160.37386
267.048	-168.34258
267.58	-203.43342
268.113	-257.54419
268.646	-233.55732
269.178	-268.58595
269.71	-178.37568
270.243	-220.48914
270.775	-209.51229
271.307	-189.43997
271.838	-140.31928
272.37	-213.50579
272.902	-161.35165
273.433	-223.47364
273.965	-231.54451
274.496	-193.46253
275.027	-197.46906
275.558	-227.53155
276.089	-253.59844
276.62	-197.48253
277.15	-202.4805
277.681	-212.44704
278.211	-217.51409
278.741	-238.50649
279.272	-239.52708
279.802	-186.44432
280.332	-218.49334
280.861	-234.54332
281.391	-220.47939
281.921	-203.46995
282.45	-198.47406
282.98	-236.5914
283.509	-193.41493
284.038	-226.49518
284.567	-204.4579
285.096	-196.45186
285.625	-202.43755
286.153	-254.57246
286.682	-229.50143
287.21	-265.61346
287.739	-254.57667
288.267	-259.60077
288.795	-223.55993
289.323	-274.614
289.851	-235.5265
290.378	-226.4843
290.906	-266.6137
291.433	-199.4689
291.961	-279.60626
292.488	-274.65325
293.015	-245.5471
293.542	-230.5492
294.069	-246.57276
294.596	-219.51362
295.122	-219.49328
295.649	-233.48884
296.175	-238.54802
296.702	-227.52133
297.228	-251.5806
297.754	-263.56176
298.28	-292.63221
298.806	-288.65783
299.332	-296.62279
299.857	-287.61568
300.383	-281.67673
300.908	-275.62599
301.433	-272.62154
301.958	-213.46207
302.483	-306.72057
303.008	-253.58871
303.533	-228.55565
304.058	-271.6044
304.582	-288.63819
305.107	-332.81628
305.631	-256.54977
306.155	-313.68592
306.679	-306.67044
307.203	-280.60675
307.727	-264.58355
308.251	-260.59747
308.775	-370.82669
309.298	-318.70877
309.822	-312.73612
310.345	-330.73307
310.868	-354.79454
311.391	-314.72212
311.914	-324.75344
312.437	-297.63163
312.96	-304.66128
313.482	-332.72985
314.005	-359.83892
314.527	-378.92247
315.049	-324.75879
315.571	-386.79497
316.093	-330.75071
316.615	-364.80892
317.137	-300.59449
317.659	-308.68535
318.18	-350.77846
318.702	-346.73503
319.223	-330.61664
319.744	-345.70206
320.265	-403.89056
320.786	-356.79115
321.307	-393.88803
321.828	-382.7839
322.348	-379.8039
322.869	-393.83068
323.389	-583.91206
323.909	-367.75363
324.43	-360.78075
324.95	-426.87379
325.47	-405.88189
325.989	-432.9049
326.509	-491.96503
327.029	-467.93171
327.548	-492.98044
328.067	-464.98137
328.587	-442.96876
329.106	-473.94411
329.625	-411.95173
330.144	-512.03464
330.662	-506.01781
331.181	-503.02269
331.7	-480.96987
332.218	-487.90443
332.736	-500.00433
333.255	-497.98603
333.773	-529.07028
334.291	-481.02275
334.808	-573.08799
335.326	-518.98382
335.844	-578.12286
336.361	-582.23119
336.879	-601.1679
337.396	-571.13694
337.913	-600.13963
338.43	-596.09957
338.947	-639.25841
339.464	-631.09779
339.981	-634.22131
340.497	-646.31011
341.014	-661.31096
341.53	-689.25534
342.046	-676.33732
342.562	-667.34752
343.078	-640.19272
343.594	-680.29628
344.11	-666.25233
344.626	-739.49114
345.141	-687.22071
345.657	-634.1138
346.172	-717.35404
346.687	-725.28905
347.202	-746.29052
347.717	-716.31287
348.232	-732.41314
348.747	-756.3252
349.261	-816.33361
349.776	-759.34825
350.29	-820.52738
350.805	-757.42204
351.319	-810.42381
351.833	-820.36934
352.347	-851.50035
352.861	-826.41868
353.374	-752.26511
353.888	-852.53537
354.401	-832.39324
354.915	-867.38607
355.428	-893.62789
355.941	-864.43595
356.454	-817.31107
356.967	-876.49518
357.48	-846.38125
357.993	-879.55549
358.505	-943.65607
359.018	-879.51681
359.53	-935.58208
360.042	-895.37099
360.554	-903.52943
361.066	-975.6678
361.578	-919.35492
362.09	-916.49594
362.602	-940.38308
363.113	-984.55113
363.625	-928.37034
364.136	-949.37298
364.647	-1109.70558
365.158	-954.44241
365.669	-979.54011
366.18	-1029.59958
366.691	-994.39628
367.201	-1057.65192
367.712	-1048.5063
368.222	-1087.57682
368.733	-1112.47651
369.243	-1126.51514
369.753	-1129.61699
370.263	-1093.59145
370.773	-1154.7622
371.282	-1155.62774
371.792	-1276.6573
372.301	-1273.78647
372.811	-1263.94853
373.32	-1330.4778
373.829	-1369.73001
374.338	-1443.67047
374.847	-1458.69129
375.356	-1478.72507
375.865	-1529.38888
376.373	-1556.51437
376.882	-1603.91743
377.39	-1628.71529
377.898	-1776.76572
378.407	-1800.42059
378.915	-1830.27537
379.423	-1904.45868
379.93	-1979.30728
380.438	-2161.45937
380.946	-2226.23974
381.453	-2368.23319
381.96	-2453.9637
382.468	-2741.76855
382.975	-2751.78649
383.482	-2831.40916
383.989	-2945.80122
384.495	-3004.16092
385.002	-3261.62645
385.509	-3411.75041
386.015	-3611.10754
386.521	-3763.21395
387.028	-3965.01091
387.534	-4023.78249
388.04	-4147.92759
388.546	-4534.69451
389.051	-4751.62261
389.557	-5112.74244
390.063	-5068.75834
390.568	-5489.02836
391.073	-5765.60559
391.578	-5949.84336
392.084	-6445.96254
392.589	-6799.95749
393.093	-7441.69974
393.598	-7790.51221
394.103	-8481.35937
394.607	-9246.67899
395.112	-9870.23134
395.616	-10585.92209
396.12	-11799.5496
396.624	-13175.64544
397.128	-14047.24665
397.632	-15467.54393
398.136	-16965.58668
398.639	-18973.58006
399.143	-21712.95062
399.646	-24170.51796
400.15	-26727.26851
400.653	-30106.43026
401.156	-34599.66427
401.659	-41005.06353
402.162	-39715.53174
402.664	-26902.56122
403.167	-3259.05644
403.67	0
404.172	0
404.674	0
405.176	0
405.678	0
406.18	0
406.682	0
407.184	0
407.686	0
408.187	0
408.688	-20475.23364
409.19	-29851.44897
409.691	-35397.2355
410.192	-39174.82288
410.693	-41116.72718
411.194	-41961.00536
411.694	-39533.83612
412.195	-36393.54514
412.696	-34100.40558
413.196	-33281.3927
413.696	-33194.88951
414.196	-32346.89705
414.696	-29900.00629
415.196	-26979.39228
415.696	-22035.81476
416.196	-18067.00081
416.695	-15718.72892
417.195	-14733.6332
417.694	-13918.34682
418.194	-12844.06054
418.693	-12615.70324
419.192	-12122.36412
419.691	-11967.73876
420.19	-11535.59653
420.688	-10847.58282
421.187	-10346.32874
421.685	-9387.0956
422.184	-8443.76479
422.682	-7251.39722
423.18	-6678.78827
423.678	-6159.61044
424.176	-5745.6314
424.674	-5354.06504
425.172	-4934.67333
425.669	-4646.74606
426.167	-4202.83341
426.664	-3900.00855
427.161	-3633.30116
427.659	-3420.85638
428.156	-3171.53528
428.652	-3070.48564
429.149	-2916.42316
429.646	-2794.353
430.143	-2613.82834
430.639	-2545.97457
431.135	-2405.27557
431.632	-2271.09813
432.128	-2177.38986
432.624	-2127.65713
433.12	-2147.27969
433.616	-2016.16552
434.111	-2110.58481
434.607	-1926.54905
435.103	-1764.2168
435.598	-1724.22712
436.093	-1624.56399
436.588	-1584.54771
437.083	-1508.55653
437.578	-1465.6265
438.073	-1542.96232
438.568	-1360.7785
439.062	-1361.4788
439.557	-1315.73221
440.051	-1298.61482
440.546	-1278.61076
441.04	-1242.70788
441.534	-1227.86944
442.028	-1130.60281
442.522	-1257.85796
443.015	-1156.49479
443.509	-1122.70193
444.002	-1102.66646
444.496	-1145.54245
444.989	-1134.77751
445.482	-1125.80151
445.975	-1143.61986
446.468	-1117.50243
446.961	-1100.48278
447.454	-1081.57871
447.947	-1099.69012
448.439	-1102.80802
448.931	-1085.59237
449.424	-1016.73399
449.916	-1010.64546
450.408	-1079.62614
450.9	-1026.67537
451.392	-1081.90113
451.884	-980.53326
452.375	-1039.78334
452.867	-927.44118
453.358	-1038.63007
453.849	-967.4009
454.341	-977.53076
454.832	-975.45457
455.323	-999.73731
455.814	-890.43147
456.304	-948.56393
456.795	-910.48114
457.285	-848.35058
457.776	-826.3613
458.266	-916.58209
458.756	-910.62259
459.247	-903.57074
459.737	-899.572
460.226	-886.46212
460.716	-894.59892
461.206	-865.56402
461.695	-838.59881
462.185	-820.46025
462.674	-746.28299
463.163	-783.30989
463.653	-802.27708
464.142	-827.53854
464.63	-764.44613
465.119	-772.37033
465.608	-769.36888
466.096	-716.207
466.585	-709.28337
467.073	-716.3571
467.561	-724.38632
468.05	-694.28077
468.538	-632.22621
469.026	-649.23318
469.513	-730.23935
470.001	-730.34263
470.489	-702.34412
470.976	-665.24646
471.463	-649.3237
471.951	-612.25576
472.438	-661.27738
472.925	-653.25406
473.412	-572.16299
473.899	-623.19692
474.385	-561.14343
474.872	-639.2525
475.359	-600.23054
475.845	-585.0149
476.331	-485.8792
476.817	-541.1176
477.303	-566.1199
477.789	-559.15226
478.275	-608.30477
478.761	-545.13242
479.247	-520.00517
479.732	-543.16334
480.218	-530.19716
480.703	-528.14211
481.188	-510.95164
481.673	-467.92478
482.158	-558.03447
482.643	-494.10982
483.128	-521.04299
483.612	-514.06386
484.097	-446.96476
484.581	-450.92718
485.066	-457.98073
485.55	-473.91914
486.034	-447.85536
486.518	-472.98431
487.002	-491.07122
487.486	-452.98483
487.969	-468.02246
488.453	-407.91965
488.936	-463.94346
489.42	-400.79488
489.903	-442.01065
490.386	-857.45364
490.869	-415.82411
491.352	-382.85068
491.835	-382.71806
492.318	-405.8294
492.8	-395.74524
493.283	-399.92029
493.765	-421.9474
494.247	-354.75694
494.73	-366.73784
495.212	-347.76875
495.694	-395.84404
496.175	-459.00171
496.657	-344.74669
497.139	-366.59793
497.62	-448.98315
498.102	-416.95433
498.583	-369.85349
499.064	-392.8066
499.545	-384.8129
500.026	-364.7527
500.507	-363.78004
500.988	-337.77144
501.469	-406.94481
501.949	-336.76869
502.43	-393.86592
502.91	-367.70566
503.39	-354.82611
503.87	-348.7557
504.35	-313.68563
504.83	-345.70174
505.31	-374.84493
505.79	-385.86038
506.269	-344.75146
506.749	-369.78713
507.228	-384.84415
507.707	-322.66287
508.187	-267.58932
508.666	-336.7656
509.145	-369.8076
509.623	-328.71742
510.102	-293.65805
510.581	-255.56966
511.059	-331.77108
511.538	-277.66457
512.016	-289.64187
512.494	-252.56563
512.972	-279.61786
513.45	-324.69639
513.928	-306.69049
514.406	-361.81174
514.884	-287.68463
515.361	-198.4331
515.839	-233.4884
516.316	-216.47686
516.793	-219.51161
517.27	-134.29534
517.747	-186.43563
518.224	-177.37529
518.701	-180.36721
519.178	-211.47876
519.654	-175.38303
520.131	-214.48803
520.607	-165.37561
521.083	-221.46714
521.56	-179.38798
522.036	-168.33899
522.512	-186.42418
522.987	-237.52026
523.463	-219.48237
523.939	-182.41204
524.414	-178.38013
524.89	-229.5063
525.365	-252.53442
525.84	-238.52345
526.315	-248.55757
526.79	-208.4361
527.265	-260.5574
527.74	-221.50084
528.215	-243.53635
528.689	-237.49108
529.164	-243.4972
529.638	-221.53044
530.112	-289.64267
530.587	-257.51488
531.061	-283.64264
531.534	-283.65071
532.008	-258.58243
532.482	-234.50556
532.956	-310.74698
533.429	-241.54883
533.903	-188.38859
534.376	-225.46726
534.849	-251.5496
535.322	-253.56379
535.795	-246.56666
536.268	-317.72741
536.741	-228.51534
537.213	-221.48065
537.686	-326.75779
538.158	-287.60983
538.631	-224.51331
539.103	-290.61795
539.575	-183.3578
540.047	-196.40385
540.519	-264.59986
540.991	-193.44272
541.463	-273.62822
541.934	-268.58298
542.406	-274.61905
542.877	-247.52782
543.348	-229.52192
543.82	-235.54467
544.291	-181.39583
544.762	-265.5942
545.233	-248.58469
545.703	-234.48692
546.174	-242.5309
546.645	-253.56566
547.115	-247.55908
547.585	-209.44952
548.056	-256.57603
548.526	-218.47523
548.996	-212.47468
549.466	-152.34217
549.935	-181.39231
550.405	-171.34322
550.875	-123.26376
551.344	-188.41522
551.814	-103.2139
552.283	-37.07183
552.752	-138.28985
553.221	-103.19995
553.69	-52.10242
554.159	-86.1878
554.628	-48.09441
555.096	-29.06476
555.565	24.04665
556.033	118.23985
556.502	134.27996
556.97	145.27651
557.438	262.5238
557.906	263.52983
558.374	255.49692
558.842	341.68064
559.31	413.75781
559.777	436.86117
560.245	620.14623
560.712	668.20008
561.18	706.18235
561.647	762.27919
562.114	855.42992
562.581	943.70711
563.048	1112.77606
563.514	1164.97056
563.981	1426.06031
564.448	1423.99927
564.914	1597.2505
565.381	1809.31129
565.847	1967.49309
566.313	2132.53343
566.779	2297.44162
567.245	2391.6165
567.711	2665.75138
568.176	2757.42028
568.642	2949.9815
569.108	3264.82092
569.573	3509.52703
570.038	3703.81819
570.504	4048.944
570.969	4194.58722
571.434	4530.54643
571.899	4896.83828
572.363	5149.43914
572.828	5553.29481
573.293	5770.20129
573.757	6145.098
574.222	6450.9011
574.686	6700.92882
575.15	7133.28143
575.614	7407.27577
576.078	7634.49715
576.542	7892.64755
577.006	8202.98608
577.469	8498.5705
577.933	8674.71847
578.396	8878.13288
578.86	8992.35305
579.323	9260.93771
579.786	9314.15418
580.249	9320.11011
580.712	9413.28614
581.175	9446.36333
581.637	9446.41135
582.1	9387.31439
582.563	9428.4559
583.025	9185.76559
583.487	9235.04268
583.95	9029.45776
584.412	9149.75952
584.874	9022.42605
585.336	8679.77744
585.797	8627.62303
586.259	8358.29082
586.721	8324.2254
587.182	7976.8303
587.643	7820.59198
588.105	7574.51864
588.566	7489.1252
589.027	7147.36618
589.488	6957.10706
589.949	6811.36097
590.41	6638.45923
590.87	6378.09087
591.331	6267.84306
591.791	6021.17974
592.252	5816.18021
592.712	5641.5702
593.172	5458.26327
593.632	5334.20461
594.092	5120.38425
594.552	4851.33601
595.011	4754.72084
595.471	4715.62358
595.931	4449.74816
596.39	4302.24418
596.849	4256.10899
597.308	4093.81968
597.768	3957.81637
598.227	3863.52878
598.685	3807.29365
599.144	3744.39516
599.603	3672.5093
600.062	3524.90262
600.52	3484.22487
600.978	3463.5916
601.437	3412.42195
601.895	3354.03393
602.353	3399.26025
602.811	3213.31177
603.269	3280.69541
603.727	3217.70898
604.184	3223.36308
604.642	3178.84481
605.099	3184.54555
605.557	3173.82625
606.014	3221.13629
606.471	3172.91963
606.928	3131.11741
607.385	3246.72884
607.842	3215.44154
608.299	3290.53789
608.755	3275.71156
609.212	3319.25072
609.668	3383.18424
610.125	3423.70368
610.581	3530.62653
611.037	3585.38597
611.493	3552.58764
611.949	3507.67064
612.405	3488.73313
612.861	3605.5674
613.316	3563.62474
613.772	3592.40596
614.227	3595.55066
614.683	3654.038
615.138	3628.49629
615.593	3591.48032
616.048	3579.43154
616.503	3536.87626
616.958	3494.98396
617.412	3493.64733
617.867	3416.28307
618.321	3461.98263
618.776	3405.34088
619.23	3283.69461
619.684	3325.50028
620.138	3317.67033
620.592	3132.94861
621.046	3111.78486
621.5	3001.97975
621.954	2922.61815
622.407	2840.57161
622.861	2794.00789
623.314	2825.69345
623.768	2662.80102
624.221	2655.07269
624.674	2549.75193
625.127	2473.8223
625.58	2466.73097
626.033	2425.58986
626.485	2245.87273
626.938	2263.8753
627.39	2218.76213
627.843	2220.74769
628.295	2047.68038
628.747	2090.81876
629.199	2037.61772
629.651	1943.571
630.103	1918.59468
630.555	1919.32193
631.006	1827.6446
631.458	1792.64303
631.909	1877.62417
632.361	1720.56583
632.812	1682.49943
633.263	1663.27176
633.714	1627.23464
634.165	1599.62017
634.616	1525.48559
635.067	1543.29661
635.518	1562.54287
635.968	1530.0035
636.419	1526.22552
636.869	1418.39911
637.319	1395.28606
637.769	1352.14979
638.219	1342.34056
638.669	1281.25645
639.119	1360.42536
639.569	1284.29865
640.019	1258.15901
640.468	1242.05015
640.918	1277.29948
641.367	1215.03457
641.816	1180.99023
642.265	1213.11293
642.714	1168.06033
643.163	1129.99923
643.612	1154.12845
644.061	1140.81584
644.51	1052.8784
644.958	1112.87408
645.406	1121.08641
645.855	1124.15852
646.303	1133.05483
646.751	1061.89111
647.199	1086.92734
647.647	1029.87734
648.095	1069.92304
648.543	1137.76427
648.99	990.90753
649.438	1068.99033
649.885	1035.06189
650.333	992.50194
650.78	1056.03248
651.227	1031.0141
651.674	969.78277
652.121	938.87719
652.568	987.94763
653.015	979.03385
653.461	922.80435
653.908	979.84982
654.354	948.8588
654.801	808.59961
655.247	908.63485
655.693	853.88869
656.139	850.71344
656.585	891.7818
657.031	817.60426
657.477	781.42332
657.922	818.58774
658.368	843.7642
658.813	855.67346
659.259	758.56485
659.704	729.4669
660.149	765.52814
660.594	782.58992
661.039	682.35614
661.484	776.59633
661.929	715.4552
662.373	687.52477
662.818	618.36837
663.262	655.39278
663.707	649.46242
664.151	650.40939
664.595	605.30474
665.039	617.37551
665.483	609.3923
665.927	585.23943
666.371	599.23651
666.814	617.31871
667.258	521.12094
667.701	599.15737
668.145	634.41316
668.588	572.27114
669.031	497.06968
669.474	523.15127
669.917	560.1225
670.36	510.16127
670.803	520.15064
671.245	472.91873
671.688	432.98626
672.13	467.96805
672.573	509.19183
673.015	466.03739
673.457	434.88175
673.899	476.06844
674.341	425.96149
674.783	442.98874
675.225	451.0323
675.666	378.85814
676.108	417.85011
676.549	426.94746
676.991	372.77785
677.432	387.72692
677.873	405.88338
678.314	379.8578
678.755	344.79868
679.196	373.81015
679.637	386.89439
680.078	343.76812
680.518	363.80687
680.959	362.82549
681.399	286.68498
681.839	338.78723
682.28	325.76842
682.72	337.73789
683.16	332.79149
683.6	323.70873
684.039	316.63411
684.479	306.72281
684.919	223.5027
685.358	339.82409
685.798	279.7073
686.237	282.66122
686.676	305.68416
687.115	297.67442
687.554	258.59643
687.993	276.59349
688.432	245.5471
688.871	261.57632
689.309	203.47703
689.748	259.52946
690.186	244.56989
690.625	235.53884
691.063	179.4244
691.501	241.58195
691.939	246.59794
692.377	212.50777
692.815	237.55387
693.253	234.55126
693.69	176.38416
694.128	155.3726
694.565	189.44534
695.003	196.48958
695.44	221.50979
695.877	176.40688
696.314	265.55646
696.751	228.51135
697.188	182.41389
697.625	205.46515
698.061	168.39948
698.498	196.4682
698.934	195.46341
699.371	179.41686
699.807	138.32587
700.243	179.42604
700.679	183.41102
701.115	195.45412
701.551	162.37943
701.987	186.41493
702.422	139.32919
702.858	133.31644
703.294	163.36775
703.729	162.39349
704.164	168.40101
704.599	176.38937
705.035	138.30874
705.47	140.33904
705.904	120.28007
706.339	165.38214
706.774	150.34995
707.209	127.29308
707.643	135.32366
708.078	163.39377
708.512	95.23812
708.946	172.40899
709.38	147.34719
709.814	153.34886
710.248	146.35436
710.682	123.29265
711.116	108.258
711.549	144.3693
711.983	91.21201
712.416	156.36723
712.85	129.32089
713.283	96.22863
713.716	153.38211
714.149	127.30309
714.582	147.32962
715.015	180.44587
715.448	150.37577
715.881	114.25147
716.313	100.23568
716.746	82.19469
717.178	85.20581
717.61	132.33366
718.043	100.25007
718.475	120.29104
718.907	165.41432
719.339	58.1334
719.77	82.19581
720.202	89.22597
720.634	113.27504
721.065	71.1701
721.497	111.2725
721.928	104.25583
722.359	47.11474
722.79	63.15243
723.221	89.22509
723.652	121.31178
724.083	93.21145
724.514	90.20857
724.945	73.17335
725.375	63.14788
725.806	91.22834
726.236	126.32201
726.666	71.1699
727.096	69.17089
727.526	88.22427
727.956	36.08336
728.386	88.21791
728.816	57.14549
729.246	69.16908
729.675	44.10963
730.105	107.26394
730.534	74.17495
730.964	125.31546
731.393	147.36354
731.822	120.30592
732.251	113.2866
732.68	95.22542
733.109	49.1222
733.537	64.1561
733.966	67.16776
734.395	46.10795
734.823	86.19605
735.251	20.04907
735.68	147.3662
736.108	72.18343
736.536	117.27645
736.964	33.07797
737.392	75.18894
737.82	90.2173
738.247	78.1884
738.675	129.3081
739.102	91.22801
739.53	33.08506
739.957	66.17086
740.384	133.32735
740.811	75.1913
741.238	58.14304
741.665	29.06847
742.092	125.29843
742.519	32.08028
742.945	62.15043
743.372	73.18199
743.798	75.19379
744.225	63.15139
744.651	70.17688
745.077	77.19315
745.503	93.22789
745.929	51.1239
746.355	107.26665
746.781	32.08046
747.207	18.04302
747.632	36.08892
748.058	70.17593
748.483	76.17668
748.908	32.08063
749.334	48.1193
749.759	56.13362
750.184	33.07981
750.609	98.24152
751.033	99.23518
751.458	71.16124
751.883	76.18957
752.307	31.07418
752.732	9.02285
753.156	44.10995
753.58	99.23609
754.005	77.19648
754.429	76.18003
754.853	69.17208
755.277	62.14828
755.7	72.17979
756.124	41.10292
756.548	68.16257
756.971	74.18197
757.394	73.18895
757.818	45.11688
758.241	74.18865
758.664	16.04102
759.087	22.05007
759.51	50.12571
759.933	33.08053
760.356	98.25133
760.778	69.17083
761.201	76.18613
761.623	55.13492
762.046	92.21944
762.468	84.20304
762.89	101.24969
763.312	64.15761
763.734	27.06601
764.156	75.18623
764.578	71.16496
765	78.19138
765.421	17.04376
765.843	71.18688
766.264	61.14881
766.686	48.12177
767.107	56.13699
767.528	18.04605
767.949	63.16121
768.37	58.14357
768.791	90.21853
769.212	31.07874
769.632	27.06389
770.053	32.08509
770.473	72.1762
770.894	54.1364
771.314	71.17094
771.734	13.03087
772.154	80.20596
772.575	77.17975
772.994	35.08071
773.414	107.25702
773.834	50.12607
774.254	47.11619
774.673	29.07161
775.093	33.0826
775.512	52.12914
775.931	69.17569
776.351	55.13756
776.77	30.07423
777.189	71.1699
777.607	20.05171
778.026	33.0831
778.445	45.11349
778.864	65.16749
779.282	69.16694
779.701	59.14959
780.119	45.11458
780.537	2.00507
780.955	77.19641
781.373	91.22513
781.791	40.091
782.209	104.23967
782.627	36.09557
783.045	75.17336
783.462	68.17427
783.88	43.11199
784.297	72.18161
784.715	20.0519
785.132	53.12924
785.549	32.08083
785.966	69.17407
786.383	41.10173
786.8	68.15883
787.217	54.12895
787.633	-2.00507
788.05	74.17657
788.466	77.18229
788.883	29.07462
789.299	63.15248
789.715	52.12726
790.131	74.18438
790.547	46.1157
790.963	21.05273
791.379	2.00513
791.795	42.09687
792.21	94.21965
792.626	46.11006
793.041	49.12171
793.457	42.10461
793.872	10.02387
794.287	4.00969
794.702	54.13382
795.117	61.15207
795.532	30.07583
795.947	76.18336
796.362	111.264
796.776	121.2819
797.191	28.06923
797.605	5.01191
798.02	44.10784
798.434	76.16982
798.848	40.09923
799.262	60.14934
799.676	73.17848
800.09	55.13597
800.504	78.18946
800.918	63.1466
801.331	109.28417
801.745	42.09733
802.158	71.17771
802.572	74.17981
802.985	80.19352
803.398	106.25167
803.811	99.25359
804.224	65.16222
804.637	29.06977
805.05	16.03759
805.462	75.18446
805.875	32.0835
806.288	4.00978
806.7	23.05836
807.112	63.14666
807.525	49.12158
807.937	44.10939
808.349	43.10837
808.761	21.0522
809.173	43.1049
809.584	87.21468
809.996	19.04701
810.408	7.01826
810.819	48.11357
811.231	-4.01047
811.642	-27.06562
812.053	8.01927
812.464	6.01446
812.875	40.1028
813.286	31.08035
813.697	150.34609
814.108	66.16158
814.519	91.20246
814.929	70.17865
815.34	71.17236
815.75	60.15275
816.16	56.14004
816.571	52.1355
816.981	93.21897
817.391	68.16443
817.801	20.05014
818.211	61.14586
818.62	54.13048
819.03	66.162
819.44	69.18026
819.849	39.09885
820.259	84.21452
820.668	54.13323
821.077	12.03012
821.486	105.25145
821.895	74.18284
822.304	66.17492
822.713	23.05491
823.122	73.18212
823.531	40.09545
823.939	63.15374
824.348	68.16548
824.756	109.27114
825.164	53.13381
825.573	66.1657
825.981	66.16385
826.389	67.16842
826.797	36.09071
827.205	61.14032
827.612	37.09187
828.02	-15.03581
828.428	48.12267
828.835	54.1424
829.243	64.15277
829.65	44.10987
830.057	36.08794
830.464	68.16573
830.871	62.14873
831.278	46.11169
831.685	12.02712
832.092	64.15685
832.499	36.07938
832.905	35.08912
833.312	96.21797
833.718	72.17927
834.124	100.22723
834.531	12.03055
834.937	53.13633
835.343	64.15458
835.749	85.19803
836.155	55.14423
836.561	44.10868
836.966	85.2072
837.372	48.12254
837.777	33.08269
838.183	49.10947
838.588	49.12203
838.993	60.14629
839.399	38.09337
839.804	11.02707
840.209	46.11744
840.613	47.10504
841.018	66.16707
841.423	59.15145
841.828	38.09654
842.232	79.19523
842.637	47.11131
843.041	34.08756
843.445	58.14562
843.849	52.129
844.253	54.12865
844.657	10.02541
845.061	58.13185
845.465	-3.00734
845.869	54.12578
846.272	-1.00246
846.676	35.08513
847.079	61.1551
847.483	77.19161
847.886	83.20127
848.289	26.06976
848.692	47.11934
849.095	58.13946
849.498	118.29614
849.901	51.11732
850.304	30.07216
850.707	66.16814
851.109	61.15439
851.512	57.14019
851.914	14.03557
852.316	42.10658
852.718	12.03123
853.121	60.14705
853.523	51.11948
853.925	19.04989
854.326	38.09537
854.728	12.03111
855.13	30.07775
855.531	3.00725
855.933	92.21961
856.334	33.08266
856.736	32.07212
857.137	31.07251
857.538	14.03548
857.939	71.17501
858.34	65.15827
858.741	68.17744
859.142	62.1489
859.542	44.11634
859.943	92.22723
860.343	-12.0301
860.744	83.20165
861.144	57.1391
861.544	1.00243
861.945	41.1048
862.345	64.15639
862.745	22.05504
863.145	105.24886
863.544	37.09385
863.944	39.09251
864.344	90.22229
864.743	93.22932
865.143	76.19457
865.542	59.13686
865.941	81.19966
866.34	89.212
866.74	48.129
867.139	31.07461
867.537	35.08953
867.936	16.03882
868.335	62.15762
868.734	6.01547
869.132	43.10022
869.531	54.13072
869.929	49.11191
870.327	56.13429
870.726	81.20113
871.124	68.15864
871.522	38.09712
871.92	73.17954
872.318	63.15386
872.715	89.21905
873.113	61.14853
873.511	28.07012
873.908	-36.09236
874.306	71.1761
874.703	56.14014
875.1	81.20632
875.497	77.18391
875.894	11.02717
876.291	57.13988
876.688	43.11115
877.085	52.12489
877.482	23.05792
877.878	20.04847
878.275	56.14226
878.671	66.14675
879.068	59.14237
879.464	67.16161
879.86	25.05948
880.256	72.17718
880.652	32.08172
881.048	58.14368
881.444	46.10972
881.84	77.19495
882.236	88.21998
882.631	95.23149
883.027	66.15953
883.422	39.1
883.817	29.07321
884.213	54.13859
884.608	4.0099
885.003	40.09672
885.398	53.13271
885.793	14.0354
886.188	18.04505
886.582	65.16644
886.977	74.17502
887.371	63.15911
887.766	-2.00502
888.16	64.15947
888.554	77.18966
888.949	67.16788
889.343	64.1561
889.737	12.0322
890.131	60.15037
890.525	48.12289
890.918	49.12344
891.312	89.21159
891.706	71.18574
892.099	70.17764
892.492	71.15271
892.886	53.12973
893.279	72.18284
893.672	45.11474
894.065	33.08296
894.458	61.15323
894.851	69.16864
895.244	33.08459
895.637	69.16575
896.029	77.18749
896.422	56.13679
896.814	55.13672
897.206	52.12389
897.599	107.26209
897.991	24.05836
898.383	59.1393
898.775	18.04094
899.167	12.02822
899.559	56.14171
899.951	65.15293
900.342	57.14488
900.734	7.01751
901.125	30.07903
901.517	20.0494
901.908	81.19324
902.299	38.09317
902.69	70.16466
903.082	63.15231
903.473	14.03378
903.863	45.11499
904.254	81.187
904.645	75.18582
905.036	14.03415
905.426	83.18895
905.817	62.1519
906.207	34.08132
906.597	65.15168
906.987	37.09617
907.378	64.16155
907.768	31.08226
908.158	76.18454
908.547	27.07006
908.937	68.17403
909.327	36.08771
909.717	71.1797
910.106	35.08436
910.495	82.20365
910.885	40.10154
911.274	66.16457
911.663	74.18712
912.052	81.19885
912.441	58.14734
912.83	57.13076
913.219	79.20582
913.608	63.15403
913.997	28.0705
914.385	89.21119
914.774	82.19858
915.162	14.03361
915.55	67.16168
915.939	43.10871
916.327	63.15695
916.715	-10.02576
917.103	116.28219
917.491	91.22356
917.878	106.25805
918.266	51.13228
918.654	87.2209
919.041	29.076
919.429	48.11339
919.816	100.25133
920.203	46.11169
920.591	63.15592
920.978	61.14914
921.365	35.09209
921.752	62.14754
922.139	38.08277
922.525	38.09151
922.912	52.12683
923.299	46.11445
923.685	55.14339
924.072	73.16766
924.458	21.05232
924.844	40.0992
925.231	45.10488
925.617	35.08928
926.003	46.11769
926.389	32.081
926.774	44.11166
927.16	36.08967
927.546	71.18059
927.931	50.12481
928.317	58.13345
928.702	48.11366
929.088	40.09482
929.473	51.12977
929.858	-1.00244
930.243	3.00727
930.628	49.11927
931.013	31.07712
931.398	85.1942
931.783	71.18631
932.167	13.03201
932.552	59.14762
932.937	69.17071
933.321	35.08808
933.705	55.13856
934.09	109.27262
934.474	31.07393
934.858	83.21409
935.242	43.09983
935.626	56.14322
936.009	26.06944
936.393	70.17751
936.777	71.18117
937.16	40.10427
937.544	63.14811
937.927	-3.00768
938.311	83.20142
938.694	79.20793
939.077	51.12209
939.46	59.14468
939.843	69.14342
940.226	81.20668
940.609	60.1375
940.991	57.14493
941.374	23.05651
941.757	99.24214
942.139	18.0407
942.522	52.12289
942.904	77.18419
943.286	58.14719
943.668	23.05986
944.05	79.19358
944.432	37.09154
944.814	66.16212
945.196	19.04658
945.578	29.06921
945.959	50.1172
946.341	88.21455
946.722	100.23247
947.104	91.21585
947.485	39.09097
947.866	60.15091
948.247	21.05326
948.628	51.12441
949.009	41.10517
949.39	66.16385
949.771	111.25514
950.152	46.11299
950.532	-33.08242
950.913	66.15875
951.293	39.10555
951.674	40.09694
952.054	37.09191
952.434	68.16826
952.814	56.13311
953.194	45.11788
953.574	65.15969
953.954	62.14692
954.334	58.14436
954.714	4.00983
955.093	85.20766
955.473	56.13989
955.853	70.18059
956.232	48.1316
956.611	79.18847
956.99	18.0455
957.37	17.04358
957.749	37.08851
958.128	8.02031
958.506	26.06773
958.885	59.14869
959.264	52.1274
959.643	71.16091
960.021	45.11162
960.4	44.09986
960.778	79.19358
961.156	70.17486
961.535	24.05623
961.913	55.12859
962.291	26.06698
962.669	59.14922
963.047	66.16796
963.424	9.02313
963.802	105.25557
964.18	95.23847
964.557	46.10605
964.935	42.09968
965.312	44.1147
965.69	86.21397
966.067	77.18658
966.444	53.13055
966.821	102.26058
967.198	103.24742
967.575	51.12539
967.952	110.25623
968.329	65.15774
968.705	46.09875
969.082	36.09255
969.458	-2.00485
969.835	34.08302
970.211	57.14611
970.587	87.21516
970.963	37.09514
971.339	47.12279
971.715	53.13227
972.091	51.12557
972.467	74.18378
972.843	54.13391
973.219	91.21685
973.594	21.0552
973.97	94.22189
974.345	17.04094
974.721	50.12109
975.096	61.14731
975.471	44.10451
975.846	55.13202
976.221	35.08912
976.596	20.04822
976.971	83.20368
977.346	63.14631
977.72	30.0767
978.095	63.16245
978.469	81.1922
978.844	59.1481
979.218	18.04341
979.593	82.19529
979.967	36.08794
980.341	31.07165
980.715	83.2079
981.089	31.07787
981.463	63.14429
981.837	33.08089
982.21	88.20328
982.584	17.04132
982.957	30.07518
983.331	42.09945
983.704	31.07644
984.078	60.1476
984.451	75.1865
984.824	52.12659
985.197	58.14067
985.57	44.11047
985.943	66.16254
986.316	106.25776
986.688	44.10624
987.061	42.0986
987.434	33.08624
987.806	44.10684
988.179	26.06164
988.551	95.23907
988.923	61.14992
989.295	73.18166
989.667	9.02167
990.039	64.15773
990.411	80.18304
990.783	73.16732
991.155	18.04351
991.527	92.22481
991.898	55.13692
992.27	57.14081
992.641	118.29241
993.012	49.11533
993.384	40.09559
993.755	37.09454
994.126	55.13217
994.497	2.00495
994.868	46.10576
995.239	7.0171
995.61	40.10082
995.98	47.11423
996.351	53.13117
996.722	34.0791
997.092	43.10196
997.462	16.03762
997.833	94.22094
998.203	62.14998
998.573	22.05506
998.943	38.08932
999.313	37.08888
999.683	17.04105
1000.053	66.15137
1000.423	43.10462
1000.792	70.18078
1001.162	43.10595
1001.531	76.18647
1001.901	61.15174
1002.27	42.09404
1002.639	14.03599
1003.009	75.17748
1003.378	62.15817
1003.747	16.03805
1004.116	21.05052
1004.485	48.11475
1004.853	68.17171
1005.222	63.15848
1005.591	61.14452
1005.959	19.04308
1006.328	68.15245
1006.696	12.02915
1007.064	8.02027
1007.433	79.19638
1007.801	96.23362
1008.169	87.21823
1008.537	64.1413
1008.905	21.0492
1009.273	79.19408
1009.64	-1.00241
1010.008	60.14273
1010.375	105.25232
1010.743	105.2398
1011.11	42.09953
1011.478	33.08191
1011.845	80.18701
1012.212	39.08846
1012.579	51.12516
1012.946	84.19859
1013.313	67.15892
1013.68	77.17209
1014.047	58.13797
1014.414	20.0475
1014.78	29.07232
1015.147	75.1805
1015.513	36.08695
1015.88	84.21347
1016.246	81.19878
1016.612	94.21325
1016.978	92.22364
1017.344	42.10393
1017.71	73.17722
1018.076	72.16903
1018.442	16.04139
1018.808	63.15706
1019.174	19.04792
1019.539	114.25904
1019.905	26.06159
1020.27	25.06196
1020.636	73.17422
1021.001	39.09354
1021.366	42.10099
1021.731	64.16414
1022.096	2.00509
1022.461	72.16963
1022.826	42.09995
1023.191	28.07371
1023.556	80.18635
1023.92	107.26024
1024.285	41.10021
1024.649	68.16604
1025.014	64.15807
1025.378	51.12816
1025.742	49.12167
1026.107	71.15986
1026.471	64.14896
1026.835	33.08203
1027.199	6.01456
1027.562	74.17115
1027.926	88.21359
1028.29	40.10136
1028.654	31.07157
1029.017	73.17861
1029.381	57.13593
1029.744	81.20537
1030.107	97.22732
1030.471	28.0673
1030.834	90.20302
1031.197	72.17266
1031.56	22.05217
1031.923	56.14457
1032.286	93.2165
1032.648	74.1761
1033.011	18.04156
1033.374	74.17305
1033.736	13.03438
1034.099	63.15311
1034.461	2.00509
1034.823	3.00753
1035.185	80.2002
1035.548	55.13367
1035.91	42.10072
1036.272	61.13847
1036.634	74.18015
1036.995	48.11282
1037.357	-5.01228
1037.719	42.10225
1038.08	53.12571
1038.442	22.05248
1038.803	31.07466
1039.165	30.07594
1039.526	57.13749
1039.887	40.09585
1040.248	4.00993
1040.609	123.29972
1040.97	57.13905
1041.331	32.08124
1041.692	25.05861
1042.053	89.20097
1042.413	51.11877
1042.774	52.12636
1043.134	108.25414
1043.495	47.11815
1043.855	88.21183
1044.215	92.22648
1044.576	53.12659
1044.936	99.22464
1045.296	110.27139
1045.656	35.08608
1046.016	40.09669
1046.375	70.16907
1046.735	44.09982
1047.095	63.14701
1047.454	37.07859
1047.814	66.15809
1048.173	66.15712
1048.533	46.10542
1048.892	-24.05838
1049.251	54.13538
1049.61	51.12548
1049.969	64.15037
1050.328	19.04145
1050.687	36.08777
1051.046	65.15774
1051.405	83.20512
1051.763	19.04393
1052.122	35.08748
1052.48	34.08358
1052.839	41.09657
1053.197	13.0308
1053.555	86.19455
1053.914	35.0858
1054.272	68.16375
1054.63	32.07846
1054.988	19.04538
1055.345	83.17737
1055.703	21.05079
1056.061	45.11579
1056.419	29.0753
1056.776	47.11397
1057.134	56.12941
1057.491	56.13999
1057.848	30.07491
1058.206	64.15002
1058.563	25.05537
1058.92	74.16965
1059.277	96.23467
1059.634	66.15471
1059.991	69.16461
1060.348	25.05675
1060.704	17.04074
1061.061	63.14591
1061.418	47.11397
1061.774	91.22282
1062.131	24.06369
1062.487	64.14914
1062.843	75.18603
1063.199	30.07483
1063.555	61.14094
1063.911	32.08103
1064.267	115.23626
1064.623	8.01957
1064.979	111.25973
1065.335	95.22499
1065.691	46.11027
1066.046	52.11423
1066.402	-13.02989
1066.757	21.05324
1067.112	57.13962
1067.468	7.01666
1067.823	70.16754
1068.178	87.20882
1068.533	104.24939
1068.888	65.15477
1069.243	61.15014
1069.598	64.15499
1069.952	-38.08705
1070.307	34.08435
1070.662	11.02629
1071.016	22.04955
1071.371	63.14284
1071.725	66.1573
1072.079	24.05797
1072.434	28.06827
1072.788	101.23799
1073.142	55.13507
1073.496	63.14897
1073.85	43.09979
1074.203	49.11882
1074.557	47.12496
1074.911	77.18271
1075.265	46.10694
1075.618	72.17495
1075.971	62.14703
1076.325	35.08912
1076.678	11.02533
1077.031	65.14653
1077.385	42.09261
1077.738	55.12394
1078.091	-3.00689
1078.444	80.18451
1078.796	60.14683
1079.149	47.11687
1079.502	47.11101
1079.855	48.1119
1080.207	84.20549
1080.56	23.05968
1080.912	38.09265
1081.264	28.06766
1081.617	28.06847
1081.969	25.0633
1082.321	70.17016
1082.673	10.02299
1083.025	66.15598
1083.377	66.14107
1083.728	45.10501
1084.08	34.08506
1084.432	48.11572
1084.783	64.14943
1085.135	69.17221
1085.486	30.06886
1085.838	46.11328
1086.189	51.12367
1086.54	49.11694
1086.891	8.02037
1087.242	89.21492
1087.593	109.26223
1087.944	42.09513
1088.295	93.2094
1088.646	57.13786
1088.996	11.02667
1089.347	86.20944
1089.698	11.02617
1090.048	43.11172
1090.398	72.16613
1090.749	67.15966
1091.099	20.05052
1091.449	58.14415
1091.799	38.09527
1092.149	20.049
1092.499	42.10252
1092.849	45.11438
1093.199	99.24573
1093.548	52.12479
1093.898	58.14478
1094.248	55.14108
1094.597	-15.03869
1094.947	31.08289
1095.296	46.11357
1095.645	74.19151
1095.994	50.11999
1096.343	70.17537
1096.692	15.0396
1097.041	25.0679
1097.39	78.19449
1097.739	51.13242
1098.088	79.21045
1098.437	22.05801
1098.785	77.20649
1099.134	71.1877
1099.482	65.17819
1099.83	55.14428
1100.179	19.04977
1100.527	63.16688
1100.875	29.07687
1101.223	33.0878
1101.571	37.10236
1101.919	3.00789
1102.267	54.1518
1102.615	-5.01609
1102.962	19.06111
1103.31	3.00964
1103.658	9.02899
