Data from N2 R13 sample 10_Subt2__4__12-12-04-768.txt Node

Date: Tue Sep 02 12:12:04 PDT 2025
User: uwsun
Spectrometer: HDX01956
Trigger mode: 0
Integration Time (sec): 5.000000E-1
Scans to average: 1
Nonlinearity correction enabled: true
Boxcar width: 0
Storing dark spectrum: false
XAxis mode: Wavelengths
Number of Pixels in Spectrum: 2068
>>>>>Begin Spectral Data<<<<<
194.03	91.25183
194.578	112.34927
195.127	110.33797
195.676	95.29337
196.225	156.40301
196.773	171.45597
197.321	204.529
197.87	267.62813
198.418	266.61737
198.966	229.53875
199.513	260.57759
200.061	202.46216
200.609	315.74766
201.156	216.42102
201.704	237.53513
202.251	222.53132
202.798	264.61418
203.345	259.57549
203.892	253.57079
204.438	302.64017
204.985	233.49056
205.532	252.59481
206.078	311.67493
206.624	262.57235
207.17	308.63091
207.716	242.52441
208.262	259.452
208.808	221.48534
209.354	277.59705
209.899	310.69894
210.445	231.51307
210.99	237.5093
211.535	337.69577
212.08	304.62469
212.625	275.6151
213.17	243.5545
213.715	206.40764
214.259	263.5469
214.804	255.56637
215.348	270.55007
215.892	256.54954
216.436	305.62717
216.98	307.60082
217.524	241.51031
218.068	341.75892
218.612	281.63395
219.155	253.53291
219.698	256.54669
220.242	279.62533
220.785	265.55474
221.328	216.48901
221.871	279.63766
222.414	301.6713
222.956	211.4589
223.499	255.51419
224.041	267.56017
224.583	303.58344
225.126	230.45684
225.668	260.56702
226.21	196.44879
226.751	244.47605
227.293	284.5799
227.835	211.4667
228.376	273.56618
228.918	254.58018
229.459	192.43415
230	230.49394
230.541	258.53375
231.082	238.51971
231.622	250.51813
232.163	216.47267
232.704	213.47761
233.244	242.54029
233.784	279.61426
234.324	167.33116
234.864	251.50891
235.404	226.4864
235.944	246.52511
236.484	300.66838
237.023	191.40886
237.563	189.39513
238.102	226.48096
238.641	204.46823
239.18	200.42062
239.719	247.55748
240.258	254.51017
240.797	258.55001
241.335	275.60138
241.874	236.40176
242.412	227.48949
242.95	229.48851
243.488	252.51293
244.026	211.43623
244.564	233.42707
245.102	230.46068
245.64	280.60157
246.177	215.43253
246.715	246.52944
247.252	240.4934
247.789	267.44509
248.326	227.48529
248.863	243.47196
249.4	252.50942
249.936	254.46075
250.473	250.51697
251.009	254.51417
251.546	271.52559
252.082	246.47767
252.618	245.48243
253.154	198.42632
253.69	257.51154
254.226	212.45254
254.761	245.4872
255.297	219.42555
255.832	241.50584
256.367	236.49415
256.903	247.47812
257.438	283.58586
257.972	263.51544
258.507	187.38158
259.042	249.47623
259.576	209.39643
260.111	236.48474
260.645	239.45732
261.179	249.51155
261.713	247.48293
262.247	279.56439
262.781	243.4454
263.315	244.52739
263.849	253.55842
264.382	271.54745
264.915	237.48822
265.449	190.40927
265.982	284.56489
266.515	243.52264
267.048	203.37903
267.58	337.63518
268.113	200.38112
268.646	232.50532
269.178	219.42941
269.71	283.5368
270.243	271.54092
270.775	288.64032
271.307	271.57333
271.838	350.71888
272.37	217.47235
272.902	320.6276
273.433	278.5259
273.965	245.52377
274.496	268.58546
275.027	235.51283
275.558	249.5284
276.089	155.33754
276.62	293.65184
277.15	292.62816
277.681	304.56833
278.211	297.63328
278.741	253.48083
279.272	293.57396
279.802	265.57805
280.332	258.52705
280.861	268.56015
281.391	234.46066
281.921	266.55819
282.45	284.61699
282.98	304.68682
283.509	284.54777
284.038	287.56061
284.567	279.56387
285.096	301.6248
285.625	246.48178
286.153	277.55623
286.682	304.59058
287.21	279.57577
287.739	283.57222
288.267	240.50141
288.795	268.6129
289.323	237.47503
289.851	288.57552
290.378	314.59429
290.906	231.47993
291.433	321.6794
291.961	308.58551
292.488	298.63196
293.015	269.53668
293.542	263.56833
294.069	301.6248
294.596	300.63176
295.122	328.65576
295.649	304.56214
296.175	286.58929
296.702	313.64071
297.228	321.65768
297.754	274.51706
298.28	331.62111
298.806	287.57924
299.332	255.47141
299.857	289.54283
300.383	311.66428
300.908	268.54276
301.433	276.56075
301.958	339.64868
302.483	270.56408
303.008	342.70182
303.533	302.66252
304.058	336.65493
304.582	316.61184
305.107	240.52718
305.631	362.67376
306.155	287.54917
306.679	300.57308
307.203	313.59226
307.727	319.61898
308.251	309.6288
308.775	274.53052
309.298	293.57016
309.822	297.61732
310.345	347.66206
310.868	346.66448
311.391	336.67175
311.914	294.59978
312.437	372.67586
312.96	379.70453
313.482	320.60684
314.005	348.69961
314.527	367.76995
315.049	371.74981
315.571	364.62339
316.093	400.77487
316.615	371.69824
317.137	425.70001
317.659	431.81157
318.18	366.69272
318.702	355.6389
319.223	396.60796
319.744	369.62908
320.265	312.58617
320.786	380.715
321.307	363.69326
321.828	406.68527
322.348	421.73713
322.869	419.72823
323.389	136.16881
323.909	397.675
324.43	443.79609
324.95	444.73234
325.47	399.72032
325.989	447.75471
326.509	407.63171
327.029	455.71454
327.548	405.63966
328.067	431.73323
328.587	422.7562
329.106	436.68766
329.625	525.98861
330.144	437.69382
330.662	420.66739
331.181	478.75788
331.7	464.73566
332.218	462.65762
332.736	501.77773
333.255	461.71139
333.773	502.77951
334.291	493.8288
334.808	518.72721
335.326	516.73598
335.844	459.67505
336.361	484.78773
336.879	552.78344
337.396	527.78564
337.913	501.7013
338.43	544.7235
338.947	538.77127
339.464	550.66609
339.981	503.70906
340.497	575.84588
341.014	557.79579
341.53	495.6374
342.046	565.79862
342.562	656.93016
343.078	602.78427
343.594	555.74728
344.11	609.79421
344.626	647.8974
345.141	611.73032
345.657	651.76979
346.172	597.77272
346.687	551.66418
347.202	577.65753
347.717	658.80017
348.232	688.8863
348.747	622.70765
349.261	591.59937
349.776	629.72678
350.29	656.78629
350.805	711.8658
351.319	680.7441
351.833	656.66809
352.347	671.72818
352.861	692.7231
353.374	804.80225
353.888	760.82368
354.401	677.68302
354.915	707.64509
355.428	739.80869
355.941	654.64952
356.454	817.73087
356.967	746.73959
357.48	775.71659
357.993	756.78909
358.505	726.73795
359.018	852.82133
359.53	749.71286
360.042	828.65654
360.554	780.74422
361.066	752.7148
361.578	781.5862
362.09	806.71201
362.602	769.57222
363.113	802.64663
363.625	810.59767
364.136	918.60845
364.647	767.56405
365.158	870.63983
365.669	868.67688
366.18	842.63425
366.691	894.55254
367.201	828.62488
367.712	849.54463
368.222	956.57216
368.733	924.45998
369.243	920.46801
369.753	955.54177
370.263	988.58211
370.773	930.60154
371.282	895.50092
371.792	916.3816
372.301	993.47273
372.811	946.57891
373.32	1037.22114
373.829	984.32788
374.338	1112.20962
374.847	1068.21179
375.356	1135.20138
375.865	1220.95158
376.373	1323.96069
376.882	1219.16391
377.39	1296.01192
377.898	1276.91578
378.407	1380.70364
378.915	1435.59854
379.423	1445.62189
379.93	1542.4727
380.438	1590.40622
380.946	1639.29103
381.453	1683.21832
381.96	1808.08565
382.468	1838.03327
382.975	2046.94553
383.482	2023.98946
383.989	2056.95388
384.495	2206.04512
385.002	2233.38124
385.509	2490.47265
386.015	2577.30303
386.521	2535.25244
387.028	2666.89548
387.534	2827.71666
388.04	3000.84659
388.546	2855.92064
389.051	3116.00434
389.557	3423.35689
390.063	3799.47502
390.568	3562.89502
391.073	3724.23761
391.578	3824.62791
392.084	3860.87772
392.589	3927.26952
393.093	4227.18859
393.598	4704.93055
394.103	5030.92704
394.607	5760.4577
395.112	6185.80768
395.616	6227.30315
396.12	6627.16026
396.624	6849.26589
397.128	7757.46834
397.632	8864.93612
398.136	9355.63557
398.639	9503.45959
399.143	11040.56786
399.646	11896.50149
400.15	11964.91691
400.653	13566.8571
401.156	12497.2197
401.659	4783.75351
402.162	1054.15589
402.664	0
403.167	0
403.67	0
404.172	0
404.674	0
405.176	0
405.678	0
406.18	0
406.682	0
407.184	0
407.686	0
408.187	0
408.688	0
409.19	0
409.691	0
410.192	0
410.693	0
411.194	435.30976
411.694	4082.94878
412.195	8864.71461
412.696	12089.80453
413.196	12760.96929
413.696	12863.67595
414.196	13703.56671
414.696	17261.84252
415.196	21764.24417
415.696	23292.48921
416.196	16912.06365
416.695	13395.75508
417.195	12083.83399
417.694	11703.10148
418.194	10979.85108
418.693	10033.09763
419.192	10236.66191
419.691	9746.00854
420.19	9651.80921
420.688	9713.57092
421.187	8841.18769
421.685	8442.22386
422.184	7544.94145
422.682	6254.05051
423.18	5228.81223
423.678	4611.6654
424.176	4301.03023
424.674	4055.91861
425.172	4059.5861
425.669	3717.48809
426.167	3424.15398
426.664	3101.50824
427.161	2832.33311
427.659	2610.46195
428.156	2262.40309
428.652	2357.96389
429.149	2247.9506
429.646	2040.98673
430.143	1913.00461
430.639	1892.0304
431.135	1719.19571
431.632	1669.22656
432.128	1554.39875
432.624	1404.58558
433.12	1269.53699
433.616	1361.5078
434.111	1290.62943
434.607	1214.752
435.103	1270.69382
435.598	1196.75403
436.093	1157.98243
436.588	1046.03609
437.083	1014.10639
437.578	937.18551
438.073	766.26831
438.568	902.35908
439.062	830.20529
439.557	817.36851
440.051	705.30738
440.546	657.31112
441.04	676.3899
441.534	732.50447
442.028	721.46196
442.522	640.43051
443.015	645.35563
443.509	683.50816
444.002	581.45765
444.496	606.37342
444.989	617.49958
445.482	578.49664
445.975	548.38355
446.468	509.33688
446.961	581.37412
447.454	528.40703
447.947	483.41095
448.439	489.45996
448.931	526.40842
449.424	542.55064
449.916	490.47459
450.408	399.34515
450.9	382.38582
451.392	415.45222
451.884	396.38037
452.375	365.39766
452.867	466.44039
453.358	290.28571
453.849	394.33904
454.341	338.33392
454.832	367.3331
455.323	343.39019
455.814	418.43074
456.304	333.35962
456.795	339.36379
457.285	394.41131
457.776	454.49033
458.266	293.34699
458.756	390.46727
459.247	249.30399
459.737	215.26794
460.226	345.38028
460.716	221.2838
461.206	264.34243
461.695	218.31096
462.185	314.39844
462.674	306.38155
463.163	293.34904
463.653	279.31035
464.142	185.25898
464.63	247.35378
465.119	229.3028
465.608	231.30668
466.096	263.32779
466.585	243.33497
467.073	160.23934
467.561	201.30004
468.05	228.32523
468.538	224.34709
469.026	163.24937
469.513	167.21606
470.001	146.21035
470.489	205.30768
470.976	205.30304
471.463	156.26068
471.951	183.30891
472.438	81.12908
472.925	76.12066
473.412	115.19772
473.899	196.30334
474.385	120.20726
474.872	108.17483
475.359	104.17981
475.845	131.1849
476.331	128.19599
476.817	83.14783
477.303	129.21432
477.789	139.24219
478.275	54.09955
478.761	98.17486
479.247	109.17949
479.732	28.05271
480.218	68.13513
480.703	75.14163
481.188	53.08514
481.673	88.15166
482.158	11.01755
482.643	96.18997
483.128	25.04383
483.612	39.0709
484.097	63.12142
484.581	4.0074
485.066	20.0385
485.55	48.08171
486.034	47.07921
486.518	-10.01871
487.002	17.03317
487.486	-16.03163
487.969	-13.02573
488.453	16.03303
488.936	-16.02929
489.42	47.08367
489.903	31.06429
490.386	-490.74973
490.869	13.02324
491.352	25.05097
491.835	10.01699
492.318	-45.08465
492.8	-7.01195
493.283	-21.04478
493.765	-45.09345
494.247	8.01576
494.73	-26.04832
495.212	-21.04336
495.694	-19.03729
496.175	-140.28561
496.657	14.02807
497.139	28.04072
497.62	-103.2096
498.102	-57.12133
498.583	-38.0821
499.064	-56.1065
499.545	-79.15607
500.026	-73.1411
500.507	-46.09209
500.988	-44.09478
501.469	-109.23878
501.949	-45.09691
502.43	-114.23648
502.91	-58.10322
503.39	-16.03485
503.87	-66.13471
504.35	-13.02667
504.83	-89.17046
505.31	-120.25705
505.79	-132.27957
506.269	-49.10035
506.749	-99.1988
507.228	-90.18561
507.707	-76.14778
508.187	-75.15888
508.666	-118.25702
509.145	-98.2022
509.623	-115.24021
510.102	-74.15872
510.581	-38.08108
511.059	-104.23143
511.538	-85.19647
512.016	-66.13979
512.494	-73.15782
512.972	-108.23064
513.45	-158.32746
513.928	-88.18972
514.406	-172.37177
514.884	-104.23938
515.361	-120.25816
515.839	-103.2097
516.316	-117.25295
516.793	-118.2702
517.27	-56.12141
517.747	-111.25616
518.224	-87.18084
518.701	-72.14328
519.178	-146.32691
519.654	-64.1368
520.131	-128.28684
520.607	-111.24993
521.083	-107.22052
521.56	-125.26781
522.036	-59.11607
522.512	-55.12211
522.987	-118.25254
523.463	-110.23675
523.939	-95.21127
524.414	-27.05577
524.89	-95.20415
525.365	-86.17577
525.84	-128.27501
526.315	-120.26271
526.79	-106.21723
527.265	-84.17324
527.74	-141.31435
528.215	-136.29346
528.689	-127.25667
529.164	-62.12165
529.638	-97.22732
530.112	-107.22895
530.587	-53.10117
531.061	-146.32233
531.534	-97.21473
532.008	-130.2858
532.482	-43.0891
532.956	-114.2645
533.429	-106.2348
533.903	-92.18607
534.376	-49.09776
534.849	-56.11757
535.322	-69.1479
535.795	-74.1646
536.268	-109.23969
536.741	-71.15534
537.213	-55.11539
537.686	-110.24478
538.158	-107.21844
538.631	-40.08827
539.103	-110.22522
539.575	-48.09084
540.047	-68.13608
540.519	-35.07583
540.991	-29.06433
541.463	-37.08112
541.934	-49.10162
542.406	-70.15156
542.877	-42.08576
543.348	-48.1054
543.82	0
544.291	21.04396
544.762	-59.12668
545.233	-1.00224
545.703	-36.07161
546.174	40.08253
546.645	-107.23202
547.115	-13.02802
547.585	73.14747
548.056	10.02127
548.526	64.13116
548.996	68.14345
549.466	103.21973
549.935	64.13146
550.405	86.16236
550.875	118.23985
551.344	164.33548
551.814	193.37431
552.283	190.34886
552.752	168.32902
553.221	182.32929
553.69	235.4316
554.159	231.47051
554.628	227.41754
555.096	273.57149
555.565	286.52118
556.033	355.68259
556.502	366.72528
556.97	335.6094
557.438	386.74953
557.906	422.81905
558.374	395.74414
558.842	458.88935
559.31	483.87067
559.777	424.83983
560.245	622.14936
560.712	626.13658
561.18	594.02482
561.647	724.22782
562.114	724.25369
562.581	789.48371
563.048	829.42954
563.514	837.541
563.981	969.5965
564.448	1008.60009
564.914	1091.78047
565.381	1221.86902
565.847	1295.01358
566.313	1342.04204
566.779	1410.01313
567.245	1476.17278
567.711	1528.28561
568.176	1629.14753
568.642	1726.59331
569.108	1770.55373
569.573	1948.51622
570.038	1951.10147
570.504	2051.33575
570.969	2220.88057
571.434	2237.29154
571.899	2433.68527
572.363	2466.49232
572.828	2640.53753
573.293	2636.53124
573.757	2708.53351
574.222	2829.3616
574.686	2893.3667
575.15	2981.66028
575.614	2959.48507
576.078	3022.58615
576.542	3084.43368
577.006	3181.34722
577.469	3238.88408
577.933	3150.30245
578.396	3183.64673
578.86	3229.5843
579.323	3082.65914
579.786	3220.12968
580.249	3116.41413
580.712	3132.82202
581.175	3083.86899
581.637	3114.52242
582.1	3157.2679
582.563	2973.21941
583.025	2884.79793
583.487	2900.93368
583.95	2888.19441
584.412	2842.13916
584.874	2804.82015
585.336	2818.69615
585.797	2673.28018
586.259	2637.70313
586.721	2506.64392
587.182	2645.67987
587.643	2633.52074
588.105	2513.70229
588.566	2538.20179
589.027	2433.74988
589.488	2483.53394
589.949	2425.80505
590.41	2473.87829
590.87	2464.55439
591.331	2418.31334
591.791	2357.55772
592.252	2387.51152
592.712	2421.76784
593.172	2353.46007
593.632	2505.38207
594.092	2468.43848
594.552	2468.28979
595.011	2467.5426
595.471	2651.45515
595.931	2627.435
596.39	2637.76094
596.849	2749.63352
597.308	2796.31656
597.768	2823.08876
598.227	2974.80083
598.685	3163.5318
599.144	3130.60632
599.603	3312.63709
600.062	3378.96529
600.52	3619.16796
600.978	3715.49379
601.437	3951.18715
601.895	4155.64114
602.353	4201.87661
602.811	4405.7495
603.269	4620.07775
603.727	4935.89613
604.184	5127.40903
604.642	5287.84836
605.099	5567.38316
605.557	5762.60085
606.014	6056.82223
606.471	6219.54362
606.928	6553.75211
607.385	6855.32225
607.842	7149.16119
608.299	7354.33474
608.755	7561.56195
609.212	7832.53662
609.668	8172.91784
610.125	8385.37058
610.581	8543.58228
611.037	8610.63863
611.493	8908.19613
611.949	9056.49375
612.405	9310.24093
612.861	9368.18662
613.316	9664.94543
613.772	9726.17237
614.227	9906.66449
614.683	9914.90304
615.138	9988.93701
615.593	10076.23377
616.048	10161.54795
616.503	10280.75516
616.958	10178.38157
617.412	10267.82289
617.867	10227.90601
618.321	10107.66001
618.776	10097.41138
619.23	10006.96235
619.684	9996.00478
620.138	9808.36146
620.592	10022.93236
621.046	9718.08524
621.5	9572.66764
621.954	9417.32523
622.407	9260.9491
622.861	9130.6639
623.314	8951.27325
623.768	8851.09771
624.221	8519.41404
624.674	8420.39716
625.127	8294.26705
625.58	8137.03648
626.033	8005.8215
626.485	7693.781
626.938	7542.68822
627.39	7340.50111
627.843	7190.43102
628.295	6997.38459
628.747	6881.51044
629.199	6749.28613
629.651	6535.28587
630.103	6286.37175
630.555	6200.00363
631.006	6213.54773
631.458	5982.65636
631.909	5833.59073
632.361	5686.73302
632.812	5535.73464
633.263	5504.36481
633.714	5352.41258
634.165	5278.2352
634.616	5073.21503
635.067	5005.83236
635.518	4887.36657
635.968	4740.42539
636.419	4824.81878
636.869	4557.55265
637.319	4522.3713
637.769	4392.23336
638.219	4337.72946
638.669	4230.75302
639.119	4188.95521
639.569	4136.89392
640.019	4147.62229
640.468	3972.48829
640.918	4053.95575
641.367	3954.53212
641.816	3971.51044
642.265	3907.75305
642.714	3753.82366
643.163	3757.78694
643.612	3684.06996
644.061	3658.3299
644.51	3664.76469
644.958	3655.55789
645.406	3574.11151
645.855	3672.26059
646.303	3526.00358
646.751	3492.82793
647.199	3557.81675
647.647	3462.91512
648.095	3454.89674
648.543	3494.27995
648.99	3444.16125
649.438	3491.06944
649.885	3436.41564
650.333	3526.9904
650.78	3415.25263
651.227	3485.28659
651.674	3461.88168
652.121	3450.30567
652.568	3442.29153
653.015	3427.59228
653.461	3384.173
653.908	3445.04017
654.354	3388.21658
654.801	3290.11037
655.247	3445.69917
655.693	3334.83092
656.139	3296.26338
656.585	3387.25353
657.031	3356.06272
657.477	3346.63201
657.922	3366.99828
658.368	3401.45459
658.813	3344.09639
659.259	3323.2767
659.704	3411.07261
660.149	3365.08901
660.594	3292.22539
661.039	3359.959
661.484	3383.26751
661.929	3307.14283
662.373	3318.62679
662.818	3350.5164
663.262	3276.32607
663.707	3304.67605
664.151	3377.42176
664.595	3328.33835
665.039	3364.55683
665.483	3339.71503
665.927	3396.1912
666.371	3359.06459
666.814	3352.29473
667.258	3291.223
667.701	3429.67894
668.145	3397.57306
668.588	3374.47537
669.031	3335.18616
669.474	3306.36289
669.917	3321.85941
670.36	3341.55751
670.803	3397.37555
671.245	3330.58234
671.688	3493.43018
672.13	3280.92976
672.573	3433.73252
673.015	3384.34634
673.457	3345.75981
673.899	3401.4093
674.341	3399.38046
674.783	3305.34743
675.225	3451.49596
675.666	3443.33126
676.108	3458.72301
676.549	3393.27329
676.991	3393.82974
677.432	3444.25776
677.873	3361.13136
678.314	3432.31507
678.755	3472.42947
679.196	3371.06174
679.637	3487.46947
680.078	3356.2156
680.518	3390.18732
680.959	3372.35395
681.399	3408.57932
681.839	3430.4517
682.28	3382.54602
682.72	3324.07511
683.16	3350.61749
683.6	3369.05963
684.039	3371.5373
684.479	3291.52711
684.919	3253.12248
685.358	3364.7633
685.798	3352.99469
686.237	3438.42059
686.676	3366.17441
687.115	3378.23971
687.554	3350.31082
687.993	3391.87116
688.432	3339.07435
688.871	3279.03881
689.309	3322.35244
689.748	3415.55263
690.186	3417.34757
690.625	3378.22138
691.063	3292.38588
691.501	3319.58957
691.939	3345.63948
692.377	3362.48798
692.815	3295.36462
693.253	3336.40773
693.69	3291.85935
694.128	3341.44113
694.565	3279.35926
695.003	3361.76903
695.44	3324.25314
695.877	3291.21528
696.314	3341.73334
696.751	3344.07836
697.188	3320.1119
697.625	3435.10044
698.061	3312.38803
698.498	3359.44873
698.934	3271.42523
699.371	3352.25553
699.807	3277.30784
700.243	3317.40816
700.679	3357.02644
701.115	3338.27912
701.551	3311.27887
701.987	3268.0082
702.422	3282.32773
702.858	3337.342
703.294	3321.03738
703.729	3311.52721
704.164	3300.41598
704.599	3300.93776
705.035	3263.96621
705.47	3345.47216
705.904	3225.21598
706.339	3384.19391
706.774	3303.23889
707.209	3308.13749
707.643	3244.41054
708.078	3256.49723
708.512	3264.6691
708.946	3320.39198
709.38	3293.31822
709.814	3267.10211
710.248	3303.50196
710.682	3249.34289
711.116	3183.35849
711.549	3200.9057
711.983	3163.17678
712.416	3237.31629
712.85	3198.66293
713.283	3217.31893
713.716	3123.72383
714.149	3099.38279
714.582	3091.02059
715.015	3063.69974
715.448	2982.73469
715.881	3073.88733
716.313	3031.27239
716.746	3078.29449
717.178	2968.42666
717.61	2965.77261
718.043	2929.65564
718.475	2891.47552
718.907	3012.77218
719.339	2838.07758
719.77	2848.32971
720.202	2860.73583
720.634	2832.48366
721.065	2761.32788
721.497	2747.52177
721.928	2706.518
722.359	2625.38894
722.79	2723.37269
723.221	2741.68535
723.652	2717.83955
724.083	2622.03617
724.514	2598.13244
724.945	2512.22923
725.375	2466.14245
725.806	2511.56676
726.236	2385.65684
726.666	2413.23813
727.096	2403.42329
727.526	2404.60989
727.956	2308.99479
728.386	2337.41201
728.816	2285.52441
729.246	2186.25823
729.675	2175.31513
730.105	2170.31979
730.534	2155.06668
730.964	2072.38962
731.393	2175.37459
731.822	2058.42697
732.251	2086.41468
732.68	1995.00958
733.109	1991.20132
733.537	1971.09331
733.966	1899.16363
734.395	1875.83799
734.823	1853.73525
735.251	1787.93919
735.68	1920.22565
736.108	1763.12397
736.536	1763.83767
736.964	1655.67999
737.392	1636.9483
737.82	1668.81914
738.247	1675.81822
738.675	1603.74254
739.102	1546.8388
739.53	1470.81805
739.957	1542.94658
740.384	1545.79831
740.811	1448.77842
741.238	1370.54953
741.665	1361.37695
742.092	1353.46281
742.519	1230.40544
742.945	1250.34615
743.372	1277.47355
743.798	1269.58126
744.225	1151.18569
744.651	1145.32454
745.077	1159.32748
745.503	1119.21003
745.929	1143.19877
746.355	1201.38551
746.781	1075.1842
747.207	988.91732
747.632	967.97224
748.058	998.07934
748.483	987.87767
748.908	917.93605
749.334	967.99272
749.759	904.80158
750.184	863.75519
750.609	914.90742
751.033	899.80196
751.458	881.66921
751.883	860.83346
752.307	731.51141
752.732	708.56914
753.156	770.66558
753.58	737.53879
754.005	687.55945
754.429	650.36565
754.853	670.48424
755.277	614.31031
755.7	678.5026
756.124	628.40554
756.548	588.26288
756.971	602.33235
757.394	602.41124
757.818	592.38832
758.241	625.43407
758.664	543.25965
759.087	538.09424
759.51	574.30352
759.933	530.17036
760.356	536.26566
760.778	511.15957
761.201	489.10284
761.623	503.12846
762.046	498.09271
762.468	504.11889
762.89	476.0929
763.312	462.05138
763.734	430.97181
764.156	425.98726
764.578	462.98996
765	421.96676
765.421	373.89992
765.843	380.94732
766.264	397.90729
766.686	370.88442
767.107	354.81766
767.528	318.7703
767.949	302.74007
768.37	286.67819
768.791	371.853
769.212	305.73674
769.632	264.59597
770.053	313.79291
770.473	338.78599
770.894	306.7379
771.314	303.69724
771.734	261.59004
772.154	255.63635
772.575	294.65691
772.994	211.46943
773.414	307.70927
773.834	244.59375
774.254	229.54713
774.673	227.54007
775.093	220.53195
775.512	195.47159
775.931	236.58307
776.351	214.51978
776.77	181.43543
777.189	253.58429
777.607	209.52252
778.026	184.45077
778.445	168.41432
778.864	235.58751
779.282	189.4469
779.701	168.41767
780.119	132.33092
780.537	152.375
780.955	186.46528
781.373	201.4872
781.791	194.42758
782.209	194.43903
782.627	163.42349
783.045	128.29274
783.462	158.39852
783.88	173.44048
784.297	149.37064
784.715	111.28353
785.132	133.31948
785.549	138.34197
785.966	161.39947
786.383	122.29822
786.8	165.37804
787.217	174.40593
787.633	90.22433
788.05	177.41399
788.466	147.34328
788.883	120.30387
789.299	93.22382
789.715	102.24729
790.131	130.32061
790.547	163.40133
790.963	136.33442
791.379	120.30127
791.795	143.32316
792.21	106.2471
792.626	122.28764
793.041	92.22673
793.457	136.33294
793.872	110.25754
794.287	55.13197
794.702	145.35332
795.117	72.17914
795.532	133.33
795.947	142.33831
796.362	142.33571
796.776	192.44105
797.191	96.23441
797.605	67.15776
798.02	74.18035
798.434	142.31297
798.848	62.15319
799.262	79.19595
799.676	132.31918
800.09	138.33595
800.504	113.27267
800.918	111.25585
801.331	103.26881
801.745	128.29156
802.158	96.2392
802.572	105.25366
802.985	100.24099
803.398	85.20263
803.811	109.27871
804.224	140.34464
804.637	124.29293
805.05	68.15815
805.462	100.24481
805.875	88.22742
806.288	92.22129
806.7	75.18853
807.112	53.12363
807.525	87.21437
807.937	56.13892
808.349	83.20767
808.761	77.18945
809.173	114.27441
809.584	136.33257
809.996	36.08879
810.408	102.26177
810.819	132.30723
811.231	118.30231
811.642	99.23491
812.053	113.26679
812.464	110.25986
812.875	70.17896
813.286	99.25359
813.697	124.28758
814.108	146.3521
814.519	72.16082
814.929	135.34057
815.34	97.23433
815.75	92.23289
816.16	76.18937
816.571	57.1484
816.981	79.18652
817.391	97.23327
817.801	45.11231
818.211	72.1718
818.62	74.17813
819.03	89.21752
819.44	83.21632
819.849	93.23345
820.259	102.25967
820.668	50.12345
821.077	24.0601
821.486	123.29355
821.895	93.22898
822.304	97.25574
822.713	77.18194
823.122	69.17227
823.531	87.20572
823.939	63.15374
824.348	105.25375
824.756	96.23937
825.164	102.25525
825.573	62.15577
825.981	89.22002
826.389	106.26459
826.797	69.17283
827.205	41.09469
827.612	90.22131
828.02	36.08511
828.428	63.16058
828.835	36.09522
829.243	59.14097
829.65	13.03264
830.057	65.15792
830.464	26.06386
830.871	94.22412
831.278	95.22855
831.685	63.14092
832.092	62.15201
832.499	64.14029
832.905	71.17963
833.312	87.19789
833.718	77.19154
834.124	75.17129
834.531	61.15395
834.937	63.16177
835.343	84.20212
835.749	85.19803
836.155	64.16757
836.561	72.17692
836.966	85.2072
837.372	76.19307
837.777	46.11499
838.183	112.24696
838.588	64.15894
838.993	75.18235
839.399	48.11773
839.804	60.14634
840.209	92.23297
840.613	65.14473
841.018	59.14954
841.423	95.24232
841.828	83.20917
842.232	84.2074
842.637	53.12537
843.041	59.15129
843.445	64.16051
843.849	85.20959
844.253	84.19898
844.657	58.14614
845.061	76.17214
845.465	71.17126
845.869	83.19223
846.272	55.13412
846.676	84.20243
847.079	67.17018
847.483	107.26481
847.886	117.2819
848.289	83.2206
848.692	57.14447
849.095	93.22212
849.498	121.30351
849.901	99.22555
850.304	56.13403
850.707	60.15302
851.109	85.21421
851.512	55.13532
851.914	47.1187
852.316	59.14927
852.718	5.01303
853.121	53.13006
853.523	60.14031
853.925	26.06819
854.326	52.13018
854.728	54.13898
855.13	26.06743
855.531	-1.00242
855.933	70.1678
856.334	46.11495
856.736	60.13446
857.137	54.12574
857.538	55.13836
857.939	26.06462
858.34	89.21574
858.741	43.11268
859.142	70.16786
859.542	50.13207
859.943	75.18582
860.343	32.07962
860.744	100.24217
861.144	57.1391
861.544	42.10125
861.945	55.14024
862.345	59.14431
862.745	59.14661
863.145	77.18349
863.544	48.12151
863.944	69.16272
864.344	82.20283
864.743	107.26316
865.143	90.22985
865.542	28.06535
865.941	73.1802
866.34	85.20263
866.74	63.16889
867.139	-7.01697
867.537	92.23297
867.936	76.18232
868.335	70.1777
868.734	62.15828
869.132	79.18282
869.531	108.25879
869.929	28.06422
870.327	70.16741
870.726	92.22798
871.124	59.13789
871.522	43.1098
871.92	58.14304
872.318	60.14661
872.715	125.30561
873.113	84.20365
873.511	58.14446
873.908	-4.0102
874.306	35.08738
874.703	65.1624
875.1	77.19627
875.497	66.15797
875.894	76.1855
876.291	79.19308
876.688	29.07514
877.085	50.12013
877.482	100.24835
877.878	25.06053
878.275	73.18489
878.671	91.20128
879.068	57.1376
879.464	69.16638
879.86	40.0949
880.256	58.1431
880.652	50.12729
881.048	81.19981
881.444	80.18957
881.84	71.17995
882.236	75.18793
882.631	60.14716
883.027	65.15715
883.422	55.14064
883.817	26.06568
884.213	60.15383
884.608	35.08615
885.003	52.12546
885.398	34.08542
885.793	69.17277
886.188	34.08484
886.582	68.17403
886.977	85.2006
887.371	78.19646
887.766	18.04506
888.16	55.13727
888.554	88.21631
888.949	80.19998
889.343	88.21367
889.737	-1.00269
890.131	72.18005
890.525	75.1911
890.918	29.07332
891.312	59.14108
891.706	81.21154
892.099	81.20515
892.492	28.06078
892.886	36.08839
893.279	58.14766
893.672	74.18772
894.065	63.15752
894.458	59.14826
894.851	84.20472
895.244	65.16568
895.637	64.15388
896.029	57.13931
896.422	48.11742
896.814	84.2077
897.206	29.0694
897.599	92.22598
897.991	39.09457
898.383	95.22272
898.775	58.13083
899.167	47.10976
899.559	86.21646
899.951	83.19459
900.342	114.28683
900.734	1.0025
901.125	93.24238
901.517	38.09355
901.908	86.20497
902.299	41.10047
902.69	76.17856
903.082	80.19279
903.473	26.06259
903.863	56.14282
904.254	88.20288
904.645	116.28524
905.036	28.06811
905.426	88.20013
905.817	60.14705
906.207	31.07418
906.597	73.17008
906.987	74.19111
907.378	54.13655
907.768	35.09281
908.158	86.20842
908.547	42.10869
908.937	76.19423
909.327	63.15271
909.717	80.20215
910.106	62.14868
910.495	87.21587
910.885	90.22644
911.274	56.13989
911.663	59.14959
912.052	108.26381
912.441	51.12972
912.83	82.18716
913.219	89.23148
913.608	61.1492
913.997	70.17492
914.385	63.15024
914.774	91.22
915.162	38.09081
915.55	64.15452
915.939	12.03051
916.327	80.19868
916.715	40.10216
917.103	113.27504
917.491	83.20421
917.878	92.22456
918.266	78.20137
918.654	76.19334
919.041	28.07339
919.429	36.08524
919.816	84.21173
920.203	50.12131
920.591	55.13632
920.978	77.1877
921.365	57.14942
921.752	93.22
922.139	82.17694
922.525	40.09629
922.912	101.24409
923.299	23.05746
923.685	45.11752
924.072	72.1654
924.458	74.18257
924.844	22.05474
925.231	32.07477
925.617	46.11711
926.003	86.21847
926.389	27.06841
926.774	66.16683
927.16	83.20496
927.546	64.16299
927.931	89.22059
928.317	57.13118
928.702	95.2229
929.088	18.04285
929.473	54.13733
929.858	0
930.243	32.07709
930.628	43.10478
931.013	82.20209
931.398	96.21885
931.783	106.2765
932.167	70.17054
932.552	114.28239
932.937	68.16826
933.321	35.08808
933.705	9.02286
934.09	71.1788
934.474	80.18899
934.858	36.09362
935.242	41.09522
935.626	77.1962
936.009	48.12772
936.393	65.16498
936.777	51.13059
937.16	98.25291
937.544	102.23797
937.927	90.22677
938.311	112.27031
938.694	88.23127
939.077	55.13156
939.46	120.29093
939.843	74.15364
940.226	52.13336
940.609	45.10344
940.991	59.14996
941.374	47.11496
941.757	95.23253
942.139	68.1522
942.522	80.18803
942.904	31.07481
943.286	75.18975
943.668	72.18582
944.05	68.16697
944.432	55.13562
944.814	68.16697
945.196	63.15317
945.578	31.07396
945.959	93.21616
946.341	102.24804
946.722	45.10575
947.104	79.18782
947.485	13.03048
947.866	72.1807
948.247	73.18344
948.628	53.12924
949.009	72.18368
949.39	75.18589
949.771	89.20547
950.152	35.08615
950.532	18.04454
950.913	64.154
951.293	46.12435
951.674	47.11376
952.054	15.03741
952.434	69.17071
952.814	62.1472
953.194	76.19804
953.574	79.19358
953.954	100.23523
954.334	32.08002
954.714	4.00983
955.093	95.23166
955.473	66.16457
955.853	49.12688
956.232	86.23436
956.611	64.15312
956.99	63.15797
957.37	44.11225
957.749	68.1617
958.128	46.11599
958.506	57.14769
958.885	28.07095
959.264	30.0738
959.643	105.23632
960.021	26.06471
960.4	53.12007
960.778	67.16454
961.156	46.11541
961.535	28.06556
961.913	60.14015
962.291	20.05158
962.669	52.13168
963.047	62.15789
963.424	70.17802
963.802	31.0765
964.18	82.20632
964.557	63.14475
964.935	57.13489
965.312	50.1302
965.69	89.22131
966.067	84.20327
966.444	89.21776
966.821	81.2077
967.198	84.20251
967.575	98.23884
967.952	63.14811
968.329	76.18405
968.705	51.10936
969.082	39.10021
969.458	-27.06572
969.835	86.20795
970.211	56.14357
970.587	91.22488
970.963	73.18653
971.339	50.13056
971.715	93.23042
972.091	89.2176
972.467	22.05515
972.843	41.10192
973.219	100.23788
973.594	61.15925
973.97	87.20564
974.345	53.12678
974.721	62.14981
975.096	49.1186
975.471	61.14441
975.846	43.10345
976.221	54.13704
976.596	55.13172
976.971	57.14055
977.346	68.15777
977.72	58.14755
978.095	53.1369
978.469	124.29179
978.844	103.2565
979.218	22.05302
979.593	78.1859
979.967	55.13387
980.341	38.08771
980.715	59.14842
981.089	84.20899
981.463	48.11026
981.837	56.13669
982.21	134.30671
982.584	23.05584
982.957	43.10751
983.331	47.11118
983.704	37.09114
984.078	63.15489
984.451	125.308
984.824	31.07577
985.197	86.20748
985.57	70.17492
985.943	89.21825
986.316	132.31942
986.688	91.21776
987.061	98.22755
987.434	51.13287
987.806	67.16198
988.179	30.07106
988.551	73.18443
988.923	51.12557
989.295	94.23302
989.667	-25.06058
990.039	56.13821
990.411	83.18979
990.783	39.09
991.155	26.06275
991.527	83.20316
991.898	20.0501
992.27	51.12613
992.641	78.1947
993.012	94.2193
993.384	56.13342
993.755	49.12494
994.126	48.1155
994.497	63.15426
994.868	67.15339
995.239	78.18804
995.61	19.04807
995.98	43.10459
996.351	42.10416
996.722	65.1503
997.092	27.06422
997.462	-23.05449
997.833	65.15364
998.203	84.20235
998.573	53.13189
998.943	61.14273
999.313	58.13877
999.683	9.02177
1000.053	53.12187
1000.423	53.12871
1000.792	43.11157
1001.162	46.11328
1001.531	99.24187
1001.901	52.12957
1002.27	99.21907
1002.639	70.1782
1003.009	62.14709
1003.378	58.14807
1003.747	56.13214
1004.116	65.15507
1004.485	62.14783
1004.853	66.16671
1005.222	62.156
1005.591	74.17488
1005.959	10.02271
1006.328	25.05654
1006.696	50.12059
1007.064	35.08827
1007.433	79.19638
1007.801	86.20968
1008.169	84.21082
1008.537	60.13258
1008.905	66.15325
1009.273	77.18924
1009.64	19.04559
1010.008	27.06464
1010.375	66.15977
1010.743	83.1904
1011.11	31.07362
1011.478	53.13107
1011.845	100.23284
1012.212	21.04781
1012.579	67.16393
1012.946	103.24261
1013.313	95.22412
1013.68	88.19623
1014.047	61.14502
1014.414	39.09229
1014.78	57.14143
1015.147	102.24422
1015.513	39.09415
1015.88	57.14555
1016.246	86.21085
1016.612	129.29057
1016.978	42.10305
1017.344	72.17718
1017.71	111.26754
1018.076	103.24035
1018.442	62.15912
1018.808	75.18657
1019.174	44.11047
1019.539	158.35582
1019.905	18.0427
1020.27	26.06443
1020.636	63.15064
1021.001	76.181
1021.366	34.08187
1021.731	52.13364
1022.096	6.01525
1022.461	71.1673
1022.826	54.12821
1023.191	96.24981
1023.556	46.10787
1023.92	89.21719
1024.285	46.11232
1024.649	46.11278
1025.014	84.20671
1025.378	65.16293
1025.742	75.18535
1026.107	80.1798
1026.471	93.21522
1026.835	65.16063
1027.199	65.15596
1027.562	54.12539
1027.926	62.15122
1028.29	67.16897
1028.654	42.09675
1029.017	75.18344
1029.381	45.10756
1029.744	61.15521
1030.107	72.16956
1030.471	71.16925
1030.834	57.12944
1031.197	89.21273
1031.56	34.08044
1031.923	43.11126
1032.286	101.23475
1032.648	85.20185
1033.011	58.13286
1033.374	81.18916
1033.736	62.16261
1034.099	40.09763
1034.461	35.08861
1034.823	44.10963
1035.185	80.2002
1035.548	53.12886
1035.91	24.05775
1036.272	97.21858
1036.634	84.20411
1036.995	82.19146
1037.357	71.17198
1037.719	72.1743
1038.08	75.17714
1038.442	30.07145
1038.803	80.19089
1039.165	26.06586
1039.526	68.16369
1039.887	77.1832
1040.248	14.03471
1040.609	79.19408
1040.97	92.22297
1041.331	78.19639
1041.692	56.13049
1042.053	56.1273
1042.413	92.21252
1042.774	39.095
1043.134	139.32511
1043.495	47.11815
1043.855	62.14998
1044.215	70.17302
1044.576	58.1384
1044.936	62.14174
1045.296	81.20091
1045.656	91.2215
1046.016	111.26471
1046.375	74.1786
1046.735	20.04559
1047.095	46.1077
1047.454	67.14138
1047.814	91.21693
1048.173	107.25272
1048.533	101.2289
1048.892	13.03141
1049.251	67.16758
1049.61	45.11084
1049.969	61.1434
1050.328	52.11264
1050.687	48.11677
1051.046	50.12168
1051.405	92.22698
1051.763	-4.00929
1052.122	32.08002
1052.48	75.18296
1052.839	41.09657
1053.197	26.06145
1053.555	91.20565
1053.914	73.17768
1054.272	91.21818
1054.63	20.04914
1054.988	19.04538
1055.345	65.13944
1055.703	71.1701
1056.061	36.09278
1056.419	43.11138
1056.776	90.21648
1057.134	31.072
1057.491	48.12016
1057.848	61.15147
1058.206	60.14075
1058.563	72.15789
1058.92	102.23253
1059.277	94.22987
1059.634	75.17549
1059.991	107.25341
1060.348	68.15301
1060.704	15.03596
1061.061	100.2299
1061.418	50.12118
1061.774	98.23965
1062.131	12.03191
1062.487	61.14223
1062.843	55.13692
1063.199	75.18555
1063.555	68.1569
1063.911	81.20332
1064.267	86.17784
1064.623	18.04395
1064.979	99.23219
1065.335	96.22731
1065.691	81.19287
1066.046	81.17684
1066.402	47.10678
1066.757	68.17097
1067.112	66.1614
1067.468	-2.00477
1067.823	115.27288
1068.178	52.12565
1068.533	54.13072
1068.888	85.20162
1069.243	45.11109
1069.598	78.1884
1069.952	16.03625
1070.307	27.06707
1070.662	38.09036
1071.016	19.04282
1071.371	77.17408
1071.725	83.19718
1072.079	69.16524
1072.434	45.10937
1072.788	88.20789
1073.142	94.22918
1073.496	59.13962
1073.85	73.1684
1074.203	60.14519
1074.557	72.19063
1074.911	105.2478
1075.265	92.21193
1075.618	81.19649
1075.971	83.19604
1076.325	55.13955
1076.678	5.01153
1077.031	64.14431
1077.385	124.26871
1077.738	74.16611
1078.091	7.01604
1078.444	113.2589
1078.796	58.14199
1079.149	58.14394
1079.502	20.04749
1079.855	50.11651
1080.207	121.29396
1080.56	66.16998
1080.912	70.16965
1081.264	82.19611
1081.617	58.14104
1081.969	17.0431
1082.321	87.21081
1082.673	27.06186
1083.025	69.16297
1083.377	43.09237
1083.728	85.19678
1084.08	45.11235
1084.432	56.1348
1084.783	73.17014
1085.135	24.06039
1085.486	38.08708
1085.838	55.13522
1086.189	97.23318
1086.54	107.25252
1086.891	40.10126
1087.242	48.11681
1087.593	99.23862
1087.944	17.0387
1088.295	81.18283
1088.646	25.06083
1088.996	29.07009
1089.347	72.17581
1089.698	63.1484
1090.048	100.25727
1090.398	68.15702
1090.749	70.16671
1091.099	15.03792
1091.449	40.09974
1091.799	54.13499
1092.149	-11.0271
1092.499	37.0904
1092.849	82.20706
1093.199	83.20662
1093.548	57.13666
1093.898	62.15465
1094.248	88.22442
1094.597	17.04361
1094.947	52.13855
1095.296	63.15506
1095.645	89.22973
1095.994	95.22603
1096.343	67.16794
1096.692	27.07114
1097.041	19.05165
1097.39	77.19203
1097.739	71.18371
1098.088	53.1418
1098.437	13.03433
1098.785	42.11328
1099.134	68.17986
1099.482	99.26992
1099.83	68.17798
1100.179	16.04194
1100.527	59.15639
1100.875	19.05045
1101.223	75.19814
1101.571	65.17904
1101.919	7.01841
1102.267	61.17129
1102.615	-3.00965
1102.962	16.05148
1103.31	-4.01287
1103.658	17.05472
