Data from N2 R13 sample 3_Subt2__1__12-17-11-254.txt Node

Date: Tue Sep 02 12:17:11 PDT 2025
User: uwsun
Spectrometer: HDX01956
Trigger mode: 0
Integration Time (sec): 5.000000E-1
Scans to average: 1
Nonlinearity correction enabled: true
Boxcar width: 0
Storing dark spectrum: false
XAxis mode: Wavelengths
Number of Pixels in Spectrum: 2068
>>>>>Begin Spectral Data<<<<<
194.03	28.07825
194.578	26.08196
195.127	21.06527
195.676	13.04057
196.225	75.19647
196.773	80.21654
197.321	71.18833
197.87	92.2238
198.418	119.28422
198.966	59.14339
199.513	50.11592
200.061	70.1644
200.609	97.23989
201.156	80.16098
201.704	47.11023
202.251	87.21358
202.798	74.1786
203.345	98.22503
203.892	97.22581
204.438	122.26878
204.985	72.15696
205.532	66.1614
206.078	83.18887
206.624	90.20376
207.17	107.22915
207.716	110.24509
208.262	78.14264
208.808	61.13847
209.354	98.21934
209.899	150.34926
210.445	103.23485
210.99	52.1162
211.535	142.30601
212.08	108.23174
212.625	114.26345
213.17	140.3261
213.715	42.08631
214.259	92.1986
214.804	101.2315
215.348	119.25077
215.892	114.25221
216.436	110.23613
216.98	151.30644
217.524	92.20116
218.068	168.38731
218.612	91.21326
219.155	126.27281
219.698	95.20995
220.242	101.23466
220.785	106.22971
221.328	78.18155
221.871	151.35401
222.414	98.22773
222.956	56.12581
223.499	22.04674
224.041	152.327
224.583	100.20197
225.126	95.19464
225.668	64.14537
226.21	66.15507
226.751	41.08385
227.293	135.28499
227.835	28.0643
228.376	169.35864
228.918	122.28608
229.459	57.13243
230	98.21645
230.541	133.28286
231.082	116.25985
231.622	128.27252
232.163	104.23297
232.704	110.25188
233.244	67.15499
233.784	161.36324
234.324	70.14196
234.864	79.16648
235.404	103.22754
235.944	90.19861
236.484	91.21151
237.023	94.20544
237.563	71.15232
238.102	98.21437
238.641	108.25266
239.18	79.17058
239.719	93.2165
240.258	94.19578
240.797	79.17496
241.335	107.2423
241.874	97.17133
242.412	112.24747
242.95	21.04682
243.488	97.20441
244.026	74.15769
244.564	125.23536
245.102	129.26443
245.64	121.26887
246.177	50.10442
246.715	132.29105
247.252	167.34898
247.789	191.32505
248.326	55.12196
248.863	80.16142
249.4	116.24181
249.936	75.14226
250.473	70.15059
251.009	80.1684
251.546	120.24114
252.082	104.20879
252.618	120.24325
253.154	19.04248
253.69	59.12285
254.226	84.18429
254.761	83.17129
255.297	76.15272
255.832	51.11153
256.367	72.15623
256.903	142.28179
257.438	131.28043
257.972	95.19359
258.507	83.17337
259.042	107.21169
259.576	72.14114
260.111	134.28157
260.645	113.22282
261.179	106.2248
261.713	112.22599
262.247	119.24956
262.781	46.08851
263.315	89.19875
263.849	83.18971
264.382	134.27921
264.915	103.21858
265.449	27.0602
265.982	99.20541
266.515	122.26923
267.048	115.21941
267.58	131.25941
268.113	90.17609
268.646	52.11759
269.178	99.19963
269.71	68.13576
270.243	117.24189
270.775	40.0935
271.307	108.23664
271.838	178.3798
272.37	76.17038
272.902	102.21036
273.433	67.1333
273.965	81.17931
274.496	95.21513
275.027	119.26607
275.558	81.17819
276.089	42.09366
276.62	95.22002
277.15	100.22401
277.681	105.20598
278.211	136.30012
278.741	37.07402
279.272	61.12606
279.802	112.25223
280.332	61.13019
280.861	81.17632
281.391	60.12296
281.921	112.24302
282.45	148.33084
282.98	118.2767
283.509	126.25226
284.038	115.23381
284.567	85.17944
285.096	111.24018
285.625	86.17481
286.153	68.14314
286.682	99.20174
287.21	82.17671
287.739	101.21274
288.267	70.15176
288.795	145.33981
289.323	72.14982
289.851	128.26529
290.378	91.18164
290.906	63.1358
291.433	92.20447
291.961	38.07699
292.488	72.16022
293.015	37.0778
293.542	85.19068
294.069	101.21901
294.596	161.34941
295.122	86.18159
295.649	121.234
296.175	122.26065
296.702	125.26677
297.228	163.34591
297.754	105.20637
298.28	85.16919
298.806	126.26371
299.332	63.12207
299.857	141.2745
300.383	136.30151
300.908	70.14819
301.433	142.29733
301.958	158.31559
302.483	102.22104
303.008	123.2649
303.533	131.29773
304.058	137.27968
304.582	93.18968
305.107	77.17493
305.631	158.30899
306.155	104.20783
306.679	80.16098
307.203	142.27994
307.727	91.1862
308.251	100.21319
308.775	70.14216
309.298	63.12931
309.822	87.1893
310.345	128.25721
310.868	137.27638
311.391	136.28451
311.914	84.17954
312.437	119.23013
312.96	116.22976
313.482	105.20958
314.005	96.20421
314.527	116.25685
315.049	154.32674
315.571	58.10751
316.093	109.22586
316.615	101.20272
317.137	129.23
317.659	140.28249
318.18	182.35998
318.702	140.26587
319.223	131.21692
319.744	120.21833
320.265	86.17058
320.786	80.16165
321.307	111.22496
321.828	147.26563
322.348	108.2047
322.869	49.09353
323.389	-54.07156
323.909	164.29642
324.43	149.28801
324.95	130.23316
325.47	110.21328
325.989	139.25438
326.509	105.17743
327.029	89.15466
327.548	77.13317
328.067	103.19079
328.587	136.26168
329.106	114.19658
329.625	185.3775
330.144	70.1229
330.662	109.18871
331.181	146.25364
331.7	137.23769
332.218	151.23609
332.736	149.25522
333.255	116.19725
333.773	164.27993
334.291	197.35798
334.808	55.0887
335.326	201.3152
335.844	166.26614
336.361	94.16981
336.879	106.17178
337.396	161.26675
337.913	196.3012
338.43	160.24021
338.947	129.20876
339.464	106.14909
339.981	136.21419
340.497	128.21424
341.014	172.2756
341.53	114.16609
342.046	170.27053
342.562	145.23904
343.078	171.25556
343.594	129.19829
344.11	184.27474
344.626	187.29802
345.141	176.24393
345.657	210.28881
346.172	151.22539
346.687	130.18075
347.202	148.19627
347.717	209.29539
348.232	152.23206
348.747	168.22429
349.261	121.14695
349.776	171.23173
350.29	107.15411
350.805	207.29797
351.319	187.24443
351.833	137.16987
352.347	133.17525
352.861	133.17089
353.374	225.27981
353.888	216.28474
354.401	191.23216
354.915	88.10315
355.428	179.23922
355.941	142.1719
356.454	254.28657
356.967	155.1926
357.48	203.2363
357.993	235.29763
358.505	166.20839
359.018	275.3319
359.53	237.27652
360.042	258.26417
360.554	226.2683
361.066	183.21779
361.578	197.19412
362.09	206.23328
362.602	188.18374
363.113	181.19183
363.625	210.20543
364.136	247.22877
364.647	121.12043
365.158	285.27612
365.669	187.19756
366.18	295.28681
366.691	216.19032
367.201	219.21894
367.712	170.15425
368.222	210.18623
368.733	222.16865
369.243	204.15855
369.753	205.17516
370.263	263.22821
370.773	190.17808
371.282	207.17014
371.792	107.07621
372.301	243.18317
372.811	188.17043
373.32	123.06385
373.829	196.11952
374.338	256.11979
374.847	174.08593
375.356	264.12144
375.865	203.0505
376.373	199.05836
376.882	414.15957
377.39	319.09353
377.898	205.04751
378.407	276.01265
378.915	331.98508
379.423	239.00183
379.93	269.97398
380.438	186.97833
380.946	306.92769
381.453	240.93336
381.96	255.90601
382.468	330.84278
382.975	348.8338
383.482	307.83759
383.989	161.92111
384.495	249.86093
385.002	331.81613
385.509	272.8481
386.015	357.84309
386.521	532.77992
387.028	341.88142
387.534	280.93107
388.04	509.88168
388.546	232.99737
389.051	214.06055
389.557	294.16878
390.063	792.69309
390.568	294.28855
391.073	260.38998
391.578	338.57761
392.084	117.26345
392.589	92.28789
393.093	-71.28449
393.598	264.39889
394.103	199.27624
394.607	276.21918
395.112	273.47626
395.616	165.69607
396.12	-185.22588
396.624	-181.45017
397.128	5.07207
397.632	228.32067
398.136	-315.46653
398.639	-1285.64993
399.143	-1653.31142
399.646	-1581.31457
400.15	-2327.77742
400.653	-2949.96196
401.156	-4156.24049
401.659	-5722.03596
402.162	-665.95677
402.664	-281.80673
403.167	0
403.67	0
404.172	0
404.674	0
405.176	0
405.678	0
406.18	0
406.682	0
407.184	0
407.686	0
408.187	0
408.688	0
409.19	0
409.691	0
410.192	0
410.693	0
411.194	435.30976
411.694	4082.94878
412.195	7311.44509
412.696	6201.46764
413.196	5319.32896
413.696	5958.58479
414.196	7366.23794
414.696	8734.25568
415.196	9564.61279
415.696	9834.49509
416.196	6703.671
416.695	3874.56835
417.195	2979.5415
417.694	3199.1447
418.194	2801.30929
418.693	2361.30655
419.192	2663.89886
419.691	2454.52273
420.19	2500.03868
420.688	2815.71805
421.187	2351.21253
421.685	2638.51098
422.184	2352.14482
422.682	1666.39949
423.18	1136.21291
423.678	1098.8842
424.176	733.29509
424.674	887.18873
425.172	1055.81147
425.669	895.18391
426.167	988.96408
426.664	762.79068
427.161	667.71
427.659	667.64036
428.156	472.74289
428.652	449.75254
429.149	489.73333
429.646	505.7266
430.143	410.81441
430.639	333.86599
431.135	343.89705
431.632	329.90316
432.128	268.95587
432.624	199.99227
433.12	62.99152
433.616	118.98511
434.111	74.99853
434.607	112.00728
435.103	225.9995
435.598	200.00667
436.093	196.0514
436.588	169.05012
437.083	177.06485
437.578	120.05619
438.073	-36.02296
438.568	149.09985
439.062	53.02712
439.557	92.06614
440.051	44.02987
440.546	4.00287
441.04	26.02152
441.534	-24.02381
442.028	113.09931
442.522	46.04177
443.015	23.01816
443.509	83.08184
444.002	44.04429
444.496	69.05692
444.989	37.03877
445.482	-4.0044
445.975	34.03076
446.468	3.00258
446.961	7.00609
447.454	-22.02189
447.947	-95.10368
448.439	-42.04894
448.931	-63.06408
449.424	-68.08692
449.916	-66.07955
450.408	-99.10618
450.9	-147.18189
451.392	-127.16836
451.884	-72.08345
452.375	-133.17372
452.867	-50.05817
453.358	-164.19339
453.849	-90.09557
454.341	-145.17319
454.832	-77.08423
455.323	-122.16363
455.814	-46.05657
456.304	-85.10719
456.795	-45.05575
457.285	-10.01217
457.776	-6.00767
458.266	-79.10648
458.756	-96.13563
459.247	-150.20964
459.737	-170.24095
460.226	-101.13093
460.716	-180.2634
461.206	-150.22234
461.695	-79.1233
462.185	-116.16942
462.674	-89.12658
463.163	-44.05893
463.653	-92.11719
464.142	-125.19248
464.63	-150.24186
465.119	-154.23008
465.608	-91.13393
466.096	-66.09188
466.585	-56.08473
467.073	-63.10063
467.561	-81.1313
468.05	-90.14133
468.538	-122.20835
469.026	-89.14639
469.513	-96.13546
470.001	-154.24282
470.489	-113.18597
470.976	-88.14181
471.463	-146.26429
471.951	-122.2231
472.438	-132.22324
472.925	-188.32125
473.412	-88.15954
473.899	-118.19957
474.385	-129.23763
474.872	-149.25879
475.359	-166.30771
475.845	-161.24851
476.331	-105.17194
476.817	-120.225
477.303	-126.22413
477.789	-135.25231
478.275	-159.30881
478.761	-151.28683
479.247	-99.17249
479.732	-199.39554
480.218	-138.28742
480.703	-130.25785
481.188	-162.27622
481.673	-132.2409
482.158	-137.22786
482.643	-116.24095
483.128	-132.24102
483.612	-138.2622
484.097	-143.28928
484.581	-137.2624
485.066	-155.31096
485.55	-160.28771
486.034	-145.25719
486.518	-198.38777
487.002	-174.35497
487.486	-163.33336
487.969	-157.32124
488.453	-103.21829
488.936	-158.29962
489.42	-119.22097
489.903	-129.2771
490.386	-600.94824
490.869	-109.20099
491.352	-143.30267
491.835	-153.27138
492.318	-161.3115
492.8	-151.26783
493.283	-180.39705
493.765	-198.42522
494.247	-82.165
494.73	-158.30328
495.212	-88.18442
495.694	-176.35824
496.175	-223.46352
496.657	-140.29067
497.139	-59.08812
497.62	-212.44213
498.102	-179.39113
498.583	-167.37077
499.064	-198.38961
499.545	-132.26402
500.026	-165.32597
500.507	-155.31815
500.988	-168.37152
501.469	-203.4535
501.949	-165.3645
502.43	-223.47385
502.91	-179.32858
503.39	-158.35451
503.87	-163.34001
504.35	-114.23923
504.83	-187.36666
505.31	-193.41993
505.79	-203.43662
506.269	-185.39053
506.749	-226.46713
507.228	-174.36562
507.707	-162.32147
508.187	-133.28532
508.666	-242.54096
509.145	-201.42431
509.623	-202.43007
510.102	-213.47053
510.581	-129.28068
511.059	-223.50845
511.538	-147.34396
512.016	-180.39073
512.494	-136.29799
512.972	-172.37241
513.45	-261.55338
513.928	-169.37068
514.406	-214.46671
514.884	-189.4424
515.361	-149.32254
515.839	-147.30228
516.316	-149.32434
516.793	-147.33856
517.27	-164.36373
517.747	-192.45021
518.224	-141.29661
518.701	-198.40559
519.178	-180.40586
519.654	-149.32434
520.131	-178.40299
520.607	-121.273
521.083	-204.4296
521.56	-152.32756
522.036	-120.23947
522.512	-164.37235
522.987	-196.42655
523.463	-172.37511
523.939	-169.3816
524.414	-153.32497
524.89	-185.40526
525.365	-119.24503
525.84	-250.55122
526.315	-192.42671
526.79	-177.36856
527.265	-163.34213
527.74	-164.36736
528.215	-182.39659
528.689	-185.37887
529.164	-177.35674
529.638	-151.35761
530.112	-186.40479
530.587	-194.383
531.061	-180.40021
531.534	-96.21247
532.008	-176.39067
532.482	-124.26159
532.956	-230.54584
533.429	-107.23707
533.903	-126.25682
534.376	-136.27682
534.849	-146.3126
535.322	-163.35647
535.795	-136.3064
536.268	-111.24419
536.741	-97.21339
537.213	-82.17307
537.686	-121.26987
538.158	-103.21008
538.631	-137.30846
539.103	-150.30991
539.575	-86.16428
540.047	-63.12592
540.519	-29.06275
540.991	-60.13396
541.463	-45.09883
541.934	-57.11843
542.406	-98.21346
542.877	-79.16267
543.348	-17.03708
543.82	13.02865
544.291	-2.00421
544.762	-41.08769
545.233	8.01792
545.703	-15.02969
546.174	38.07844
546.645	-8.01698
547.115	75.1586
547.585	92.18504
548.056	66.13869
548.526	120.24281
548.996	165.34067
549.466	206.42961
549.935	149.30017
550.405	221.40344
550.875	201.40082
551.344	249.49955
551.814	334.62597
552.283	376.65815
552.752	360.67303
553.221	375.64517
553.69	474.8184
554.159	472.90867
554.628	507.86725
555.096	564.10291
555.565	636.05552
556.033	689.2173
556.502	733.3269
556.97	787.26779
557.438	831.44214
557.906	953.61612
558.374	977.5795
558.842	1086.79548
559.31	1216.78874
559.777	1240.99286
560.245	1386.08476
560.712	1440.08973
561.18	1553.0226
561.647	1681.14573
562.114	1791.26453
562.581	1929.6528
563.048	2010.43641
563.514	2240.75623
563.981	2332.49921
564.448	2511.4245
564.914	2758.6112
565.381	2829.49971
565.847	3036.61383
566.313	3218.53896
566.779	3416.30015
567.245	3593.4361
567.711	3724.51611
568.176	3969.00408
568.642	4218.56364
569.108	4411.33134
569.573	4732.909
570.038	4939.1413
570.504	5047.38901
570.969	5406.9205
571.434	5632.99539
571.899	5827.3856
572.363	6032.08227
572.828	6427.06034
573.293	6525.04975
573.757	6797.07147
574.222	6869.94725
574.686	7150.05399
575.15	7403.39605
575.614	7495.33077
576.078	7634.49715
576.542	7813.57046
577.006	7756.48792
577.469	7872.88438
577.933	7856.55987
578.396	7973.84131
578.86	8063.91181
579.323	7903.76896
579.786	7974.63215
580.249	7823.57427
580.712	7746.73633
581.175	7637.68646
581.637	7612.4545
582.1	7443.19322
582.563	7232.00447
583.025	7177.39832
583.487	7039.70862
583.95	6632.77215
584.412	6693.72864
584.874	6485.35007
585.336	6302.24721
585.797	6033.84858
586.259	5931.34664
586.721	5727.36014
587.182	5611.44156
587.643	5448.32107
588.105	5258.65017
588.566	5075.10793
589.027	4727.02254
589.488	4680.74936
589.949	4527.21368
590.41	4308.11815
590.87	4315.98486
591.331	4120.77943
591.791	3840.25726
592.252	3850.18509
592.712	3740.56452
593.172	3692.19805
593.632	3501.16652
594.092	3443.26059
594.552	3311.13025
595.011	3167.47614
595.471	3198.36108
595.931	3022.38364
596.39	2893.75601
596.849	2893.6218
597.308	2818.31332
597.768	2733.08381
598.227	2676.81252
598.685	2642.5989
599.144	2578.65586
599.603	2563.72184
600.062	2546.17153
600.52	2403.41748
600.978	2395.70064
601.437	2419.55523
601.895	2335.21791
602.353	2388.4179
602.811	2345.40316
603.269	2271.70836
603.727	2233.69517
604.184	2219.42421
604.642	2165.76881
605.099	2191.5499
605.557	2233.77865
606.014	2136.23097
606.471	2144.81578
606.928	2171.20065
607.385	2160.69103
607.842	2181.47362
608.299	2184.56444
608.755	2204.69902
609.212	2158.34813
609.668	2111.30433
610.125	2168.71246
610.581	2209.69693
611.037	2120.50965
611.493	2109.63888
611.949	2069.66896
612.405	2119.00692
612.861	2093.63255
613.316	2049.64242
613.772	2105.52068
614.227	1972.56509
614.683	2045.26339
615.138	1985.5439
615.593	1996.52832
616.048	2011.49869
616.503	1968.76354
616.958	1932.80359
617.412	1939.58747
617.867	1823.27297
618.321	1855.10344
618.776	1773.28113
619.23	1782.48502
619.684	1813.38728
620.138	1801.48751
620.592	1720.58112
621.046	1685.45088
621.5	1699.57414
621.954	1705.33912
622.407	1640.25927
622.861	1587.49478
623.314	1583.29494
623.768	1576.35683
624.221	1446.80178
624.674	1427.20264
625.127	1459.2826
625.58	1483.24607
626.033	1438.12009
626.485	1343.23799
626.938	1437.33202
627.39	1360.19083
627.843	1354.17498
628.295	1361.18324
628.747	1297.19504
629.199	1314.09605
629.651	1216.99265
630.103	1247.04997
630.555	1198.81796
631.006	1205.07366
631.458	1308.20722
631.909	1240.07835
632.361	1167.02607
632.812	1184.01956
633.263	1160.83947
633.714	1240.91225
634.165	1209.19206
634.616	1144.05967
635.067	1214.98385
635.518	1102.02114
635.968	1173.71716
636.419	1094.80478
636.869	1113.03577
637.319	1071.91193
637.769	1061.82607
638.219	1086.01959
638.669	1006.89861
639.119	1096.08551
639.569	1019.94803
640.019	1039.88705
640.468	1049.82357
640.918	1029.97001
641.367	1018.79608
641.816	962.71731
642.265	1058.91824
642.714	1051.91082
643.163	1003.83349
643.612	915.78853
644.061	921.55748
644.51	924.70364
644.958	936.65189
645.406	906.77634
645.855	973.937
646.303	948.80031
646.751	884.64683
647.199	961.76008
647.647	941.75452
648.095	883.66325
648.543	967.57382
648.99	950.84785
649.438	1002.8975
649.885	954.93736
650.333	913.41437
650.78	913.81827
651.227	883.78613
651.674	931.72899
652.121	888.79749
652.568	844.72079
653.015	964.00929
653.461	840.67544
653.908	890.71786
654.354	934.83734
654.801	830.6348
655.247	886.60411
655.693	888.95194
656.139	883.7666
656.585	926.83694
657.031	882.70565
657.477	930.6319
657.922	891.69968
658.368	928.90589
658.813	945.8107
659.259	885.7755
659.704	826.62539
660.149	926.78148
660.594	855.70973
661.039	862.64308
661.484	912.81922
661.929	914.77689
662.373	891.89425
662.818	883.84797
663.262	897.80787
663.707	952.01136
664.151	936.90681
664.595	935.87506
665.039	868.83534
665.483	888.91686
665.927	918.80498
666.371	843.64606
666.814	909.82119
667.258	900.78032
667.701	987.73265
668.145	942.96675
668.588	921.89956
669.031	914.79289
669.474	928.87084
669.917	912.68147
670.36	944.96224
670.803	939.89779
671.245	924.60526
671.688	921.89277
672.13	885.66214
672.573	990.09902
673.015	907.8364
673.457	972.73253
673.899	959.9409
674.341	915.86104
674.783	972.93456
675.225	905.88404
675.666	929.87071
676.108	920.66074
676.549	1025.99441
676.991	968.75648
677.432	999.59616
677.873	1014.92493
678.314	998.97166
678.755	970.96988
679.196	1006.88936
679.637	1039.09089
680.078	1023.96792
680.518	1028.96762
680.959	992.97167
681.399	996.05594
681.839	1062.1153
682.28	968.99968
682.72	1021.91149
683.16	1058.16467
683.6	1109.02843
684.039	1028.72545
684.479	1028.08242
684.919	995.88651
685.358	1134.33808
685.798	1106.38069
686.237	1108.17249
686.676	1144.12043
687.115	1140.14226
687.554	1123.14475
687.993	1155.01358
688.432	1154.09041
688.871	1214.14514
689.309	1148.19419
689.748	1212.94761
690.186	1251.33829
690.625	1177.18449
691.063	1217.3002
691.501	1290.48875
691.939	1272.48774
692.377	1243.38364
692.815	1297.39488
693.253	1330.45906
693.69	1288.15107
694.128	1289.42251
694.565	1336.43968
695.003	1378.69041
695.44	1404.47222
695.877	1388.43255
696.314	1460.26779
696.751	1419.40403
697.188	1402.39987
697.625	1496.5062
698.061	1428.56538
698.498	1548.73416
698.934	1511.67465
699.371	1556.63838
699.807	1551.65441
700.243	1591.75356
700.679	1553.51201
701.115	1682.77024
701.551	1586.6767
701.987	1634.56283
702.422	1649.76224
702.858	1625.75254
703.294	1679.6244
703.729	1696.925
704.164	1720.88137
704.599	1737.60775
705.035	1737.6201
705.47	1739.93617
705.904	1814.8307
706.339	1796.8215
706.774	1818.85648
707.209	1742.73413
707.643	1781.92763
708.078	1816.01176
708.512	1768.07463
708.946	1810.94737
709.38	1831.91558
709.814	1783.73961
710.248	1805.00873
710.682	1823.92062
711.116	1808.91331
711.549	1841.2897
711.983	1809.7962
712.416	1815.8963
712.85	1787.08618
713.283	1831.90904
713.716	1857.18801
714.149	1848.95701
714.582	1796.67925
715.015	1825.14412
715.448	1709.05705
715.881	1785.58282
716.313	1690.75163
716.746	1710.7845
717.178	1700.85678
717.61	1676.04703
718.043	1643.94384
718.475	1723.91205
718.907	1630.99516
719.339	1534.48862
719.77	1577.68207
720.202	1545.88829
720.634	1520.71483
721.065	1535.64354
721.497	1530.75642
721.928	1484.70696
722.359	1379.51912
722.79	1421.54822
723.221	1427.72956
723.652	1424.81553
724.083	1289.21894
724.514	1375.37151
724.945	1310.36213
725.375	1239.23419
725.806	1286.51752
726.236	1254.55244
726.666	1229.28242
727.096	1211.35988
727.526	1114.31111
727.956	1179.10621
728.386	1182.32873
728.816	1068.22734
729.246	1065.11786
729.675	1070.15781
730.105	1082.18006
730.534	1052.0093
730.964	1088.26111
731.393	1065.18049
731.822	999.14059
732.251	997.12075
732.68	989.93701
733.109	941.95903
733.537	895.83847
733.966	913.92928
734.395	940.81625
734.823	846.62969
735.251	806.68411
735.68	847.83573
736.108	817.80072
736.536	849.71729
736.964	757.5338
737.392	796.74015
737.82	772.61942
738.247	745.56857
738.675	757.58687
739.102	722.5982
739.53	678.54615
739.957	689.58607
740.384	729.59259
740.811	700.58352
741.238	661.44514
741.665	663.36943
742.092	655.40184
742.519	590.32745
742.945	531.17184
743.372	587.32312
743.798	569.3403
744.225	535.16738
744.651	558.28351
745.077	528.21345
745.503	522.17427
745.929	514.13734
746.355	521.19758
746.781	531.21184
747.207	448.98191
747.632	451.0261
748.058	457.06572
748.483	463.9936
748.908	430.00323
749.334	462.05858
749.759	395.8809
750.184	400.89997
750.609	394.91762
751.033	404.90301
751.458	419.88408
751.883	437.0158
752.307	360.80701
752.732	343.8188
753.156	388.90863
753.58	376.84876
754.005	375.90611
754.429	337.75779
754.853	315.75025
755.277	286.65458
755.7	295.70667
756.124	310.74019
756.548	286.65511
756.971	317.74429
757.394	304.75516
757.818	271.67627
758.241	306.74792
758.664	282.68902
759.087	204.44716
759.51	284.68382
759.933	250.58528
760.356	268.66673
760.778	220.52954
761.201	302.70838
761.623	255.60224
762.046	266.61321
762.468	261.60971
762.89	265.6353
763.312	245.58311
763.734	213.50267
764.156	228.55025
764.578	204.46147
765	258.6118
765.421	165.41372
765.843	206.52976
766.264	162.38773
766.686	178.44108
767.107	119.28769
767.528	152.37968
767.949	201.5018
768.37	191.46123
768.791	206.48926
769.212	127.31707
769.632	109.25385
770.053	167.43403
770.473	158.38046
770.894	184.45394
771.314	161.38099
771.734	159.36693
772.154	177.44796
772.575	173.39621
772.994	105.23874
773.414	173.41034
773.834	107.26704
774.254	149.36144
774.673	160.38557
775.093	137.33644
775.512	77.19036
775.931	149.37401
776.351	60.14993
776.77	120.29202
777.189	160.37635
777.607	112.28492
778.026	99.24636
778.445	78.19555
778.864	143.36346
779.282	95.22872
779.701	82.20706
780.119	66.16743
780.537	70.1753
780.955	133.33589
781.373	130.31931
781.791	79.17831
782.209	138.31586
782.627	111.29097
783.045	88.20288
783.462	93.2373
783.88	30.07831
784.297	102.2559
784.715	77.19786
785.132	97.2346
785.549	109.27154
785.966	109.27302
786.383	96.2358
786.8	121.27968
787.217	80.19009
787.633	83.20714
788.05	150.3527
788.466	138.32284
788.883	83.21156
789.299	48.11651
789.715	65.15868
790.131	115.2844
790.547	71.17777
790.963	120.29595
791.379	102.25691
791.795	65.14923
792.21	87.20357
792.626	90.21352
793.041	64.15854
793.457	105.25853
793.872	71.1675
794.287	55.13197
794.702	72.17783
795.117	84.20854
795.532	20.05065
795.947	134.31974
796.362	71.17016
796.776	110.25683
797.191	61.14992
797.605	19.04515
798.02	64.15627
798.434	121.26786
798.848	50.12381
799.262	99.24465
799.676	86.20976
800.09	90.22107
800.504	91.2205
800.918	99.22874
801.331	106.2765
801.745	72.16586
802.158	78.19498
802.572	85.20612
802.985	86.2078
803.398	101.24003
803.811	127.32371
804.224	80.19911
804.637	31.07455
805.05	75.17418
805.462	108.264
805.875	3.00787
806.288	55.13322
806.7	60.15123
807.112	56.13055
807.525	99.2434
807.937	62.15364
808.349	85.2126
808.761	83.20399
809.173	32.07822
809.584	68.16839
809.996	42.10347
810.408	55.14231
810.819	89.2089
811.231	16.04172
811.642	41.09838
812.053	59.14076
812.464	104.24597
812.875	85.21673
813.286	91.23342
813.697	132.30565
814.108	80.19534
814.519	61.13656
814.929	85.21635
815.34	68.16517
815.75	65.16533
816.16	69.17214
816.571	71.18441
816.981	108.25355
817.391	68.16443
817.801	44.10983
818.211	42.10079
818.62	48.11611
819.03	66.162
819.44	95.24708
819.849	82.20624
820.259	80.20445
820.668	24.05954
821.077	37.09244
821.486	83.1996
821.895	76.18771
822.304	46.12232
822.713	44.10463
823.122	51.12774
823.531	58.13792
823.939	52.12716
824.348	91.2205
824.756	85.21237
825.164	93.23311
825.573	61.15329
825.981	101.24914
826.389	93.23269
826.797	60.15053
827.205	84.19234
827.612	111.27189
828.02	18.0427
828.428	65.16562
828.835	52.13717
829.243	29.06969
829.65	27.06763
830.057	54.13146
830.464	54.13195
830.871	38.09158
831.278	78.18825
831.685	100.22197
832.092	82.2003
832.499	66.14461
832.905	62.15711
833.312	35.08045
833.718	67.16697
834.124	45.10339
834.531	65.16392
834.937	64.16431
835.343	55.13307
835.749	94.21861
836.155	59.15461
836.561	60.14776
836.966	72.17594
837.372	71.18053
837.777	48.11995
838.183	98.21672
838.588	71.1761
838.993	72.17515
839.399	28.06893
839.804	-4.00987
840.209	41.10476
840.613	51.11389
841.018	38.09667
841.423	80.2046
841.828	63.15934
842.232	99.24376
842.637	41.09721
843.041	41.10546
843.445	53.13318
843.849	44.10931
844.253	100.23614
844.657	28.07093
845.061	69.1565
845.465	44.10668
845.869	77.17855
846.272	68.16542
846.676	72.1739
847.079	39.09955
847.483	95.23563
847.886	144.34518
848.289	39.10441
848.692	77.19447
849.095	75.17975
849.498	93.23445
849.901	61.14004
850.304	87.207
850.707	82.20831
851.109	82.20676
851.512	56.13776
851.914	46.1162
852.316	58.14677
852.718	5.01303
853.121	35.08618
853.523	33.07758
853.925	56.14613
854.326	23.05788
854.728	40.1032
855.13	49.12657
855.531	50.11972
855.933	71.17016
856.334	56.13969
856.736	8.01812
857.137	24.05621
857.538	47.1184
857.939	25.06214
858.34	87.21097
858.741	67.17486
859.142	61.14653
859.542	29.07687
859.943	33.08239
860.343	18.0449
860.744	72.17528
861.144	69.16801
861.544	4.00971
861.945	42.10734
862.345	49.12007
862.745	62.15398
863.145	99.23491
863.544	46.11649
863.944	53.12537
864.344	65.16128
864.743	73.18067
865.143	43.11072
865.542	23.05373
865.941	53.13131
866.34	88.20966
866.74	86.22967
867.139	14.0338
867.537	82.20802
867.936	52.12531
868.335	37.09448
868.734	75.19103
869.132	86.19874
869.531	108.25879
869.929	25.05737
870.327	50.12004
870.726	101.24987
871.124	47.1101
871.522	51.13004
871.92	109.2663
872.318	59.1442
872.715	120.29366
873.113	62.15094
873.511	63.15677
873.908	28.07103
874.306	21.05256
874.703	65.1624
875.1	79.20129
875.497	36.08666
875.894	32.07875
876.291	95.23149
876.688	70.18009
877.085	82.19581
877.482	80.1994
877.878	48.11572
878.275	51.12967
878.671	104.22941
879.068	76.1828
879.464	52.12579
879.86	11.02624
880.256	53.13088
880.652	43.1096
881.048	84.20709
881.444	47.11208
881.84	80.20244
882.236	60.15075
882.631	41.10091
883.027	99.23781
883.422	41.1051
883.817	11.02786
884.213	34.08756
884.608	23.05674
885.003	70.16831
885.398	30.07543
885.793	29.07314
886.188	46.11453
886.582	86.2194
886.977	103.24224
887.371	25.06357
887.766	-14.03525
888.16	63.157
888.554	93.22839
888.949	29.07316
889.343	115.27781
889.737	19.05092
890.131	33.0831
890.525	25.06426
890.918	35.08839
891.312	61.14581
891.706	64.16763
892.099	73.18515
892.492	87.18648
892.886	65.15874
893.279	72.18284
893.672	32.08178
894.065	83.20677
894.458	98.24454
894.851	118.28576
895.244	87.2209
895.637	96.22942
896.029	95.23054
896.422	83.20172
896.814	50.1244
897.206	57.13567
897.599	122.298
897.991	28.06804
898.383	28.0665
898.775	71.15973
899.167	34.0796
899.559	73.18417
899.951	96.2245
900.342	89.22493
900.734	-3.00752
901.125	76.19865
901.517	2.00496
901.908	92.21902
902.299	63.15374
902.69	27.06404
903.082	91.21884
903.473	25.06019
903.863	82.20816
904.254	-1.00235
904.645	78.19315
905.036	32.07779
905.426	74.16877
905.817	67.16399
906.207	8.01923
906.597	32.07516
906.987	80.20639
907.378	46.11649
907.768	69.18192
908.158	38.09293
908.547	51.13178
908.937	75.19171
909.327	61.14792
909.717	67.16969
910.106	12.02905
910.495	99.2451
910.885	55.13925
911.274	55.13741
911.663	78.1971
912.052	96.23502
912.441	63.1599
912.83	73.16692
913.219	77.20068
913.608	77.18777
913.997	28.0705
914.385	62.14788
914.774	60.14591
915.162	73.17329
915.55	83.19968
915.939	14.03558
916.327	77.19133
916.715	33.08438
917.103	90.22
917.491	76.18723
917.878	66.16188
918.266	56.14513
918.654	67.17072
919.041	2.00527
919.429	37.08759
919.816	89.22413
920.203	40.09723
920.591	93.2289
920.978	71.17327
921.365	69.18051
921.752	84.19905
922.139	71.15357
922.525	40.09629
922.912	80.1941
923.299	47.11692
923.685	14.03676
924.072	95.21723
924.458	36.08944
924.844	61.15069
925.231	61.14173
925.617	54.13728
926.003	76.19341
926.389	62.15611
926.774	46.11669
927.16	70.17327
927.546	6.01544
927.931	44.10995
928.317	56.1289
928.702	50.11835
929.088	35.08305
929.473	43.10957
929.858	22.05348
930.243	40.09621
930.628	37.09026
931.013	45.11166
931.398	96.21885
931.783	56.14732
932.167	80.19454
932.552	79.19695
932.937	83.20481
933.321	58.14536
933.705	18.04565
934.09	105.26281
934.474	74.17502
934.858	56.14513
935.242	15.03502
935.626	31.07963
936.009	36.09598
936.393	56.14236
936.777	64.16351
937.16	35.09131
937.544	78.18283
937.927	20.05102
938.311	69.16788
938.694	70.18452
939.077	59.14102
939.46	71.17372
939.843	77.15976
940.226	37.09514
940.609	58.13297
940.991	36.09188
941.374	60.1464
941.757	48.11851
942.139	44.09897
942.522	81.19035
942.904	63.1511
943.286	66.16725
943.668	70.18072
944.05	52.12806
944.432	39.09645
944.814	80.19599
945.196	22.0539
945.578	-44.10648
945.959	93.21616
946.341	58.1422
946.722	69.16139
947.104	79.18782
947.485	78.18054
947.866	17.04309
948.247	67.16855
948.628	56.13648
949.009	34.08732
949.39	83.20542
949.771	101.23262
950.152	39.09592
950.532	32.07898
950.913	33.07987
951.293	27.07321
951.674	46.11136
952.054	36.08944
952.434	34.08466
952.814	55.13076
953.194	83.21602
953.574	96.23449
953.954	85.20053
954.334	76.18854
954.714	15.0368
955.093	113.27463
955.473	35.08776
955.853	61.15762
956.232	73.19935
956.611	62.14839
956.99	71.17777
957.37	93.23521
957.749	55.13111
958.128	25.06327
958.506	88.22679
958.885	71.17854
959.264	51.12497
959.643	30.06856
960.021	76.18744
960.4	78.1758
960.778	45.11096
961.156	32.08049
961.535	58.135
961.913	77.17925
962.291	17.04387
962.669	42.10655
963.047	61.15538
963.424	84.21309
963.802	77.1884
964.18	76.19143
964.557	91.20791
964.935	71.16756
965.312	38.09916
965.69	74.18452
966.067	52.12659
966.444	59.14516
966.821	46.11868
967.198	68.16443
967.575	56.13755
967.952	89.20817
968.329	73.17689
968.705	106.2246
969.082	37.09511
969.458	-17.0413
969.835	79.19128
970.211	80.20424
970.587	101.24914
970.963	70.17896
971.339	36.09423
971.715	96.23772
972.091	104.25356
972.467	68.16906
972.843	19.04742
973.219	103.24488
973.594	31.08135
973.97	104.24502
974.345	59.14097
974.721	88.21159
975.096	33.08011
975.471	61.14441
975.846	66.15809
976.221	66.16713
976.596	54.12934
976.971	98.23983
977.346	26.06083
977.72	18.04612
978.095	27.07006
978.469	133.31242
978.844	113.28089
979.218	26.06261
979.593	32.07694
979.967	54.13146
980.341	41.09458
980.715	77.19308
981.089	90.22368
981.463	43.09888
981.837	56.13669
982.21	106.24399
982.584	44.1064
982.957	11.02766
983.331	36.08534
983.704	56.13745
984.078	63.15489
984.451	105.25967
984.824	34.08305
985.197	68.16462
985.57	59.14773
985.943	86.21101
986.316	105.25538
986.688	96.22951
987.061	91.21159
987.434	58.15093
987.806	103.24732
988.179	79.18536
988.551	85.21429
988.923	56.13776
989.295	94.23302
989.667	45.1076
990.039	33.08179
990.411	43.09912
990.783	64.14696
991.155	13.03145
991.527	104.25356
991.898	39.09737
992.27	36.08928
992.641	71.17745
993.012	99.23074
993.384	28.06707
993.755	61.15521
994.126	59.14167
994.497	47.11543
994.868	86.19613
995.239	41.09953
995.61	78.19527
995.98	30.07314
996.351	46.11399
996.722	39.09065
997.092	34.08076
997.462	16.03762
997.833	64.15131
998.203	82.19761
998.573	35.08738
998.943	80.18649
999.313	21.0506
999.683	56.13424
1000.053	59.13551
1000.423	74.17901
1000.792	58.1501
1001.162	66.16194
1001.531	45.11104
1001.901	60.14928
1002.27	64.14266
1002.639	31.07946
1003.009	43.10239
1003.378	53.13543
1003.747	58.1368
1004.116	55.13146
1004.485	35.08388
1004.853	71.17918
1005.222	54.13606
1005.591	73.17255
1005.959	39.08806
1006.328	33.07452
1006.696	41.09905
1007.064	49.12327
1007.433	88.21839
1007.801	50.12272
1008.169	80.20092
1008.537	79.17386
1008.905	29.06783
1009.273	19.0472
1009.64	23.05514
1010.008	51.12153
1010.375	169.40116
1010.743	114.25988
1011.11	63.14868
1011.478	53.13107
1011.845	75.17549
1012.212	59.13328
1012.579	49.12029
1012.946	73.17295
1013.313	94.2218
1013.68	16.03621
1014.047	52.12384
1014.414	14.03329
1014.78	44.10943
1015.147	62.14958
1015.513	31.07495
1015.88	79.20094
1016.246	78.19152
1016.612	57.13028
1016.978	66.16122
1017.344	68.16746
1017.71	94.2273
1018.076	81.18983
1018.442	56.14387
1018.808	48.11999
1019.174	57.14277
1019.539	136.30765
1019.905	36.08511
1020.27	19.04714
1020.636	77.18363
1021.001	72.1716
1021.366	-1.00242
1021.731	27.06969
1022.096	23.05827
1022.461	93.21821
1022.826	76.17968
1023.191	71.18555
1023.556	47.11019
1023.92	63.15449
1024.285	78.18932
1024.649	44.10792
1025.014	49.12136
1025.378	43.10821
1025.742	44.10935
1026.107	94.21065
1026.471	25.05864
1026.835	30.07461
1027.199	1.00243
1027.562	81.18708
1027.926	92.22313
1028.29	45.11393
1028.654	51.11727
1029.017	74.18103
1029.381	42.10045
1029.744	58.14766
1030.107	57.13463
1030.471	44.10543
1030.834	49.11146
1031.197	103.24553
1031.56	87.20373
1031.923	42.10869
1032.286	68.15908
1032.648	76.18079
1033.011	57.1306
1033.374	67.1569
1033.736	21.05546
1034.099	11.02699
1034.461	41.10369
1034.823	33.08239
1035.185	68.17054
1035.548	55.13367
1035.91	96.22784
1036.272	15.03437
1036.634	72.17535
1036.995	59.13838
1037.357	56.13603
1037.719	75.18146
1038.08	89.20964
1038.442	60.14207
1038.803	70.16735
1039.165	82.20565
1039.526	54.13033
1039.887	73.17382
1040.248	20.04953
1040.609	52.12839
1040.97	33.08086
1041.331	47.119
1041.692	39.09118
1042.053	99.22309
1042.413	8.01879
1042.774	80.19337
1043.134	75.17762
1043.495	70.17524
1043.855	65.15715
1044.215	51.1265
1044.576	27.06481
1044.936	107.2424
1045.296	110.27139
1045.656	63.15415
1046.016	87.20843
1046.375	77.18574
1046.735	35.07955
1047.095	46.1077
1047.454	122.25432
1047.814	75.17934
1048.173	74.1759
1048.533	75.17087
1048.892	3.00726
1049.251	51.12793
1049.61	61.14981
1049.969	54.12712
1050.328	55.11906
1050.687	56.13603
1051.046	54.13131
1051.405	83.20512
1051.763	19.04393
1052.122	36.08996
1052.48	55.13467
1052.839	26.06142
1053.197	78.18248
1053.555	127.2849
1053.914	76.18488
1054.272	73.17562
1054.63	36.0882
1054.988	54.12811
1055.345	44.09482
1055.703	58.1393
1056.061	55.14128
1056.419	54.1396
1056.776	69.16663
1057.134	50.11569
1057.491	62.15482
1057.848	101.24896
1058.206	54.12682
1058.563	30.06637
1058.92	101.23029
1059.277	129.3134
1059.634	60.14081
1059.991	101.23947
1060.348	12.02731
1060.704	48.11436
1061.061	115.26359
1061.418	54.13077
1061.774	70.17207
1062.131	45.119
1062.487	29.06804
1062.843	40.09985
1063.199	89.21962
1063.555	55.12723
1063.911	40.10115
1064.267	44.09184
1064.623	17.04152
1064.979	128.2985
1065.335	89.21102
1065.691	73.17409
1066.046	34.07497
1066.402	77.17387
1066.757	98.24507
1067.112	41.10073
1067.468	45.10629
1067.823	83.19816
1068.178	87.20882
1068.533	65.15703
1068.888	97.22955
1069.243	20.0496
1069.598	51.12381
1069.952	43.0969
1070.307	56.13837
1070.662	63.14909
1071.016	29.06522
1071.371	57.12939
1071.725	70.16671
1072.079	57.13682
1072.434	51.12381
1072.788	68.16126
1073.142	88.21479
1073.496	50.11853
1073.85	79.18202
1074.203	36.08751
1074.557	39.10383
1074.911	84.19905
1075.265	79.18246
1075.618	80.1941
1075.971	78.18441
1076.325	48.12194
1076.678	27.06199
1077.031	39.08839
1077.385	92.20073
1077.738	75.16832
1078.091	47.10686
1078.444	59.13665
1078.796	54.1323
1079.149	79.1953
1079.502	4.00953
1079.855	83.19215
1080.207	50.12309
1080.56	46.11888
1080.912	64.15528
1081.264	66.15833
1081.617	80.19374
1081.969	52.13102
1082.321	32.07834
1082.673	-21.04858
1083.025	29.06903
1083.377	87.18511
1083.728	43.10038
1084.08	75.18623
1084.432	52.12527
1084.783	90.20906
1085.135	76.18943
1085.486	28.0643
1085.838	72.17646
1086.189	12.02931
1086.54	50.11931
1086.891	35.08868
1087.242	60.14569
1087.593	69.16726
1087.944	52.11754
1088.295	75.16949
1088.646	33.08017
1088.996	44.10603
1089.347	34.08361
1089.698	32.07583
1090.048	93.23955
1090.398	66.15246
1090.749	77.18313
1091.099	38.09568
1091.449	83.20534
1091.799	33.08281
1092.149	24.05876
1092.499	45.10978
1092.849	54.13704
1093.199	74.18452
1093.548	21.05069
1093.898	13.03271
1094.248	70.17909
1094.597	16.04105
1094.947	67.17807
1095.296	56.13801
1095.645	84.21701
1095.994	61.14608
1096.343	73.18278
1096.692	11.02906
1097.041	17.04623
1097.39	55.13771
1097.739	36.09371
1098.088	87.23146
1098.437	30.079
1098.785	62.16667
1099.134	67.17724
1099.482	67.18361
1099.83	63.16504
1100.179	6.01575
1100.527	61.16164
1100.875	21.05574
1101.223	54.14316
1101.571	54.149
1101.919	10.02628
1102.267	10.0283
1102.615	1.00322
1102.962	16.05148
1103.31	-1.00322
1103.658	14.04508
