Data from N2 R13 sample 2_Subt2__2__12-15-59-763.txt Node

Date: Tue Sep 02 12:15:59 PDT 2025
User: uwsun
Spectrometer: HDX01956
Trigger mode: 0
Integration Time (sec): 5.000000E-1
Scans to average: 1
Nonlinearity correction enabled: true
Boxcar width: 0
Storing dark spectrum: false
XAxis mode: Wavelengths
Number of Pixels in Spectrum: 2068
>>>>>Begin Spectral Data<<<<<
194.03	116.31976
194.578	125.38917
195.127	110.33797
195.676	119.36633
196.225	159.41054
196.773	197.52303
197.321	237.61106
197.87	351.81219
198.418	321.73688
198.966	279.64997
199.513	230.51413
200.061	257.58147
200.609	358.84265
201.156	234.45415
201.704	278.62245
202.251	293.6917
202.798	261.60756
203.345	303.66709
203.892	279.6261
204.438	328.69133
204.985	261.54613
205.532	330.76709
206.078	338.7293
206.624	304.65819
207.17	358.72503
207.716	297.63603
208.262	316.5432
208.808	238.52081
209.354	331.70516
209.899	379.84243
210.445	294.64442
210.99	275.58612
211.535	318.65935
212.08	309.63424
212.625	303.6738
213.17	298.67244
213.715	215.42455
214.259	349.71181
214.804	330.72149
215.348	296.59947
215.892	312.66165
216.436	304.62525
216.98	338.65663
217.524	288.60355
218.068	316.70693
218.612	254.57621
219.155	305.63508
219.698	254.54266
220.242	289.64641
220.785	346.71131
221.328	272.60876
221.871	315.71471
222.414	273.61239
222.956	269.57781
223.499	290.58005
224.041	293.61118
224.583	314.60302
225.126	292.5716
225.668	244.53394
226.21	278.62603
226.751	218.42795
227.293	298.60656
227.835	254.55676
228.376	347.70774
228.918	305.6895
229.459	263.58607
230	272.57884
230.541	298.61098
231.082	302.65051
231.622	300.6148
232.163	267.57797
232.704	272.60249
233.244	282.62438
233.784	274.60388
234.324	247.48064
234.864	259.52417
235.404	270.57559
235.944	325.68184
236.484	295.65792
237.023	258.54427
237.563	268.55046
238.102	290.60855
238.641	273.61792
239.18	279.57655
239.719	266.59803
240.258	309.61276
240.797	241.51567
241.335	263.5766
241.874	294.49268
242.412	257.55061
242.95	188.40462
243.488	290.58516
244.026	279.56801
244.564	265.4818
245.102	337.65828
245.64	263.56712
246.177	250.49889
246.715	348.73251
247.252	312.631
247.789	316.5197
248.326	264.55986
248.863	279.53723
249.4	269.54167
249.936	286.51457
250.473	291.59622
251.009	268.54077
251.546	318.60982
252.082	328.62444
252.618	289.56318
253.154	267.56635
253.69	345.67263
254.226	255.53924
254.761	278.54857
255.297	226.43842
255.832	289.60016
256.367	301.62117
256.903	320.60862
257.438	347.70806
257.972	311.60259
258.507	246.49524
259.042	320.6015
259.576	256.48001
260.111	295.59785
260.645	342.63811
261.179	281.57313
261.713	324.62193
262.247	329.65791
262.781	292.52861
263.315	328.69619
263.849	299.65359
264.382	319.63732
264.915	289.58837
265.449	258.54762
265.982	331.65117
266.515	297.63136
267.048	300.54669
267.58	336.63345
268.113	313.58009
268.646	300.64398
269.178	258.50121
269.71	307.57891
270.243	353.69117
270.775	303.67156
271.307	339.7065
271.838	347.7132
272.37	311.66342
272.902	348.678
273.433	293.55224
273.965	360.75043
274.496	352.75527
275.027	328.70165
275.558	309.64713
276.089	282.59751
276.62	305.67684
277.15	356.75528
277.681	316.58901
278.211	302.64324
278.741	275.51984
279.272	298.58307
279.802	327.7039
280.332	336.67424
280.861	344.70688
281.391	291.56519
281.921	341.70372
282.45	321.69188
282.98	331.74369
283.509	306.58709
284.038	356.68402
284.567	355.70496
285.096	341.7015
285.625	339.64931
286.153	317.63068
286.682	293.5707
287.21	303.62193
287.739	322.64525
288.267	304.6261
288.795	383.85556
289.323	371.72057
289.851	335.66214
290.378	288.54855
290.906	296.60605
291.433	369.77278
291.961	307.58375
292.488	336.70663
293.015	348.68155
293.542	325.69298
294.069	326.67291
294.596	363.75382
295.122	358.71076
295.649	352.6431
296.175	404.81032
296.702	322.65779
297.228	369.74782
297.754	347.64311
298.28	348.65027
298.806	370.73252
299.332	350.63168
299.857	373.68613
300.383	367.77437
300.908	347.69004
301.433	340.68069
301.958	387.73194
302.483	344.70688
303.008	426.85761
303.533	383.82585
304.058	440.83647
304.582	339.65276
305.107	345.74105
305.631	408.75071
306.155	362.68012
306.679	344.65012
307.203	340.6391
307.727	439.82745
308.251	384.76807
308.775	377.71197
309.298	386.73451
309.822	432.87088
310.345	422.79052
310.868	452.8459
311.391	445.8672
311.914	457.89778
312.437	454.8077
312.96	432.79248
313.482	410.76045
314.005	415.82142
314.527	447.92121
315.049	488.95982
315.571	457.76322
316.093	467.89018
316.615	453.83541
317.137	500.80648
317.659	524.96421
318.18	459.84902
318.702	440.77467
319.223	408.62418
319.744	505.82955
320.265	418.76486
320.786	466.85831
321.307	487.90218
321.828	573.92355
322.348	467.80782
322.869	442.76354
323.389	261.30976
323.909	489.81087
324.43	557.97179
324.95	506.82032
325.47	485.85639
325.989	555.90973
326.509	477.72528
327.029	567.86177
327.548	467.72448
328.067	505.84204
328.587	552.9562
329.106	547.83531
329.625	600.10752
330.144	560.85798
330.662	555.84804
331.181	568.87747
331.7	591.90312
332.218	546.75681
332.736	595.89846
333.255	593.87989
333.773	609.91633
334.291	644.0371
334.808	621.84353
335.326	718.96002
335.844	657.90837
336.361	565.89879
336.879	610.85006
337.396	657.94131
337.913	660.87757
338.43	704.88715
338.947	715.96903
339.464	675.78131
339.981	599.81892
340.497	711.00184
341.014	611.85829
341.53	711.84907
342.046	712.9602
342.562	716.99624
343.078	707.88877
343.594	762.95719
344.11	774.95402
344.626	795.05006
345.141	804.89506
345.657	773.87396
346.172	809.97302
346.687	736.82906
347.202	768.81343
347.717	851.96491
348.232	830.01745
348.747	838.87744
349.261	735.70189
349.776	815.87777
350.29	758.87555
350.805	888.01366
351.319	866.88066
351.833	770.74808
352.347	890.8851
352.861	879.85091
353.374	916.87224
353.888	838.88099
354.401	918.83621
354.915	909.75637
355.428	895.92135
355.941	919.81413
356.454	949.79934
356.967	923.8488
357.48	971.82208
357.993	908.89101
358.505	978.89399
359.018	999.904
359.53	967.83592
360.042	1027.73616
360.554	995.86372
361.066	901.80242
361.578	1007.66991
362.09	944.78248
362.602	996.65591
363.113	1007.73257
363.625	1047.67947
364.136	1072.65004
364.647	963.63704
365.158	1141.72397
365.669	1097.76019
366.18	1069.71384
366.691	1133.60332
367.201	1078.71213
367.712	1126.60982
368.222	1113.60375
368.733	1092.4807
369.243	1160.49491
369.753	1164.57501
370.263	1207.61791
370.773	1107.64486
371.282	1160.54198
371.792	1171.3901
372.301	1239.48769
372.811	1305.63385
373.32	1208.19723
373.829	1271.31022
374.338	1335.16732
374.847	1315.16807
375.356	1419.13977
375.865	1451.86552
376.373	1586.85807
376.882	1649.03708
377.39	1626.88871
377.898	1633.7668
378.407	1712.53597
378.915	1867.36459
379.423	1880.38845
379.93	1970.23237
380.438	1970.19129
380.946	2160.00173
381.453	2078.0024
381.96	2431.79923
382.468	2486.8112
382.975	2553.79709
383.482	2610.89639
383.989	2563.83657
384.495	2771.092
385.002	2785.62959
385.509	3027.81989
386.015	3246.19407
386.521	3333.32972
387.028	3613.6686
387.534	3663.64379
388.04	3766.65447
388.546	3639.18153
389.051	4013.4944
389.557	4272.37496
390.063	4839.21625
390.568	4585.72576
391.073	4794.43722
391.578	5112.95423
392.084	5001.01395
392.589	5135.29963
393.093	5493.45393
393.598	6246.40524
394.103	6552.68897
394.607	7337.70057
395.112	7625.59602
395.616	8050.77473
396.12	8565.2867
396.624	9268.13771
397.128	10305.97183
397.632	11465.77993
398.136	11916.42147
398.639	12106.95946
399.143	13827.45339
399.646	15195.05341
400.15	16159.19415
400.653	17714.15699
401.156	13031.41749
401.659	5169.95759
402.162	1054.15589
402.664	0
403.167	0
403.67	0
404.172	0
404.674	0
405.176	0
405.678	0
406.18	0
406.682	0
407.184	0
407.686	0
408.187	0
408.688	0
409.19	0
409.691	0
410.192	0
410.693	0
411.194	435.30976
411.694	4082.94878
412.195	8864.71461
412.696	12089.80453
413.196	12760.96929
413.696	12863.67595
414.196	13703.56671
414.696	17261.84252
415.196	21764.24417
415.696	29583.19008
416.196	23091.26659
416.695	17810.25614
417.195	15697.87843
417.694	15424.64851
418.194	14245.88225
418.693	12923.17866
419.192	12780.3102
419.691	12701.30621
420.19	12543.10507
420.688	12384.87734
421.187	11817.6284
421.685	11089.86993
422.184	9671.59761
422.682	8389.12191
423.18	6990.09805
423.678	6351.61367
424.176	5707.96663
424.674	5389.86454
425.172	5119.45167
425.669	5017.11649
426.167	4601.02351
426.664	4091.82372
427.161	3718.70128
427.659	3541.265
428.156	3255.06143
428.652	3057.05199
429.149	2909.95521
429.646	2875.92149
430.143	2649.75007
430.639	2569.75302
431.135	2344.86845
431.632	2235.92258
432.128	2003.14482
432.624	1844.34601
433.12	1835.22095
433.616	1796.26474
434.111	1713.40417
434.607	1627.55023
435.103	1760.44026
435.598	1564.57646
436.093	1526.84669
436.588	1348.94478
437.083	1472.97972
437.578	1305.12216
438.073	1163.26224
438.568	1183.36335
439.062	1209.16374
439.557	1091.39218
440.051	1002.33761
440.546	982.35675
441.04	1005.46273
441.534	927.5716
442.028	985.53654
442.522	909.52117
443.015	942.42093
443.509	930.60511
444.002	799.56216
444.496	850.4484
444.989	810.59512
445.482	879.65175
445.975	796.48308
446.468	844.45452
446.961	738.43229
447.454	731.50633
447.947	630.49929
448.439	755.62936
448.931	720.50509
449.424	748.69669
449.916	721.63071
450.408	573.45591
450.9	585.54189
451.392	608.61335
451.884	612.53402
452.375	506.52123
452.867	649.56518
453.358	498.44804
453.849	557.44311
454.341	610.53476
454.832	589.482
455.323	472.51103
455.814	554.53959
456.304	524.5239
456.795	534.52944
457.285	623.59124
457.776	566.58469
458.266	449.50168
458.756	459.53629
459.247	408.47006
459.737	371.4372
460.226	447.47341
460.716	384.46577
461.206	360.45179
461.695	456.60224
462.185	438.53213
462.674	409.49167
463.163	386.44435
463.653	386.41182
464.142	408.53082
464.63	405.55157
465.119	335.42733
465.608	387.48724
466.096	322.39304
466.585	376.49615
467.073	320.45565
467.561	384.54167
468.05	308.42833
468.538	289.4393
469.026	293.43105
469.513	312.38383
470.001	305.41775
470.489	274.40272
470.976	285.41105
471.463	258.41909
471.951	255.42204
472.438	249.3778
472.925	176.27142
473.412	243.40352
473.899	283.42684
474.385	205.34606
474.872	217.34049
475.359	142.24303
475.845	155.21711
476.331	209.31236
476.817	227.38925
477.303	225.36393
477.789	126.22029
478.275	140.25252
478.761	206.35732
479.247	184.29668
479.732	99.1831
480.218	142.27731
480.703	102.19134
481.188	142.22234
481.673	117.20008
482.158	74.11593
482.643	151.29495
483.128	149.25275
483.612	50.09065
484.097	139.26301
484.581	96.17351
485.066	101.19064
485.55	53.0901
486.034	80.13361
486.518	55.10126
487.002	70.13488
487.486	72.1394
487.969	51.09943
488.453	66.13471
488.936	47.08467
489.42	71.1256
489.903	58.11956
490.386	-382.56569
490.869	48.08503
491.352	79.15908
491.835	89.14794
492.318	42.07731
492.8	78.13012
493.283	-6.01275
493.765	2.00411
494.247	49.09562
494.73	22.04039
495.212	38.07742
495.694	-17.03335
496.175	-87.17535
496.657	33.06587
497.139	37.05365
497.62	-17.03392
498.102	-27.0571
498.583	25.05329
499.064	-37.07004
499.545	-1.00194
500.026	6.01138
500.507	1.00198
500.988	7.01491
501.469	-60.13008
501.949	-11.02352
502.43	-62.12712
502.91	-44.07802
503.39	11.02382
503.87	6.01205
504.35	24.04883
504.83	-71.13539
505.31	-23.04823
505.79	-70.14625
506.269	-5.01014
506.749	-88.17626
507.228	-86.1772
507.707	-65.12606
508.187	-32.06715
508.666	-105.22807
509.145	-100.20642
509.623	-74.15316
510.102	-43.09161
510.581	-26.05533
511.059	-113.25193
511.538	-27.06169
512.016	0
512.494	-43.09237
512.972	-40.08416
513.45	-93.18994
513.928	-74.15906
514.406	-164.35388
514.884	-70.16003
515.361	-87.18584
515.839	-107.21804
516.316	-37.07862
516.793	-62.14037
517.27	-89.19431
517.747	-101.23262
518.224	-42.08642
518.701	-35.06905
519.178	-128.28554
519.654	-61.1303
520.131	-88.19558
520.607	-50.11117
521.083	-86.1764
521.56	-65.13746
522.036	-100.19863
522.512	-71.15816
522.987	-116.24816
523.463	-75.1602
523.939	-70.15487
524.414	-44.09123
524.89	-84.18009
525.365	-97.19874
525.84	-136.2927
526.315	-73.15823
526.79	-34.06854
527.265	-87.17954
527.74	-95.20978
528.215	-51.10804
528.689	-96.19264
529.164	-80.15764
529.638	-81.18923
530.112	-113.2421
530.587	-125.24278
531.061	-122.26799
531.534	-71.15632
532.008	-90.1962
532.482	-53.11007
532.956	-135.31452
533.429	-22.04788
533.903	-59.11842
534.376	-43.08567
534.849	-45.09425
535.322	-60.12836
535.795	-24.05283
536.268	-50.10858
536.741	-36.07818
537.213	-50.10479
537.686	-23.05026
538.158	-64.12938
538.631	-25.055
539.103	-60.12146
539.575	-9.01687
540.047	-21.04157
540.519	-3.00646
540.991	21.0461
541.463	-2.00435
541.934	-17.035
542.406	21.04458
542.877	14.02822
543.348	7.01519
543.82	77.1674
544.291	79.16325
544.762	30.06318
545.233	46.10224
545.703	28.05486
546.174	65.13336
546.645	29.06106
547.115	97.20414
547.585	155.30722
548.056	134.27735
548.526	214.42367
548.996	193.39597
549.466	212.44154
549.935	234.46218
550.405	240.43601
550.875	268.52611
551.344	281.55958
551.814	325.61045
552.283	403.70041
552.752	306.57972
553.221	346.59988
553.69	433.75576
554.159	451.87262
554.628	356.63364
555.096	451.90689
555.565	449.78452
556.033	508.94086
556.502	560.05783
556.97	528.91363
557.438	578.06949
557.906	634.16691
558.374	634.12312
558.842	710.29466
559.31	751.26033
559.777	736.3503
560.245	861.4975
560.712	890.50938
561.18	942.47782
561.647	875.42438
562.114	1010.61885
562.581	1068.87282
563.048	1134.80008
563.514	1139.94105
563.981	1224.8775
564.448	1310.90476
564.914	1416.10627
565.381	1478.09567
565.847	1535.22585
566.313	1600.25549
566.779	1649.1859
567.245	1704.34146
567.711	1762.45818
568.176	1884.28398
568.642	1991.76607
569.108	2035.70826
569.573	2103.58262
570.038	2152.14949
570.504	2267.38928
570.969	2321.91615
571.434	2412.31105
571.899	2496.69413
572.363	2609.49784
572.828	2674.53691
573.293	2749.52681
573.757	2773.52935
574.222	2843.3595
574.686	2866.37123
575.15	3003.65684
575.614	2963.48435
576.078	3070.57677
576.542	3124.42376
577.006	3103.36865
577.469	3196.89285
577.933	3125.30951
578.396	3104.66424
578.86	3171.5991
579.323	3059.66352
579.786	3071.17603
580.249	2928.45433
580.712	3033.83805
581.175	2895.8892
581.637	2964.55255
582.1	2853.33825
582.563	2931.22898
583.025	2696.80233
583.487	2688.98033
583.95	2644.23113
584.412	2706.16217
584.874	2627.81614
585.336	2435.67954
585.797	2411.2858
586.259	2386.67506
586.721	2328.61636
587.182	2373.65083
587.643	2394.50657
588.105	2275.65774
588.566	2207.18507
589.027	2190.68682
589.488	2130.46616
589.949	2165.72986
590.41	2027.86753
590.87	2105.47786
591.331	2099.26442
591.791	1998.45382
592.252	1975.40023
592.712	1963.60834
593.172	2005.37129
593.632	1988.28734
594.092	2000.34057
594.552	1980.20774
595.011	1918.39382
595.471	1998.3517
595.931	1998.33476
596.39	1992.59524
596.849	2043.51523
597.308	2086.27844
597.768	2064.88516
598.227	2106.68646
598.685	2087.50189
599.144	2226.59707
599.603	2256.66592
600.062	2307.16903
600.52	2379.41498
600.978	2465.71247
601.437	2520.56519
601.895	2583.21947
602.353	2639.42626
602.811	2694.41279
603.269	2788.77131
603.727	2874.76442
604.184	2930.43377
604.642	3064.86465
605.099	3045.57712
605.557	3243.811
606.014	3266.12068
606.471	3399.86636
606.928	3501.97733
607.385	3511.64871
607.842	3744.24042
608.299	3776.35215
608.755	3832.50819
609.212	3891.00062
609.668	3983.90666
610.125	4039.4473
610.581	4207.31716
611.037	4188.09502
611.493	4131.32438
611.949	4195.36187
612.405	4225.34481
612.861	4284.243
613.316	4291.28311
613.772	4246.0876
614.227	4235.24761
614.683	4311.69367
615.138	4303.16715
615.593	4221.17919
616.048	4134.16928
616.503	4162.60912
616.958	4014.7819
617.412	3948.45668
617.867	3863.08614
618.321	3941.75019
618.776	3803.17174
619.23	3823.49631
619.684	3735.34219
620.138	3585.58031
620.592	3495.86075
621.046	3452.69689
621.5	3473.88322
621.954	3413.49844
622.407	3289.47734
622.861	3234.96722
623.314	3172.6397
623.768	3064.7763
624.221	3007.99637
624.674	2980.74405
625.127	2946.83883
625.58	2963.73464
626.033	2868.59315
626.485	2767.9732
626.938	2743.96779
627.39	2702.85295
627.843	2577.82655
628.295	2585.82952
628.747	2579.96966
629.199	2598.76057
629.651	2482.74563
630.103	2471.78907
630.555	2411.44962
631.006	2471.92102
631.458	2402.93358
631.909	2398.83957
632.361	2374.89386
632.812	2275.81549
633.263	2275.53773
633.714	2266.5187
634.165	2283.07171
634.616	2162.93167
635.067	2186.66315
635.518	2193.97585
635.968	2205.28412
636.419	2159.57681
636.869	2127.94481
637.319	2145.8236
637.769	2061.65124
638.219	2034.93131
638.669	2013.89954
639.119	2021.01561
639.569	1985.94054
640.019	1985.77663
640.468	1937.61338
640.918	2029.98191
641.367	1926.62925
641.816	1887.59878
642.265	1925.75176
642.714	1862.71502
643.163	1865.69562
643.612	1792.79595
644.061	1810.35729
644.51	1785.60648
644.958	1764.46722
645.406	1781.7905
645.855	1722.84446
646.303	1722.67161
646.751	1713.55601
647.199	1765.60026
647.647	1708.59784
648.095	1632.5246
648.543	1677.20907
648.99	1570.61263
649.438	1605.60264
649.885	1732.90632
650.333	1658.03478
650.78	1569.65702
651.227	1552.66667
651.674	1566.46074
652.121	1560.68051
652.568	1555.66693
653.015	1638.9133
653.461	1507.54862
653.908	1542.52116
654.354	1569.63433
654.801	1453.45014
655.247	1506.30753
655.693	1471.83944
656.139	1424.49725
656.585	1500.58359
657.031	1436.41544
657.477	1482.2346
657.922	1482.43035
658.368	1451.63265
658.813	1514.51056
659.259	1438.52193
659.704	1403.39204
660.149	1435.4287
660.594	1424.47783
661.039	1432.35942
661.484	1424.50761
661.929	1458.47381
662.373	1317.54156
662.818	1376.56827
663.262	1456.56292
663.707	1342.59666
664.151	1371.51947
664.595	1387.49458
665.039	1376.58839
665.483	1354.63232
665.927	1396.44029
666.371	1297.26348
666.814	1381.46864
667.258	1319.35615
667.701	1418.21473
668.145	1341.55363
668.588	1302.45713
669.031	1360.39067
669.474	1287.38224
669.917	1316.18498
670.36	1358.56436
670.803	1306.41932
671.245	1314.05222
671.688	1345.50224
672.13	1270.16238
672.573	1326.60812
673.015	1270.35939
673.457	1265.08662
673.899	1314.44499
674.341	1279.38728
674.783	1316.41144
675.225	1276.43831
675.666	1243.3233
676.108	1237.05476
676.549	1302.36786
676.991	1294.15645
677.432	1268.87492
677.873	1297.29421
678.314	1273.35392
678.755	1285.4232
679.196	1246.20306
679.637	1304.46689
680.078	1283.31501
680.518	1324.35486
680.959	1264.35399
681.399	1275.46967
681.839	1303.45247
682.28	1281.46137
682.72	1196.14271
683.16	1327.5524
683.6	1355.32822
684.039	1305.02807
684.479	1284.45128
684.919	1218.1845
685.358	1326.61783
685.798	1265.63103
686.237	1366.51836
686.676	1333.35696
687.115	1320.373
687.554	1383.47853
687.993	1296.17745
688.432	1328.30152
688.871	1329.27969
689.309	1351.45792
689.748	1405.13688
690.186	1390.51077
690.625	1308.35015
691.063	1392.52074
691.501	1384.61106
691.939	1306.53403
692.377	1403.58873
692.815	1371.48569
693.253	1366.50339
693.69	1405.27337
694.128	1342.4899
694.565	1415.53355
695.003	1403.72329
695.44	1411.48012
695.877	1372.41436
696.314	1393.20482
696.751	1469.45601
697.188	1405.40312
697.625	1449.45779
698.061	1407.54096
698.498	1392.5563
698.934	1453.60983
699.371	1379.44746
699.807	1387.47562
700.243	1413.55828
700.679	1416.37646
701.115	1343.41513
701.551	1413.49393
701.987	1465.4069
702.422	1438.54416
702.858	1439.55707
703.294	1468.4311
703.729	1412.61506
704.164	1429.57955
704.599	1411.32012
705.035	1368.28549
705.47	1343.50588
705.904	1453.49888
706.339	1467.51777
706.774	1479.5452
707.209	1408.41787
707.643	1400.53912
708.078	1390.57037
708.512	1359.61409
708.946	1472.61799
709.38	1436.53799
709.814	1411.39936
710.248	1373.5545
710.682	1367.46719
711.116	1362.46496
711.549	1324.67568
711.983	1332.34001
712.416	1347.42972
712.85	1383.64014
713.283	1294.36508
713.716	1362.64168
714.149	1336.44212
714.582	1287.20845
715.015	1310.561
715.448	1304.57193
715.881	1324.18275
716.313	1221.24405
716.746	1211.24224
717.178	1174.25047
717.61	1222.47379
718.043	1237.44353
718.475	1176.27697
718.907	1241.49922
719.339	1139.04907
719.77	1142.16593
720.202	1142.34412
720.634	1117.19889
721.065	1085.08893
721.497	1144.26108
721.928	1074.15898
722.359	1045.06744
722.79	1063.07871
723.221	1080.23653
723.652	1102.34077
724.083	988.83642
724.514	1033.94254
724.945	974.90625
725.375	961.85556
725.806	989.0701
726.236	1015.17677
726.666	964.90797
727.096	936.94301
727.526	922.99535
727.956	858.65917
728.386	939.95573
728.816	796.76063
729.246	849.77364
729.675	837.77862
730.105	825.7607
730.534	814.64454
730.964	853.86598
731.393	839.80604
731.822	795.77921
732.251	805.78461
732.68	796.62943
733.109	774.67067
733.537	760.60823
733.966	748.63723
734.395	738.49423
734.823	745.46957
735.251	691.48024
735.68	751.66071
736.108	709.59772
736.536	706.47432
736.964	649.34707
737.392	664.49167
737.82	639.37933
738.247	658.4116
738.675	676.44216
739.102	585.33148
739.53	600.38956
739.957	576.35549
740.384	656.45501
740.811	587.35808
741.238	563.25603
741.665	528.12312
742.092	556.21507
742.519	529.20484
742.945	530.16988
743.372	503.15292
743.798	554.30871
744.225	505.1088
744.651	487.1358
745.077	472.09666
745.503	479.08684
745.929	496.10156
746.355	520.19551
746.781	442.02643
747.207	358.79956
747.632	393.90646
748.058	461.07422
748.483	447.96258
748.908	380.8972
749.334	363.84993
749.759	376.84183
750.184	367.83132
750.609	393.91547
751.033	372.83699
751.458	383.81451
751.883	400.93855
752.307	322.72748
752.732	278.67191
753.156	361.84988
753.58	337.76679
754.005	336.81787
754.429	298.67546
754.853	276.6623
755.277	290.6632
755.7	343.8141
756.124	278.66786
756.548	287.65726
756.971	301.70893
757.394	272.67963
757.818	289.71883
758.241	283.69467
758.664	260.63787
759.087	150.33254
759.51	257.62198
759.933	251.58751
760.356	243.60729
760.778	209.50412
761.201	233.55391
761.623	270.63581
762.046	304.69549
762.468	223.52484
762.89	190.46201
763.312	221.52842
763.734	198.46863
764.156	197.47823
764.578	225.5068
765	174.41931
765.421	133.33541
765.843	194.49995
766.264	199.47291
766.686	174.43148
767.107	168.40239
767.528	142.35535
767.949	188.47045
768.37	180.43557
768.791	186.44347
769.212	126.31463
769.632	143.33079
770.053	165.42898
770.473	126.30525
770.894	165.40849
771.314	204.47872
771.734	116.26999
772.154	181.45775
772.575	148.34066
772.994	120.27201
773.414	163.38737
773.834	104.25969
774.254	133.3236
774.673	166.39957
775.093	117.28839
775.512	116.28472
775.931	173.43237
776.351	96.23833
776.77	105.25624
777.189	115.27288
777.607	116.29489
778.026	91.22678
778.445	53.13347
778.864	124.31623
779.282	98.23581
779.701	90.22693
780.119	103.25957
780.537	91.22703
780.955	133.33589
781.373	128.31452
781.791	87.19605
782.209	173.39318
782.627	93.24453
783.045	129.29497
783.462	53.13619
783.88	104.26803
784.297	87.21886
784.715	42.10858
785.132	75.18214
785.549	41.1034
785.966	109.27302
786.383	100.24545
786.8	139.32013
787.217	74.17603
787.633	102.25369
788.05	128.30226
788.466	148.34555
788.883	68.17379
789.299	89.21436
789.715	102.24729
790.131	87.21626
790.547	111.27592
790.963	81.2012
791.379	107.26926
791.795	104.2369
792.21	129.29936
792.626	113.26689
793.041	69.17077
793.457	120.29464
793.872	40.09493
794.287	56.13434
794.702	64.15831
795.117	59.14714
795.532	60.15086
795.947	91.21892
796.362	107.25468
796.776	127.29553
797.191	97.2368
797.605	36.08528
798.02	28.06883
798.434	112.2484
798.848	71.17514
799.262	51.12714
799.676	102.24804
800.09	89.21865
800.504	81.19664
800.918	66.15349
801.331	102.26624
801.745	88.20207
802.158	48.12064
802.572	173.41255
802.985	84.20304
803.398	82.19559
803.811	106.27118
804.224	107.26501
804.637	48.11506
805.05	83.19246
805.462	92.22556
805.875	33.0861
806.288	61.14759
806.7	50.12625
807.112	87.20157
807.525	88.21679
807.937	28.06982
808.349	83.20767
808.761	42.104
809.173	73.17709
809.584	129.31586
809.996	93.22696
810.408	46.11921
810.819	104.2434
811.231	77.19869
811.642	87.20692
812.053	131.3082
812.464	88.20877
812.875	97.24681
813.286	72.1853
813.697	140.32366
814.108	116.28134
814.519	92.20464
814.929	91.23138
815.34	92.22246
815.75	68.17287
816.16	72.17953
816.571	65.169
816.981	112.26273
817.391	92.22146
817.801	34.08502
818.211	65.15531
818.62	37.08969
819.03	104.25347
819.44	71.18542
819.849	78.19632
820.259	73.18679
820.668	29.07188
821.077	55.13697
821.486	101.24206
821.895	78.19258
822.304	75.19847
822.713	44.10463
823.122	74.18458
823.531	70.16607
823.939	51.12474
824.348	102.24664
824.756	80.20006
825.164	100.25034
825.573	30.07581
825.981	96.23702
826.389	82.20558
826.797	91.22703
827.205	101.23048
827.612	84.20679
828.02	-1.00238
828.428	43.10999
828.835	68.17889
829.243	93.22076
829.65	32.08008
830.057	69.16751
830.464	81.19693
830.871	95.22646
831.278	55.13332
831.685	33.07427
832.092	89.21711
832.499	48.10557
832.905	85.21452
833.312	85.19342
833.718	119.29375
834.124	55.12612
834.531	89.22349
834.937	93.23755
835.343	90.21631
835.749	118.27313
836.155	99.25766
836.561	63.15506
836.966	85.2072
837.372	95.24052
837.777	55.13727
838.183	82.18194
838.588	68.16876
838.993	85.20627
839.399	51.12502
839.804	8.0197
840.209	26.06661
840.613	35.07842
841.018	54.13699
841.423	73.18692
841.828	73.1843
842.232	113.27751
842.637	63.14874
843.041	81.2069
843.445	60.15058
843.849	64.15842
844.253	57.13572
844.657	63.1586
845.061	50.11385
845.465	81.19501
845.869	70.16254
846.272	55.13412
846.676	98.23554
847.079	27.06906
847.483	71.17688
847.886	111.26775
848.289	42.11239
848.692	67.16951
849.095	92.21978
849.498	135.33777
849.901	63.14458
850.304	77.18356
850.707	62.15806
851.109	117.29316
851.512	92.22481
851.914	52.13121
852.316	78.19667
852.718	16.04161
853.121	30.07393
853.523	83.19322
853.925	64.16677
854.326	80.19926
854.728	48.12366
855.13	66.16998
855.531	53.12683
855.933	112.26632
856.334	28.0702
856.736	38.08554
857.137	53.12343
857.538	49.1234
857.939	54.13352
858.34	87.21097
858.741	78.20318
859.142	57.13703
859.542	58.153
859.943	38.09479
860.343	48.11908
860.744	100.24217
861.144	37.09063
861.544	10.02425
861.945	31.07938
862.345	62.15156
862.745	68.16869
863.145	130.30662
863.544	89.22365
863.944	93.21829
864.344	124.30435
864.743	88.21719
865.143	75.19205
865.542	71.16431
865.941	48.11903
866.34	77.18384
866.74	59.15827
867.139	22.05304
867.537	68.17293
867.936	70.16812
868.335	56.14251
868.734	56.14312
869.132	50.11638
869.531	79.19034
869.929	58.13222
870.327	70.16741
870.726	66.16433
871.124	82.19078
871.522	12.03081
871.92	61.15036
872.318	81.19716
872.715	106.26008
873.113	79.19171
873.511	61.15185
873.908	9.02291
874.306	28.06999
874.703	50.12526
875.1	102.25884
875.497	66.15797
875.894	54.13235
876.291	72.1762
876.688	23.05966
877.085	39.0939
877.482	91.22637
877.878	70.16805
878.275	51.12967
878.671	91.20128
879.068	80.19228
879.464	50.121
879.86	52.12308
880.256	64.15773
880.652	61.15499
881.048	97.23857
881.444	54.1286
881.84	76.19245
882.236	50.12585
882.631	37.09114
883.027	83.19998
883.422	73.18607
883.817	7.01774
884.213	70.17915
884.608	31.07636
885.003	14.03402
885.398	41.10288
885.793	50.12562
886.188	32.07988
886.582	84.21437
886.977	73.17269
887.371	83.20887
887.766	27.06748
888.16	58.14467
888.554	96.23563
888.949	81.20245
889.343	106.25651
889.737	8.02148
890.131	38.09561
890.525	65.16591
890.918	68.17072
891.312	104.24654
891.706	89.23211
892.099	131.32883
892.492	63.13574
892.886	45.11031
893.279	92.2328
893.672	53.13495
894.065	103.25566
894.458	58.14577
894.851	92.22389
895.244	33.08459
895.637	90.21533
896.029	42.10294
896.422	91.22083
896.814	76.1882
897.206	31.07415
897.599	80.19694
897.991	11.02681
898.383	16.03809
898.775	56.12637
899.167	49.11439
899.559	98.24613
899.951	86.20151
900.342	74.18752
900.734	5.01251
901.125	74.19349
901.517	59.14468
901.908	95.22603
902.299	54.132
902.69	99.23156
903.082	55.13317
903.473	24.05779
903.863	53.13524
904.254	51.11845
904.645	105.25872
905.036	44.10672
905.426	92.20905
905.817	66.16158
906.207	17.04079
906.597	2.00472
906.987	82.21148
907.378	45.11397
907.768	94.24679
908.158	64.15575
908.547	69.17773
908.937	68.17403
909.327	70.16946
909.717	74.18719
910.106	43.10349
910.495	92.22806
910.885	73.18423
911.274	57.14236
911.663	85.21452
912.052	85.20851
912.441	51.12972
912.83	63.14435
913.219	77.20068
913.608	59.14436
913.997	6.01517
914.385	47.11243
914.774	65.15792
915.162	27.06466
915.55	84.20205
915.939	54.13626
916.327	92.22798
916.715	33.08438
917.103	125.30357
917.491	63.15558
917.878	52.12787
918.266	29.0755
918.654	57.14549
919.041	27.07078
919.429	57.13442
919.816	61.15439
920.203	57.13812
920.591	60.14858
920.978	68.16604
921.365	70.18309
921.752	55.13106
922.139	56.12151
922.525	59.14151
922.912	70.17016
923.299	32.07982
923.685	53.13823
924.072	32.0741
924.458	28.06967
924.844	85.20905
925.231	65.1509
925.617	27.06897
926.003	48.12276
926.389	73.18344
926.774	74.18679
927.16	94.23166
927.546	12.03084
927.931	80.19861
928.317	78.17875
928.702	57.13473
929.088	60.14169
929.473	41.10451
929.858	8.0195
930.243	56.13429
930.628	49.11927
931.013	55.13622
931.398	110.25006
931.783	76.19926
932.167	70.17054
932.552	56.14019
932.937	77.19022
933.321	29.07306
933.705	62.156
934.09	91.22834
934.474	65.154
934.858	66.17074
935.242	22.05129
935.626	65.16597
936.009	65.17247
936.393	30.07662
936.777	42.10772
937.16	26.06794
937.544	92.21506
937.927	51.1294
938.311	79.19186
938.694	105.27515
939.077	12.02894
939.46	82.20022
939.843	93.19227
940.226	33.08492
940.609	57.1307
940.991	40.10201
941.374	55.13432
941.757	95.23253
942.139	97.21581
942.522	74.17414
942.904	74.17711
943.286	75.18975
943.668	70.18072
944.05	78.19117
944.432	70.17213
944.814	94.22969
945.196	7.0172
945.578	62.14703
945.959	73.17034
946.341	109.26471
946.722	78.18212
947.104	82.19484
947.485	102.23497
947.866	45.11349
948.247	75.1884
948.628	115.27719
949.009	47.12043
949.39	67.1663
949.771	89.20547
950.152	38.09348
950.532	38.09368
950.913	54.13018
951.293	25.06781
951.674	78.18769
952.054	39.09684
952.434	64.15848
952.814	54.12841
953.194	94.24419
953.574	58.14268
953.954	73.17262
954.334	40.09988
954.714	-7.01724
955.093	73.17875
955.473	44.11015
955.853	87.22379
956.232	39.10708
956.611	100.23761
956.99	67.16788
957.37	92.23272
957.749	51.12167
958.128	61.1534
958.506	49.12714
958.885	49.12371
959.264	38.09334
959.643	50.1138
960.021	51.12636
960.4	56.12679
960.778	83.20323
961.156	43.10794
961.535	71.16483
961.913	30.07049
962.291	20.05158
962.669	23.05854
963.047	64.16293
963.424	64.16293
963.802	46.1132
964.18	103.25817
964.557	67.15382
964.935	74.17454
965.312	23.06017
965.69	68.16974
966.067	91.21992
966.444	106.25853
966.821	86.22033
967.198	79.19063
967.575	60.14727
967.952	90.21047
968.329	55.13372
968.705	56.11996
969.082	45.11551
969.458	8.01934
969.835	63.153
970.211	51.13087
970.587	86.21272
970.963	78.19913
971.339	45.1176
971.715	50.12485
972.091	61.14992
972.467	117.28829
972.843	61.15108
973.219	110.26117
973.594	28.07351
973.97	97.22884
974.345	64.15277
974.721	101.24224
975.096	42.10179
975.471	73.17242
975.846	85.20286
976.221	11.02813
976.596	46.11035
976.971	74.1819
977.346	58.13484
977.72	64.16264
978.095	99.25368
978.469	83.19687
978.844	84.20991
979.218	17.04101
979.593	75.17886
979.967	97.23424
980.341	57.13107
980.715	66.16582
981.089	50.12517
981.463	62.14203
981.837	77.18721
982.21	121.27768
982.584	26.06308
982.957	53.13227
983.331	61.14391
983.704	60.14716
984.078	96.23458
984.451	101.24996
984.824	53.129
985.197	59.14307
985.57	69.17245
985.943	100.24472
986.316	100.24345
986.688	52.12536
987.061	75.17494
987.434	41.107
987.806	82.19768
988.179	49.11564
988.551	75.18941
988.923	82.20075
989.295	56.13979
989.667	20.04805
990.039	64.15773
990.411	48.11053
990.783	47.10829
991.155	33.07954
991.527	116.28219
991.898	51.12705
992.27	56.13837
992.641	102.2535
993.012	79.18485
993.384	80.18972
993.755	79.20037
994.126	57.13692
994.497	37.09103
994.868	50.11486
995.239	43.10435
995.61	45.11332
995.98	30.07314
996.351	27.06714
996.722	39.09065
997.092	23.05474
997.462	56.13065
997.833	51.12088
998.203	89.21419
998.573	35.08738
998.943	55.12885
999.313	44.10555
999.683	42.10095
1000.053	51.11732
1000.423	72.17423
1000.792	46.11929
1001.162	33.08146
1001.531	62.15252
1001.901	59.14682
1002.27	65.14485
1002.639	36.0922
1003.009	54.12831
1003.378	38.09735
1003.747	54.12747
1004.116	55.13146
1004.485	56.13368
1004.853	67.16921
1005.222	94.23515
1005.591	59.13984
1005.959	50.11265
1006.328	26.05879
1006.696	32.07744
1007.064	85.21244
1007.433	78.19393
1007.801	50.12272
1008.169	61.15373
1008.537	81.17819
1008.905	10.02348
1009.273	70.17226
1009.64	24.05753
1010.008	37.08841
1010.375	113.27113
1010.743	79.18137
1011.11	24.05707
1011.478	60.1482
1011.845	96.2237
1012.212	47.10643
1012.579	40.09836
1012.946	78.18462
1013.313	106.24953
1013.68	63.14121
1014.047	40.09548
1014.414	66.15537
1014.78	46.11437
1015.147	94.22541
1015.513	83.19869
1015.88	81.20595
1016.246	105.25653
1016.612	108.24432
1016.978	61.14914
1017.344	66.1626
1017.71	95.22967
1018.076	65.15281
1018.442	64.1642
1018.808	86.2135
1019.174	65.16258
1019.539	142.32083
1019.905	30.07101
1020.27	38.09396
1020.636	95.22577
1021.001	74.1763
1021.366	40.09621
1021.731	71.18187
1022.096	43.10856
1022.461	55.13
1022.826	50.1188
1023.191	29.07633
1023.556	98.22746
1023.92	75.18351
1024.285	76.18454
1024.649	85.20689
1025.014	87.21397
1025.378	65.16293
1025.742	80.19752
1026.107	83.18642
1026.471	67.15585
1026.835	76.18744
1027.199	35.08446
1027.562	55.12768
1027.926	92.22313
1028.29	56.14151
1028.654	74.16938
1029.017	69.16895
1029.381	36.0862
1029.744	75.19036
1030.107	93.21812
1030.471	69.16455
1030.834	39.08889
1031.197	101.24086
1031.56	72.1691
1031.923	59.15224
1032.286	88.20506
1032.648	104.24606
1033.011	69.15771
1033.374	56.13142
1033.736	36.09484
1034.099	61.14831
1034.461	58.14625
1034.823	27.06748
1035.185	59.14821
1035.548	67.16247
1035.91	94.22318
1036.272	43.09797
1036.634	81.19693
1036.995	50.11748
1037.357	45.10953
1037.719	46.1119
1038.08	105.24655
1038.442	24.05722
1038.803	119.28182
1039.165	39.09857
1039.526	82.19686
1039.887	40.09585
1040.248	18.04459
1040.609	86.21101
1040.97	47.11487
1041.331	59.14906
1041.692	9.02117
1042.053	90.20318
1042.413	87.20117
1042.774	82.19813
1043.134	78.18462
1043.495	64.16039
1043.855	70.16907
1044.215	91.22406
1044.576	23.05525
1044.936	97.22019
1045.296	83.20579
1045.656	71.17346
1046.016	58.13972
1046.375	53.12842
1046.735	21.04786
1047.095	62.1447
1047.454	62.13097
1047.814	36.08672
1048.173	97.22955
1048.533	100.22668
1048.892	-10.02426
1049.251	81.20208
1049.61	57.14009
1049.969	59.13876
1050.328	20.04362
1050.687	66.16001
1051.046	38.09268
1051.405	67.16606
1051.763	35.08068
1052.122	14.03512
1052.48	61.1492
1052.839	64.15008
1053.197	67.15708
1053.555	98.22115
1053.914	61.14881
1054.272	87.20875
1054.63	7.01724
1054.988	58.13749
1055.345	86.18366
1055.703	82.19604
1056.061	59.15145
1056.419	46.11909
1056.776	64.1547
1057.134	84.19304
1057.491	79.19666
1057.848	87.215
1058.206	40.0942
1058.563	36.07955
1058.92	66.15155
1059.277	89.21784
1059.634	83.19391
1059.991	94.22318
1060.348	-7.01599
1060.704	33.07885
1061.061	75.17329
1061.418	48.11637
1061.774	51.1258
1062.131	28.07426
1062.487	33.07737
1062.843	38.09489
1063.199	75.18555
1063.555	2.00468
1063.911	80.20085
1064.267	125.25623
1064.623	59.14296
1064.979	82.19296
1065.335	108.25513
1065.691	62.14817
1066.046	64.14023
1066.402	61.13819
1066.757	106.26469
1067.112	77.18791
1067.468	3.00714
1067.823	75.17934
1068.178	81.19465
1068.533	79.19034
1068.888	88.20861
1069.243	31.07672
1069.598	71.17172
1069.952	16.03625
1070.307	6.01496
1070.662	35.08328
1071.016	26.05851
1071.371	62.1406
1071.725	92.21818
1072.079	24.05797
1072.434	35.08522
1072.788	38.09064
1073.142	91.22199
1073.496	36.08557
1073.85	90.20691
1074.203	60.14519
1074.557	46.12232
1074.911	81.19205
1075.265	73.1688
1075.618	56.13648
1075.971	57.13531
1076.325	16.04088
1076.678	38.08705
1077.031	15.03416
1077.385	61.13397
1077.738	59.13284
1078.091	47.10686
1078.444	110.25218
1078.796	36.08849
1079.149	68.16845
1079.502	29.06873
1079.855	19.04455
1080.207	42.10355
1080.56	24.06226
1080.912	53.12886
1081.264	25.06044
1081.617	30.07333
1081.969	45.11353
1082.321	79.19171
1082.673	-11.0254
1083.025	50.11853
1083.377	101.21424
1083.728	90.20815
1084.08	85.21067
1084.432	65.1562
1084.783	70.16325
1085.135	57.14257
1085.486	20.046
1085.838	75.18371
1086.189	59.14286
1086.54	39.09326
1086.891	26.06598
1087.242	61.14809
1087.593	63.15288
1087.944	52.11754
1088.295	80.18061
1088.646	65.15697
1088.996	30.07249
1089.347	35.08605
1089.698	48.11339
1090.048	58.15031
1090.398	70.16158
1090.749	87.20652
1091.099	6.01519
1091.449	31.07742
1091.799	95.23572
1092.149	-23.0568
1092.499	61.14836
1092.849	55.13955
1093.199	116.28703
1093.548	68.16269
1093.898	30.07527
1094.248	79.20179
1094.597	-3.00772
1094.947	60.15965
1095.296	53.13069
1095.645	65.16848
1095.994	54.12949
1096.343	77.19266
1096.692	39.10255
1097.041	-8.02184
1097.39	54.13523
1097.739	64.1658
1098.088	76.20256
1098.437	17.04487
1098.785	61.16401
1099.134	83.21898
1099.482	53.14557
1099.83	41.10781
1100.179	29.07584
1100.527	49.1301
1100.875	24.06367
1101.223	88.23197
1101.571	43.11885
1101.919	-6.01581
1102.267	27.07621
1102.615	-3.00965
1102.962	19.06111
1103.31	-3.00965
1103.658	13.04186
