Data from N2 R13 sample 5_Subt2__2__12-19-07-759.txt Node

Date: Tue Sep 02 12:19:07 PDT 2025
User: uwsun
Spectrometer: HDX01956
Trigger mode: 0
Integration Time (sec): 5.000000E-1
Scans to average: 1
Nonlinearity correction enabled: true
Boxcar width: 0
Storing dark spectrum: false
XAxis mode: Wavelengths
Number of Pixels in Spectrum: 2068
>>>>>Begin Spectral Data<<<<<
194.03	18.05038
194.578	25.07882
195.127	18.05597
195.676	20.06236
196.225	71.18612
196.773	84.22722
197.321	111.29245
197.87	176.42139
198.418	118.28188
198.966	81.19605
199.513	69.15936
200.061	39.09215
200.609	131.32195
201.156	62.12528
201.704	39.09161
202.251	58.14315
202.798	109.26133
203.345	126.2877
203.892	113.26223
204.438	108.23863
204.985	88.19119
205.532	91.2215
206.078	97.2201
206.624	75.17032
207.17	154.32645
207.716	55.12394
208.262	168.30024
208.808	55.125
209.354	56.12642
209.899	136.31753
210.445	63.14481
210.99	84.18646
211.535	155.33309
212.08	140.29833
212.625	135.31067
213.17	131.30568
213.715	30.06181
214.259	157.33419
214.804	133.30289
215.348	96.20332
215.892	85.18919
216.436	119.25496
216.98	113.23131
217.524	106.23108
218.068	129.29971
218.612	145.33622
219.155	135.29174
219.698	110.24234
220.242	142.32724
220.785	100.21698
221.328	103.23855
221.871	128.30144
222.414	132.30468
222.956	60.13468
223.499	69.14508
224.041	129.27889
224.583	171.33973
225.126	86.17656
225.668	80.18112
226.21	64.15043
226.751	77.15619
227.293	78.16672
227.835	68.15489
228.376	127.27198
228.918	128.2998
229.459	111.25514
230	85.18825
230.541	124.26424
231.082	104.23354
231.622	125.26631
232.163	112.25047
232.704	88.20239
233.244	80.18458
233.784	96.21947
234.324	68.13797
234.864	90.1892
235.404	141.30901
235.944	108.23744
236.484	148.34011
237.023	85.18613
237.563	126.2671
238.102	109.23787
238.641	136.31641
239.18	56.12151
239.719	107.2484
240.258	126.26056
240.797	124.27204
241.335	124.27982
241.874	85.15061
242.412	84.18669
242.95	65.14359
243.488	140.29223
244.026	73.15559
244.564	137.25719
245.102	105.2164
245.64	134.29695
246.177	91.18831
246.715	83.18489
247.252	89.1892
247.789	180.30724
248.326	62.13728
248.863	129.25737
249.4	111.23165
249.936	115.216
250.473	83.17806
251.009	103.21572
251.546	139.27809
252.082	106.21271
252.618	116.23536
253.154	59.13083
253.69	109.22444
254.226	85.18644
254.761	117.23961
255.297	97.19397
255.832	102.22066
256.367	102.21991
256.903	106.21212
257.438	102.21972
257.972	98.19956
258.507	80.16721
259.042	123.24243
259.576	66.12956
260.111	109.2303
260.645	108.21321
261.179	94.19987
261.713	88.17855
262.247	121.25364
262.781	88.16761
263.315	58.13035
263.849	72.16493
264.382	124.25895
264.915	63.13486
265.449	63.13941
265.982	164.33533
266.515	122.26923
267.048	98.18775
267.58	161.31658
268.113	79.15497
268.646	83.1865
269.178	61.12408
269.71	96.19041
270.243	100.20753
270.775	121.27835
271.307	113.24733
271.838	175.37364
272.37	133.29467
272.902	152.30995
273.433	117.23006
273.965	150.32728
274.496	93.21068
275.027	69.15587
275.558	67.14783
276.089	59.1311
276.62	94.21775
277.15	102.22839
277.681	85.16753
278.211	105.23322
278.741	47.09381
279.272	140.28418
279.802	74.16795
280.332	114.2405
280.861	62.1355
281.391	117.23668
281.921	127.27469
282.45	122.27419
282.98	147.34274
283.509	144.28709
284.038	74.15186
284.567	146.30408
285.096	85.18495
285.625	113.22827
286.153	122.25375
286.682	102.20771
287.21	81.17459
287.739	72.15263
288.267	71.15389
288.795	93.22017
289.323	126.25904
289.851	109.22687
290.378	115.22826
290.906	70.15066
291.433	136.2995
291.961	95.18997
292.488	88.19518
293.015	70.14612
293.542	115.25638
294.069	82.17853
294.596	133.29037
295.122	135.28198
295.649	142.27322
296.175	120.25649
296.702	158.33478
297.228	139.29652
297.754	153.2973
298.28	69.13785
298.806	85.17952
299.332	86.16571
299.857	125.24428
300.383	137.30366
300.908	60.1273
301.433	62.13212
301.958	114.23003
302.483	54.11822
303.008	78.16961
303.533	99.22646
304.058	119.24393
304.582	67.13746
305.107	81.18387
305.631	162.31652
306.155	125.24857
306.679	90.18068
307.203	111.22042
307.727	80.1641
308.251	104.22152
308.775	65.13215
309.298	61.12527
309.822	106.22971
310.345	141.28248
310.868	117.23712
311.391	165.34296
311.914	87.18584
312.437	156.29901
312.96	113.22398
313.482	115.22901
314.005	95.20213
314.527	113.25036
315.049	158.33493
315.571	93.17089
316.093	147.302
316.615	165.32628
317.137	113.20231
317.659	171.34259
318.18	147.29314
318.702	131.24933
319.223	139.22966
319.744	153.27604
320.265	63.12563
320.786	106.2129
321.307	157.31483
321.828	163.29333
322.348	134.25237
322.869	139.25953
323.389	172.21079
323.909	109.19978
324.43	212.40359
324.95	125.22448
325.47	143.27508
325.989	156.28427
326.509	125.21008
327.029	142.24329
327.548	115.19687
328.067	144.264
328.587	110.21298
329.106	105.18149
329.625	127.26256
330.144	166.28411
330.662	158.26998
331.181	138.24025
331.7	136.23602
332.218	224.34281
332.736	134.23045
333.255	113.1923
333.773	150.257
334.291	200.36316
334.808	116.18385
335.326	155.24631
335.844	94.1538
336.361	95.17157
336.879	167.26599
337.396	194.31849
337.913	186.28667
338.43	160.24021
338.947	130.21032
339.464	89.12586
339.981	137.2157
340.497	122.20454
341.014	189.30138
341.53	95.13922
342.046	138.22162
342.562	214.34604
343.078	139.20975
343.594	176.26678
344.11	206.30555
344.626	122.19805
345.141	129.1815
345.657	144.20228
346.172	126.1895
346.687	220.29706
347.202	164.21633
347.717	226.3177
348.232	183.27681
348.747	118.16016
349.261	146.17572
349.776	203.2722
350.29	160.22663
350.805	232.33135
351.319	157.2073
351.833	145.17928
352.347	169.22
352.861	187.23583
353.374	258.31713
353.888	208.27493
354.401	163.20011
354.915	143.16421
355.428	257.3346
355.941	151.18221
356.454	231.26291
356.967	209.25477
357.48	169.19921
357.993	219.27891
358.505	187.23303
359.018	268.32427
359.53	203.23983
360.042	226.23445
360.554	263.30801
361.066	144.17382
361.578	212.20757
362.09	191.21753
362.602	182.17834
363.113	261.2678
363.625	223.21694
364.136	256.23616
364.647	156.15298
365.158	272.26499
365.669	299.30177
366.18	198.20053
366.691	262.22594
367.201	173.1763
367.712	164.14921
368.222	155.14096
368.733	165.12908
369.243	239.18243
369.753	219.18588
370.263	192.17216
370.773	188.17636
371.282	215.17602
371.792	122.08618
372.301	275.20383
372.811	211.18929
373.32	182.09055
373.829	217.13061
374.338	211.10215
374.847	238.11204
375.356	150.07517
375.865	235.05603
376.373	289.0762
376.882	287.12328
377.39	314.09258
377.898	186.04425
378.407	286.0123
378.915	318.98675
379.423	305.99673
379.93	308.96722
380.438	259.96523
380.946	337.9182
381.453	287.9177
381.96	349.86622
382.468	241.88749
382.975	436.78794
383.482	406.78279
383.989	384.8044
384.495	371.79178
385.002	393.78314
385.509	304.83077
386.015	413.82201
386.521	392.82913
387.028	360.87613
387.534	402.91242
388.04	513.88123
388.546	249.99841
389.051	264.07933
389.557	400.24674
390.063	730.61858
390.568	499.53703
391.073	318.48643
391.578	481.85882
392.084	344.81971
392.589	88.27515
393.093	-32.12905
393.598	375.01256
394.103	301.95525
394.607	306.46844
395.112	404.69856
395.616	341.53149
396.12	139.70034
396.624	9.12374
397.128	408.83654
397.632	547.96469
398.136	359.03818
398.639	-876.2377
399.143	-1183.19426
399.646	-877.27121
400.15	-1681.64174
400.653	-2448.17336
401.156	-3170.36218
401.659	-4911.88136
402.162	-662.90559
402.664	-294.09221
403.167	0
403.67	0
404.172	0
404.674	0
405.176	0
405.678	0
406.18	0
406.682	0
407.184	0
407.686	0
408.187	0
408.688	0
409.19	0
409.691	0
410.192	0
410.693	0
411.194	435.30976
411.694	4082.94878
412.195	8746.80505
412.696	7438.52778
413.196	6063.74594
413.696	6194.84191
414.196	8049.30997
414.696	9797.88347
415.196	11282.95336
415.696	12071.80376
416.196	8149.53923
416.695	4813.99079
417.195	3411.4481
417.694	3732.59778
418.194	3554.22002
418.693	2796.62093
419.192	2785.65343
419.691	2888.74261
420.19	2872.27699
420.688	3169.608
421.187	3056.59189
421.685	2992.78339
422.184	2768.27956
422.682	2236.49294
423.18	1449.67319
423.678	1225.30977
424.176	1164.33289
424.674	1107.60834
425.172	1226.03513
425.669	1052.2745
426.167	1231.04645
426.664	914.78099
427.161	738.68747
427.659	733.60871
428.156	738.61446
428.652	570.68385
429.149	538.70557
429.646	553.69946
430.143	553.74088
430.639	622.72594
431.135	478.84486
431.632	425.86736
432.128	323.94274
432.624	236.98851
433.12	277.94844
433.616	262.95798
434.111	168.99239
434.607	75.00569
435.103	336.98915
435.598	289.00245
436.093	172.04646
436.588	199.05703
437.083	208.07399
437.578	239.10176
438.073	42.02554
438.568	150.10046
439.062	108.05308
439.557	143.09996
440.051	136.0875
440.546	42.0295
441.04	74.05982
441.534	66.063
442.028	99.08757
442.522	61.05501
443.015	75.05764
443.509	71.07036
444.002	57.05707
444.496	80.06564
444.989	56.05822
445.482	55.05918
445.975	-30.02794
446.468	-1.00086
446.961	34.02919
447.454	-20.01988
447.947	-73.07898
448.439	-2.0023
448.931	-28.02807
449.424	0
449.916	-45.05382
450.408	-53.0558
450.9	-68.08178
451.392	-63.08173
451.884	3.00338
452.375	-110.14255
452.867	-19.02185
453.358	-93.10679
453.849	-37.03845
454.341	-52.06
454.832	-46.04971
455.323	-63.08284
455.814	-90.11242
456.304	-64.08011
456.795	-124.15796
457.285	14.0169
457.776	3.00383
458.266	-88.11897
458.756	21.02857
459.247	-40.05393
459.737	-132.18483
460.226	-132.17294
460.716	-123.17682
461.206	-62.08943
461.695	-69.10738
462.185	-120.17548
462.674	-32.04469
463.163	-78.10566
463.653	-82.10409
464.142	-132.20368
464.63	-63.09907
465.119	-80.11684
465.608	-109.16132
466.096	-114.16116
466.585	-60.09089
467.073	-71.11366
467.561	-118.19328
468.05	-101.15911
468.538	-67.11273
469.026	-89.14639
469.513	-126.17949
470.001	-125.19544
470.489	-142.23559
470.976	-117.19009
471.463	-115.20653
471.951	-104.18932
472.438	-107.17973
472.925	-170.28908
473.412	-45.08069
473.899	-112.18911
474.385	-98.17912
474.872	-151.2624
475.359	-124.22745
475.845	-128.19565
476.331	-43.06919
476.817	-119.22307
477.303	-122.21679
477.789	-141.26392
478.275	-111.21311
478.761	-137.25935
479.247	-82.14223
479.732	-189.37479
480.218	-125.25959
480.703	-109.21514
481.188	-130.21974
481.673	-150.275
482.158	-167.28006
482.643	-77.15855
483.128	-160.29422
483.612	-131.24848
484.097	-112.22496
484.581	-102.19371
485.066	-148.29644
485.55	-156.28023
486.034	-145.25719
486.518	-154.29846
487.002	-156.31695
487.486	-155.31643
487.969	-182.3745
488.453	-128.27276
488.936	-200.38316
489.42	-110.2038
489.903	-137.29479
490.386	-581.91316
490.869	-121.22379
491.352	-94.19682
491.835	-76.1321
492.318	-120.22989
492.8	-153.27152
493.283	-173.38105
493.765	-182.38951
494.247	-103.20826
494.73	-131.24981
495.212	-90.1887
495.694	-166.33711
496.175	-230.47881
496.657	-82.16805
497.139	-65.09726
497.62	-212.44213
498.102	-181.39566
498.583	-154.34098
499.064	-172.33637
499.545	-139.27848
500.026	-215.42974
500.507	-168.34585
500.988	-105.22914
501.469	-205.45816
501.949	-156.34397
502.43	-174.36578
502.91	-143.26012
503.39	-165.37075
503.87	-149.30984
504.35	-147.31073
504.83	-197.38718
505.31	-157.33899
505.79	-204.43886
506.269	-164.34461
506.749	-164.33427
507.228	-184.38749
507.707	-128.25199
508.187	-119.25452
508.666	-185.40868
509.145	-191.40232
509.623	-164.34628
510.102	-176.38579
510.581	-131.28515
511.059	-214.48705
511.538	-134.31274
512.016	-178.38622
512.494	-121.26428
512.972	-189.4107
513.45	-230.48435
513.928	-194.42776
514.406	-216.47127
514.884	-179.41817
515.361	-179.38997
515.839	-178.36858
516.316	-176.3853
516.793	-148.34093
517.27	-115.25245
517.747	-180.42109
518.224	-133.27929
518.701	-169.34391
519.178	-207.46931
519.654	-95.20442
520.131	-168.37958
520.607	-148.33575
521.083	-169.35316
521.56	-183.39699
522.036	-158.31808
522.512	-92.20583
522.987	-147.31658
523.463	-182.39776
523.939	-136.30502
524.414	-85.17786
524.89	-160.34865
525.365	-143.29604
525.84	-200.43636
526.315	-165.36465
526.79	-162.3362
527.265	-161.33778
527.74	-206.46543
528.215	-161.34926
528.689	-174.35546
529.164	-115.22847
529.638	-172.40899
530.112	-170.36871
530.587	-158.30929
531.061	-179.39791
531.534	-114.25326
532.008	-144.31751
532.482	-140.29638
532.956	-197.46455
533.429	-164.36767
533.903	-99.20054
534.376	-123.24962
534.849	-187.40393
535.322	-92.19818
535.795	-150.33891
536.268	-143.31669
536.741	-92.20218
537.213	-92.1946
537.686	-140.31348
538.158	-150.30921
538.631	-79.17576
539.103	-93.18968
539.575	-71.13513
540.047	-59.11782
540.519	-66.14394
540.991	-14.03096
541.463	-91.20179
541.934	-81.16919
542.406	-97.21124
542.877	-27.05494
543.348	-20.04366
543.82	-5.01106
544.291	15.03144
544.762	-6.01274
545.233	16.03578
545.703	19.03731
546.174	68.13942
546.645	-5.01061
547.115	113.23697
547.585	92.18504
548.056	102.21263
548.526	103.20922
548.996	217.4428
549.466	249.51433
549.935	214.42466
550.405	259.46826
550.875	276.54079
551.344	311.61499
551.814	416.76389
552.283	437.75268
552.752	437.80145
553.221	489.8158
553.69	622.03052
554.159	575.07799
554.628	620.0272
555.096	746.39686
555.565	783.24779
556.033	894.49658
556.502	956.63389
556.97	1032.54982
557.438	1049.71737
557.906	1133.82979
558.374	1268.88627
558.842	1347.06965
559.31	1512.02986
559.777	1569.29389
560.245	1770.37034
560.712	1931.40138
561.18	1988.23371
561.647	2187.34397
562.114	2414.45386
562.581	2507.85913
563.048	2743.55105
563.514	2889.83427
563.981	3189.43936
564.448	3386.26265
564.914	3683.36769
565.381	3828.1777
565.847	4121.19753
566.313	4348.03677
566.779	4629.68543
567.245	4785.81636
567.711	5046.81249
568.176	5329.2648
568.642	5658.78668
569.108	6091.4982
569.573	6295.23671
570.038	6678.72055
570.504	6927.99071
570.969	7256.58804
571.434	7559.24682
571.899	7890.76188
572.363	8166.96106
572.828	8485.42337
573.293	8855.07132
573.757	9098.57965
574.222	9360.23766
574.686	9517.65791
575.15	9948.81896
575.614	10016.12425
576.078	10174.5997
576.542	10252.96574
577.006	10306.20504
577.469	10550.75862
577.933	10364.46694
578.396	10510.76906
578.86	10540.92236
579.323	10333.11149
579.786	10246.13339
580.249	10110.46621
580.712	10086.17816
581.175	9914.63157
581.637	9736.21477
582.1	9570.8213
582.563	9406.39546
583.025	9176.74597
583.487	8887.17799
583.95	8709.77679
584.412	8454.30529
584.874	8358.33674
585.336	7885.75352
585.797	7788.43898
586.259	7412.41721
586.721	7086.24084
587.182	6967.23482
587.643	6626.04096
588.105	6525.23471
588.566	6273.72545
589.027	5969.41722
589.488	5669.24939
589.949	5566.65223
590.41	5428.56111
590.87	5276.45522
591.331	5132.22049
591.791	4823.72214
592.252	4695.72486
592.712	4467.19722
593.172	4349.85716
593.632	4219.80959
594.092	4165.91458
594.552	3990.81677
595.011	3709.27935
595.471	3738.15155
595.931	3608.18525
596.39	3490.6203
596.849	3400.50288
597.308	3370.16282
597.768	3202.06088
598.227	3189.76426
598.685	3028.56181
599.144	2987.63389
599.603	2909.71786
600.062	2864.12818
600.52	2747.41695
600.978	2664.72976
601.437	2686.56861
601.895	2670.21208
602.353	2581.42751
602.811	2576.41726
603.269	2501.75655
603.727	2458.74807
604.184	2363.44984
604.642	2436.85002
605.099	2322.5822
605.557	2349.81346
606.014	2295.25713
606.471	2210.84251
606.928	2168.20011
607.385	2252.7219
607.842	2240.48839
608.299	2225.5762
608.755	2140.67623
609.212	2162.34909
609.668	2006.27328
610.125	2138.70109
610.581	2122.66568
611.037	2010.46902
611.493	2033.60718
611.949	1915.59303
612.405	1937.97024
612.861	1915.5497
613.316	1854.54187
613.772	1867.4179
614.227	1781.45937
614.683	1830.18384
615.138	1757.41946
615.593	1703.36624
616.048	1759.36991
616.503	1655.54653
616.958	1631.57927
617.412	1656.40884
617.867	1588.13632
618.321	1582.9716
618.776	1529.12501
619.23	1513.28522
619.684	1558.22026
620.138	1512.27626
620.592	1360.25602
621.046	1449.25641
621.5	1402.30712
621.954	1333.04318
622.407	1377.05324
622.861	1269.17395
623.314	1286.03135
623.768	1293.09445
624.221	1256.66634
624.674	1221.99701
625.127	1251.07247
625.58	1259.03106
626.033	1260.95692
626.485	1149.01461
626.938	1274.15996
627.39	1182.999
627.843	1180.98808
628.295	1095.88779
628.747	1086.94226
629.199	1108.87035
629.651	1085.84177
630.103	1094.87457
630.555	1088.70406
631.006	1090.93346
631.458	1071.92272
631.909	1086.89654
632.361	1040.86645
632.812	973.75351
633.263	1089.76137
633.714	1028.68238
634.165	1038.96389
634.616	1015.8881
635.067	1006.73802
635.518	1019.90867
635.968	1041.5845
636.419	1015.7105
636.869	1013.90021
637.319	960.76221
637.769	937.66526
638.219	1018.92598
638.669	945.80983
639.119	909.80862
639.569	902.77265
640.019	1002.83671
640.468	898.62258
640.918	971.88473
641.367	963.72307
641.816	926.66819
642.265	912.7142
642.714	925.73484
643.163	930.73098
643.612	848.68359
644.061	875.49787
644.51	862.6137
644.958	935.65055
645.406	854.69473
645.855	874.77959
646.303	945.79591
646.751	885.64829
647.199	936.72495
647.647	853.62472
648.095	876.65287
648.543	925.52291
648.99	849.69067
649.438	894.73713
649.885	876.81031
650.333	868.36207
650.78	839.69936
651.227	801.65039
651.674	872.6429
652.121	872.7715
652.568	843.71913
653.015	902.90727
653.461	863.71222
653.908	862.67486
654.354	850.70481
654.801	773.54271
655.247	857.56292
655.693	869.91775
656.139	815.65596
656.585	842.70273
657.031	792.56424
657.477	833.49838
657.922	824.59712
658.368	807.70219
658.813	833.63879
659.259	782.6058
659.704	785.55945
660.149	827.6285
660.594	794.60995
661.039	775.50809
661.484	919.83023
661.929	751.51608
662.373	792.71975
662.818	780.66927
663.262	779.6122
663.707	804.75469
664.151	806.69006
664.595	755.57641
665.039	806.72718
665.483	744.65513
665.927	780.58297
666.371	725.45483
666.814	812.66297
667.258	764.55893
667.701	841.53213
668.145	800.72241
668.588	772.64503
669.031	744.51738
669.474	769.60638
669.917	774.47579
670.36	768.65842
670.803	780.63334
671.245	781.40752
671.688	772.63934
672.13	730.42275
672.573	763.69847
673.015	749.57078
673.457	784.46454
673.899	755.59869
674.341	721.53062
674.783	701.4823
675.225	740.59655
675.666	706.49386
676.108	743.40117
676.549	733.52435
676.991	703.36064
677.432	790.33644
677.873	775.55601
678.314	715.50534
678.755	724.552
679.196	744.48648
679.637	759.62604
680.078	712.4711
680.518	737.50887
680.959	706.49581
681.399	715.56922
681.839	753.60763
682.28	667.46992
682.72	664.35157
683.16	710.56705
683.6	750.49571
684.039	732.32677
684.479	735.5888
684.919	691.40629
685.358	739.65858
685.798	734.70613
686.237	699.50255
686.676	727.48703
687.115	659.38427
687.554	748.55799
687.993	727.40985
688.432	721.44945
688.871	714.42514
689.309	717.51286
689.748	748.35859
690.186	720.52152
690.625	735.51359
691.063	760.59632
691.501	790.70596
691.939	786.71322
692.377	758.62285
692.815	752.57673
693.253	776.63211
693.69	782.48603
694.128	725.55047
694.565	758.58513
695.003	745.67137
695.44	782.5993
695.877	753.53819
696.314	805.4879
696.751	808.59365
697.188	749.50512
697.625	867.70018
698.061	785.64128
698.498	824.72783
698.934	827.72231
699.371	781.59978
699.807	865.75049
700.243	808.68681
700.679	869.67447
701.115	904.80741
701.551	816.66289
701.987	864.65486
702.422	790.63171
702.858	914.84343
703.294	908.73426
703.729	880.84453
704.164	883.81462
704.599	821.56973
705.035	821.57578
705.47	861.79714
705.904	857.70662
706.339	950.85397
706.774	885.76245
707.209	875.71508
707.643	895.83023
708.078	911.88479
708.512	854.84109
708.946	907.84727
709.38	847.72496
709.814	859.67655
710.248	917.89806
710.682	876.77802
711.116	895.81126
711.549	898.99122
711.983	891.74484
712.416	871.76103
712.85	886.89381
713.283	896.80131
713.716	941.00581
714.149	895.81703
714.582	877.66889
715.015	918.96054
715.448	871.89176
715.881	909.66966
716.313	867.73455
716.746	812.65248
717.178	852.75989
717.61	854.87405
718.043	836.80611
718.475	805.69649
718.907	856.87609
719.339	740.46686
719.77	718.50206
720.202	774.72048
720.634	760.62154
721.065	745.55139
721.497	769.65315
721.928	697.52263
722.359	690.47842
722.79	714.51146
723.221	707.58607
723.652	713.64265
724.083	675.35124
724.514	681.39031
724.945	606.28818
725.375	579.21922
725.806	629.42135
726.236	591.383
726.666	613.31184
727.096	609.35542
727.526	588.36228
727.956	558.15561
728.386	616.37413
728.816	541.25945
729.246	513.15046
729.675	520.18026
730.105	537.21669
730.534	511.10316
730.964	510.19534
731.393	550.25652
731.822	560.3132
732.251	481.13715
732.68	529.14745
733.109	443.02288
733.537	441.9993
733.966	443.03099
734.395	464.9994
734.823	430.91186
735.251	416.94515
735.68	443.04151
736.108	430.02324
736.536	411.91543
736.964	431.93929
737.392	389.92431
737.82	382.87109
738.247	379.86303
738.675	437.98179
739.102	343.82006
739.53	325.79479
739.957	329.81263
740.384	403.94208
740.811	353.85586
741.238	347.80994
741.665	316.70431
742.092	337.77175
742.519	315.74968
742.945	320.73856
743.372	331.78623
743.798	299.74234
744.225	286.658
744.651	295.71527
745.077	278.67191
745.503	297.70006
745.929	293.67935
746.355	350.83343
746.781	283.67922
747.207	197.45461
747.632	200.47903
748.058	285.68844
748.483	246.55262
748.908	259.62588
749.334	232.55715
749.759	249.57208
750.184	240.55769
750.609	238.57134
751.033	295.67423
751.458	289.62719
751.883	272.65419
752.307	200.4631
752.732	171.42164
753.156	229.55298
753.58	239.5546
754.005	224.55667
754.429	212.48893
754.853	171.41854
755.277	170.39816
755.7	193.47133
756.124	194.4735
756.548	154.3621
756.971	230.5492
757.394	194.49159
757.818	192.486
758.241	193.48165
758.664	166.41435
759.087	161.35611
759.51	183.44907
759.933	168.39963
760.356	179.45253
760.778	173.42013
761.201	177.42532
761.623	196.4682
762.046	207.48282
762.468	173.41113
762.89	204.49475
763.312	184.44307
763.734	148.35368
764.156	155.37924
764.578	140.32083
765	125.30402
765.421	119.30086
765.843	163.42233
766.264	143.3435
766.686	157.39054
767.107	94.22833
767.528	86.21739
767.949	142.3583
768.37	138.33658
768.791	130.31328
769.212	85.21383
769.632	88.20579
770.053	115.30156
770.473	116.28155
770.894	127.31661
771.314	115.27456
771.734	102.23806
772.154	142.36162
772.575	148.34066
772.994	105.23874
773.414	110.26408
773.834	87.21791
774.254	80.19658
774.673	118.28662
775.093	81.20098
775.512	65.16105
775.931	123.31019
776.351	102.25295
776.77	52.12815
777.189	84.20051
777.607	90.22985
778.026	51.12802
778.445	45.11349
778.864	107.27369
779.282	71.17172
779.701	89.22445
780.119	86.21739
780.537	38.09571
780.955	98.24904
781.373	67.16649
781.791	90.20268
782.209	119.27342
782.627	52.13768
783.045	36.08386
783.462	64.16414
783.88	83.21469
784.297	44.11154
784.715	65.16737
785.132	55.13407
785.549	62.15577
785.966	83.20887
786.383	41.10173
786.8	80.18642
787.217	89.2111
787.633	43.10809
788.05	114.26993
788.466	93.21948
788.883	65.16621
789.299	76.1835
789.715	78.18996
790.131	51.12761
790.547	73.18272
790.963	101.24996
791.379	78.19731
791.795	85.19436
792.21	84.19667
792.626	95.22516
793.041	60.14874
793.457	40.09967
793.872	71.1675
794.287	39.09386
794.702	99.24331
795.117	60.14961
795.532	54.13592
795.947	102.24487
796.362	147.34719
796.776	104.24311
797.191	71.17417
797.605	12.02856
798.02	57.13936
798.434	108.23973
798.848	82.20186
799.262	64.15918
799.676	71.17366
800.09	53.13107
800.504	113.27267
800.918	65.1512
801.331	75.19667
801.745	55.12713
802.158	38.09568
802.572	83.20134
802.985	92.22204
803.398	96.22837
803.811	108.2762
804.224	80.19911
804.637	10.02414
805.05	109.25144
805.462	72.17718
805.875	33.0861
806.288	32.07785
806.7	62.15622
807.112	50.1167
807.525	73.18034
807.937	9.02252
808.349	93.23227
808.761	58.1432
809.173	77.18665
809.584	104.25583
809.996	34.08388
810.408	47.12178
810.819	89.2089
811.231	32.08321
811.642	39.09361
812.053	87.20644
812.464	109.25754
812.875	95.24181
813.286	55.14197
813.697	151.34833
814.108	103.25042
814.519	40.08993
814.929	73.1862
815.34	69.16757
815.75	78.19794
816.16	90.22368
816.571	70.18184
816.981	101.23744
817.391	59.14291
817.801	33.08254
818.211	84.19997
818.62	49.11851
819.03	92.22472
819.44	100.25986
819.849	95.23838
820.259	89.22709
820.668	56.13811
821.077	47.11721
821.486	62.1497
821.895	106.26037
822.304	77.20369
822.713	112.26284
823.122	84.20915
823.531	42.10018
823.939	61.14892
824.348	88.21335
824.756	70.17537
825.164	79.19852
825.573	58.14583
825.981	91.22488
826.389	103.25724
826.797	61.15301
827.205	35.08093
827.612	64.15813
828.02	57.13421
828.428	88.22332
828.835	73.19188
829.243	82.19506
829.65	67.16661
830.057	103.24845
830.464	42.10286
830.871	65.15584
831.278	37.08999
831.685	90.20019
832.092	84.20511
832.499	92.20048
832.905	57.14457
833.312	63.144
833.718	75.18664
834.124	93.21163
834.531	55.13895
834.937	68.17446
835.343	80.19264
835.749	86.20032
836.155	59.15461
836.561	65.15993
836.966	108.26213
837.372	76.19307
837.777	91.22563
838.183	92.20371
838.588	91.22488
838.993	113.27278
839.399	26.06403
839.804	39.09549
840.209	47.11997
840.613	46.10283
841.018	59.14954
841.423	77.19703
841.828	40.10158
842.232	139.33971
842.637	91.21368
843.041	20.05163
843.445	33.08322
843.849	36.08957
844.253	84.19898
844.657	52.13116
845.061	40.09126
845.465	72.17364
845.869	50.11656
846.272	55.13412
846.676	34.08271
847.079	44.11221
847.483	94.23319
847.886	123.29602
848.289	59.15744
848.692	61.1545
849.095	45.10847
849.498	115.28877
849.901	48.11049
850.304	72.1718
850.707	79.2008
851.109	119.29806
851.512	45.11092
851.914	18.04569
852.316	28.07123
852.718	22.05715
853.121	85.20736
853.523	31.07291
853.925	21.05512
854.326	71.17713
854.728	61.1568
855.13	28.07259
855.531	62.14811
855.933	98.23366
856.334	11.02766
856.736	42.09447
857.137	53.12343
857.538	60.1508
857.939	5.01247
858.34	69.16788
858.741	70.18259
859.142	51.12274
859.542	65.17126
859.943	71.17604
860.343	15.03744
860.744	40.09796
861.144	67.1632
861.544	-17.04144
861.945	58.14781
862.345	56.13704
862.745	23.05753
863.145	81.19287
863.544	19.04834
863.944	52.12303
864.344	42.10465
864.743	78.19287
865.143	90.22985
865.542	42.09776
865.941	47.11658
866.34	81.19324
866.74	58.15561
867.139	54.12939
867.537	50.12756
867.936	82.19649
868.335	48.12233
868.734	69.17594
869.132	57.13248
869.531	86.20693
869.929	14.0322
870.327	70.16741
870.726	86.21335
871.124	91.21134
871.522	84.21294
871.92	55.13572
872.318	25.06149
872.715	38.09441
873.113	69.16776
873.511	31.07759
873.908	-23.05887
874.306	58.1442
874.703	97.24094
875.1	57.1458
875.497	56.13429
875.894	16.03949
876.291	65.15928
876.688	47.1214
877.085	87.20755
877.482	70.1748
877.878	55.13242
878.275	47.11959
878.671	106.23373
879.068	55.13282
879.464	53.12818
879.86	57.13478
880.256	45.11129
880.652	32.08172
881.048	69.17058
881.444	43.10262
881.84	47.11963
882.236	58.14577
882.631	76.18585
883.027	88.21183
883.422	32.08216
883.817	8.02027
884.213	69.17662
884.608	56.1373
885.003	31.07509
885.398	38.0954
885.793	35.08817
886.188	23.05751
886.582	97.24698
886.977	59.13995
887.371	66.1666
887.766	43.10716
888.16	36.09016
888.554	98.24045
888.949	72.18025
889.343	87.21128
889.737	-1.00269
890.131	74.18498
890.525	67.17096
890.918	53.13342
891.312	93.22093
891.706	61.15985
892.099	41.10458
892.492	31.06725
892.886	51.12488
893.279	17.04359
893.672	57.14503
894.065	69.17233
894.458	49.12335
894.851	61.14931
895.244	37.09478
895.637	92.22003
896.029	64.15621
896.422	51.12469
896.814	23.05751
897.206	50.11917
897.599	153.37156
897.991	19.04625
898.383	40.09479
898.775	39.08832
899.167	43.1005
899.559	64.16172
899.951	58.13664
900.342	57.14488
900.734	21.05241
901.125	84.21926
901.517	38.09355
901.908	61.14608
902.299	60.14651
902.69	44.10402
903.082	103.24713
903.473	31.07455
903.863	76.19314
904.254	60.1391
904.645	51.12691
905.036	43.10431
905.426	102.23131
905.817	85.20736
906.207	63.14984
906.597	41.09612
906.987	62.16045
907.378	95.23847
907.768	62.16366
908.158	57.1389
908.547	19.04937
908.937	65.16644
909.327	60.14552
909.717	80.20215
910.106	40.09632
910.495	77.1914
910.885	73.18423
911.274	68.16949
911.663	71.17963
912.052	97.23742
912.441	72.18245
912.83	96.2185
913.219	87.22635
913.608	61.1492
913.997	18.0454
914.385	94.22283
914.774	68.16511
915.162	69.16392
915.55	101.24215
915.939	81.2034
916.327	81.20113
916.715	54.13757
917.103	121.29407
917.491	82.20179
917.878	56.1376
918.266	62.16051
918.654	67.17072
919.041	29.076
919.429	18.04277
919.816	83.20924
920.203	24.05852
920.591	95.23374
920.978	85.20689
921.365	69.18051
921.752	72.17101
922.139	82.17694
922.525	58.13914
922.912	57.1389
923.299	42.10457
923.685	63.16403
924.072	64.14726
924.458	56.13862
924.844	34.08441
925.231	41.09564
925.617	7.01794
926.003	69.17581
926.389	62.15611
926.774	65.16434
927.16	73.1806
927.546	9.02314
927.931	56.13963
928.317	62.14254
928.702	107.25047
929.088	26.0618
929.473	50.12724
929.858	11.02679
930.243	49.11766
930.628	52.1265
931.013	44.1092
931.398	96.21885
931.783	93.24313
932.167	63.15369
932.552	83.20677
932.937	73.18047
933.321	43.10806
933.705	55.13856
934.09	109.27262
934.474	86.20293
934.858	53.13742
935.242	43.09983
935.626	57.14575
936.009	65.17247
936.393	77.19502
936.777	33.08477
937.16	55.143
937.544	51.12018
937.927	56.14196
938.311	105.25375
938.694	100.26227
939.077	57.1363
939.46	86.20983
939.843	89.18417
940.226	53.1359
940.609	64.14655
940.991	39.09948
941.374	44.10768
941.757	85.20844
942.139	47.10565
942.522	137.31842
942.904	75.17947
943.286	86.21716
943.668	40.1038
944.05	48.11829
944.432	46.11362
944.814	57.14024
945.196	12.02945
945.578	31.07396
945.959	92.21388
946.341	102.24804
946.722	96.22335
947.104	76.18079
947.485	78.18054
947.866	34.08591
948.247	87.21807
948.628	52.12683
949.009	14.03608
949.39	103.25398
949.771	93.21454
950.152	54.13244
950.532	23.05686
950.913	57.13734
951.293	8.02176
951.674	93.22314
952.054	43.10669
952.434	45.11182
952.814	88.20789
953.194	65.1697
953.574	51.12562
953.954	94.22137
954.334	63.15666
954.714	18.04413
955.093	113.27463
955.473	49.12256
955.853	56.14482
956.232	43.11799
956.611	53.12707
956.99	53.13314
957.37	49.1249
957.749	54.12875
958.128	51.12848
958.506	27.07032
958.885	49.12371
959.264	38.09334
959.643	47.10704
960.021	65.16063
960.4	45.10211
960.778	74.1815
961.156	47.11789
961.535	54.12578
961.913	94.21809
962.291	35.09003
962.669	55.1392
963.047	65.16545
963.424	52.13266
963.802	57.13998
964.18	73.18397
964.557	58.1334
964.935	110.25764
965.312	67.17396
965.69	65.16234
966.067	59.14345
966.444	84.20572
966.821	82.21023
967.198	28.06822
967.575	97.23645
967.952	81.18975
968.329	71.1721
968.705	100.21217
969.082	27.06952
969.458	26.06266
969.835	75.18173
970.211	49.12578
970.587	66.16385
970.963	50.12828
971.339	48.12538
971.715	69.17171
972.091	54.13289
972.467	54.1346
972.843	46.11424
973.219	98.23321
973.594	46.1204
973.97	117.27495
974.345	59.14097
974.721	74.1784
975.096	36.08735
975.471	39.09272
975.846	73.17462
976.221	23.05869
976.596	33.07936
976.971	69.16977
977.346	71.16463
977.72	46.11727
978.095	33.08554
978.469	38.09092
978.844	67.16794
979.218	35.08414
979.593	69.16474
979.967	68.16511
980.341	60.13789
980.715	77.19308
981.089	71.17707
981.463	44.10116
981.837	50.12218
982.21	87.20101
982.584	54.13033
982.957	34.08515
983.331	99.23183
983.704	59.14473
984.078	43.10611
984.451	116.2863
984.824	31.07577
985.197	37.09009
985.57	77.19217
985.943	74.18197
986.316	106.25776
986.688	81.1942
987.061	101.23438
987.434	69.17922
987.806	17.04149
988.179	30.07106
988.551	89.22421
988.923	55.13532
989.295	67.16691
989.667	55.13126
990.039	80.19658
990.411	57.13102
990.783	49.11286
991.155	-9.02187
991.527	140.33904
991.898	43.10728
992.27	50.12368
992.641	103.25594
993.012	93.21701
993.384	62.14754
993.755	74.18786
994.126	77.18426
994.497	42.10324
994.868	75.17143
995.239	73.17615
995.61	62.15566
995.98	50.12145
996.351	57.14097
996.722	47.10907
997.092	20.04763
997.462	35.08199
997.833	90.2117
998.203	93.22365
998.573	54.13435
998.943	70.1635
999.313	32.07694
999.683	50.11999
1000.053	72.16493
1000.423	107.25722
1000.792	62.16034
1001.162	85.20782
1001.531	45.11104
1001.901	27.06758
1002.27	68.15145
1002.639	73.18574
1003.009	33.07873
1003.378	62.15817
1003.747	87.20405
1004.116	82.19499
1004.485	56.13368
1004.853	74.18666
1005.222	45.11357
1005.591	86.20277
1005.959	50.11265
1006.328	75.1679
1006.696	61.14681
1007.064	57.14318
1007.433	108.26704
1007.801	86.20968
1008.169	68.17115
1008.537	104.22768
1008.905	21.0492
1009.273	71.17469
1009.64	26.0623
1010.008	77.18257
1010.375	106.25467
1010.743	109.24874
1011.11	24.05707
1011.478	76.18716
1011.845	51.1199
1012.212	40.09071
1012.579	49.12029
1012.946	70.16594
1013.313	76.17996
1013.68	7.01587
1014.047	38.09074
1014.414	52.12275
1014.78	54.13406
1015.147	88.21127
1015.513	83.19869
1015.88	81.20595
1016.246	82.20119
1016.612	94.21325
1016.978	88.21407
1017.344	46.11374
1017.71	94.2273
1018.076	81.18983
1018.442	79.20215
1018.808	44.11007
1019.174	68.16999
1019.539	131.29665
1019.905	39.09215
1020.27	28.06936
1020.636	95.22577
1021.001	75.17865
1021.366	43.10337
1021.731	41.10557
1022.096	34.08598
1022.461	85.19975
1022.826	86.20293
1023.191	39.10248
1023.556	58.13569
1023.92	58.14236
1024.285	81.19649
1024.649	69.16845
1025.014	78.19216
1025.378	14.03541
1025.742	72.17803
1026.107	57.12871
1026.471	92.21295
1026.835	93.22865
1027.199	29.07006
1027.562	91.20975
1027.926	114.27535
1028.29	68.17146
1028.654	77.17614
1029.017	71.17378
1029.381	34.08144
1029.744	53.13505
1030.107	58.13696
1030.471	33.07924
1030.834	62.14066
1031.197	79.18919
1031.56	68.15983
1031.923	39.10098
1032.286	103.23931
1032.648	102.24142
1033.011	53.12153
1033.374	71.16613
1033.736	33.08698
1034.099	79.19142
1034.461	30.07602
1034.823	59.14661
1035.185	91.22727
1035.548	67.16247
1035.91	92.21851
1036.272	87.19645
1036.634	70.17054
1036.995	29.06842
1037.357	52.1264
1037.719	84.20289
1038.08	90.21195
1038.442	52.12332
1038.803	79.18854
1039.165	67.16849
1039.526	45.10879
1039.887	79.18789
1040.248	37.09134
1040.609	105.25672
1040.97	51.12455
1041.331	78.19639
1041.692	44.10277
1042.053	74.16761
1042.413	100.23064
1042.774	81.19575
1043.134	67.15892
1043.495	64.16039
1043.855	62.14998
1044.215	60.14858
1044.576	44.10527
1044.936	60.13722
1045.296	107.26413
1045.656	21.05178
1046.016	65.15638
1046.375	52.12602
1046.735	41.09307
1047.095	59.13778
1047.454	88.18483
1047.814	41.09867
1048.173	100.23651
1048.533	48.10996
1048.892	35.0842
1049.251	101.25106
1049.61	45.11084
1049.969	64.15037
1050.328	67.14467
1050.687	11.02694
1051.046	51.12409
1051.405	38.09468
1051.763	41.09439
1052.122	53.13203
1052.48	56.1371
1052.839	66.15471
1053.197	64.15013
1053.555	98.22115
1053.914	70.17048
1054.272	98.23465
1054.63	30.07358
1054.988	25.05964
1055.345	66.14156
1055.703	73.17482
1056.061	28.07226
1056.419	55.14216
1056.776	76.18329
1057.134	68.15677
1057.491	40.10028
1057.848	86.21257
1058.206	32.07548
1058.563	7.01556
1058.92	91.20791
1059.277	107.26102
1059.634	101.23512
1059.991	83.19748
1060.348	21.04771
1060.704	22.05268
1061.061	117.26807
1061.418	16.03902
1061.774	76.18661
1062.131	36.09535
1062.487	36.08435
1062.843	52.12952
1063.199	35.08722
1063.555	29.06743
1063.911	83.20827
1064.267	78.16159
1064.623	24.05854
1064.979	78.18369
1065.335	85.20169
1065.691	51.12214
1066.046	46.10117
1066.402	7.01603
1066.757	91.22785
1067.112	46.11291
1067.468	25.05928
1067.823	68.16282
1068.178	87.20882
1068.533	87.2093
1068.888	73.17355
1069.243	30.07426
1069.598	26.06342
1069.952	16.03625
1070.307	34.08435
1070.662	65.15376
1071.016	-3.00679
1071.371	74.1674
1071.725	70.16671
1072.079	51.12256
1072.434	65.15738
1072.788	64.15189
1073.142	92.22439
1073.496	9.0215
1073.85	37.08597
1074.203	60.14519
1074.557	54.1434
1074.911	108.25474
1075.265	50.11615
1075.618	45.1099
1075.971	40.09526
1076.325	50.12697
1076.678	9.02074
1077.031	75.16873
1077.385	85.18573
1077.738	61.13729
1078.091	10.02291
1078.444	129.29461
1078.796	64.15651
1079.149	87.21476
1079.502	38.08991
1079.855	63.14643
1080.207	77.18861
1080.56	16.04156
1080.912	49.11922
1081.264	41.09882
1081.617	54.13141
1081.969	39.0985
1082.321	59.14371
1082.673	4.00921
1083.025	48.11383
1083.377	61.13052
1083.728	57.13269
1084.08	38.09499
1084.432	61.1467
1084.783	112.25903
1085.135	66.16481
1085.486	16.03683
1085.838	79.19337
1086.189	42.10202
1086.54	87.20612
1086.891	48.12133
1087.242	46.11199
1087.593	88.21255
1087.944	79.17758
1088.295	77.17394
1088.646	33.08017
1088.996	48.11559
1089.347	55.13472
1089.698	16.03803
1090.048	71.18358
1090.398	55.12733
1090.749	52.12427
1091.099	40.10068
1091.449	81.20047
1091.799	70.17448
1092.149	24.05876
1092.499	59.14355
1092.849	59.14959
1093.199	111.27491
1093.548	75.1792
1093.898	34.08524
1094.248	73.18666
1094.597	0
1094.947	51.13591
1095.296	34.08413
1095.645	82.21192
1095.994	56.13424
1096.343	67.16794
1096.692	21.05539
1097.041	22.05978
1097.39	50.12531
1097.739	22.05741
1098.088	101.26808
1098.437	33.08686
1098.785	67.17997
1099.134	89.23457
1099.482	98.26723
1099.83	65.17022
1100.179	47.12254
1100.527	73.19305
1100.875	29.07687
1101.223	51.13528
1101.571	17.04718
1101.919	-1.00263
1102.267	46.12947
1102.615	4.01286
1102.962	16.05148
1103.31	1.00321
1103.658	14.04508
