Data from N2 R13 sample 8_Subt2__0__12-20-44-245.txt Node

Date: Tue Sep 02 12:20:44 PDT 2025
User: uwsun
Spectrometer: HDX01956
Trigger mode: 0
Integration Time (sec): 5.000000E-1
Scans to average: 1
Nonlinearity correction enabled: true
Boxcar width: 0
Storing dark spectrum: false
XAxis mode: Wavelengths
Number of Pixels in Spectrum: 2068
>>>>>Begin Spectral Data<<<<<
194.03	-12.03374
194.578	-12.038
195.127	-24.07502
195.676	-20.06267
196.225	16.04233
196.773	-15.04122
197.321	27.07214
197.87	81.19745
198.418	-12.02938
198.966	-26.06419
199.513	-38.08963
200.061	-2.00476
200.609	44.10987
201.156	-40.08272
201.704	-17.04037
202.251	-9.02249
202.798	-22.05406
203.345	57.13196
203.892	-20.04763
204.438	11.0248
204.985	-14.03108
205.532	-37.09221
206.078	18.0415
206.624	-23.05327
207.17	19.04146
207.716	45.10161
208.262	34.06287
208.808	-12.02764
209.354	-24.05507
209.899	33.07861
210.445	-14.03268
210.99	-16.03625
211.535	42.09245
212.08	42.09141
212.625	42.09845
213.17	11.02627
213.715	1.00207
214.259	53.11537
214.804	7.01635
215.348	11.02373
215.892	47.10543
216.436	84.18133
216.98	64.13246
217.524	25.05544
218.068	52.12265
218.612	4.00953
219.155	38.08382
219.698	38.08498
220.242	36.08472
220.785	57.12481
221.328	23.05411
221.871	14.0337
222.414	69.16126
222.956	-44.10087
223.499	23.04885
224.041	18.03984
224.583	74.15035
225.126	-13.02729
225.668	-32.0741
226.21	-2.00476
226.751	-46.09593
227.293	19.04113
227.835	7.01614
228.376	65.14107
228.918	27.06449
229.459	-25.05902
230	54.12037
230.541	41.08894
231.082	-35.08084
231.622	13.02837
232.163	-8.01833
232.704	2.00468
233.244	14.03273
233.784	25.05797
234.324	-18.03724
234.864	2.00429
235.404	37.08287
235.944	35.07813
236.484	51.11948
237.023	5.01113
237.563	-39.08565
238.102	5.01115
238.641	72.16963
239.18	-58.12891
239.719	4.00948
240.258	51.10724
240.797	34.07601
241.335	21.04839
241.874	6.01085
242.412	11.02482
242.95	-15.03369
243.488	-23.04975
244.026	51.10922
244.564	4.00776
245.102	13.02735
245.64	17.03859
246.177	-13.02753
246.715	32.07204
247.252	2.00433
247.789	87.15222
248.326	10.02238
248.863	-46.09551
249.4	17.03622
249.936	15.02887
250.473	23.04998
251.009	-8.01717
251.546	7.01443
252.082	49.09962
252.618	2.00416
253.154	-11.02475
253.69	11.02315
254.226	9.02006
254.761	-1.0021
255.297	-51.10549
255.832	-3.00664
256.367	52.11331
256.903	22.04488
257.438	50.10891
257.972	-15.03133
258.507	-21.04488
259.042	-5.01015
259.576	-25.05013
260.111	26.05593
260.645	38.07625
261.179	-27.05892
261.713	11.02271
262.247	18.03859
262.781	-15.02929
263.315	14.03175
263.849	19.04399
264.382	29.06184
264.915	11.02381
265.449	-65.14767
265.982	41.08617
266.515	7.01582
267.048	31.06035
267.58	76.15244
268.113	-2.004
268.646	-15.03438
269.178	-31.06438
269.71	4.0081
270.243	16.03383
270.775	-25.05918
271.307	32.07124
271.838	94.20422
272.37	-1.00228
272.902	43.08986
273.433	-11.02228
273.965	-5.01127
274.496	37.08477
275.027	39.08864
275.558	-3.00672
276.089	-71.16202
276.62	-2.00472
277.15	-3.00686
277.681	6.01205
278.211	38.08558
278.741	-30.06095
279.272	27.05622
279.802	-7.01615
280.332	-13.02819
280.861	5.01106
281.391	-5.0104
281.921	62.13596
282.45	12.02758
282.98	7.01677
283.509	-2.00412
284.038	15.03119
284.567	34.07258
285.096	-8.01775
285.625	-39.08153
286.153	-17.03645
286.682	-13.02717
287.21	1.00219
287.739	-31.06719
288.267	-24.05307
288.795	15.03605
289.323	-9.01907
289.851	11.02339
290.378	-50.10307
290.906	-41.09035
291.433	-11.02497
291.961	-5.01023
292.488	-8.0181
293.015	-36.07691
293.542	-14.03204
294.069	-20.04449
294.596	38.08463
295.122	16.0343
295.649	-6.01196
296.175	3.00657
296.702	0
297.228	29.06334
297.754	5.01006
298.28	-18.03669
298.806	-13.02805
299.332	-12.02367
299.857	0
300.383	7.01594
300.908	-24.05185
301.433	-19.0412
301.958	3.00621
302.483	-38.08481
303.008	-19.04217
303.533	52.12008
304.058	27.0565
304.582	-40.08405
305.107	-29.0673
305.631	53.10623
306.155	-15.0308
306.679	-32.06605
307.203	1.00204
307.727	-40.08427
308.251	15.03257
308.775	-68.14245
309.298	-52.10951
309.822	-47.10517
310.345	18.03709
310.868	-20.0418
311.391	41.08758
311.914	-41.09001
312.437	15.02973
312.96	-3.00611
313.482	-39.08045
314.005	-38.08319
314.527	-31.07074
315.049	21.04585
315.571	-60.1145
316.093	-8.01701
316.615	-77.16091
317.137	-37.06881
317.659	-15.03135
318.18	23.04719
318.702	-61.12153
319.223	-22.03798
319.744	-44.0834
320.265	-68.13973
320.786	-44.09144
321.307	-55.1157
321.828	-36.0681
322.348	-26.0509
322.869	-55.10764
323.389	-274.39013
323.909	-58.11079
324.43	-22.04427
324.95	-39.073
325.47	-60.12107
325.989	-56.10754
326.509	-80.14201
327.029	-81.14711
327.548	-76.1368
328.067	-72.1392
328.587	-102.20752
329.106	-68.12297
329.625	4.0085
330.144	-125.23073
330.662	-114.2091
331.181	-68.12485
331.7	-21.03797
332.218	-59.09791
332.736	-18.03222
333.255	-144.26214
333.773	-84.15299
334.291	-56.10832
334.808	-88.1477
335.326	-65.10984
335.844	-127.22069
336.361	-155.29788
336.879	-90.15395
337.396	-138.24764
337.913	-102.17063
338.43	-127.20727
338.947	-123.21329
339.464	-132.19984
339.981	-151.25767
340.497	-119.21272
341.014	-134.23354
341.53	-182.28963
342.046	-127.2194
342.562	-85.14912
343.078	-111.18014
343.594	-140.2324
344.11	-112.18233
344.626	-161.2823
345.141	-117.17761
345.657	-92.13903
346.172	-120.19392
346.687	-215.33245
347.202	-145.21132
347.717	-211.33839
348.232	-167.2793
348.747	-172.25589
349.261	-195.26408
349.776	-140.20929
350.29	-252.40404
350.805	-92.14489
351.319	-138.20044
351.833	-191.26464
352.347	-163.23638
352.861	-214.30814
353.374	-153.21596
353.888	-196.29462
354.401	-241.33912
354.915	-227.29754
355.428	-219.33188
355.941	-201.27382
356.454	-159.20811
356.967	-166.22992
357.48	-161.21315
357.993	-166.23991
358.505	-223.31859
359.018	-200.28348
359.53	-273.38
360.042	-211.25869
360.554	-171.23295
361.066	-247.34093
361.578	-207.2397
362.09	-209.27468
362.602	-262.3065
363.113	-190.23185
363.625	-219.25436
364.136	-166.18268
364.647	-351.42064
365.158	-155.1792
365.669	-224.2765
366.18	-204.24181
366.691	-201.21218
367.201	-292.35614
367.712	-217.23223
368.222	-293.32191
368.733	-288.27891
369.243	-241.23124
369.753	-243.25303
370.263	-279.30555
370.773	-305.35009
371.282	-297.30628
371.792	-415.38363
372.301	-345.34331
372.811	-294.32642
373.32	-331.22926
373.829	-373.31136
374.338	-291.19605
374.847	-345.23844
375.356	-399.28369
375.865	-465.22409
376.373	-423.21735
376.882	-401.2757
377.39	-482.27968
377.898	-581.2946
378.407	-580.18441
378.915	-532.11299
379.423	-561.14285
379.93	-538.07204
380.438	-711.1
380.946	-672.00884
381.453	-749.97353
381.96	-814.88774
382.468	-970.75459
382.975	-781.77042
383.482	-835.67886
383.989	-966.7035
384.495	-986.56753
385.002	-1104.41914
385.509	-1169.3915
386.015	-1221.33199
386.521	-1241.32107
387.028	-1322.30608
387.534	-1350.34965
388.04	-1388.30629
388.546	-1559.41356
389.051	-1745.60212
389.557	-1913.81372
390.063	-1542.07
390.568	-1825.36046
391.073	-2090.05136
391.578	-2014.31751
392.084	-2283.42924
392.589	-2789.33312
393.093	-3054.80781
393.598	-2893.40933
394.103	-3271.35694
394.607	-3580.34933
395.112	-3691.53483
395.616	-3825.20463
396.12	-4707.18618
396.624	-5427.01591
397.128	-5687.31836
397.632	-5790.2853
398.136	-6706.50766
398.639	-8357.89715
399.143	-9633.90256
399.646	-10645.45698
400.15	-12172.77623
400.653	-13961.01654
401.156	-16292.83727
401.659	-19975.38316
402.162	-14538.72975
402.664	-2156.14379
403.167	-18.46161
403.67	0
404.172	0
404.674	0
405.176	0
405.678	0
406.18	0
406.682	0
407.184	0
407.686	0
408.187	0
408.688	0
409.19	0
409.691	0
410.192	-302.28201
410.693	-7207.31693
411.194	-10570.55266
411.694	-9364.39646
412.195	-8467.12726
412.696	-8588.73378
413.196	-9466.98134
413.696	-9289.52723
414.196	-7852.50928
414.696	-5760.80325
415.196	-3891.29783
415.696	-1068.17236
416.196	-1513.87809
416.695	-3102.90511
417.195	-3956.71816
417.694	-3336.25189
418.194	-2770.34541
418.693	-3287.16136
419.192	-2934.44644
419.691	-2906.34893
420.19	-2738.56739
420.688	-2369.80224
421.187	-2161.50783
421.685	-1850.01742
422.184	-1566.56501
422.682	-1523.36086
423.18	-1700.43628
423.678	-1645.93757
424.176	-1707.11141
424.674	-1395.53384
425.172	-1210.97735
425.669	-1017.70074
426.167	-846.64236
426.664	-926.52409
427.161	-925.48621
427.659	-904.51537
428.156	-825.54683
428.652	-781.66441
429.149	-814.67124
429.646	-727.70439
430.143	-755.81353
430.639	-686.86157
431.135	-652.95669
431.632	-648.95897
432.128	-602.04306
432.624	-734.18051
433.12	-719.05998
433.616	-638.05497
434.111	-746.17339
434.607	-658.20578
435.103	-456.09301
435.598	-516.13234
436.093	-466.23052
436.588	-474.24916
437.083	-389.22268
437.578	-402.26748
438.073	-563.47795
438.568	-419.3766
439.062	-499.36141
439.557	-435.40614
440.051	-426.36978
440.546	-468.4256
441.04	-490.51135
441.534	-449.5277
442.028	-412.45336
442.522	-445.49682
443.015	-403.38896
443.509	-377.44625
444.002	-474.58341
444.496	-410.42005
444.989	-465.58886
445.482	-449.58205
445.975	-468.52316
446.468	-410.42422
446.961	-435.45919
447.454	-454.53616
447.947	-503.63884
448.439	-399.52777
448.931	-489.58758
449.424	-374.52924
449.916	-390.52608
450.408	-454.55716
450.9	-460.63334
451.392	-493.7349
451.884	-441.583
452.375	-446.64525
452.867	-388.50924
453.358	-461.60416
453.849	-402.48131
454.341	-447.59372
454.832	-421.52381
455.323	-466.69735
455.814	-418.58331
456.304	-424.59891
456.795	-405.56678
457.285	-394.54697
457.776	-361.5191
458.266	-391.58203
458.756	-394.6099
459.247	-431.65724
459.737	-424.64983
460.226	-388.5529
460.716	-445.70491
461.206	-384.61016
461.695	-396.67567
462.185	-392.6218
462.674	-348.53582
463.163	-392.58653
463.653	-361.50322
464.142	-388.6442
464.63	-352.60025
465.119	-365.58045
465.608	-403.65048
466.096	-296.44283
466.585	-297.48205
467.073	-344.59388
467.561	-342.59547
468.05	-315.52715
468.538	-286.51008
469.026	-360.6371
469.513	-331.50227
470.001	-356.59432
470.489	-285.49161
470.976	-280.4759
471.463	-360.68737
471.951	-278.52847
472.438	-362.65067
472.925	-366.65549
473.412	-285.5427
473.899	-258.45299
474.385	-288.55175
474.872	-247.44017
475.359	-314.6036
475.845	-316.51015
476.331	-211.3558
476.817	-298.58334
477.303	-317.5919
477.789	-287.55662
478.275	-332.67145
478.761	-281.55072
479.247	-254.46075
479.732	-281.56922
480.218	-259.55394
480.703	-232.47114
481.188	-278.48888
481.673	-255.47991
482.158	-313.54597
482.643	-243.51904
483.128	-302.57522
483.612	-255.49834
484.097	-184.37571
484.581	-209.40728
485.066	-244.49959
485.55	-256.47171
486.034	-263.48084
486.518	-250.49564
487.002	-319.67221
487.486	-263.55007
487.969	-275.57771
488.453	-248.54223
488.936	-223.4296
489.42	-224.42685
489.903	-215.47038
490.386	-703.14233
490.869	-191.35945
491.352	-198.42412
491.835	-193.3459
492.318	-296.59123
492.8	-205.36873
493.283	-261.58547
493.765	-267.58192
494.247	-235.48955
494.73	-238.46567
495.212	-202.434
495.694	-273.56795
496.175	-264.55375
496.657	-183.3836
497.139	-183.28363
497.62	-317.67651
498.102	-262.58252
498.583	-206.46106
499.064	-286.57444
499.545	-218.44473
500.026	-233.46766
500.507	-206.4277
500.988	-217.48478
501.469	-275.62346
501.949	-172.38052
502.43	-239.50962
502.91	-241.44932
503.39	-210.47621
503.87	-233.49359
504.35	-212.4545
504.83	-235.46601
505.31	-215.46998
505.79	-232.5021
506.269	-245.524
506.749	-252.52391
507.228	-243.51837
507.707	-196.39204
508.187	-190.41261
508.666	-228.50819
509.145	-273.58539
509.623	-277.59935
510.102	-218.48208
510.581	-194.42793
511.059	-246.56349
511.538	-199.47036
512.016	-190.41332
512.494	-197.43719
512.972	-210.45837
513.45	-280.59613
513.928	-220.48772
514.406	-269.59348
514.884	-198.46428
515.361	-184.40128
515.839	-211.44014
516.316	-199.43777
516.793	-161.37184
517.27	-200.44689
517.747	-216.50886
518.224	-181.3841
518.701	-192.39276
519.178	-193.43632
519.654	-196.4309
520.131	-197.44773
520.607	-191.43708
521.083	-179.37488
521.56	-195.4241
522.036	-174.35158
522.512	-167.37939
522.987	-152.3277
523.463	-210.46167
523.939	-134.30041
524.414	-144.30525
524.89	-169.36896
525.365	-171.35623
525.84	-221.48432
526.315	-200.44523
526.79	-163.33835
527.265	-168.35301
527.74	-209.47249
528.215	-178.38754
528.689	-210.4325
529.164	-145.29009
529.638	-167.39672
530.112	-150.32394
530.587	-210.41614
531.061	-216.48384
531.534	-153.34265
532.008	-173.38377
532.482	-181.38662
532.956	-213.50384
533.429	-154.34454
533.903	-129.26311
534.376	-143.29153
534.849	-72.15169
535.322	-148.32264
535.795	-136.3064
536.268	-123.27127
536.741	-144.31991
537.213	-90.19028
537.686	-142.31808
538.158	-164.33914
538.631	-50.11057
539.103	-122.25047
539.575	-71.13513
540.047	-84.16872
540.519	-57.12408
540.991	-48.1069
541.463	-21.04589
541.934	-33.0682
542.406	-22.04715
542.877	4.00808
543.348	4.00869
543.82	81.17594
544.291	58.12042
544.762	53.11105
545.233	48.10664
545.703	77.14912
546.174	120.24314
546.645	76.15836
547.115	96.20208
547.585	140.27847
548.056	201.40977
548.526	260.5092
548.996	252.51012
549.466	300.61257
549.935	294.57251
550.405	349.6165
550.875	386.73666
551.344	424.81625
551.814	527.94078
552.283	591.97636
552.752	578.02105
553.221	576.93812
553.69	701.13651
554.159	801.41935
554.628	863.33583
555.096	947.68655
555.565	1085.58362
556.033	1123.76475
556.502	1232.95318
556.97	1349.8393
557.438	1474.1357
557.906	1621.27051
558.374	1749.24048
558.842	1906.47214
559.31	2076.30522
559.777	2226.64401
560.245	2463.61074
560.712	2696.55117
561.18	2848.28895
561.647	3125.29795
562.114	3358.31635
562.581	3670.69087
563.048	3827.22977
563.514	4208.38804
563.981	4556.79844
564.448	4861.5027
564.914	5298.50719
565.381	5716.199
565.847	6149.22143
566.313	6488.13939
566.779	6939.03842
567.245	7484.41002
567.711	7939.83386
568.176	8475.38193
568.642	8983.37424
569.108	9612.78614
569.573	10143.45182
570.038	10760.36672
570.504	11381.03356
570.969	12077.97053
571.434	12734.58255
571.899	13511.40785
572.363	14100.97216
572.828	14809.41773
573.293	15417.58445
573.757	16203.13814
574.222	16772.49822
574.686	17423.42992
575.15	18054.03716
575.614	18520.04664
576.078	19195.65472
576.542	19524.92583
577.006	20064.84272
577.469	20308.55202
577.933	20758.04629
578.396	21089.99529
578.86	21155.19661
579.323	21054.53225
579.786	21171.83955
580.249	20956.36168
580.712	21041.46081
581.175	21094.02374
581.637	20892.87684
582.1	20809.96868
582.563	20435.11001
583.025	20365.05238
583.487	20167.01038
583.95	19685.69631
584.412	19739.82524
584.874	19411.56155
585.336	18974.19607
585.797	18739.2879
586.259	18259.61273
586.721	17979.21901
587.182	17780.52546
587.643	17371.14484
588.105	17087.73487
588.566	16648.91898
589.027	16115.12934
589.488	15789.52172
589.949	15538.66994
590.41	15175.88673
590.87	15058.78655
591.331	14690.08822
591.791	14198.56729
592.252	13834.57166
592.712	13588.78074
593.172	13356.81201
593.632	13104.12042
594.092	12809.79669
594.552	12617.81929
595.011	12244.75651
595.471	12130.22882
595.931	11787.22031
596.39	11558.44969
596.849	11468.15976
597.308	11454.54822
597.768	11218.40951
598.227	11146.36019
598.685	11012.98779
599.144	11107.35429
599.603	11126.36284
600.062	11185.40996
600.52	11200.1011
600.978	11206.73837
601.437	11390.85607
601.895	11424.58088
602.353	11516.73127
602.811	11750.04074
603.269	11915.38413
603.727	12014.96207
604.184	12089.96396
604.642	12431.2954
605.099	12726.80207
605.557	13054.55509
606.014	13505.6298
606.471	13713.38024
606.928	13987.88905
607.385	14480.44032
607.842	14794.29364
608.299	15373.7205
608.755	15542.91259
609.212	15923.62391
609.668	16332.42942
610.125	16847.38606
610.581	17255.47159
611.037	17719.16823
611.493	18098.25386
611.949	18378.64035
612.405	18641.56197
612.861	19051.96901
613.316	19222.11349
613.772	19198.73203
614.227	19689.87763
614.683	19813.93417
615.138	19533.89045
615.593	19815.97778
616.048	19951.13277
616.503	19829.45198
616.958	19569.41254
617.412	19535.45409
617.867	19503.87022
618.321	19222.34852
618.776	19077.71019
619.23	18449.77909
619.684	18313.80112
620.138	18093.16611
620.592	17634.29488
621.046	17112.55788
621.5	16882.06584
621.954	16447.49586
622.407	15909.65939
622.861	15393.56866
623.314	15239.10388
623.768	14588.40848
624.221	14212.43343
624.674	13771.36328
625.127	13420.3338
625.58	13224.07701
626.033	12840.62329
626.485	12370.75903
626.938	12021.68489
627.39	11725.20668
627.843	11339.25064
628.295	10884.1711
628.747	10732.42337
629.199	10367.19015
629.651	10055.12063
630.103	9804.33255
630.555	9454.46457
631.006	9110.61734
631.458	8993.39343
631.909	8776.98458
632.361	8478.55003
632.812	8243.2279
633.263	7992.79388
633.714	7827.61958
634.165	7581.88439
634.616	7190.65107
635.067	7039.3136
635.518	6853.64319
635.968	6740.85675
636.419	6459.18353
636.869	6310.71025
637.319	6205.5575
637.769	5853.47851
638.219	5879.91104
638.669	5709.95514
639.119	5589.19414
639.569	5396.20664
640.019	5307.98346
640.468	5168.83418
640.918	5006.44581
641.367	4917.00966
641.816	4906.00188
642.265	4703.338
642.714	4663.36636
643.163	4460.44257
643.612	4339.77761
644.061	4198.06298
644.51	4149.54594
644.958	4063.37015
645.406	4020.93953
645.855	4017.12967
646.303	3867.87787
646.751	3691.75691
647.199	3756.74158
647.647	3696.83519
648.095	3551.86603
648.543	3615.22969
648.99	3544.13394
649.438	3546.05319
649.885	3514.39814
650.333	3433.03051
650.78	3379.26048
651.227	3281.32789
651.674	3176.95095
652.121	3200.34902
652.568	3117.34161
653.015	3157.62078
653.461	3105.21809
653.908	3070.11077
654.354	3028.26519
654.801	2912.15038
655.247	2879.81431
655.693	2919.8183
656.139	2836.28898
656.585	2858.29746
657.031	2769.11591
657.477	2742.73245
657.922	2714.05755
658.368	2681.45108
658.813	2676.13367
659.259	2647.28023
659.704	2588.11323
660.149	2578.11568
660.594	2524.20464
661.039	2571.00469
661.484	2474.23944
661.929	2444.11739
662.373	2439.5057
662.818	2411.40996
663.262	2370.23452
663.707	2426.53808
664.151	2310.29615
664.595	2288.2162
665.039	2287.38515
665.483	2288.50198
665.927	2331.13239
666.371	2196.97529
666.814	2208.14881
667.258	2156.06155
667.701	2216.71239
668.145	2208.35768
668.588	2080.20721
669.031	2072.99631
669.474	2121.14538
669.917	2136.79207
670.36	2040.23313
670.803	2109.15876
671.245	2108.58088
671.688	2119.21697
672.13	2059.8
672.573	2014.34027
673.015	2081.11969
673.457	2037.68101
673.899	2007.11682
674.341	2037.11727
674.783	1995.05546
675.225	2075.22783
675.666	1965.04188
676.108	1960.64087
676.549	2041.04601
676.991	2016.7287
677.432	2049.35583
677.873	2017.93023
678.314	2023.06865
678.755	2057.17387
679.196	2033.8933
679.637	2135.25301
680.078	2078.02283
680.518	2151.04771
680.959	2116.14433
681.399	2127.31385
681.839	2172.25409
682.28	2131.29006
682.72	2202.97984
683.16	2196.37775
683.6	2271.0042
684.039	2198.58712
684.479	2192.30394
684.919	2320.05231
685.358	2331.56409
685.798	2245.68369
686.237	2353.32349
686.676	2395.13717
687.115	2360.17775
687.554	2415.24921
687.993	2419.90938
688.432	2528.08827
688.871	2566.05529
689.309	2583.33007
689.748	2695.68263
690.186	2673.36136
690.625	2692.24996
691.063	2721.38376
691.501	2788.57827
691.939	2855.63659
692.377	2906.50801
692.815	2952.38742
693.253	3012.43466
693.69	3100.89772
694.128	3130.46406
694.565	3137.37527
695.003	3268.77703
695.44	3342.24968
695.877	3268.2193
696.314	3378.72257
696.751	3462.04861
697.188	3550.05197
697.625	3688.02224
698.061	3687.2973
698.498	3774.34124
698.934	3884.2615
699.371	3842.10823
699.807	3897.12861
700.243	3992.20654
700.679	4148.72306
701.115	4150.99661
701.551	4197.96824
701.987	4259.62421
702.422	4427.9014
702.858	4422.93068
703.294	4463.56106
703.729	4565.06252
704.164	4638.89226
704.599	4615.35906
705.035	4602.38924
705.47	4731.9135
705.904	4885.50859
706.339	4876.52257
706.774	4955.51031
707.209	4998.37084
707.643	5088.62372
708.078	5081.73109
708.512	5078.93658
708.946	5210.54588
709.38	5178.47372
709.814	5155.23304
710.248	5293.62388
710.682	5305.42408
711.116	5294.4391
711.549	5196.15112
711.983	5196.27736
712.416	5262.41499
712.85	5273.8137
713.283	5318.38417
713.716	5369.8316
714.149	5166.53142
714.582	5080.14777
715.015	5201.89798
715.448	5160.97136
715.881	5061.9987
716.313	5014.4798
716.746	5052.48802
717.178	4946.70735
717.61	4909.16435
718.043	4853.0519
718.475	4761.87853
718.907	4896.16534
719.339	4603.46916
719.77	4593.79124
720.202	4548.33229
720.634	4507.0359
721.065	4515.84263
721.497	4413.15111
721.928	4335.19628
722.359	4245.09459
722.79	4173.08211
723.221	4160.48497
723.652	4207.67385
724.083	3969.76648
724.514	3912.91973
724.945	3829.10489
725.375	3758.03491
725.806	3656.60267
726.236	3559.81879
726.666	3640.22397
727.096	3464.51769
727.526	3390.77105
727.956	3362.03038
728.386	3377.5575
728.816	3157.75726
729.246	3172.48174
729.675	3114.56849
730.105	3038.57862
730.534	3014.26087
730.964	2951.75127
731.393	2945.64011
731.822	2814.79163
732.251	2767.73834
732.68	2801.30235
733.109	2646.52626
733.537	2594.39444
733.966	2551.54198
734.395	2488.1295
734.823	2463.01233
735.251	2428.3289
735.68	2428.54952
736.108	2298.53578
736.536	2272.16154
736.964	2208.05087
737.392	2128.3729
737.82	2160.18832
738.247	2095.14108
738.675	2081.12519
739.102	1937.21894
739.53	1910.2841
739.957	1907.33118
740.384	1909.14799
740.811	1836.20207
741.238	1760.96796
741.665	1698.71144
742.092	1708.83803
742.519	1677.94129
742.945	1620.77109
743.372	1566.82869
743.798	1559.96566
744.225	1584.69907
744.651	1481.78042
745.077	1375.62608
745.503	1427.61885
745.929	1394.52311
746.355	1399.65286
746.781	1258.45108
747.207	1251.27649
747.632	1199.31665
748.058	1233.43675
748.483	1212.18034
748.908	1149.30209
749.334	1124.23386
749.759	1107.10192
750.184	1110.13056
750.609	1065.14722
751.033	1080.07383
751.458	1059.92055
751.883	1012.0853
752.307	989.92791
752.732	904.92232
753.156	1000.05594
753.58	959.90468
754.005	915.98146
754.429	907.79878
754.853	845.80419
755.277	818.66923
755.7	852.82032
756.124	797.72218
756.548	715.49413
756.971	805.70687
757.394	746.69993
757.818	726.65833
758.241	738.65532
758.664	692.55843
759.087	620.23783
759.51	635.42443
759.933	628.35875
760.356	594.38705
760.778	640.41478
761.201	626.37286
761.623	563.24774
762.046	629.34265
762.468	602.30963
762.89	570.28449
763.312	579.28698
763.734	476.06363
764.156	546.23585
764.578	534.12457
765	518.1643
765.421	427.01745
765.843	470.15017
766.264	497.11086
766.686	447.05052
767.107	438.99472
767.528	415.98683
767.949	411.9867
768.37	405.93821
768.791	404.92273
769.212	371.88495
769.632	344.76385
770.053	383.95808
770.473	415.95032
770.894	385.91446
771.314	389.87971
771.734	294.66016
772.154	311.76818
772.575	362.79746
772.994	326.70793
773.414	352.80593
773.834	296.71325
774.254	290.68475
774.673	313.73231
775.093	285.68064
775.512	272.64823
775.931	255.62781
776.351	250.60311
776.77	256.60706
777.189	261.60181
777.607	251.62274
778.026	238.5772
778.445	172.42387
778.864	264.65654
779.282	288.66789
779.701	224.55119
780.119	180.44734
780.537	163.40133
780.955	262.64635
781.373	230.55445
781.791	194.42758
782.209	243.54442
782.627	209.53869
783.045	192.43344
783.462	165.41566
783.88	154.39342
784.297	204.50236
784.715	126.32099
785.132	191.45373
785.549	203.49704
785.966	147.36567
786.383	165.4001
786.8	212.48113
787.217	151.35387
787.633	135.33374
788.05	211.49021
788.466	246.56327
788.883	148.3729
789.299	166.39396
789.715	149.35804
790.131	142.34943
790.547	156.38459
790.963	141.34639
791.379	146.36483
791.795	170.38206
792.21	168.38684
792.626	137.32207
793.041	103.25332
793.457	161.39231
793.872	125.2918
794.287	101.24021
794.702	140.34146
795.117	103.25482
795.532	106.2643
795.947	180.4257
796.362	167.3929
796.776	192.44105
797.191	114.27742
797.605	60.14147
798.02	125.30174
798.434	145.31938
798.848	58.14341
799.262	86.21304
799.676	145.34976
800.09	107.262
800.504	106.25612
800.918	68.15808
801.331	124.32245
801.745	88.20207
802.158	119.29526
802.572	151.36161
802.985	165.39272
803.398	106.25167
803.811	149.37831
804.224	123.30374
804.637	93.22102
805.05	90.2084
805.462	86.21108
805.875	45.11716
806.288	53.12842
806.7	102.25516
807.112	99.22883
807.525	131.32016
807.937	77.19029
808.349	115.28607
808.761	70.17245
809.173	84.20335
809.584	116.28472
809.996	57.14004
810.408	51.13205
810.819	81.19042
811.231	101.25953
811.642	35.08407
812.053	59.14076
812.464	112.26448
812.875	93.2368
813.286	54.13941
813.697	159.3662
814.108	108.26233
814.519	140.3083
814.929	117.29612
815.34	80.19388
815.75	69.17538
816.16	90.22368
816.571	91.23554
816.981	72.17022
817.391	94.22618
817.801	54.13455
818.211	137.32282
818.62	55.13287
819.03	100.2439
819.44	121.3133
819.849	73.1839
820.259	82.20949
820.668	74.1819
821.077	72.17875
821.486	116.27721
821.895	102.25073
822.304	82.21674
822.713	52.12346
823.122	93.23118
823.531	100.23587
823.939	88.21375
824.348	77.18707
824.756	98.24427
825.164	87.21831
825.573	88.22006
825.981	106.26123
826.389	92.23023
826.797	68.17036
827.205	77.17656
827.612	97.23822
828.02	3.00714
828.428	98.24825
828.835	42.11098
829.243	123.29028
829.65	44.10987
830.057	41.10006
830.464	45.11015
830.871	108.25681
831.278	87.20962
831.685	96.21327
832.092	117.28393
832.499	88.19192
832.905	77.1946
833.312	84.19118
833.718	83.20624
834.124	104.23613
834.531	90.22596
834.937	90.23001
835.343	77.18553
835.749	112.25955
836.155	101.26278
836.561	106.25882
836.966	76.18557
837.372	110.27776
837.777	74.18405
838.183	77.17103
838.588	70.17366
838.993	99.23961
839.399	59.14441
839.804	31.07602
840.209	51.13009
840.613	80.17758
841.018	79.19952
841.423	77.19703
841.828	58.14682
842.232	91.22439
842.637	25.05946
843.041	36.09268
843.445	118.29305
843.849	83.20474
844.253	84.19898
844.657	55.13866
845.061	99.22318
845.465	90.21631
845.869	49.11425
846.272	60.14618
846.676	118.28253
847.079	63.16013
847.483	81.20142
847.886	99.23934
848.289	53.14157
848.692	89.22429
849.095	67.16082
849.498	116.29123
849.901	69.15816
850.304	102.24199
850.707	87.22082
851.109	98.24639
851.512	68.1669
851.914	38.09612
852.316	90.22644
852.718	17.0442
853.121	65.15916
853.523	61.14262
853.925	25.06558
854.326	40.10035
854.728	67.17204
855.13	20.05192
855.531	28.06732
855.933	64.15359
856.334	54.13475
856.736	56.1256
857.137	100.23073
857.538	45.11341
857.939	19.04728
858.34	104.25138
858.741	70.18259
859.142	88.2103
859.542	48.12683
859.943	40.09974
860.343	26.06476
860.744	110.26589
861.144	91.22067
861.544	37.08928
861.945	52.13266
862.345	85.20689
862.745	70.17359
863.145	121.2859
863.544	80.20136
863.944	52.12303
864.344	76.1882
864.743	107.26316
865.143	68.17434
865.542	59.13686
865.941	54.13377
866.34	100.2377
866.74	68.18214
867.139	56.13414
867.537	108.27271
867.936	52.12531
868.335	68.17269
868.734	30.07702
869.132	69.16
869.531	111.26582
869.929	37.08471
870.327	74.17684
870.726	121.29825
871.124	80.1862
871.522	36.09204
871.92	103.25192
872.318	69.16832
872.715	79.1948
873.113	74.17975
873.511	52.12966
873.908	25.06345
874.306	67.1663
874.703	69.17227
875.1	78.19878
875.497	34.08187
875.894	28.06895
876.291	48.11799
876.688	26.0674
877.085	48.11537
877.482	74.18465
877.878	16.03881
878.275	64.16235
878.671	99.21861
879.068	56.13521
879.464	91.21851
879.86	15.03576
880.256	64.15773
880.652	60.15248
881.048	76.18764
881.444	65.15447
881.84	78.19745
882.236	64.16068
882.631	61.14959
883.027	82.19761
883.422	36.09236
883.817	45.11328
884.213	36.09268
884.608	14.03459
885.003	49.11829
885.398	68.1698
885.793	86.21467
886.188	21.05252
886.582	91.23195
886.977	67.15868
887.371	34.08631
887.766	5.01255
888.16	34.08518
888.554	90.22115
888.949	122.30265
889.343	106.25651
889.737	-5.01345
890.131	28.07058
890.525	59.15076
890.918	75.18806
891.312	70.16703
891.706	70.18316
892.099	93.23504
892.492	62.13361
892.886	48.1176
893.279	59.15018
893.672	57.14503
894.065	88.21903
894.458	36.09084
894.851	91.2215
895.244	57.14549
895.637	80.19177
896.029	56.13689
896.422	85.2065
896.814	76.1882
897.206	65.15447
897.599	100.24526
897.991	63.15208
898.383	46.10888
898.775	83.18627
899.167	28.06563
899.559	92.23131
899.951	100.23367
900.342	48.1222
900.734	43.10689
901.125	94.24494
901.517	69.16889
901.908	80.19089
902.299	51.12474
902.69	72.1693
903.082	80.19279
903.473	50.11981
903.863	51.13018
904.254	63.14597
904.645	89.21994
905.036	28.06811
905.426	69.15752
905.817	84.20495
906.207	62.14749
906.597	70.16318
906.987	84.21656
907.378	61.15406
907.768	65.17149
908.158	57.1389
908.547	41.10612
908.937	38.09776
909.327	78.18854
909.717	81.20464
910.106	35.08436
910.495	120.29595
910.885	54.13674
911.274	54.13494
911.663	82.20706
912.052	99.24223
912.441	54.13728
912.83	42.09664
913.219	96.24938
913.608	67.16369
913.997	7.01769
914.385	99.23446
914.774	92.22238
915.162	37.08844
915.55	78.18783
915.939	37.09365
916.327	71.17662
916.715	53.13505
917.103	95.23201
917.491	82.20179
917.878	68.16672
918.266	81.20901
918.654	97.24585
919.041	33.08642
919.429	52.12275
919.816	44.1117
920.203	55.13332
920.591	87.21437
920.978	90.21886
921.365	53.13903
921.752	60.14284
922.139	102.21915
922.525	47.11299
922.912	67.16296
923.299	59.14645
923.685	43.11234
924.072	86.197
924.458	27.06719
924.844	42.10412
925.231	70.16235
925.617	28.07151
926.003	69.17581
926.389	61.15362
926.774	61.15433
927.16	45.1119
927.546	23.059
927.931	94.23277
928.317	82.18777
928.702	79.18594
929.088	42.09953
929.473	50.12724
929.858	12.02922
930.243	20.04829
930.628	58.14094
931.013	50.12395
931.398	110.25006
931.783	79.20702
932.167	60.14645
932.552	56.14019
932.937	89.21938
933.321	48.12051
933.705	55.13856
934.09	101.25298
934.474	68.16101
934.858	73.18863
935.242	74.17074
935.626	53.13562
936.009	58.15408
936.393	69.17501
936.777	64.16351
937.16	64.16614
937.544	37.08742
937.927	44.11178
938.311	67.16308
938.694	83.21831
939.077	29.06971
939.46	134.32402
939.843	89.18417
940.226	84.21422
940.609	57.1307
940.991	17.04353
941.374	53.12949
941.757	98.23974
942.139	75.16762
942.522	87.20421
942.904	66.15821
943.286	87.21964
943.668	76.196
944.05	57.14024
944.432	30.07432
944.814	78.19117
945.196	5.01229
945.578	17.04067
945.959	81.18871
946.341	79.19293
946.722	70.1637
947.104	34.08153
947.485	43.10022
947.866	10.02538
948.247	53.13366
948.628	93.22509
949.009	34.08732
949.39	70.17366
949.771	67.15536
950.152	48.11786
950.532	-4.00994
950.913	68.1635
951.293	30.08131
951.674	68.16393
952.054	12.02994
952.434	52.12905
952.814	49.11663
953.194	83.21602
953.574	101.24648
953.954	36.08574
954.334	70.17385
954.714	41.10009
955.093	80.19563
955.473	27.0678
955.853	73.18823
956.232	52.14248
956.611	56.13419
956.99	32.08069
957.37	59.15012
957.749	30.07186
958.128	29.07335
958.506	18.04695
958.885	62.15616
959.264	17.04192
959.643	39.08896
960.021	54.13372
960.4	6.01372
960.778	63.15483
961.156	48.12038
961.535	73.16941
961.913	43.10077
962.291	16.04129
962.669	20.05093
963.047	51.13013
963.424	28.07174
963.802	38.09365
964.18	85.21375
964.557	61.14021
964.935	73.17222
965.312	52.13536
965.69	110.27249
966.067	58.14104
966.444	79.19365
966.821	63.16205
967.198	106.25448
967.575	99.24124
967.952	67.15739
968.329	46.11203
968.705	48.103
969.082	52.13332
969.458	-3.00727
969.835	58.14099
970.211	43.11049
970.587	69.17121
970.963	101.2568
971.339	39.10203
971.715	68.16925
972.091	78.19109
972.467	86.21311
972.843	70.17308
973.219	88.20982
973.594	51.13337
973.97	97.22884
974.345	26.06251
974.721	70.16888
975.096	33.08011
975.471	24.05722
975.846	27.06515
976.221	37.09418
976.596	78.18598
976.971	107.26141
977.346	87.20109
977.72	40.10208
978.095	84.21581
978.469	96.22714
978.844	83.20744
979.218	46.11035
979.593	53.12693
979.967	102.24608
980.341	76.1741
980.715	69.17327
981.089	59.14746
981.463	35.08061
981.837	26.06382
982.21	95.21915
982.584	41.0992
982.957	50.12485
983.331	62.14624
983.704	64.15685
984.078	44.10856
984.451	77.1914
984.824	39.09518
985.197	91.21934
985.57	67.16752
985.943	65.1601
986.316	89.21711
986.688	34.08225
987.061	89.20702
987.434	70.18178
987.806	40.0972
988.179	56.13198
988.551	89.22421
988.923	54.13289
989.295	70.17429
989.667	45.1076
990.039	25.06205
990.411	41.09454
990.783	48.11057
991.155	-13.03161
991.527	124.30119
991.898	54.13445
992.27	66.16277
992.641	105.26081
993.012	99.23074
993.384	48.11453
993.755	43.10976
994.126	30.07243
994.497	42.10324
994.868	73.16692
995.239	81.19516
995.61	32.08077
995.98	84.20274
996.351	24.05971
996.722	27.0629
997.092	19.04526
997.462	14.03293
997.833	66.15598
998.203	83.19998
998.573	70.17366
998.943	93.21624
999.313	53.12693
999.683	50.11999
1000.053	102.23225
1000.423	75.18139
1000.792	89.22909
1001.162	69.1692
1001.531	71.17436
1001.901	69.17139
1002.27	24.05394
1002.639	72.18323
1003.009	95.22394
1003.378	44.11261
1003.747	70.16472
1004.116	47.11251
1004.485	115.2714
1004.853	98.24613
1005.222	39.09853
1005.591	54.12811
1005.959	37.08358
1006.328	73.16349
1006.696	58.13967
1007.064	38.09578
1007.433	66.16445
1007.801	85.20728
1008.169	59.14874
1008.537	87.19115
1008.905	32.0748
1009.273	80.1965
1009.64	23.05514
1010.008	85.20123
1010.375	118.28285
1010.743	115.26211
1011.11	63.14868
1011.478	63.15552
1011.845	58.13617
1012.212	50.11316
1012.579	78.19046
1012.946	59.14016
1013.313	134.31373
1013.68	118.26149
1014.047	45.10731
1014.414	42.09933
1014.78	30.0748
1015.147	100.23953
1015.513	73.17509
1015.88	97.24594
1016.246	78.19152
1016.612	68.15508
1016.978	73.17808
1017.344	61.15042
1017.71	80.19396
1018.076	75.17597
1018.442	55.14133
1018.808	55.13732
1019.174	58.14525
1019.539	148.33398
1019.905	32.07571
1020.27	63.15506
1020.636	86.20474
1021.001	99.23473
1021.366	9.02178
1021.731	128.32459
1022.096	22.05575
1022.461	46.10892
1022.826	58.1376
1023.191	70.18297
1023.556	66.15416
1023.92	80.19556
1024.285	34.08321
1024.649	52.12735
1025.014	75.18487
1025.378	71.17777
1025.742	55.13642
1026.107	75.16873
1026.471	56.13055
1026.835	84.20686
1027.199	54.12984
1027.562	65.1506
1027.926	95.23028
1028.29	44.11142
1028.654	62.14225
1029.017	100.24345
1029.381	41.09808
1029.744	49.12494
1030.107	98.22962
1030.471	65.15513
1030.834	60.13617
1031.197	69.16556
1031.56	50.11793
1031.923	22.05713
1032.286	81.18901
1032.648	69.16436
1033.011	61.13965
1033.374	97.22581
1033.736	61.16001
1034.099	45.10974
1034.461	23.05836
1034.823	30.07494
1035.185	64.16062
1035.548	68.16486
1035.91	74.17637
1036.272	47.10699
1036.634	73.17775
1036.995	29.06842
1037.357	73.17675
1037.719	47.11431
1038.08	88.20732
1038.442	27.06434
1038.803	44.10571
1039.165	73.18338
1039.526	86.20631
1039.887	73.17382
1040.248	2.00497
1040.609	61.15036
1040.97	57.13905
1041.331	69.17401
1041.692	10.02351
1042.053	63.14301
1042.413	69.16012
1042.774	76.18384
1043.134	102.2403
1043.495	87.21713
1043.855	38.09234
1044.215	56.13877
1044.576	37.08864
1044.936	91.20682
1045.296	99.24474
1045.656	62.15173
1046.016	99.23663
1046.375	56.13562
1046.735	30.06825
1047.095	50.11697
1047.454	84.17659
1047.814	64.15336
1048.173	92.21792
1048.533	53.12129
1048.892	34.08181
1049.251	54.13538
1049.61	68.16678
1049.969	24.05683
1050.328	80.17225
1050.687	46.11194
1051.046	77.18644
1051.405	24.05995
1051.763	23.05314
1052.122	21.05262
1052.48	34.08358
1052.839	46.10825
1053.197	45.10596
1053.555	90.20343
1053.914	63.15363
1054.272	100.23934
1054.63	44.10764
1054.988	33.07861
1055.345	74.15844
1055.703	38.09161
1056.061	68.17427
1056.419	57.14728
1056.776	98.23536
1057.134	73.16813
1057.491	95.2358
1057.848	44.10959
1058.206	26.0614
1058.563	53.11669
1058.92	74.16965
1059.277	106.25863
1059.634	97.22599
1059.991	99.23482
1060.348	37.08379
1060.704	38.09071
1061.061	125.28594
1061.418	42.10194
1061.774	43.10623
1062.131	25.06633
1062.487	39.09133
1062.843	71.17623
1063.199	36.0897
1063.555	44.10201
1063.911	58.14619
1064.267	114.23426
1064.623	10.02445
1064.979	99.23219
1065.335	76.18065
1065.691	57.13635
1066.046	71.15534
1066.402	47.10678
1066.757	47.11862
1067.112	84.20472
1067.468	23.05456
1067.823	65.15572
1068.178	66.15905
1068.533	80.19272
1068.888	62.14771
1069.243	30.07426
1069.598	56.13582
1069.952	6.01362
1070.307	51.12613
1070.662	16.03821
1071.016	9.02032
1071.371	57.12939
1071.725	90.21352
1072.079	-8.01944
1072.434	23.05613
1072.788	48.11427
1073.142	113.27453
1073.496	29.06903
1073.85	52.12046
1074.203	50.12122
1074.557	53.14077
1074.911	113.26627
1075.265	45.10463
1075.618	113.27247
1075.971	35.08344
1076.325	61.15461
1076.678	-15.03473
1077.031	26.05908
1077.385	85.18573
1077.738	47.10609
1078.091	61.1383
1078.444	60.13893
1078.796	54.1323
1079.149	71.17578
1079.502	34.08051
1079.855	46.10728
1080.207	68.16684
1080.56	59.15213
1080.912	87.21017
1081.264	91.21726
1081.617	52.12659
1081.969	71.17829
1082.321	67.16296
1082.673	21.04817
1083.025	29.06903
1083.377	100.21217
1083.728	60.1396
1084.08	95.23503
1084.432	81.19405
1084.783	89.20678
1085.135	27.0679
1085.486	42.09617
1085.838	48.11816
1086.189	33.08029
1086.54	96.22705
1086.891	44.1113
1087.242	66.16007
1087.593	90.2173
1087.944	43.09737
1088.295	95.21381
1088.646	25.06083
1088.996	13.03151
1089.347	64.15651
1089.698	19.04514
1090.048	54.14004
1090.398	75.17294
1090.749	89.21119
1091.099	24.06058
1091.449	67.16624
1091.799	43.10771
1092.149	27.06606
1092.499	61.14836
1092.849	55.13955
1093.199	82.20417
1093.548	58.13903
1093.898	72.17927
1094.248	57.14616
1094.597	41.10473
1094.947	43.11474
1095.296	55.13557
1095.645	105.27027
1095.994	41.09856
1096.343	80.20006
1096.692	31.08162
1097.041	27.07331
1097.39	62.15504
1097.739	59.15298
1098.088	86.22884
1098.437	31.08162
1098.785	62.16667
1099.134	46.12212
1099.482	89.24304
1099.83	45.11824
1100.179	50.13029
1100.527	37.09844
1100.875	61.16083
1101.223	48.12738
1101.571	30.08309
1101.919	-26.06875
1102.267	52.14622
1102.615	6.01929
1102.962	17.05469
1103.31	10.03211
1103.658	18.05793
