Data from N2 R13 sample 9_Subt2__3__12-11-47-770.txt Node

Date: Tue Sep 02 12:11:47 PDT 2025
User: uwsun
Spectrometer: HDX01956
Trigger mode: 0
Integration Time (sec): 5.000000E-1
Scans to average: 1
Nonlinearity correction enabled: true
Boxcar width: 0
Storing dark spectrum: false
XAxis mode: Wavelengths
Number of Pixels in Spectrum: 2068
>>>>>Begin Spectral Data<<<<<
194.03	75.20808
194.578	60.18834
195.127	75.23149
195.676	67.20765
196.225	125.32466
196.773	115.3095
197.321	122.32084
197.87	200.47666
198.418	177.41804
198.966	155.36991
199.513	156.35405
200.061	99.23119
200.609	171.41714
201.156	117.23342
201.704	186.42435
202.251	186.44822
202.798	184.43483
203.345	231.51626
203.892	176.40332
204.438	207.4479
204.985	173.36905
205.532	209.49744
206.078	205.45494
206.624	159.35492
207.17	190.39959
207.716	149.32929
208.262	209.36956
208.808	130.29097
209.354	159.35139
209.899	219.50296
210.445	183.41051
210.99	182.39574
211.535	219.46413
212.08	171.36193
212.625	191.43462
213.17	201.46255
213.715	76.15498
214.259	196.41366
214.804	183.41254
215.348	223.45917
215.892	179.39063
216.436	200.42099
216.98	221.44132
217.524	168.36142
218.068	184.42284
218.612	198.45428
219.155	153.32936
219.698	199.43022
220.242	154.35404
220.785	185.39413
221.328	147.33748
221.871	248.57035
222.414	216.49021
222.956	126.27899
223.499	167.34356
224.041	231.48849
224.583	224.43952
225.126	164.33077
225.668	132.29569
226.21	127.29483
226.751	112.22537
227.293	154.32374
227.835	140.31425
228.376	174.36885
228.918	204.47067
229.459	123.28204
230	159.34669
230.541	204.42715
231.082	177.3915
231.622	207.43314
232.163	130.28965
232.704	165.37363
233.244	156.35448
233.784	181.40669
234.324	128.25614
234.864	139.28905
235.404	220.47409
235.944	188.40636
236.484	178.4066
237.023	178.38211
237.563	193.40313
238.102	220.4688
238.641	153.35477
239.18	113.24221
239.719	189.43163
240.258	177.36183
240.797	162.35256
241.335	207.45919
241.874	224.38256
242.412	159.34787
242.95	108.23644
243.488	193.39812
244.026	163.34062
244.564	172.32011
245.102	166.33742
245.64	186.40771
246.177	208.41913
246.715	204.44301
247.252	149.31261
247.789	257.4296
248.326	135.29436
248.863	180.35486
249.4	188.38563
249.936	186.34324
250.473	136.28842
251.009	144.29885
251.546	166.33003
252.082	230.44831
252.618	158.31749
253.154	173.3745
253.69	176.35693
254.226	157.33913
254.761	162.32839
255.297	182.35677
255.832	139.29832
256.367	178.37749
256.903	224.43599
257.438	224.46985
257.972	144.29016
258.507	98.20402
259.042	200.38705
259.576	166.31817
260.111	184.38237
260.645	204.39366
261.179	151.31708
261.713	208.41044
262.247	151.31442
262.781	143.26872
263.315	176.38595
263.849	190.4249
264.382	203.41649
264.915	169.35347
265.449	112.2453
265.982	203.4114
266.515	243.52264
267.048	179.33621
267.58	236.45585
268.113	219.4154
268.646	188.41331
269.178	166.32957
269.71	235.45097
270.243	219.44241
270.775	166.37842
271.307	223.47674
271.838	238.5012
272.37	183.40122
272.902	223.44739
273.433	195.37638
273.965	184.39856
274.496	220.48549
275.027	176.38888
275.558	159.34404
276.089	134.29311
276.62	175.39886
277.15	197.43246
277.681	195.37439
278.211	200.43544
278.741	182.35188
279.272	166.33496
279.802	217.47816
280.332	195.40405
280.861	243.51072
281.391	176.35122
281.921	196.41766
282.45	236.51796
282.98	224.51434
283.509	175.34638
284.038	192.3835
284.567	232.47394
285.096	198.42045
285.625	153.30624
286.153	165.3399
286.682	208.41334
287.21	160.33902
287.739	181.37454
288.267	156.33199
288.795	207.47921
289.323	163.33231
289.851	204.41561
290.378	164.32179
290.906	152.32137
291.433	218.4718
291.961	200.3902
292.488	193.41868
293.015	209.42279
293.542	245.53148
294.069	202.42857
294.596	213.45714
295.122	187.38609
295.649	192.36498
296.175	225.46997
296.702	231.48164
297.228	284.58675
297.754	207.39705
298.28	224.43142
298.806	179.37024
299.332	209.39081
299.857	178.34348
300.383	231.50197
300.908	164.34005
301.433	177.36774
301.958	247.48316
302.483	198.42027
303.008	226.47593
303.533	235.52282
304.058	232.4634
304.582	205.40747
305.107	181.40252
305.631	254.48544
306.155	190.3721
306.679	214.41732
307.203	266.50911
307.727	254.50051
308.251	219.4548
308.775	179.35446
309.298	189.37689
309.822	221.46714
310.345	257.50106
310.868	275.53717
311.391	250.50978
311.914	215.44649
312.437	223.42051
312.96	201.3902
313.482	245.47312
314.005	226.46713
314.527	222.48066
315.049	249.51733
315.571	212.37789
316.093	258.51676
316.615	237.46074
317.137	273.46865
317.659	306.5939
318.18	281.5429
318.702	277.50849
319.223	252.40335
319.744	272.47582
320.265	191.36954
320.786	250.48544
321.307	288.56003
321.828	328.56535
322.348	269.48982
322.869	253.45905
323.389	18.02328
323.909	263.46335
324.43	375.68564
324.95	234.40848
325.47	232.43672
325.989	262.46461
326.509	270.43587
327.029	282.46506
327.548	225.37383
328.067	340.59261
328.587	330.60534
329.106	238.39685
329.625	374.73039
330.144	325.53257
330.662	298.49009
331.181	300.49998
331.7	359.58633
332.218	364.53408
332.736	309.50662
333.255	326.52302
333.773	375.6039
334.291	369.6413
334.808	394.57493
335.326	375.55854
335.844	360.54548
336.361	302.51663
336.879	305.46667
337.396	326.51558
337.913	371.54085
338.43	362.51062
338.947	369.55695
339.464	316.41496
339.981	340.50407
340.497	408.63085
341.014	336.51336
341.53	374.50149
342.046	377.56459
342.562	354.54989
343.078	391.54577
343.594	378.53864
344.11	423.58632
344.626	359.54412
345.141	409.52471
345.657	431.55069
346.172	407.56084
346.687	364.46837
347.202	400.48625
347.717	481.62189
348.232	402.56853
348.747	408.50171
349.261	386.42471
349.776	441.54524
350.29	466.59691
350.805	462.61264
351.319	448.53452
351.833	371.4224
352.347	379.45854
352.861	376.44327
353.374	536.59476
353.888	513.60977
354.401	472.51669
354.915	551.53781
355.428	416.51265
355.941	477.50892
356.454	542.54561
356.967	443.49535
357.48	509.52627
357.993	525.59903
358.505	492.54835
359.018	592.63429
359.53	529.5515
360.042	560.5036
360.554	547.57451
361.066	471.5025
361.578	536.45384
362.09	566.55511
362.602	520.43769
363.113	557.50341
363.625	577.47819
364.136	635.48931
364.647	472.40175
365.158	635.52502
365.669	545.49477
366.18	603.51063
366.691	598.43618
367.201	551.47581
367.712	550.41532
368.222	581.42943
368.733	557.35128
369.243	604.37632
369.753	702.46342
370.263	641.46047
370.773	617.47239
371.282	631.41439
371.792	542.29689
372.301	633.38276
372.811	636.46311
373.32	590.20946
373.829	688.29713
374.338	716.22251
374.847	588.20549
375.356	710.21867
375.865	724.06539
376.373	773.08916
376.882	858.20645
377.39	838.11102
377.898	798.04393
378.407	826.91921
378.915	950.81903
379.423	968.83431
379.93	1004.74218
380.438	821.79026
380.946	989.64586
381.453	1031.58262
381.96	1061.50232
382.468	1165.38074
382.975	1315.29785
383.482	1305.28602
383.989	1152.37405
384.495	1296.30299
385.002	1395.3829
385.509	1398.38361
386.015	1614.71222
386.521	1703.73245
387.028	1673.97801
387.534	1710.28534
388.04	1723.2009
388.546	1609.74934
389.051	1830.73771
389.557	1973.65571
390.063	2217.50519
390.568	2119.05979
391.073	2085.25297
391.578	2251.33155
392.084	2170.60907
392.589	2077.16258
393.093	2174.98107
393.598	2687.69335
394.103	2982.7029
394.607	3348.35739
395.112	3430.38436
395.616	3593.10915
396.12	3456.27458
396.624	3812.39671
397.128	4161.9991
397.632	4810.91707
398.136	5063.3433
398.639	4525.60494
399.143	5416.63646
399.646	5924.35913
400.15	5461.66959
400.653	6494.82157
401.156	6699.49137
401.659	3800.94021
402.162	610.66322
402.664	0
403.167	0
403.67	0
404.172	0
404.674	0
405.176	0
405.678	0
406.18	0
406.682	0
407.184	0
407.686	0
408.187	0
408.688	0
409.19	0
409.691	0
410.192	0
410.693	0
411.194	435.30976
411.694	4082.94878
412.195	8864.71461
412.696	12089.80453
413.196	12732.25224
413.696	12664.82079
414.196	13615.38209
414.696	17095.77035
415.196	18609.6117
415.696	16772.39267
416.196	12343.74947
416.695	9026.65035
417.195	7989.8982
417.694	7554.34774
418.194	6967.37483
418.693	6618.13193
419.192	6643.15715
419.691	6379.15253
420.19	6416.46691
420.688	6424.39742
421.187	5770.98278
421.685	5485.68333
422.184	4972.41286
422.682	4107.98459
423.18	3230.52206
423.678	2936.13118
424.176	2630.57097
424.674	2543.723
425.172	2516.72775
425.669	2376.91313
426.167	2355.04915
426.664	1889.0653
427.161	1767.63487
427.659	1712.30732
428.156	1598.3549
428.652	1593.16005
429.149	1339.26946
429.646	1438.22067
430.143	1212.37395
430.639	1228.39236
431.135	1095.54608
431.632	1012.593
432.128	1022.67917
432.624	857.83257
433.12	752.78706
433.616	808.77823
434.111	736.86594
434.607	803.90635
435.103	765.8944
435.598	744.91939
436.093	727.07241
436.588	717.08993
437.083	615.13692
437.578	575.17909
438.073	405.19205
438.568	569.29221
439.062	495.17613
439.557	498.28117
440.051	405.21976
440.546	374.21533
441.04	424.28448
441.534	363.3024
442.028	412.31269
442.522	340.26824
443.015	357.23509
443.509	396.33947
444.002	263.24077
444.496	328.23683
444.989	321.29819
445.482	310.30024
445.975	269.21767
446.468	332.24235
446.961	336.24793
447.454	266.23288
447.947	178.17367
448.439	249.25907
448.931	239.21306
449.424	293.32846
449.916	249.26628
450.408	160.15409
450.9	214.2313
451.392	184.21874
451.884	173.18232
452.375	165.19392
452.867	190.20146
453.358	106.11265
453.849	138.13324
454.341	137.14694
454.832	111.11254
455.323	107.13267
455.814	168.19096
456.304	156.18029
456.795	101.11869
457.285	199.22424
457.776	209.24765
458.266	114.14391
458.756	92.12225
459.247	105.13482
459.737	14.01869
460.226	105.1266
460.716	134.17723
461.206	18.02532
461.695	71.10598
462.185	92.12577
462.674	114.15178
463.163	127.16049
463.653	76.0912
464.142	26.03825
464.63	81.12208
465.119	49.06872
465.608	38.05372
466.096	104.1369
466.585	67.09764
467.073	126.19041
467.561	101.15534
468.05	99.14696
468.538	67.10861
469.026	-1.0016
469.513	31.04198
470.001	12.01801
470.489	27.04271
470.976	63.09718
471.463	60.10291
471.951	5.00885
472.438	1.00163
472.925	-65.10739
473.412	52.09091
473.899	1.00164
474.385	-1.00178
474.872	-57.09658
475.359	-45.0809
475.845	1.00147
476.331	92.14238
476.817	-14.02556
477.303	24.04103
477.789	-16.02902
478.275	-56.10609
478.761	-13.02386
479.247	-6.0102
479.732	-43.08236
480.218	-35.07122
480.703	-41.07963
481.188	-32.05265
481.673	-60.1075
482.158	-113.1867
482.643	-17.03453
483.128	-74.13313
483.612	-53.09861
484.097	-20.03932
484.581	-38.07104
485.066	-43.08403
485.55	-64.11225
486.034	-99.17349
486.518	-65.12329
487.002	-90.1801
487.486	-48.09561
487.969	-133.27065
488.453	-52.10898
488.936	-81.15071
489.42	-48.08755
489.903	-50.10557
490.386	-502.77084
490.869	-72.13153
491.352	-67.13945
491.835	-55.09507
492.318	-105.20043
492.8	-105.18401
493.283	-74.15961
493.765	-107.22528
494.247	-53.10594
494.73	-65.12196
495.212	-89.18656
495.694	-123.24733
496.175	-134.273
496.657	-86.1764
497.139	-79.1187
497.62	-149.30639
498.102	-164.35721
498.583	-127.27962
499.064	-137.2657
499.545	-89.17624
500.026	-158.31163
500.507	-133.27164
500.988	-83.18029
501.469	-129.28378
501.949	-75.16256
502.43	-147.30718
502.91	-118.21328
503.39	-120.26714
503.87	-122.25217
504.35	-83.17298
504.83	-96.18418
505.31	-133.28569
505.79	-152.32334
506.269	-127.26468
506.749	-154.31317
507.228	-133.27694
507.707	-123.24186
508.187	-69.14598
508.666	-153.33573
509.145	-171.3586
509.623	-133.27892
510.102	-166.3631
510.581	-93.2008
511.059	-128.28625
511.538	-125.29122
512.016	-95.20248
512.494	-62.13373
512.972	-150.32325
513.45	-159.32961
513.928	-138.30071
514.406	-195.42356
514.884	-114.26292
515.361	-106.22735
515.839	-145.29803
516.316	-113.24409
516.793	-116.26551
517.27	-99.2166
517.747	-117.27033
518.224	-89.18508
518.701	-82.16356
519.178	-166.37322
519.654	-114.2463
520.131	-141.31682
520.607	-122.27531
521.083	-106.21841
521.56	-119.25463
522.036	-127.25385
522.512	-125.28156
522.987	-139.29884
523.463	-140.30326
523.939	-99.22035
524.414	-95.19923
524.89	-136.29484
525.365	-160.3325
525.84	-181.39332
526.315	-145.31911
526.79	-100.20466
527.265	-122.25375
527.74	-125.27776
528.215	-98.20974
528.689	-99.1988
529.164	-60.11767
529.638	-105.24646
530.112	-167.36197
530.587	-135.26282
531.061	-124.2725
531.534	-82.18096
532.008	-122.26776
532.482	-71.14804
532.956	-136.31691
533.429	-122.27115
533.903	-73.147
534.376	-145.29574
534.849	-139.29716
535.322	-116.25116
535.795	-112.25109
536.268	-84.18374
536.741	-95.2089
537.213	-57.11964
537.686	-115.25617
538.158	-97.19757
538.631	-62.13745
539.103	-178.37007
539.575	-72.13707
540.047	-93.18718
540.519	-61.1329
540.991	-92.20676
541.463	-59.12996
541.934	-83.17345
542.406	-56.12089
542.877	-77.15848
543.348	-26.05682
543.82	-86.19344
544.291	-34.07204
544.762	-40.08553
545.233	-50.11334
545.703	-70.14034
546.174	-60.12658
546.645	-128.2788
547.115	8.01717
547.585	0
548.056	-21.04497
548.526	16.03315
548.996	4.00856
549.466	59.12706
549.935	58.11929
550.405	75.14198
550.875	40.08275
551.344	31.06533
551.814	67.13386
552.283	120.22422
552.752	95.18927
553.221	58.10827
553.69	151.28319
554.159	92.19332
554.628	142.26678
555.096	195.41526
555.565	211.39182
556.033	252.49657
556.502	219.44891
556.97	260.48197
557.438	252.50498
557.906	332.65821
558.374	240.46936
558.842	301.60638
559.31	337.63018
559.777	370.74213
560.245	434.84073
560.712	417.79834
561.18	485.8622
561.647	561.99427
562.114	530.96595
562.581	592.16652
563.048	650.17366
563.514	608.18293
563.981	689.22237
564.448	778.31537
564.914	812.42733
565.381	886.48881
565.847	926.59348
566.313	933.59063
566.779	1052.66835
567.245	1048.74195
567.711	1159.92355
568.176	1185.79012
568.642	1216.10099
569.108	1315.15888
569.573	1442.17369
570.038	1390.81825
570.504	1490.04314
570.969	1593.49145
571.434	1715.11448
571.899	1791.44363
572.363	1850.32104
572.828	1919.38439
573.293	1968.40071
573.757	2004.41865
574.222	2032.30216
574.686	2076.32784
575.15	2178.60314
575.614	2190.46318
576.078	2178.54975
576.542	2244.45569
577.006	2257.40984
577.469	2298.85583
577.933	2353.38113
578.396	2222.63718
578.86	2256.60706
579.323	2246.63655
579.786	2260.2472
580.249	2178.43086
580.712	2216.76333
581.175	2134.76181
581.637	2183.51631
582.1	2115.31065
582.563	2116.2353
583.025	2074.664
583.487	2034.97921
583.95	1887.13297
584.412	1899.08945
584.874	1941.61383
585.336	1829.46137
585.797	1773.12384
586.259	1792.44267
586.721	1698.34649
587.182	1657.33779
587.643	1599.18996
588.105	1588.30863
588.566	1560.94908
589.027	1469.24963
589.488	1446.08696
589.949	1452.2709
590.41	1386.63007
590.87	1415.0751
591.331	1381.89928
591.791	1296.9794
592.252	1269.92362
592.712	1256.05291
593.172	1215.84448
593.632	1276.85035
594.092	1195.8064
594.552	1228.75609
595.011	1182.84891
595.471	1210.82868
595.931	1179.78735
596.39	1098.85741
596.849	1145.85134
597.308	1123.68074
597.768	1058.94834
598.227	1188.98649
598.685	1183.87454
599.144	1159.87829
599.603	1184.93996
600.062	1134.60852
600.52	1165.76809
600.978	1165.91979
601.437	1187.86374
601.895	1206.69967
602.353	1267.86719
602.811	1268.86244
603.269	1286.07083
603.727	1268.05083
604.184	1316.93236
604.642	1361.20905
605.099	1361.05839
605.557	1467.30182
606.014	1455.92423
606.471	1465.35006
606.928	1510.93407
607.385	1566.3431
607.842	1655.23453
608.299	1707.34041
608.755	1694.43493
609.212	1725.1792
609.668	1674.12428
610.125	1804.53052
610.581	1815.51198
611.037	1821.37906
611.493	1809.48926
611.949	1810.53114
612.405	1846.9437
612.861	1920.55234
613.316	1853.54128
613.772	1949.4579
614.227	1877.51592
614.683	1995.24775
615.138	1898.50098
615.593	1975.51882
616.048	1932.46333
616.503	1952.75428
616.958	1906.78703
617.412	1881.55583
617.867	1794.25835
618.321	1953.138
618.776	1916.3518
619.23	1854.5289
619.684	1878.42193
620.138	1859.52207
620.592	1752.60491
621.046	1766.50736
621.5	1762.62155
621.954	1697.33391
622.407	1673.28125
622.861	1546.45817
623.314	1609.3146
623.768	1504.29636
624.221	1554.8663
624.674	1537.29854
625.127	1532.34778
625.58	1499.25983
626.033	1457.13607
626.485	1399.29645
626.938	1388.28267
627.39	1376.20686
627.843	1274.09174
628.295	1230.04474
628.747	1281.17713
629.199	1260.04009
629.651	1170.94136
630.103	1207.00575
630.555	1159.77875
631.006	1105.95256
631.458	1127.99465
631.909	1167.99533
632.361	1007.82233
632.812	1038.84002
633.263	1066.73514
633.714	1032.68708
634.165	1017.93391
634.616	937.77636
635.067	1022.75827
635.518	994.87318
635.968	1000.54028
636.419	1010.70435
636.869	944.80052
637.319	973.78031
637.769	906.62293
638.219	948.82387
638.669	888.72382
639.119	933.84611
639.569	886.7477
640.019	887.67243
640.468	830.52541
640.918	852.70019
641.367	859.57764
641.816	903.6362
642.265	858.63386
642.714	879.66704
643.163	848.6101
643.612	812.62552
644.061	844.45664
644.51	848.59291
644.958	885.58238
645.406	888.74837
645.855	879.78776
646.303	861.66935
646.751	821.55308
647.199	881.64569
647.647	834.59578
648.095	835.59115
648.543	934.53395
648.99	862.71142
649.438	880.71557
649.885	882.82028
650.333	919.42121
650.78	869.74817
651.227	880.78128
651.674	875.64735
652.121	907.82804
652.568	901.81345
653.015	907.91576
653.461	870.72331
653.908	882.70565
654.354	866.73055
654.801	889.72699
655.247	928.66243
655.693	892.95909
656.139	899.79202
656.585	891.7818
657.031	900.73305
657.477	849.52098
657.922	862.65579
658.368	893.84835
658.813	952.82106
659.259	937.85749
659.704	901.74203
660.149	916.76643
660.594	932.83082
661.039	893.68952
661.484	935.85524
661.929	910.77078
662.373	854.83009
662.818	870.82596
663.262	851.73311
663.707	886.90032
664.151	898.84506
664.595	946.89234
665.039	954.97952
665.483	886.91336
665.927	936.83265
666.371	889.71716
666.814	969.91475
667.258	842.68797
667.701	982.7261
668.145	940.96344
668.588	941.93217
669.031	893.76029
669.474	905.83402
669.917	949.73369
670.36	911.90744
670.803	1039.05077
671.245	915.59335
671.688	982.99065
672.13	880.65475
672.573	953.03667
673.015	916.85084
673.457	936.68367
673.899	1004.00971
674.341	899.8351
674.783	891.80644
675.225	981.00644
675.666	917.8516
676.108	887.61448
676.549	930.85002
676.991	889.64511
677.432	886.46051
677.873	917.78146
678.314	918.84727
678.755	913.878
679.196	891.72021
679.637	942.939
680.078	889.76468
680.518	905.78314
680.959	885.80242
681.399	881.86649
681.839	870.81073
682.28	852.80541
682.72	867.68419
683.16	895.89946
683.6	896.72698
684.039	866.51693
684.479	838.77187
684.919	819.61877
685.358	876.91108
685.798	855.94013
686.237	823.72232
686.676	939.82945
687.115	848.70784
687.554	878.77642
687.993	839.58409
688.432	858.67103
688.871	780.53331
689.309	804.66436
689.748	824.46815
690.186	856.75554
690.625	818.65339
691.063	767.60856
691.501	824.76653
691.939	813.76201
692.377	821.73401
692.815	768.60464
693.253	838.73867
693.69	820.544
694.128	755.60425
694.565	799.65585
695.003	775.72804
695.44	772.58239
695.877	708.46087
696.314	777.44607
696.751	784.55493
697.188	749.50512
697.625	795.58521
698.061	736.55537
698.498	795.6776
698.934	814.70009
699.371	737.52451
699.807	792.62927
700.243	792.65922
700.679	777.52991
701.115	808.65104
701.551	730.51642
701.987	806.56516
702.422	701.47648
702.858	729.53216
703.294	752.48999
703.729	738.59495
704.164	736.56215
704.599	739.44066
705.035	682.35236
705.47	723.55485
705.904	681.41106
706.339	742.51878
706.774	699.45163
707.209	656.35162
707.643	756.59419
708.078	691.49934
708.512	643.44829
708.946	727.54069
709.38	656.3934
709.814	686.39325
710.248	711.53884
710.682	667.41771
711.116	612.31788
711.549	653.52105
711.983	653.34996
712.416	649.37821
712.85	663.48486
713.283	657.3928
713.716	691.55333
714.149	676.44029
714.582	628.26659
715.015	662.49143
715.448	617.41174
715.881	660.28733
716.313	575.22723
716.746	560.20421
717.178	547.2062
717.61	553.28944
718.043	579.31887
718.475	532.18751
718.907	594.37293
719.339	548.13436
719.77	504.10358
720.202	525.22647
720.634	519.16441
721.065	510.11674
721.497	530.19716
721.928	455.04397
722.359	414.94099
722.79	477.06126
723.221	513.19606
723.652	526.25638
724.083	463.97347
724.514	457.98157
724.945	390.86921
725.375	391.85863
725.806	463.081
726.236	469.12325
726.666	416.92944
727.096	415.96213
727.526	396.95377
727.956	406.87074
728.386	398.92912
728.816	344.83327
729.246	398.91524
729.675	347.81661
730.105	376.88122
730.534	345.77259
730.964	388.93274
731.393	409.96247
731.822	392.95092
732.251	324.79073
732.68	380.85183
733.109	320.7585
733.537	349.80564
733.966	293.70348
734.395	345.76209
734.823	329.71307
735.251	300.69764
735.68	331.79681
736.108	290.71014
736.536	277.63411
736.964	229.52045
737.392	292.70681
737.82	308.71285
738.247	310.71577
738.675	300.69296
739.102	219.53601
739.53	216.53895
739.957	221.55671
740.384	280.67036
740.811	269.66251
741.238	243.57879
741.665	235.53257
742.092	264.61345
742.519	212.51454
742.945	212.49982
743.372	233.56391
743.798	216.54441
744.225	202.47255
744.651	190.46978
745.077	199.48815
745.503	234.55832
745.929	154.36689
746.355	221.53929
746.781	182.44521
747.207	128.29944
747.632	142.34388
748.058	207.50739
748.483	237.53339
748.908	186.45567
749.334	167.40601
749.759	151.35373
750.184	142.33636
750.609	182.44157
751.033	215.49931
751.458	197.43592
751.883	127.31385
752.307	117.27537
752.732	125.31083
753.156	164.40088
753.58	169.3976
754.005	143.36063
754.429	146.34115
754.853	166.40668
755.277	146.34356
755.7	144.35488
756.124	113.27997
756.548	152.35754
756.971	155.37543
757.394	138.35317
757.818	143.36513
758.241	85.21628
758.664	127.31925
759.087	77.1733
759.51	155.38233
759.933	103.24807
760.356	124.31656
760.778	119.29192
761.201	124.30097
761.623	161.38717
762.046	133.31474
762.468	161.3835
762.89	162.396
763.312	108.26381
763.734	88.21271
764.156	98.24232
764.578	160.36519
765	103.25155
765.421	62.15834
765.843	75.19727
766.264	173.41318
766.686	106.26613
767.107	100.24263
767.528	57.14483
767.949	103.2617
768.37	78.19237
768.791	139.3344
769.212	59.14911
769.632	61.1434
770.053	65.17189
770.473	87.21231
770.894	120.29954
771.314	119.28389
771.734	69.16209
772.154	118.30178
772.575	94.2187
772.994	68.15577
773.414	123.29456
773.834	78.19569
774.254	87.2135
774.673	144.34807
775.093	72.17894
775.512	59.14634
775.931	82.20831
776.351	69.17214
776.77	71.17436
777.189	82.19581
777.607	76.19457
778.026	80.19977
778.445	16.04056
778.864	96.24603
779.282	77.18602
779.701	69.17463
780.119	72.18245
780.537	40.10071
780.955	74.18885
781.373	101.24941
781.791	58.13147
782.209	115.26444
782.627	81.21341
783.045	42.09772
783.462	86.21971
783.88	29.07571
784.297	69.17414
784.715	39.10088
785.132	67.16296
785.549	57.14334
785.966	76.19149
786.383	25.06221
786.8	110.25481
787.217	86.20411
787.633	43.10809
788.05	118.27919
788.466	99.23337
788.883	42.10783
789.299	105.25212
789.715	47.11513
790.131	62.15482
790.547	69.17283
790.963	68.16931
791.379	61.15477
791.795	77.17635
792.21	68.15971
792.626	100.23678
793.041	64.15854
793.457	70.17347
793.872	55.13016
794.287	6.01453
794.702	92.2264
795.117	58.14467
795.532	48.12094
795.947	127.30344
796.362	81.19376
796.776	124.28872
797.191	70.17175
797.605	54.12747
798.02	45.11027
798.434	90.20053
798.848	47.11645
799.262	35.08751
799.676	85.20736
800.09	68.16771
800.504	96.2324
800.918	84.19466
801.331	122.31736
801.745	82.18852
802.158	53.13309
802.572	75.18221
802.985	90.2173
803.398	81.19324
803.811	109.27871
804.224	66.16469
804.637	47.11269
805.05	67.15585
805.462	53.13088
805.875	34.08869
806.288	30.07301
806.7	43.10871
807.112	99.22883
807.525	63.15592
807.937	37.09211
808.349	101.25188
808.761	61.15053
809.173	35.08551
809.584	131.32064
809.996	42.10347
810.408	86.22133
810.819	123.28679
811.231	92.23677
811.642	53.12688
812.053	94.22275
812.464	75.17838
812.875	77.19661
813.286	64.16494
813.697	92.21472
814.108	88.21455
814.519	111.24593
814.929	116.29364
815.34	65.15797
815.75	82.20794
816.16	72.17953
816.571	79.20491
816.981	95.2236
817.391	54.13092
817.801	75.18616
818.211	49.11744
818.62	36.08728
819.03	104.25347
819.44	89.23172
819.849	77.19384
820.259	105.26716
820.668	45.11121
821.077	35.08748
821.486	94.22558
821.895	128.31312
822.304	49.13023
822.713	59.13989
823.122	83.20669
823.531	72.17075
823.939	38.09317
824.348	66.16068
824.756	89.2222
825.164	90.22571
825.573	72.18057
825.981	102.25156
826.389	113.28171
826.797	66.1654
827.205	81.18559
827.612	76.18737
828.02	62.14584
828.428	44.11253
828.835	72.18929
829.243	60.14333
829.65	-2.00504
830.057	78.18904
830.464	59.14404
830.871	50.12022
831.278	56.13572
831.685	92.20456
832.092	81.19789
832.499	66.14461
832.905	75.18962
833.312	70.15977
833.718	92.22823
834.124	78.17803
834.531	99.24815
834.937	89.22749
835.343	75.18077
835.749	82.19116
836.155	72.18826
836.561	58.14289
836.966	76.18557
837.372	51.13013
837.777	87.21587
838.183	94.20805
838.588	57.14174
838.993	97.23486
839.399	45.11043
839.804	18.04425
840.209	30.07681
840.613	72.16009
841.018	52.13196
841.423	56.14382
841.828	55.1393
842.232	103.25342
842.637	91.21368
843.041	27.06962
843.445	30.0757
843.849	60.14863
844.253	91.21526
844.657	13.03302
845.061	56.12735
845.465	42.10187
845.869	93.21496
846.272	28.06862
846.676	75.18105
847.079	71.18021
847.483	104.25753
847.886	102.24646
848.289	58.15479
848.692	38.09664
849.095	70.16792
849.498	104.26167
849.901	39.08993
850.304	96.22801
850.707	52.1328
851.109	101.2538
851.512	56.13776
851.914	36.0911
852.316	80.20164
852.718	21.05456
853.121	69.16883
853.523	64.14955
853.925	38.09946
854.326	67.16727
854.728	37.09551
855.13	49.12657
855.531	49.11735
855.933	98.23366
856.334	40.10006
856.736	65.14551
857.137	39.09108
857.538	59.14831
857.939	26.06462
858.34	55.13417
858.741	69.18002
859.142	77.1844
859.542	39.10321
859.943	50.12445
860.343	30.07467
860.744	100.24217
861.144	31.07602
861.544	38.09168
861.945	66.16796
862.345	77.1877
862.745	48.11951
863.145	104.24654
863.544	36.09132
863.944	61.14408
864.344	81.20039
864.743	105.25834
865.143	73.18699
865.542	43.10006
865.941	98.2408
866.34	97.2307
866.74	69.18479
867.139	58.13887
867.537	86.21801
867.936	81.19413
868.335	63.16013
868.734	74.18852
869.132	92.21236
869.531	104.24939
869.929	47.10738
870.327	88.20974
870.726	80.19868
871.124	106.24545
871.522	66.16784
871.92	84.20618
872.318	65.15868
872.715	87.21421
873.113	46.11232
873.511	41.10244
873.908	-10.02554
874.306	21.05256
874.703	72.17966
875.1	98.24887
875.497	45.10814
875.894	48.11777
876.291	99.24106
876.688	53.13676
877.085	72.17226
877.482	72.17972
877.878	66.15857
878.275	114.28662
878.671	72.15989
879.068	106.25351
879.464	54.13058
879.86	15.03576
880.256	75.18446
880.652	44.11213
881.048	42.10435
881.444	53.12625
881.84	46.11711
882.236	80.20027
882.631	94.2291
883.027	79.19049
883.422	54.1381
883.817	73.18285
884.213	50.12841
884.608	32.07881
885.003	51.12307
885.398	37.09291
885.793	48.12064
886.188	54.13426
886.582	112.28442
886.977	99.23301
887.371	89.22373
887.766	0
888.16	76.18895
888.554	81.19936
888.949	85.21229
889.343	59.14404
889.737	50.13331
890.131	64.16028
890.525	79.20115
890.918	78.19548
891.312	77.18349
891.706	41.10781
892.099	90.22758
892.492	82.17595
892.886	44.10788
893.279	20.05126
893.672	72.18271
894.065	37.09294
894.458	81.20274
894.851	130.31411
895.244	34.08714
895.637	76.18232
896.029	43.10537
896.422	68.16573
896.814	36.0898
897.206	27.06464
897.599	89.21873
897.991	33.08011
898.383	46.10888
898.775	63.14197
899.167	60.13976
899.559	111.27813
899.951	95.2222
900.342	59.14991
900.734	30.07475
901.125	71.18574
901.517	73.17855
901.908	84.20028
902.299	92.2233
902.69	76.17856
903.082	82.19753
903.473	20.0482
903.863	62.15795
904.254	38.08848
904.645	72.17849
905.036	25.06085
905.426	84.19118
905.817	52.12763
906.207	69.16392
906.597	44.1031
906.987	83.21402
907.378	40.1014
907.768	64.16888
908.158	67.16296
908.547	66.1701
908.937	58.1487
909.327	45.10945
909.717	120.30106
910.106	38.09154
910.495	88.21831
910.885	94.23634
911.274	52.12999
911.663	46.1169
912.052	50.12345
912.441	45.11458
912.83	76.17368
913.219	70.18266
913.608	52.1274
913.997	49.12291
914.385	51.1219
914.774	92.22238
915.162	35.08369
915.55	50.12104
915.939	20.05077
916.327	91.22554
916.715	32.08184
917.103	106.25834
917.491	107.26209
917.878	89.21736
918.266	46.11942
918.654	51.13032
919.041	34.08902
919.429	78.18319
919.816	84.21173
920.203	53.12852
920.591	64.15836
920.978	84.2045
921.365	38.09993
921.752	52.12398
922.139	51.11078
922.525	47.11299
922.912	92.22271
923.299	42.10457
923.685	69.17946
924.072	59.13589
924.458	44.10916
924.844	37.09181
925.231	86.19882
925.617	16.04095
926.003	75.1909
926.389	78.19583
926.774	96.24137
927.16	90.22196
927.546	25.06411
927.931	80.19861
928.317	48.11066
928.702	48.11366
929.088	42.09953
929.473	69.17501
929.858	36.08728
930.243	48.11528
930.628	12.02941
931.013	37.09194
931.398	71.16268
931.783	74.19408
932.167	46.11257
932.552	51.12779
932.937	93.22907
933.321	20.05047
933.705	54.13606
934.09	82.20609
934.474	105.24684
934.858	54.13999
935.242	50.11592
935.626	41.10513
936.009	41.10922
936.393	63.15996
936.777	47.12043
937.16	54.14042
937.544	90.21047
937.927	61.1545
938.311	110.26559
938.694	98.25711
939.077	70.16697
939.46	92.22422
939.843	108.22253
940.226	46.1181
940.609	54.1239
940.991	37.09441
941.374	41.10039
941.757	73.17941
942.139	41.09228
942.522	104.2433
942.904	64.15347
943.286	97.24445
943.668	81.20872
944.05	68.16697
944.432	69.1697
944.814	60.14754
945.196	18.04413
945.578	41.09763
945.959	104.2412
946.341	95.23132
946.722	52.12203
947.104	73.17375
947.485	47.10946
947.866	49.12349
948.247	38.09609
948.628	99.23934
949.009	36.09242
949.39	65.1614
949.771	72.16679
950.152	45.11055
950.532	29.07161
950.913	60.14448
951.293	56.15113
951.674	95.22785
952.054	42.10423
952.434	45.11182
952.814	75.17762
953.194	82.21346
953.574	73.17908
953.954	26.06204
954.334	67.16649
954.714	30.07339
955.093	62.15212
955.473	-9.02275
955.853	59.1525
956.232	80.21822
956.611	77.18377
956.99	38.09571
957.37	52.13247
957.749	86.20379
958.128	47.11849
958.506	61.15795
958.885	81.20332
959.264	46.11282
959.643	79.17875
960.021	15.03741
960.4	72.16248
960.778	106.25844
961.156	63.15757
961.535	73.16941
961.913	50.11702
962.291	70.17896
962.669	50.12666
963.047	46.11748
963.424	39.09972
963.802	72.17633
964.18	102.25571
964.557	76.17417
964.935	117.27366
965.312	52.13536
965.69	69.17221
966.067	68.16505
966.444	87.21295
966.821	84.21528
967.198	109.26153
967.575	86.21007
967.952	55.1295
968.329	80.19359
968.705	97.20594
969.082	57.14601
969.458	41.09852
969.835	49.11931
970.211	84.2143
970.587	113.27812
970.963	51.13082
971.339	68.17701
971.715	70.17416
972.091	75.18385
972.467	56.13953
972.843	57.14128
973.219	134.31667
973.594	12.03159
973.97	98.23115
974.345	-1.00242
974.721	86.20686
975.096	50.121
975.471	53.12567
975.846	52.12489
976.221	51.12949
976.596	8.01933
976.971	87.21334
977.346	81.18745
977.72	86.2177
978.095	34.08811
978.469	45.10752
978.844	97.24182
979.218	16.0386
979.593	89.21167
979.967	66.16032
980.341	78.17861
980.715	69.17327
981.089	60.14993
981.463	64.14655
981.837	53.12944
982.21	79.18282
982.584	31.07514
982.957	51.12733
983.331	54.12757
983.704	83.2027
984.078	62.15246
984.451	112.27663
984.824	18.0441
985.197	62.15026
985.57	69.17245
985.943	110.26869
986.316	92.22431
986.688	109.25994
987.061	4.00946
987.434	50.13029
987.806	61.14764
988.179	40.09457
988.551	89.22421
988.923	52.12801
989.295	108.26704
989.667	42.10049
990.039	56.13821
990.411	47.10825
990.783	98.2235
991.155	30.07235
991.527	94.22961
991.898	51.12705
992.27	6.01496
992.641	76.18978
993.012	103.23987
993.384	43.1027
993.755	50.12747
994.126	84.20074
994.497	80.19527
994.868	74.16917
995.239	61.14753
995.61	46.11582
995.98	44.107
996.351	34.08444
996.722	58.1343
997.092	31.07367
997.462	1.00236
997.833	64.15131
998.203	87.20946
998.573	37.09234
998.943	45.10563
999.313	55.13166
999.683	29.06987
1000.053	83.18971
1000.423	77.18616
1000.792	84.21641
1001.162	21.05195
1001.531	92.22506
1001.901	78.19343
1002.27	89.19735
1002.639	64.1631
1003.009	72.17048
1003.378	69.17581
1003.747	82.19251
1004.116	31.07444
1004.485	62.14783
1004.853	55.1392
1005.222	51.12857
1005.591	72.17022
1005.959	40.0903
1006.328	23.05204
1006.696	42.10145
1007.064	46.11578
1007.433	72.1792
1007.801	76.18564
1008.169	51.12876
1008.537	92.20192
1008.905	31.07248
1009.273	76.18682
1009.64	40.09559
1010.008	32.07653
1010.375	136.32488
1010.743	122.27767
1011.11	47.11127
1011.478	46.11391
1011.845	44.10358
1012.212	40.09071
1012.579	57.13972
1012.946	84.19859
1013.313	46.10955
1013.68	76.16989
1014.047	56.13327
1014.414	46.10871
1014.78	45.1119
1015.147	58.14004
1015.513	30.07254
1015.88	91.23097
1016.246	97.23733
1016.612	84.19095
1016.978	24.05908
1017.344	74.18203
1017.71	98.23679
1018.076	81.18983
1018.442	60.15404
1018.808	71.17675
1019.174	50.1254
1019.539	118.26792
1019.905	22.05215
1020.27	48.11847
1020.636	105.24905
1021.001	52.12441
1021.366	80.19096
1021.731	24.06198
1022.096	49.12357
1022.461	76.17891
1022.826	67.15868
1023.191	50.13114
1023.556	76.17717
1023.92	74.18109
1024.285	20.04907
1024.649	68.16604
1025.014	89.21881
1025.378	68.17036
1025.742	60.14868
1026.107	56.12648
1026.471	87.20157
1026.835	84.20686
1027.199	28.06766
1027.562	57.13228
1027.926	92.22313
1028.29	55.139
1028.654	66.15131
1029.017	94.2291
1029.381	34.08144
1029.744	55.14009
1030.107	78.18348
1030.471	46.11018
1030.834	90.20302
1031.197	102.2432
1031.56	56.13193
1031.923	64.165
1032.286	111.25748
1032.648	107.25301
1033.011	66.15095
1033.374	162.37228
1033.736	25.06598
1034.099	75.18187
1034.461	35.08861
1034.823	35.08735
1035.185	62.15566
1035.548	69.16726
1035.91	42.10072
1036.272	45.10248
1036.634	86.20889
1036.995	43.10117
1037.357	48.11677
1037.719	58.14078
1038.08	85.20037
1038.442	45.10686
1038.803	59.14135
1039.165	33.08349
1039.526	58.13988
1039.887	44.10535
1040.248	42.10358
1040.609	77.18924
1040.97	54.13181
1041.331	81.20384
1041.692	27.06328
1042.053	57.12955
1042.413	66.15325
1042.774	107.25732
1043.134	126.29546
1043.495	95.23675
1043.855	38.09234
1044.215	47.11666
1044.576	20.04807
1044.936	84.19118
1045.296	75.18623
1045.656	70.17105
1046.016	75.18009
1046.375	17.04147
1046.735	39.08857
1047.095	75.1746
1047.454	75.15798
1047.814	47.11299
1048.173	108.25503
1048.533	62.14163
1048.892	37.08898
1049.251	69.17252
1049.61	41.10106
1049.969	65.15269
1050.328	77.1659
1050.687	50.12159
1051.046	72.1745
1051.405	64.15871
1051.763	66.15119
1052.122	37.09244
1052.48	94.2285
1052.839	71.16626
1053.197	57.1339
1053.555	97.21894
1053.914	74.18008
1054.272	85.20402
1054.63	45.11006
1054.988	27.06439
1055.345	89.18994
1055.703	80.19133
1056.061	66.16921
1056.419	50.12935
1056.776	71.17139
1057.134	88.20207
1057.491	108.26743
1057.848	71.17598
1058.206	56.13147
1058.563	66.14492
1058.92	103.23476
1059.277	72.17679
1059.634	107.2488
1059.991	51.12209
1060.348	48.10845
1060.704	23.05506
1061.061	97.22314
1061.418	54.13077
1061.774	37.0915
1062.131	72.18954
1062.487	53.12377
1062.843	80.19825
1063.199	50.12427
1063.555	38.0882
1063.911	63.15865
1064.267	96.19807
1064.623	45.10933
1064.979	139.32345
1065.335	93.22034
1065.691	114.26972
1066.046	40.08809
1066.402	68.15383
1066.757	91.22785
1067.112	63.15415
1067.468	21.04983
1067.823	100.23797
1068.178	87.20882
1068.533	78.18797
1068.888	86.20395
1069.243	49.12087
1069.598	21.05127
1069.952	36.08124
1070.307	65.16034
1070.662	29.06908
1071.016	11.02483
1071.371	36.08207
1071.725	44.10531
1072.079	55.13207
1072.434	25.06099
1072.788	93.21948
1073.142	110.26739
1073.496	58.13728
1073.85	70.16158
1074.203	21.05119
1074.557	43.1144
1074.911	87.20604
1075.265	77.17791
1075.618	89.21557
1075.971	63.14938
1076.325	37.09418
1076.678	63.14359
1077.031	25.05682
1077.385	90.19645
1077.738	82.18376
1078.091	44.1001
1078.444	97.22296
1078.796	22.05422
1079.149	66.16355
1079.502	40.0946
1079.855	59.13724
1080.207	82.20067
1080.56	51.13169
1080.912	66.16007
1081.264	104.24768
1081.617	22.05386
1081.969	81.20303
1082.321	41.10021
1082.673	-5.01153
1083.025	64.15131
1083.377	110.23287
1083.728	45.10501
1084.08	74.18378
1084.432	59.14194
1084.783	89.20678
1085.135	54.13514
1085.486	44.10071
1085.838	36.08882
1086.189	58.14046
1086.54	95.22473
1086.891	13.03307
1087.242	34.08296
1087.593	75.1816
1087.944	71.15986
1088.295	93.2094
1088.646	40.09705
1088.996	30.07249
1089.347	75.18303
1089.698	9.02142
1090.048	78.20144
1090.398	71.16385
1090.749	42.10056
1091.099	49.12313
1091.449	49.12198
1091.799	55.13746
1092.149	-3.00738
1092.499	95.22959
1092.849	78.1971
1093.199	98.24329
1093.548	53.12717
1093.898	60.14972
1094.248	51.13091
1094.597	19.04872
1094.947	66.17544
1095.296	53.13069
1095.645	102.26269
1095.994	65.15554
1096.343	80.20006
1096.692	20.05276
1097.041	16.04352
1097.39	63.15752
1097.739	58.15041
1098.088	106.28111
1098.437	28.07376
1098.785	90.24083
1099.134	94.24754
1099.482	55.15101
1099.83	66.17281
1100.179	34.08884
1100.527	71.18782
1100.875	60.15822
1101.223	40.10629
1101.571	18.04995
1101.919	38.09939
1102.267	26.0734
1102.615	10.03213
1102.962	29.09316
1103.31	11.03532
1103.658	23.07398
