Data from N2 R13 sample 1_Subt2__4__12-15-32-764.txt Node

Date: Tue Sep 02 12:15:32 PDT 2025
User: uwsun
Spectrometer: HDX01956
Trigger mode: 0
Integration Time (sec): 5.000000E-1
Scans to average: 1
Nonlinearity correction enabled: true
Boxcar width: 0
Storing dark spectrum: false
XAxis mode: Wavelengths
Number of Pixels in Spectrum: 2068
>>>>>Begin Spectral Data<<<<<
194.03	83.22998
194.578	61.19146
195.127	63.19475
195.676	60.18612
196.225	115.2992
196.773	117.31478
197.321	121.31826
197.87	204.48582
198.418	176.41576
198.966	135.32342
199.513	134.30548
200.061	75.17597
200.609	225.54332
201.156	128.25472
201.704	100.23211
202.251	130.3166
202.798	145.34525
203.345	181.4087
203.892	181.41436
204.438	188.40844
204.985	148.31743
205.532	211.502
206.078	180.40154
206.624	151.33762
207.17	150.31825
207.716	146.32287
208.262	209.36956
208.808	109.24502
209.354	146.32354
209.899	189.43667
210.445	123.27932
210.99	160.34954
211.535	204.43376
212.08	169.35786
212.625	115.26571
213.17	179.41374
213.715	103.20874
214.259	157.33419
214.804	156.35362
215.348	142.29772
215.892	166.36326
216.436	169.35817
216.98	151.30644
217.524	164.35312
218.068	186.42726
218.612	154.35645
219.155	119.25804
219.698	195.42194
220.242	203.46211
220.785	146.31368
221.328	166.37964
221.871	192.44651
222.414	190.43348
222.956	95.21171
223.499	160.32968
224.041	147.31658
224.583	230.45066
225.126	121.24646
225.668	133.29786
226.21	126.29257
226.751	133.26633
227.293	139.29317
227.835	119.26827
228.376	197.4155
228.918	195.45071
229.459	131.2999
230	137.30012
230.541	165.34847
231.082	157.34871
231.622	161.34032
232.163	116.2592
232.704	167.37801
233.244	167.37863
233.784	230.51159
234.324	85.17179
234.864	140.29106
235.404	184.39958
235.944	161.35001
236.484	188.42857
237.023	118.25658
237.563	190.39713
238.102	158.34122
238.641	190.43733
239.18	141.3004
239.719	181.41403
240.258	204.41447
240.797	155.33783
241.335	164.36706
241.874	154.26797
242.412	169.36896
242.95	105.23002
243.488	165.3425
244.026	179.37273
244.564	183.33965
245.102	163.33155
245.64	191.41823
246.177	157.32007
246.715	158.34648
247.252	132.27798
247.789	228.38415
248.326	123.26888
248.863	115.23018
249.4	181.37186
249.936	176.3256
250.473	142.30075
251.009	109.22798
251.546	176.34909
252.082	228.44462
252.618	131.26488
253.154	168.36406
253.69	165.33546
254.226	180.3869
254.761	171.34592
255.297	152.30008
255.832	129.27746
256.367	166.35296
256.903	154.30474
257.438	173.36697
257.972	161.32315
258.507	112.23244
259.042	139.27293
259.576	166.31817
260.111	173.36039
260.645	171.33259
261.179	164.34339
261.713	173.34419
262.247	190.39219
262.781	112.21207
263.315	171.37538
263.849	179.40121
264.382	196.40276
264.915	158.33127
265.449	124.27089
265.982	221.44604
266.515	174.3798
267.048	135.25631
267.58	161.31658
268.113	130.25194
268.646	124.27628
269.178	148.29507
269.71	222.42736
270.243	130.26798
270.775	173.39382
271.307	183.39462
271.838	195.41453
272.37	177.38856
272.902	235.47015
273.433	200.38557
273.965	202.43587
274.496	175.38982
275.027	146.32462
275.558	176.37944
276.089	56.12451
276.62	181.41203
277.15	184.40503
277.681	216.41261
278.211	180.39356
278.741	107.21059
279.272	190.38127
279.802	182.40399
280.332	171.35623
280.861	176.37537
281.391	126.25436
281.921	174.37255
282.45	192.4253
282.98	162.3766
283.509	157.31206
284.038	182.36437
284.567	186.38394
285.096	152.32601
285.625	187.37135
286.153	154.31803
286.682	127.25715
287.21	181.38176
287.739	184.38049
288.267	155.32993
288.795	189.4391
289.323	126.25904
289.851	157.32328
290.378	185.3612
290.906	104.2222
291.433	192.41784
291.961	177.34722
292.488	187.40618
293.015	166.33911
293.542	171.37681
294.069	146.31355
294.596	228.48775
295.122	197.40582
295.649	229.4314
296.175	225.46997
296.702	253.52493
297.228	159.33771
297.754	167.32342
298.28	201.38927
298.806	171.35432
299.332	193.36232
299.857	169.32682
300.383	199.43538
300.908	142.29588
301.433	165.34373
301.958	198.39181
302.483	164.35069
303.008	212.44782
303.533	229.5101
304.058	219.43875
304.582	189.37707
305.107	107.24161
305.631	219.4221
306.155	167.32884
306.679	147.29123
307.203	183.35729
307.727	171.34354
308.251	190.39713
308.775	129.25844
309.298	158.31735
309.822	189.40231
310.345	178.35356
310.868	150.3017
311.391	225.46141
311.914	144.30379
312.437	235.44183
312.96	222.4288
313.482	172.33797
314.005	179.37389
314.527	210.45585
315.049	224.46798
315.571	167.30115
316.093	270.5393
316.615	231.44972
317.137	276.47342
317.659	230.4545
318.18	220.43127
318.702	267.49137
319.223	214.34624
319.744	217.38511
320.265	197.38061
320.786	219.42839
321.307	229.45156
321.828	239.42173
322.348	245.44884
322.869	200.36778
323.389	81.1025
323.909	269.47318
324.43	286.53468
324.95	271.46846
325.47	216.40821
325.989	286.50401
326.509	229.37397
327.029	264.43755
327.548	208.3472
328.067	214.38541
328.587	226.42543
329.106	248.41239
329.625	293.5832
330.144	258.43068
330.662	235.39325
331.181	273.45835
331.7	254.42703
332.218	303.4529
332.736	298.49009
333.255	270.44007
333.773	250.41686
334.291	309.54555
334.808	249.37961
335.326	311.47219
335.844	310.47672
336.361	276.47545
336.879	265.41027
337.396	216.35244
337.913	260.39202
338.43	298.42887
338.947	289.44665
339.464	276.36731
339.981	264.40045
340.497	275.44181
341.014	285.44202
341.53	299.41086
342.046	276.42592
342.562	306.48199
343.078	351.4962
343.594	269.39646
344.11	274.39802
344.626	327.50035
345.141	310.4112
345.657	308.41019
346.172	325.45971
346.687	280.37064
347.202	315.39458
347.717	332.45105
348.232	359.51461
348.747	355.44473
349.261	331.37196
349.776	323.416
350.29	347.46263
350.805	336.46429
351.319	340.42159
351.833	283.33293
352.347	317.39207
352.861	319.38393
353.374	419.48584
353.888	386.48004
354.401	341.39234
354.915	353.37371
355.428	347.43806
355.941	415.45364
356.454	511.52099
356.967	434.48695
357.48	427.45619
357.993	395.47275
358.505	384.4457
359.018	497.55244
359.53	432.46801
360.042	413.39621
360.554	399.44401
361.066	449.4832
361.578	411.36871
362.09	393.41378
362.602	322.29685
363.113	463.4362
363.625	440.38883
364.136	515.42115
364.647	357.32047
365.158	529.45975
365.669	462.43506
366.18	455.41242
366.691	484.3745
367.201	477.42614
367.712	361.29956
368.222	509.39048
368.733	423.28824
369.243	477.32002
369.753	505.37136
370.263	503.38826
370.773	475.39023
371.282	474.33967
371.792	397.23869
372.301	551.35
372.811	545.41607
373.32	463.18432
373.829	539.26087
374.338	587.20736
374.847	498.18914
375.356	535.19574
375.865	630.07388
376.373	660.09786
376.882	556.18764
377.39	626.1224
377.898	542.06928
378.407	700.95289
378.915	698.90545
379.423	731.91349
379.93	704.86102
380.438	728.82718
380.946	790.7416
381.453	746.72716
381.96	850.61859
382.468	833.56875
382.975	952.50163
383.482	993.45196
383.989	871.53176
384.495	967.46261
385.002	964.51675
385.509	1044.48746
386.015	1201.66342
386.521	1234.66054
387.028	1199.81952
387.534	1266.0247
388.04	1327.98513
388.546	1123.31352
389.051	1337.97048
389.557	1470.6091
390.063	1790.4272
390.568	1618.65396
391.073	1498.25419
391.578	1626.95743
392.084	1410.25956
392.589	1448.78223
393.093	1423.10564
393.598	1796.39997
394.103	1916.52589
394.607	2295.43659
395.112	2453.45265
395.616	2298.20866
396.12	2285.79837
396.624	2227.37661
397.128	2585.38583
397.632	3185.38642
398.136	3213.7407
398.639	2559.81889
399.143	2405.10929
399.646	3191.57392
400.15	2798.30502
400.653	2940.44483
401.156	2576.70236
401.659	1834.87218
402.162	137.69633
402.664	0
403.167	0
403.67	0
404.172	0
404.674	0
405.176	0
405.678	0
406.18	0
406.682	0
407.184	0
407.686	0
408.187	0
408.688	0
409.19	0
409.691	0
410.192	0
410.693	0
411.194	435.30976
411.694	4082.94878
412.195	8864.71461
412.696	12070.31735
413.196	12035.39463
413.696	12235.14596
414.196	13149.64211
414.696	15791.01292
415.196	16693.56874
415.696	15509.56112
416.196	11213.13255
416.695	7620.39278
417.195	6226.24164
417.694	6353.04036
418.194	6074.57111
418.693	5462.07596
419.192	5492.87786
419.691	5324.05671
420.19	5413.9763
420.688	5450.23579
421.187	5202.75572
421.685	4939.11901
422.184	4229.38031
422.682	3631.35512
423.18	2696.8118
423.678	2337.94955
424.176	2155.57207
424.674	2067.0791
425.172	2077.60283
425.669	2021.30588
426.167	2005.61754
426.664	1673.94458
427.161	1475.5897
427.659	1367.3702
428.156	1156.45248
428.652	1211.33442
429.149	1195.34207
429.646	1103.39153
430.143	1011.48799
430.639	936.5571
431.135	926.6356
431.632	902.65021
432.128	680.82816
432.624	632.90759
433.12	489.88658
433.616	638.8457
434.111	545.92406
434.607	523.97483
435.103	630.93288
435.598	549.96671
436.093	545.08328
436.588	504.09531
437.083	507.13016
437.578	411.15052
438.073	236.12635
438.568	447.24935
439.062	378.14958
439.557	405.2426
440.051	291.17016
440.546	289.17557
441.04	278.2022
441.534	271.23582
442.028	347.27225
442.522	262.21486
443.015	265.18388
443.509	251.22998
444.002	214.20023
444.496	175.13691
444.989	166.16489
445.482	196.19916
445.975	178.15055
446.468	234.17983
446.961	190.15117
447.454	169.15467
447.947	178.17367
448.439	142.15419
448.931	125.1173
449.424	180.21054
449.916	106.11984
450.408	99.09787
450.9	66.07553
451.392	102.1249
451.884	96.10432
452.375	48.05886
452.867	183.19458
453.358	90.09626
453.849	66.06571
454.341	114.12339
454.832	16.01687
455.323	39.04952
455.814	120.13889
456.304	44.05299
456.795	41.04925
457.285	97.11357
457.776	116.14215
458.266	30.03898
458.756	76.10153
459.247	-31.04167
459.737	18.024
460.226	-54.06888
460.716	2.00276
461.206	-24.03421
461.695	9.01369
462.185	20.02799
462.674	35.04783
463.163	34.04436
463.653	35.04263
464.142	-29.04339
464.63	-6.00928
465.119	-62.09005
465.608	-15.02156
466.096	25.03379
466.585	6.00891
467.073	-31.04906
467.561	10.01579
468.05	47.07088
468.538	-4.00661
469.026	-7.01125
469.513	-3.00411
470.001	14.021
470.489	-39.06286
470.976	-42.0668
471.463	-27.04739
471.951	8.01415
472.438	-43.07096
472.925	-52.0856
473.412	3.00531
473.899	31.05031
474.385	-20.03583
474.872	-14.02345
475.359	-60.10828
475.845	-14.02067
476.331	-55.0888
476.817	-73.13528
477.303	-52.09072
477.789	-74.13621
478.275	-119.22891
478.761	-22.04048
479.247	-13.02214
479.732	-93.18028
480.218	-41.08355
480.703	-23.04448
481.188	-68.113
481.673	-74.13306
482.158	-82.13431
482.643	-31.06317
483.128	-120.21844
483.612	-69.12889
484.097	-61.12108
484.581	-60.11278
485.066	-68.13368
485.55	-129.23012
486.034	-68.1182
486.518	-168.32668
487.002	-122.24595
487.486	-108.21812
487.969	-127.25809
488.453	-61.12809
488.936	-62.11481
489.42	-88.16215
489.903	-106.22657
490.386	-553.86206
490.869	-22.03968
491.352	-78.16274
491.835	-81.14098
492.318	-116.22201
492.8	-108.18942
493.283	-92.1992
493.765	-142.30128
494.247	-61.12215
494.73	-70.13151
495.212	-45.09341
495.694	-163.33079
496.175	-162.33214
496.657	-61.12442
497.139	-56.08356
497.62	-190.39431
498.102	-121.26115
498.583	-124.27284
499.064	-139.26971
499.545	-118.23526
500.026	-150.2953
500.507	-98.19856
500.988	-111.24254
501.469	-176.39099
501.949	-103.22459
502.43	-141.29425
502.91	-126.2282
503.39	-126.28085
503.87	-144.29911
504.35	-96.20066
504.83	-146.28349
505.31	-128.27466
505.79	-169.36083
506.269	-129.26897
506.749	-172.35121
507.228	-166.3482
507.707	-138.27231
508.187	-111.237
508.666	-175.38578
509.145	-167.34991
509.623	-114.23807
510.102	-150.327
510.581	-96.20741
511.059	-123.27479
511.538	-132.30795
512.016	-91.19379
512.494	-105.22856
512.972	-138.29662
513.45	-218.45787
513.928	-136.29623
514.406	-196.42582
514.884	-155.3604
515.361	-131.28249
515.839	-114.23267
516.316	-150.32658
516.793	-116.26551
517.27	-86.18764
517.747	-125.28927
518.224	-127.26633
518.701	-96.19211
519.178	-172.38719
519.654	-118.25517
520.131	-169.38191
520.607	-105.23613
521.083	-114.23532
521.56	-102.21745
522.036	-119.23741
522.512	-69.15364
522.987	-178.38589
523.463	-120.25882
523.939	-121.27054
524.414	-72.15022
524.89	-161.3509
525.365	-126.25985
525.84	-152.32826
526.315	-106.23137
526.79	-89.18169
527.265	-144.30098
527.74	-200.45132
528.215	-108.23164
528.689	-140.28379
529.164	-124.24687
529.638	-100.23449
530.112	-98.20929
530.587	-150.29307
531.061	-162.35885
531.534	-101.22377
532.008	-107.2341
532.482	-73.15228
532.956	-174.40849
533.429	-106.2348
533.903	-75.15109
534.376	-113.2288
534.849	-98.20765
535.322	-102.22019
535.795	-110.24651
536.268	-145.32126
536.741	-67.14646
537.213	-77.16233
537.686	-110.24478
538.158	-108.22053
538.631	-75.16672
539.103	-72.14615
539.575	-16.03004
540.047	-12.0237
540.519	-19.04102
540.991	-14.03096
541.463	-26.05687
541.934	-42.08697
542.406	4.00852
542.877	26.05227
543.348	24.0519
543.82	17.03743
544.291	60.12452
544.762	32.06736
545.233	36.08018
545.703	14.02752
546.174	66.13538
546.645	19.04009
547.115	105.22059
547.585	172.33956
548.056	113.23498
548.526	155.31111
548.996	243.49292
549.466	319.64856
549.935	223.44159
550.405	288.51684
550.875	299.58267
551.344	343.67318
551.814	372.69065
552.283	416.72052
552.752	479.86921
553.221	492.82013
553.69	597.99722
554.159	534.01108
554.628	643.05865
555.096	659.26013
555.565	701.1429
556.033	758.3155
556.502	785.40247
556.97	869.36798
557.438	889.51946
557.906	965.63125
558.374	1016.62482
558.842	1039.73972
559.31	1218.79062
559.777	1231.98333
560.245	1354.0556
560.712	1464.10934
561.18	1521.00149
561.647	1647.12578
562.114	1745.23979
562.581	1843.60162
563.048	1978.42343
563.514	2057.68496
563.981	2277.48893
564.448	2375.41453
564.914	2456.60184
565.381	2657.51189
565.847	2718.64763
566.313	2846.60891
566.779	3088.40256
567.245	3190.57038
567.711	3389.64125
568.176	3509.21966
568.642	3633.82673
569.108	3851.61476
569.573	3951.33489
570.038	4225.53933
570.504	4374.7644
570.969	4501.42277
571.434	4750.42237
571.899	4715.94055
572.363	4957.54154
572.828	5184.47062
573.293	5271.41865
573.757	5421.35143
574.222	5518.12284
574.686	5507.14467
575.15	5613.44329
575.614	5654.22791
576.078	5733.31977
576.542	5761.16044
577.006	5713.11457
577.469	5707.70203
577.933	5654.08084
578.396	5595.47982
578.86	5562.43967
579.323	5460.53111
579.786	5469.99761
580.249	5291.34937
580.712	5241.83662
581.175	5049.98569
581.637	5109.56259
582.1	4885.41188
582.563	4800.34881
583.025	4718.06098
583.487	4425.21191
583.95	4479.47847
584.412	4307.50054
584.874	4288.32332
585.336	4185.2282
585.797	3956.83228
586.259	4040.3091
586.721	3680.41531
587.182	3765.41183
587.643	3579.30017
588.105	3501.55787
588.566	3370.0041
589.027	3331.68622
589.488	3274.43357
589.949	3148.79957
590.41	3005.75985
590.87	3026.52284
591.331	2895.27819
591.791	2877.5674
592.252	2734.52347
592.712	2727.79855
593.172	2611.47698
593.632	2599.38192
594.092	2490.43973
594.552	2412.28778
595.011	2332.52427
595.471	2352.44063
595.931	2297.41322
596.39	2248.69403
596.849	2115.54207
597.308	2183.30153
597.768	2043.87388
598.227	2035.65545
598.685	2047.48712
599.144	1964.50017
599.603	1968.55635
600.062	1868.07377
600.52	1913.29322
600.978	1853.49759
601.437	1888.39438
601.895	1816.09245
602.353	1766.22532
602.811	1752.2103
603.269	1707.43506
603.727	1717.44046
604.184	1651.18571
604.642	1633.45548
605.099	1707.32694
605.557	1684.483
606.014	1608.02215
606.471	1516.39779
606.928	1584.97963
607.385	1524.30813
607.842	1657.23583
608.299	1639.29467
608.755	1563.33508
609.212	1557.07689
609.668	1555.05105
610.125	1540.33538
610.581	1605.36573
611.037	1485.15249
611.493	1492.2565
611.949	1401.20749
612.405	1406.73287
612.861	1503.26592
613.316	1385.17958
613.772	1490.16843
614.227	1396.16001
614.683	1443.95633
615.138	1395.13904
615.593	1372.10285
616.048	1300.00913
616.503	1345.25354
616.958	1303.25027
617.412	1269.06107
617.867	1238.85351
618.321	1328.79804
618.776	1320.95481
619.23	1226.00692
619.684	1213.91248
620.138	1278.05555
620.592	1208.08601
621.046	1180.97949
621.5	1204.08785
621.954	1164.87219
622.407	1123.80135
622.861	1090.95643
623.314	1180.92052
623.768	1093.86936
624.221	1082.51689
624.674	1030.77302
625.127	1047.83158
625.58	1079.82859
626.033	1023.69698
626.485	994.8138
626.938	1012.8365
627.39	1012.78917
627.843	991.75422
628.295	957.70968
628.747	940.74357
629.199	944.66345
629.651	888.58653
630.103	892.61008
630.555	912.50019
631.006	889.6582
631.458	880.65637
631.909	885.6263
632.361	887.65365
632.812	820.53494
633.263	846.46087
633.714	817.41479
634.165	822.63646
634.616	831.61569
635.067	848.52581
635.518	771.5316
635.968	812.31891
636.419	820.45422
636.869	778.54301
637.319	718.39734
637.769	726.36002
638.219	746.50425
638.669	676.37791
639.119	752.55037
639.569	705.44914
640.019	701.38136
640.468	680.29628
640.918	707.45782
641.367	671.28993
641.816	728.3772
642.265	676.34357
642.714	677.3465
643.163	661.31157
643.612	647.34411
644.061	653.1836
644.51	638.25968
644.958	625.19154
645.406	642.33637
645.855	580.25904
646.303	684.3816
646.751	603.20077
647.199	618.22869
647.647	591.19649
648.095	598.20433
648.543	649.14946
648.99	619.29786
649.438	641.31979
649.885	596.30809
650.333	607.02365
650.78	581.24542
651.227	580.2537
651.674	584.17717
652.121	621.33299
652.568	581.25452
653.015	641.43202
653.461	570.20734
653.908	614.2627
654.354	626.31978
654.801	539.13337
655.247	659.26134
655.693	583.36267
656.139	598.27446
656.585	565.2142
657.031	525.10098
657.477	582.11344
657.922	582.19249
658.368	606.33397
658.813	563.17716
659.259	559.20489
659.704	615.26959
660.149	593.23123
660.594	618.30289
661.039	539.10698
661.484	582.24891
661.929	590.23452
662.373	521.19567
662.818	556.24678
663.262	567.22843
663.707	552.26817
664.151	587.28966
664.595	546.19218
665.039	586.31467
665.483	548.268
665.927	556.18534
666.371	492.0396
666.814	575.23996
667.258	483.04751
667.701	609.17391
668.145	543.23279
668.588	508.14366
669.031	519.11184
669.474	529.16304
669.917	554.11199
670.36	530.20202
670.803	544.19782
671.245	594.12109
671.688	549.22172
672.13	501.0288
672.573	560.29836
673.015	557.217
673.457	486.97569
673.899	581.27646
674.341	526.16345
674.783	475.05331
675.225	536.2063
675.666	459.02283
676.108	528.04751
676.549	555.19933
676.991	530.06765
677.432	488.89388
677.873	520.10463
678.314	488.07792
678.755	537.19696
679.196	502.05845
679.637	560.25061
680.078	522.12382
680.518	517.11041
680.959	493.09239
681.399	532.21193
681.839	537.19943
682.28	519.1787
682.72	486.0287
683.16	535.22343
683.6	586.21261
684.039	594.11396
684.479	463.05812
684.919	511.08195
685.358	529.23776
685.798	515.24809
686.237	576.2705
686.676	569.20496
687.115	542.16745
687.554	549.19343
687.993	531.07728
688.432	556.15968
688.871	515.07474
689.309	550.20244
689.748	562.06836
690.186	552.20886
690.625	567.21118
691.063	558.22355
691.501	567.28215
691.939	594.34681
692.377	575.27913
692.815	522.14931
693.253	582.27572
693.69	524.05748
694.128	548.21622
694.565	580.26011
695.003	555.2931
695.44	558.19836
695.877	507.09264
696.314	609.1801
696.751	568.18265
697.188	577.20488
697.625	603.25536
698.061	580.26706
698.498	634.38459
698.934	641.38956
699.371	594.26757
699.807	616.31685
700.243	583.27711
700.679	607.2424
701.115	591.26634
701.551	606.29321
701.987	641.29315
702.422	585.26317
702.858	586.26992
703.294	609.2465
703.729	611.35594
704.164	623.35451
704.599	605.2165
705.035	579.17537
705.47	577.27934
705.904	645.34709
706.339	650.35785
706.774	626.32093
707.209	582.21883
707.643	608.32326
708.078	634.39217
708.512	557.27636
708.946	579.2662
709.38	600.2898
709.814	615.26902
710.248	600.32902
710.682	648.38296
711.116	548.19605
711.549	599.40994
711.983	595.24582
712.416	614.3137
712.85	610.38089
713.283	597.28196
713.716	592.35747
714.149	619.33497
714.582	622.25619
715.015	612.39272
715.448	618.41375
715.881	566.12827
716.313	528.13822
716.746	543.17186
717.178	502.11721
717.61	560.30399
718.043	528.2149
718.475	567.25662
718.907	569.32159
719.339	499.04405
719.77	478.05228
720.202	529.23486
720.634	463.05048
721.065	525.14601
721.497	554.24534
721.928	463.06067
722.359	513.14055
722.79	478.06327
723.221	528.22746
723.652	507.21533
724.083	484.01105
724.514	476.01628
724.945	457.00239
725.375	419.91469
725.806	499.15698
726.236	468.12107
726.666	474.04433
727.096	493.12318
727.526	439.04649
727.956	411.88051
728.386	445.0271
728.816	393.94314
729.246	451.02403
729.675	382.89283
730.105	421.97797
730.534	417.91995
730.964	452.07116
731.393	433.01202
731.822	421.01346
732.251	402.96675
732.68	430.95398
733.109	398.92912
733.537	352.81207
733.966	375.88626
734.395	385.84332
734.823	429.90994
735.251	374.85698
735.68	407.96558
736.108	402.96382
736.536	336.76003
736.964	361.79843
737.392	356.85129
737.82	341.78404
738.247	306.7071
738.675	373.84902
739.102	313.75263
739.53	337.82229
739.957	348.85655
740.384	386.90536
740.811	355.86039
741.238	314.73767
741.665	290.64985
742.092	283.65513
742.519	259.62305
742.945	321.74072
743.372	281.67391
743.798	337.83086
744.225	262.60568
744.651	293.71069
745.077	277.66962
745.503	267.63302
745.929	305.70549
746.355	315.75514
746.781	272.65419
747.207	211.48556
747.632	222.52949
748.058	263.63794
748.483	290.64557
748.908	254.61438
749.334	283.67302
749.759	209.48403
750.184	181.4255
750.609	290.68926
751.033	272.62454
751.458	273.59449
751.883	240.58074
752.307	204.47198
752.732	176.43357
753.156	204.49494
753.58	244.56564
754.005	233.57809
754.429	200.46236
754.853	194.4728
755.277	229.53013
755.7	204.49717
756.124	196.47821
756.548	174.40753
756.971	170.4106
757.394	183.46462
757.818	194.49089
758.241	171.42845
758.664	187.46499
759.087	136.30239
759.51	175.43008
759.933	175.41572
760.356	184.46476
760.778	151.36822
761.201	178.42764
761.623	200.47739
762.046	159.37437
762.468	195.46144
762.89	181.44087
763.312	172.41511
763.734	155.36991
764.156	164.40059
764.578	139.3186
765	137.33246
765.421	101.25617
765.843	182.47
766.264	169.40394
766.686	171.42428
767.107	100.24263
767.528	78.19745
767.949	154.38774
768.37	124.30322
768.791	168.40193
769.212	116.29018
769.632	107.24929
770.053	109.28612
770.473	104.25299
770.894	168.41569
771.314	187.44029
771.734	109.25405
772.154	121.30929
772.575	152.34958
772.994	72.1648
773.414	147.35042
773.834	62.156
774.254	96.23519
774.673	137.33158
775.093	131.32207
775.512	72.17816
775.931	104.26317
776.351	69.17214
776.77	69.16952
777.189	96.22863
777.607	46.11839
778.026	66.16523
778.445	42.10598
778.864	100.2561
779.282	96.23108
779.701	90.22693
780.119	59.14986
780.537	16.04046
780.955	122.30871
781.373	70.17385
781.791	77.17387
782.209	122.28014
782.627	63.16649
783.045	103.23675
783.462	99.25234
783.88	72.18659
784.297	89.22381
784.715	100.25592
785.132	98.23697
785.549	70.17562
785.966	70.17657
786.383	49.1214
786.8	105.24347
787.217	41.09815
787.633	51.12802
788.05	145.34127
788.466	89.21021
788.883	84.21407
789.299	74.17874
789.715	86.20913
790.131	67.16715
790.547	82.20491
790.963	101.24996
791.379	50.12711
791.795	67.15376
792.21	39.09211
792.626	89.21119
793.041	56.13892
793.457	102.25128
793.872	74.17447
794.287	35.0843
794.702	94.23123
795.117	44.11003
795.532	43.10844
795.947	104.24958
796.362	121.28723
796.776	110.25683
797.191	61.14992
797.605	16.03805
798.02	62.15145
798.434	80.17861
798.848	84.20671
799.262	58.14441
799.676	91.22174
800.09	71.17501
800.504	82.19903
800.918	29.06794
801.331	82.21477
801.745	45.10422
802.158	64.16039
802.572	99.23943
802.985	86.2078
803.398	68.16263
803.811	107.27369
804.224	73.18192
804.637	13.03137
805.05	79.18333
805.462	88.21591
805.875	23.06011
806.288	29.07059
806.7	89.22316
807.112	84.19474
807.525	69.17058
807.937	60.14874
808.349	46.11586
808.761	66.16272
809.173	88.21287
809.584	115.28231
809.996	34.08388
810.408	79.20356
810.819	46.10888
811.231	103.26457
811.642	58.13871
812.053	105.24829
812.464	53.12659
812.875	40.1028
813.286	85.21826
813.697	137.31691
814.108	99.24088
814.519	57.12771
814.929	92.23388
815.34	83.20104
815.75	75.19043
816.16	89.22123
816.571	104.26858
816.981	88.2074
817.391	46.11169
817.801	42.10488
818.211	61.14586
818.62	36.08728
819.03	97.23672
819.44	85.22145
819.849	65.16398
820.259	88.22458
820.668	11.02735
821.077	50.12463
821.486	84.20197
821.895	101.24831
822.304	61.1618
822.713	97.2283
823.122	62.15499
823.531	33.07885
823.939	59.14409
824.348	83.20142
824.756	76.19019
825.164	91.22818
825.573	81.20281
825.981	86.21272
826.389	106.26459
826.797	82.20491
827.205	43.09927
827.612	60.14836
828.02	16.03797
828.428	65.16562
828.835	38.10047
829.243	50.11967
829.65	86.21311
830.057	50.12182
830.464	76.18495
830.871	63.1511
831.278	74.17874
831.685	81.18051
832.092	51.12529
832.499	41.09031
832.905	91.22941
833.312	85.19342
833.718	85.21114
834.124	41.09428
834.531	95.23829
834.937	54.13888
835.343	69.1665
835.749	86.20032
836.155	86.22433
836.561	57.14045
836.966	90.21918
837.372	55.14024
837.777	62.15454
838.183	58.12933
838.588	67.1663
838.993	93.22535
839.399	19.04685
839.804	17.0418
840.209	24.06151
840.613	39.08731
841.018	46.11686
841.423	57.14636
841.828	69.17432
842.232	115.28231
842.637	68.16039
843.041	27.06962
843.445	73.18278
843.849	46.11424
844.253	86.20363
844.657	57.14365
845.061	66.14979
845.465	53.12828
845.869	66.15337
846.272	62.15099
846.676	60.14525
847.079	69.17519
847.483	97.2405
847.886	87.21081
848.289	34.0911
848.692	48.12185
849.095	30.07252
849.498	136.34021
849.901	53.12187
850.304	86.20466
850.707	86.21832
851.109	73.18436
851.512	67.16448
851.914	19.04822
852.316	65.16428
852.718	12.03123
853.121	72.17607
853.523	41.09624
853.925	42.10986
854.326	59.14752
854.728	53.13643
855.13	28.07259
855.531	28.06732
855.933	108.25701
856.334	47.11743
856.736	43.0967
857.137	31.07251
857.538	33.08334
857.939	56.13842
858.34	66.16068
858.741	48.12568
859.142	54.12989
859.542	31.08215
859.943	60.14907
860.343	34.08456
860.744	65.15845
861.144	84.20396
861.544	16.03876
861.945	58.14781
862.345	46.11278
862.745	54.13431
863.145	102.24189
863.544	50.12652
863.944	42.09957
864.344	77.19064
864.743	103.25351
865.143	68.17434
865.542	21.04908
865.941	72.17777
866.34	82.19559
866.74	84.22441
867.139	56.13414
867.537	88.223
867.936	55.13247
868.335	68.17269
868.734	75.19103
869.132	95.21915
869.531	61.14748
869.929	18.04137
870.327	61.14614
870.726	63.15695
871.124	54.12633
871.522	58.14771
871.92	57.1406
872.318	53.12968
872.715	90.22147
873.113	44.10748
873.511	31.07759
873.908	-10.02554
874.306	29.07248
874.703	99.24582
875.1	106.2688
875.497	44.10575
875.894	25.0616
876.291	55.13502
876.688	-1.0026
877.085	97.23097
877.482	86.21413
877.878	67.16094
878.275	54.13723
878.671	56.12477
879.068	34.08243
879.464	86.2067
879.86	34.08076
880.256	109.2664
880.652	40.10201
881.048	91.22406
881.444	74.17556
881.84	49.12468
882.236	59.14826
882.631	69.16895
883.027	135.32206
883.422	50.12796
883.817	20.05057
884.213	57.14621
884.608	21.05182
885.003	33.0799
885.398	24.06041
885.793	74.18512
886.188	25.06248
886.582	88.22442
886.977	53.12586
887.371	54.1366
887.766	24.06002
888.16	82.20365
888.554	60.14825
888.949	97.24173
889.343	66.16092
889.737	31.08291
890.131	35.08811
890.525	41.1051
890.918	39.09843
891.312	63.15053
891.706	70.18316
892.099	99.24994
892.492	47.10161
892.886	18.04434
893.279	48.12241
893.672	43.10968
894.065	46.11537
894.458	56.1408
894.851	104.25252
895.244	14.03601
895.637	86.20591
896.029	62.15139
896.422	56.13679
896.814	75.18575
897.206	22.05272
897.599	98.24045
897.991	56.13536
898.383	88.2066
898.775	67.15086
899.167	11.02587
899.559	79.19909
899.951	78.18305
900.342	60.15242
900.734	43.10689
901.125	38.09997
901.517	75.18337
901.908	69.16499
902.299	47.11504
902.69	40.09464
903.082	107.25654
903.473	11.02655
903.863	53.13524
904.254	64.14826
904.645	102.25147
905.036	10.02441
905.426	87.19789
905.817	59.14463
906.207	31.07418
906.597	38.08914
906.987	86.22164
907.378	29.07366
907.768	47.12438
908.158	54.13166
908.547	35.09069
908.937	39.10032
909.327	89.21468
909.717	83.20962
910.106	53.12731
910.495	87.21587
910.885	42.10658
911.274	89.22099
911.663	88.22197
912.052	95.23261
912.441	60.15237
912.83	43.09892
913.219	67.17492
913.608	63.15403
913.997	25.06298
914.385	69.16436
914.774	45.10974
915.162	70.16626
915.55	78.18783
915.939	12.03051
916.327	94.23285
916.715	38.09708
917.103	108.26312
917.491	108.26449
917.878	103.25089
918.266	106.27233
918.654	83.21089
919.041	30.0786
919.429	45.10637
919.816	74.18686
920.203	52.12612
920.591	87.21437
920.978	95.2308
921.365	62.16239
921.752	84.19905
922.139	107.22965
922.525	48.11537
922.912	32.07834
923.299	56.13908
923.685	61.15887
924.072	79.18122
924.458	88.21655
924.844	57.14091
925.231	69.16006
925.617	18.04605
926.003	65.16574
926.389	46.11615
926.774	87.21909
927.16	102.251
927.546	46.11752
927.931	57.1421
928.317	57.13118
928.702	91.21368
929.088	42.09953
929.473	48.1222
929.858	36.08728
930.243	63.15087
930.628	52.1265
931.013	65.16069
931.398	107.24338
931.783	77.20185
932.167	49.11985
932.552	89.22147
932.937	111.2725
933.321	68.17011
933.705	39.09853
934.09	64.16137
934.474	58.1376
934.858	56.14513
935.242	24.05593
935.626	52.13308
936.009	59.15671
936.393	58.1474
936.777	84.21385
937.16	58.15072
937.544	94.21965
937.927	45.1143
938.311	95.23002
938.694	71.18713
939.077	36.08643
939.46	87.21223
939.843	82.16995
940.226	55.14098
940.609	52.11936
940.991	46.11719
941.374	51.12465
941.757	35.08662
942.139	38.08558
942.522	78.18341
942.904	57.13687
943.286	84.21218
943.668	59.15261
944.05	69.16939
944.432	61.15025
944.814	57.14024
945.196	19.04658
945.578	-26.0627
945.959	48.11256
946.341	103.25042
946.722	79.18442
947.104	62.14788
947.485	31.07242
947.866	62.15588
948.247	44.11114
948.628	62.15094
949.009	46.11789
949.39	77.19078
949.771	81.1873
950.152	33.08125
950.532	12.02973
950.913	83.199
951.293	20.05429
951.674	52.12574
952.054	54.13372
952.434	52.12905
952.814	95.22412
953.194	67.17486
953.574	100.24408
953.954	47.1117
954.334	65.16158
954.714	31.07582
955.093	80.19563
955.473	37.09274
955.853	65.16784
956.232	56.15334
956.611	68.16257
956.99	38.09571
957.37	69.17526
957.749	53.12639
958.128	87.21776
958.506	35.09103
958.885	86.21568
959.264	23.05665
959.643	59.13404
960.021	56.13862
960.4	61.13797
960.778	100.24408
961.156	53.1328
961.535	51.11887
961.913	61.14245
962.291	45.11555
962.669	30.07627
963.047	63.16041
963.424	56.14277
963.802	41.10099
964.18	105.26309
964.557	53.12202
964.935	73.17222
965.312	35.09138
965.69	54.13514
966.067	68.16505
966.444	75.18398
966.821	79.20264
967.198	121.28966
967.575	58.14241
967.952	94.21965
968.329	133.31863
968.705	105.22253
969.082	82.20912
969.458	46.11043
969.835	44.10724
970.211	39.10028
970.587	62.15403
970.963	47.12064
971.339	30.0786
971.715	55.13722
972.091	79.19351
972.467	89.22043
972.843	29.07225
973.219	125.29592
973.594	51.13337
973.97	123.28871
974.345	44.10543
974.721	86.20686
975.096	68.164
975.471	83.19566
975.846	73.17462
976.221	31.07899
976.596	57.13645
976.971	60.14787
977.346	67.15548
977.72	86.2177
978.095	63.16245
978.469	79.18753
978.844	112.27845
979.218	26.06261
979.593	85.20232
979.967	74.17948
980.341	78.17861
980.715	63.15837
981.089	37.09284
981.463	64.14655
981.837	42.10278
982.21	109.25074
982.584	57.13749
982.957	47.11743
983.331	85.19959
983.704	38.09358
984.078	34.08404
984.451	114.28146
984.824	36.0879
985.197	76.1837
985.57	88.21919
985.943	80.1965
986.316	130.3147
986.688	54.13013
987.061	76.17724
987.434	36.09403
987.806	59.14286
988.179	44.10394
988.551	125.31287
988.923	48.11825
989.295	61.15213
989.667	9.02167
990.039	24.05958
990.411	40.09226
990.783	78.17861
991.155	30.07235
991.527	100.24399
991.898	39.09737
992.27	47.11632
992.641	90.22417
993.012	81.18946
993.384	60.14284
993.755	34.08692
994.126	87.20779
994.497	25.06165
994.868	41.09435
995.239	29.07056
995.61	69.17302
995.98	12.02936
996.351	-1.0025
996.722	5.0117
997.092	20.04763
997.462	38.08897
997.833	81.19087
998.203	74.1786
998.573	70.17366
998.943	103.23902
999.313	66.15767
999.683	15.03624
1000.053	82.18746
1000.423	29.07075
1000.792	102.26196
1001.162	13.03221
1001.531	29.07177
1001.901	17.04263
1002.27	47.10513
1002.639	22.05648
1003.009	52.1236
1003.378	63.1607
1003.747	47.1111
1004.116	68.16213
1004.485	65.15489
1004.853	54.1367
1005.222	71.17835
1005.591	87.20509
1005.959	69.15485
1006.328	30.06778
1006.696	53.12775
1007.064	65.16304
1007.433	61.15213
1007.801	108.26223
1008.169	72.18109
1008.537	111.24265
1008.905	35.08177
1009.273	87.21342
1009.64	68.16164
1010.008	79.18724
1010.375	97.23345
1010.743	102.23309
1011.11	46.10892
1011.478	65.1604
1011.845	84.1962
1012.212	32.07269
1012.579	64.15668
1012.946	133.31145
1013.313	122.2863
1013.68	69.15447
1014.047	50.11912
1014.414	42.09933
1014.78	64.1586
1015.147	121.28866
1015.513	35.08455
1015.88	88.22347
1016.246	85.20844
1016.612	63.14382
1016.978	42.10305
1017.344	79.19415
1017.71	81.19634
1018.076	82.19213
1018.442	74.18952
1018.808	66.16445
1019.174	28.0705
1019.539	128.29003
1019.905	23.05451
1020.27	73.17934
1020.636	64.15301
1021.001	92.21843
1021.366	71.16977
1021.731	50.12855
1022.096	11.02793
1022.461	52.12299
1022.826	41.09759
1023.191	50.13114
1023.556	75.17487
1023.92	81.19797
1024.285	98.23697
1024.649	71.17327
1025.014	86.21155
1025.378	80.19998
1025.742	72.17803
1026.107	54.12201
1026.471	52.12132
1026.835	41.10177
1027.199	62.14885
1027.562	57.13228
1027.926	66.16086
1028.29	33.08373
1028.654	39.0899
1029.017	98.23867
1029.381	58.13829
1029.744	54.13757
1030.107	69.16259
1030.471	37.08878
1030.834	63.1429
1031.197	118.28048
1031.56	58.13659
1031.923	63.16245
1032.286	105.24386
1032.648	112.26458
1033.011	16.03696
1033.374	46.10816
1033.736	22.05809
1034.099	48.11699
1034.461	33.08358
1034.823	5.01255
1035.185	114.28353
1035.548	63.15288
1035.91	60.14339
1036.272	35.07987
1036.634	87.21128
1036.995	23.05432
1037.357	35.08535
1037.719	65.15756
1038.08	85.20037
1038.442	33.07855
1038.803	71.16971
1039.165	48.12112
1039.526	65.15655
1039.887	49.11721
1040.248	50.12313
1040.609	84.20618
1040.97	68.16554
1041.331	29.07366
1041.692	24.05628
1042.053	74.16761
1042.413	64.14867
1042.774	86.20764
1043.134	81.19161
1043.495	70.17524
1043.855	46.11161
1044.215	88.21679
1044.576	27.06481
1044.936	60.13722
1045.296	95.23503
1045.656	93.22628
1046.016	71.17062
1046.375	34.08268
1046.735	-13.02983
1047.095	120.27687
1047.454	103.21562
1047.814	88.2099
1048.173	119.28041
1048.533	50.11449
1048.892	-16.03886
1049.251	78.1947
1049.61	94.22944
1049.969	41.09676
1050.328	76.16378
1050.687	56.13603
1051.046	67.16253
1051.405	68.16851
1051.763	58.13308
1052.122	86.21296
1052.48	41.10065
1052.839	63.14776
1053.197	53.1246
1053.555	106.23881
1053.914	86.20882
1054.272	98.23465
1054.63	60.14634
1054.988	17.04062
1055.345	19.04117
1055.703	83.19839
1056.061	64.16414
1056.419	6.01564
1056.776	88.21175
1057.134	59.13627
1057.491	54.13504
1057.848	92.22715
1058.206	44.10354
1058.563	74.16221
1058.92	71.16287
1059.277	66.16224
1059.634	105.24424
1059.991	79.18811
1060.348	18.04092
1060.704	31.0741
1061.061	110.25238
1061.418	17.04146
1061.774	42.10377
1062.131	32.08481
1062.487	28.06571
1062.843	52.12952
1063.199	41.10207
1063.555	38.0882
1063.911	43.10868
1064.267	91.18797
1064.623	41.09968
1064.979	126.29396
1065.335	71.16893
1065.691	85.20224
1066.046	67.14671
1066.402	62.14043
1066.757	95.23769
1067.112	36.08853
1067.468	35.08283
1067.823	75.17934
1068.178	80.19228
1068.533	106.25409
1068.888	87.20628
1069.243	80.19621
1069.598	15.03666
1069.952	19.04303
1070.307	45.11141
1070.662	49.11627
1071.016	68.1517
1071.371	60.13612
1071.725	76.18079
1072.079	76.18176
1072.434	44.10696
1072.788	70.16594
1073.142	77.18833
1073.496	52.12322
1073.85	83.19109
1074.203	44.1068
1074.557	48.1276
1074.911	118.27778
1075.265	55.12763
1075.618	81.19649
1075.971	84.19836
1076.325	28.07138
1076.678	33.07567
1077.031	29.06586
1077.385	58.12746
1077.738	72.16168
1078.091	28.06391
1078.444	61.14122
1078.796	36.08849
1079.149	97.23901
1079.502	15.03565
1079.855	71.16476
1080.207	64.15715
1080.56	25.06484
1080.912	63.15288
1081.264	56.1346
1081.617	80.19374
1081.969	24.06078
1082.321	70.17016
1082.673	8.0184
1083.025	57.13494
1083.377	60.12841
1083.728	125.28709
1084.08	48.11977
1084.432	61.1467
1084.783	76.17703
1085.135	64.15987
1085.486	28.0643
1085.838	36.08882
1086.189	58.14046
1086.54	58.13818
1086.891	25.06345
1087.242	84.20304
1087.593	75.1816
1087.944	56.12648
1088.295	105.23583
1088.646	92.22104
1088.996	0
1089.347	67.16375
1089.698	21.04987
1090.048	70.18103
1090.398	89.20465
1090.749	41.09819
1091.099	29.07314
1091.449	106.26114
1091.799	49.1226
1092.149	17.04167
1092.499	67.16277
1092.849	30.07645
1093.199	92.22865
1093.548	38.09144
1093.898	68.16943
1094.248	81.20683
1094.597	32.08187
1094.947	80.21216
1095.296	27.0669
1095.645	84.21701
1095.994	74.17678
1096.343	44.11075
1096.692	53.13903
1097.041	35.09491
1097.39	53.13275
1097.739	57.14784
1098.088	84.22359
1098.437	9.02378
1098.785	85.22764
1099.134	98.2579
1099.482	63.17276
1099.83	66.17281
1100.179	51.13287
1100.527	76.20088
1100.875	28.07423
1101.223	73.19292
1101.571	57.1572
1101.919	19.04986
1102.267	27.07621
1102.615	-2.00643
1102.962	12.03863
1103.31	-7.02252
1103.658	14.04508
