Data from N2 R13 sample 12_Subt2__0__12-04-22-779.txt Node

Date: Tue Sep 02 12:04:22 PDT 2025
User: uwsun
Spectrometer: HDX01956
Trigger mode: 0
Integration Time (sec): 5.000000E-1
Scans to average: 1
Nonlinearity correction enabled: true
Boxcar width: 0
Storing dark spectrum: false
XAxis mode: Wavelengths
Number of Pixels in Spectrum: 2068
>>>>>Begin Spectral Data<<<<<
194.03	-105.29943
194.578	-111.35574
195.127	-115.36353
195.676	-111.35174
196.225	-87.23415
196.773	-77.21369
197.321	-134.3675
197.87	-129.32672
198.418	-183.46215
198.966	-208.53061
199.513	-233.57027
200.061	-213.5277
200.609	-146.37704
201.156	-245.52989
201.704	-214.52737
202.251	-197.50882
202.798	-207.52592
203.345	-156.37636
203.892	-210.51827
204.438	-199.46781
204.985	-246.57231
205.532	-222.5717
206.078	-185.4437
206.624	-217.52183
207.17	-183.41642
207.716	-236.56331
208.262	-184.35882
208.808	-208.49781
209.354	-188.44548
209.899	-163.40281
210.445	-219.53163
210.99	-245.58087
211.535	-193.44574
212.08	-226.51976
212.625	-193.47308
213.17	-206.51232
213.715	-267.58685
214.259	-167.38047
214.804	-150.36106
215.348	-223.50517
215.892	-221.52296
216.436	-151.34235
216.98	-161.35001
217.524	-207.48111
218.068	-158.3878
218.612	-196.48497
219.155	-175.4032
219.698	-148.34365
220.242	-170.41601
220.785	-184.42335
221.328	-195.47816
221.871	-133.32904
222.414	-175.42849
222.956	-194.4581
223.499	-140.30792
224.041	-182.41958
224.583	-112.23721
225.126	-171.37143
225.668	-201.48097
226.21	-202.49926
226.751	-212.45842
227.293	-153.34336
227.835	-197.47266
228.376	-141.31942
228.918	-140.34502
229.459	-172.41762
230	-214.50336
230.541	-178.40414
231.082	-174.41295
231.622	-205.46798
232.163	-172.4071
232.704	-164.39611
233.244	-147.35445
233.784	-151.3623
234.324	-233.50523
234.864	-186.41475
235.404	-154.35843
235.944	-179.41719
236.484	-152.37017
237.023	-177.40895
237.563	-176.39765
238.102	-198.4601
238.641	-172.42434
239.18	-170.3866
239.719	-144.35082
240.258	-161.35433
240.797	-170.39598
241.335	-180.4313
241.874	-179.33903
242.412	-169.39528
242.95	-212.49536
243.488	-169.37693
244.026	-181.40703
244.564	-182.36859
245.102	-159.34713
245.64	-121.28235
246.177	-178.3905
246.715	-185.4349
247.252	-152.34006
247.789	-127.23477
248.326	-227.53279
248.863	-218.46999
249.4	-177.39297
249.936	-208.42183
250.473	-179.40567
251.009	-212.47488
251.546	-166.35558
252.082	-168.35846
252.618	-219.47832
253.154	-225.52831
253.69	-206.45421
254.226	-215.50128
254.761	-209.45957
255.297	-201.42971
255.832	-212.48932
256.367	-189.43285
256.903	-174.37078
257.438	-170.38754
257.972	-182.39423
258.507	-220.49036
259.042	-186.39325
259.576	-230.48308
260.111	-169.3788
260.645	-213.45221
261.179	-210.47601
261.713	-168.3608
262.247	-212.47703
262.781	-257.53061
263.315	-222.52746
263.849	-248.60438
264.382	-199.4453
264.915	-248.56648
265.449	-254.59907
265.982	-195.43113
266.515	-189.44413
267.048	-187.38297
267.58	-198.42229
268.113	-211.44229
268.646	-236.56482
269.178	-220.47613
269.71	-179.37787
270.243	-209.46363
270.775	-216.53014
271.307	-157.36318
271.838	-165.37819
272.37	-185.43694
272.902	-181.397
273.433	-179.37654
273.965	-195.45644
274.496	-180.43031
275.027	-230.55109
275.558	-242.56833
276.089	-274.65074
276.62	-200.49015
277.15	-181.42881
277.681	-176.36819
278.211	-170.3991
278.741	-267.57179
279.272	-247.54563
279.802	-208.49895
280.332	-245.55748
280.861	-220.5094
281.391	-226.49309
281.921	-248.57924
282.45	-219.52644
282.98	-240.60185
283.509	-210.45313
284.038	-236.51818
284.567	-181.40436
285.096	-263.61439
285.625	-232.50575
286.153	-256.57721
286.682	-256.56374
287.21	-257.594
287.739	-198.44443
288.267	-267.6203
288.795	-229.57562
289.323	-283.63534
289.851	-244.54768
290.378	-233.50006
290.906	-286.66246
291.433	-247.58742
291.961	-245.52853
292.488	-260.61821
293.015	-266.59656
293.542	-282.68004
294.069	-254.59232
294.596	-214.5014
295.122	-257.58337
295.649	-256.53982
296.175	-257.594
296.702	-249.57437
297.228	-240.55394
297.754	-251.53474
298.28	-286.61843
298.806	-290.66267
299.332	-276.57815
299.857	-279.59749
300.383	-254.60859
300.908	-292.66697
301.433	-263.59989
301.958	-246.5374
302.483	-309.72805
303.008	-227.52551
303.533	-269.66056
304.058	-239.52951
304.582	-305.67825
305.107	-312.76428
305.631	-254.54524
306.155	-287.6255
306.679	-289.63093
307.203	-290.62976
307.727	-283.62803
308.251	-321.74661
308.775	-335.7431
309.298	-337.75406
309.822	-346.8217
310.345	-310.68579
310.868	-311.69188
311.391	-313.71967
311.914	-341.79562
312.437	-274.5798
312.96	-327.71478
313.482	-358.7913
314.005	-356.83143
314.527	-359.87302
315.049	-346.81378
315.571	-349.71279
316.093	-322.73133
316.615	-374.83287
317.137	-326.64994
317.659	-293.64994
318.18	-338.74991
318.702	-368.78551
319.223	-349.65521
319.744	-335.68016
320.265	-397.8762
320.786	-415.93352
321.307	-375.84425
321.828	-364.74393
322.348	-376.79701
322.869	-404.85598
323.389	-566.88106
323.909	-393.81175
324.43	-351.75978
324.95	-454.93711
325.47	-443.97239
325.989	-433.9072
326.509	-455.88669
327.029	-496.99623
327.548	-492.98044
328.067	-500.06346
328.587	-444.97356
329.106	-439.86933
329.625	-379.87209
330.144	-473.94937
330.662	-492.98865
331.181	-442.88818
331.7	-511.03757
332.218	-481.89195
332.736	-488.97971
333.255	-549.10016
333.773	-519.04761
334.291	-470.99928
334.808	-529.99566
335.326	-564.08102
335.844	-578.12286
336.361	-593.2575
336.879	-606.17903
337.396	-569.13242
337.913	-627.19883
338.43	-592.09109
338.947	-596.16175
339.464	-658.15304
339.981	-615.17925
340.497	-618.24525
341.014	-653.29266
341.53	-682.24036
342.046	-683.3534
342.562	-623.24584
343.078	-698.3197
343.594	-660.25199
344.11	-664.24795
344.626	-683.36034
345.141	-700.24804
345.657	-673.19454
346.172	-750.42788
346.687	-738.31663
347.202	-725.24712
347.717	-701.28047
348.232	-758.47251
348.747	-778.37171
349.261	-829.35983
349.776	-769.36958
350.29	-826.54086
350.805	-727.35553
351.319	-801.40464
351.833	-809.34686
352.347	-788.36625
352.861	-855.47998
353.374	-751.26308
353.888	-864.56181
354.401	-797.32173
354.915	-839.33049
355.428	-863.56119
355.941	-867.44214
356.454	-799.27555
356.967	-855.45102
357.48	-828.34498
357.993	-867.52943
358.505	-954.68025
359.018	-903.56826
359.53	-929.56935
360.042	-911.40219
360.554	-907.53788
361.066	-952.61833
361.578	-929.37391
362.09	-902.46725
362.602	-960.42129
363.113	-941.46474
363.625	-955.422
364.136	-946.36735
364.647	-1082.65066
365.158	-942.41909
365.669	-1038.6611
366.18	-1029.59958
366.691	-980.37038
367.201	-1020.57676
367.712	-1043.49674
368.222	-1057.51885
368.733	-1075.40944
369.243	-1134.53001
369.753	-1087.53606
370.263	-1127.65845
370.773	-1190.83681
371.282	-1172.66076
371.792	-1283.67043
372.301	-1258.75685
372.811	-1312.05144
373.32	-1341.49652
373.829	-1399.78676
374.338	-1388.57302
374.847	-1499.76613
375.356	-1458.68879
375.865	-1540.40611
376.373	-1582.55746
376.882	-1577.86808
377.39	-1579.62987
377.898	-1851.90069
378.407	-1848.49565
378.915	-1905.38644
379.423	-1894.44314
379.93	-1981.31021
380.438	-2150.44228
380.946	-2254.28043
381.453	-2372.23901
381.96	-2492.01449
382.468	-2694.70961
382.975	-2763.80199
383.482	-2877.46104
383.989	-2951.80926
384.495	-3053.21209
385.002	-3306.66349
385.509	-3443.78042
386.015	-3571.08437
386.521	-3699.16969
387.028	-3945.99892
387.534	-4150.84786
388.04	-4189.95461
388.546	-4498.67766
389.051	-4809.64099
389.557	-5074.73145
390.063	-5071.75895
390.568	-5512.03384
391.073	-5853.61282
391.578	-5956.84385
392.084	-6283.969
392.589	-6788.95969
393.093	-7409.70802
393.598	-7905.46642
394.103	-8625.29627
394.607	-9328.63568
395.112	-9883.22417
395.616	-10546.94424
396.12	-11787.55583
396.624	-13194.6377
397.128	-14106.23215
397.632	-15285.52579
398.136	-16950.57826
398.639	-19027.65109
399.143	-21741.01882
399.646	-24195.61484
400.15	-26791.62306
400.653	-30146.74071
401.156	-34548.14655
401.659	-41037.46644
402.162	-39453.73948
402.664	-26749.34176
403.167	-3220.53261
403.67	0
404.172	0
404.674	0
405.176	0
405.678	0
406.18	0
406.682	0
407.184	0
407.686	0
408.187	0
408.688	-20587.51094
409.19	-30144.95296
409.691	-35590.55682
410.192	-39310.74312
410.693	-41330.84064
411.194	-41835.1838
411.694	-39543.97926
412.195	-36514.12975
412.696	-34173.30979
413.196	-33502.14503
413.696	-33266.78964
414.196	-32405.63312
414.696	-30005.20994
415.196	-26935.97096
415.696	-22138.40436
416.196	-17943.73431
416.695	-15586.60862
417.195	-14727.6298
417.694	-14046.40279
418.194	-13017.07539
418.693	-12608.70455
419.192	-12159.35353
419.691	-11963.74007
420.19	-11397.65199
420.688	-10866.57396
421.187	-10274.36257
421.685	-9416.07917
422.184	-8445.76377
422.682	-7322.36654
423.18	-6704.78259
423.678	-6166.61004
424.176	-5775.63264
424.674	-5277.05943
425.172	-4936.6739
425.669	-4588.71508
426.167	-4185.82396
426.664	-3871.99156
427.161	-3610.28456
427.659	-3423.85934
428.156	-3216.56847
428.652	-3078.49536
429.149	-2933.44263
429.646	-2839.40192
430.143	-2604.81687
430.639	-2546.97591
431.135	-2421.29936
431.632	-2241.05755
432.128	-2180.39443
432.624	-2142.68227
433.12	-2163.30311
433.616	-1999.14216
434.111	-2071.52198
434.607	-1989.6525
435.103	-1750.19714
435.598	-1790.3228
436.093	-1685.66718
436.588	-1564.51466
437.083	-1520.57687
437.578	-1497.68315
438.073	-1570.01571
438.568	-1397.85019
439.062	-1344.4503
439.557	-1296.69608
440.051	-1277.5767
440.546	-1309.66804
441.04	-1286.79405
441.534	-1239.89453
442.028	-1207.75436
442.522	-1241.82525
443.015	-1178.5349
443.509	-1165.79012
444.002	-1181.82869
444.496	-1135.52384
444.989	-1143.79635
445.482	-1193.94774
445.975	-1149.6315
446.468	-1156.57529
446.961	-1122.52361
447.454	-1043.50514
447.947	-1085.66162
448.439	-1073.7461
448.931	-1054.53196
449.424	-1046.79969
449.916	-1040.70872
450.408	-1043.5547
450.9	-1093.81854
451.392	-1057.84719
451.884	-1010.59413
452.375	-1060.82967
452.867	-968.52317
453.358	-991.53486
453.849	-971.40847
454.341	-960.49662
454.832	-947.40067
455.323	-973.68039
455.814	-936.52532
456.304	-904.47299
456.795	-949.5617
457.285	-855.36449
457.776	-835.37961
458.266	-905.55848
458.756	-887.57212
459.247	-900.56427
459.737	-913.60241
460.226	-845.37846
460.716	-842.4856
461.206	-845.52001
461.695	-848.62182
462.185	-787.38942
462.674	-787.36848
463.163	-799.34257
463.653	-745.16674
464.142	-825.53406
464.63	-737.38576
465.119	-774.3746
465.608	-761.35181
466.096	-740.2557
466.585	-726.31988
467.073	-715.35487
467.561	-723.38406
468.05	-681.25265
468.538	-685.34598
469.026	-697.34
469.513	-729.23732
470.001	-690.25621
470.489	-664.25959
470.976	-598.10217
471.463	-684.40623
471.951	-603.23475
472.438	-666.2886
472.925	-706.3733
473.412	-583.18835
473.899	-600.14628
474.385	-586.20124
474.872	-599.1629
475.359	-618.27265
475.845	-616.07758
476.331	-575.0642
476.817	-550.13851
477.303	-548.07966
477.789	-529.08299
478.275	-571.21552
478.761	-494.01463
479.247	-511.98778
479.732	-569.22595
480.218	-537.21471
480.703	-503.08215
481.188	-512.95584
481.673	-496.98887
482.158	-544.00495
482.643	-445.99196
483.128	-503.0027
483.612	-487.0018
484.097	-395.84514
484.581	-471.97503
485.066	-447.95721
485.55	-477.9278
486.034	-504.97775
486.518	-443.91789
487.002	-483.05196
487.486	-443.96338
487.969	-437.95074
488.453	-434.98603
488.936	-473.96602
489.42	-408.81229
489.903	-406.92393
490.386	-867.47462
490.869	-387.76349
491.352	-394.87958
491.835	-348.64866
492.318	-429.88332
492.8	-387.72871
493.283	-432.0004
493.765	-425.95718
494.247	-343.73167
494.73	-416.84827
495.212	-348.77113
495.694	-409.8766
496.175	-442.96346
496.657	-344.74669
497.139	-296.47407
497.62	-406.88312
498.102	-396.90482
498.583	-389.9033
499.064	-391.80436
499.545	-357.75129
500.026	-364.7527
500.507	-339.72471
500.988	-333.76167
501.469	-381.88228
501.949	-319.72731
502.43	-387.85163
502.91	-379.73085
503.39	-345.80369
503.87	-375.819
504.35	-297.64839
504.83	-352.71712
505.31	-343.77001
505.79	-394.88212
506.269	-315.6839
506.749	-383.81947
507.228	-354.7733
507.707	-331.68277
508.187	-296.65728
508.666	-363.83161
509.145	-356.77701
509.623	-357.78563
510.102	-294.66043
510.581	-275.61687
511.059	-318.73891
511.538	-245.58423
512.016	-271.59965
512.494	-245.54913
512.972	-254.55957
513.45	-320.6872
513.928	-254.56708
514.406	-300.66616
514.884	-249.58967
515.361	-171.37191
515.839	-222.46422
516.316	-181.39667
516.793	-194.45099
517.27	-144.31804
517.747	-186.43563
518.224	-209.44623
518.701	-166.33757
519.178	-202.45751
519.654	-131.28406
520.131	-163.3679
520.607	-171.38974
521.083	-198.41642
521.56	-192.41731
522.036	-163.32852
522.512	-81.18081
522.987	-210.45837
523.463	-189.41367
523.939	-165.37227
524.414	-151.32058
524.89	-201.4418
525.365	-203.4259
525.84	-235.51652
526.315	-230.5152
526.79	-198.41422
527.265	-183.3858
527.74	-251.57229
528.215	-221.48555
528.689	-233.48236
529.164	-197.39888
529.638	-236.56805
530.112	-260.57471
530.587	-284.57253
531.061	-227.50963
531.534	-215.48764
532.008	-255.5753
532.482	-238.51464
532.956	-296.71136
533.429	-232.52737
533.903	-251.52613
534.376	-282.59307
534.849	-270.59357
535.322	-281.62981
535.795	-238.54736
536.268	-233.52567
536.741	-210.47292
537.213	-209.45339
537.686	-285.65714
538.158	-270.57159
538.631	-214.48941
539.103	-308.65887
539.575	-232.45888
540.047	-237.49284
540.519	-216.48603
540.991	-222.5122
541.463	-240.54865
541.934	-215.46242
542.406	-264.59524
542.877	-262.56169
543.348	-191.43198
543.82	-228.52772
544.291	-211.46436
544.762	-243.54241
545.233	-232.54527
545.703	-227.47162
546.174	-215.46899
546.645	-266.59632
547.115	-212.47644
547.585	-195.41815
548.056	-240.53826
548.526	-210.45701
548.996	-202.45136
549.466	-159.35844
549.935	-218.47624
550.405	-160.32033
550.875	-148.31908
551.344	-83.17929
551.814	-91.18847
552.283	-84.1649
552.752	-116.24246
553.221	-100.19399
553.69	-68.13443
554.159	-38.08214
554.628	-28.05481
555.096	44.09677
555.565	60.11561
556.033	164.32986
556.502	142.29614
556.97	220.41189
557.438	282.56117
557.906	329.65272
558.374	380.71852
558.842	430.84055
559.31	455.82607
559.777	560.07231
560.245	713.288
560.712	724.28228
561.18	776.27511
561.647	902.4574
562.114	991.59682
562.581	1118.93523
563.048	1273.94231
563.514	1361.18324
563.981	1487.10924
564.448	1690.18166
564.914	1848.40793
565.381	1982.39125
565.847	2144.56277
566.313	2348.58924
566.779	2501.46445
567.245	2709.63915
567.711	2992.73308
568.176	3120.35258
568.642	3325.92163
569.108	3613.71275
569.573	3936.34224
570.038	4212.54664
570.504	4440.72708
570.969	4733.29235
571.434	5093.23783
571.899	5327.60687
572.363	5779.15894
572.828	6109.10816
573.293	6400.05587
573.757	6865.08297
574.222	7156.04549
574.686	7632.35551
575.15	7836.69927
575.614	8275.10993
576.078	8561.56458
576.542	8964.29128
577.006	9113.622
577.469	9432.3266
577.933	9570.80951
578.396	9836.46367
578.86	10045.13928
579.323	10073.21235
579.786	10239.10683
580.249	10406.54971
580.712	10462.47967
581.175	10440.37546
581.637	10344.23644
582.1	10438.78398
582.563	10448.91083
583.025	10399.28245
583.487	10222.29849
583.95	10007.28455
584.412	10073.56846
584.874	9895.59906
585.336	9716.11384
585.797	9538.76239
586.259	9398.26624
586.721	9145.67879
587.182	8849.07481
587.643	8691.76499
588.105	8407.36161
588.566	8312.07681
589.027	7879.79319
589.488	7853.63356
589.949	7501.56652
590.41	7296.79137
590.87	7181.19948
591.331	6927.9057
591.791	6681.10349
592.252	6490.04634
592.712	6227.36988
593.172	6014.06351
593.632	5858.99935
594.092	5657.13797
594.552	5479.02744
595.011	5304.42566
595.471	5116.40441
595.931	5029.42438
596.39	4882.91761
596.849	4693.86306
597.308	4591.54012
597.768	4507.53692
598.227	4338.2879
598.685	4348.01257
599.144	4202.16785
599.603	4217.24637
600.062	4031.64705
600.52	3936.01597
600.978	3918.40149
601.437	3923.20115
601.895	3794.8339
602.353	3878.04797
602.811	3696.12317
603.269	3822.49677
603.727	3762.52075
604.184	3772.14567
604.642	3726.67369
605.099	3730.34959
605.557	3738.64746
606.014	3702.93597
606.471	3687.76913
606.928	3816.82767
607.385	3805.53093
607.842	3908.16173
608.299	3896.29565
608.755	3978.43946
609.212	3996.94581
609.668	4041.87585
610.125	4261.33232
610.581	4273.28185
611.037	4328.01832
611.493	4314.22667
611.949	4313.29875
612.405	4357.2699
612.861	4501.12287
613.316	4471.1839
613.772	4502.94437
614.227	4419.14677
614.683	4558.55368
615.138	4567.01965
615.593	4495.02756
616.048	4552.93769
616.503	4571.38947
616.958	4525.51834
617.412	4433.20234
617.867	4463.76123
618.321	4369.51314
618.776	4389.86109
619.23	4212.30357
619.684	4184.11853
620.138	4155.31729
620.592	3961.67626
621.046	3940.49822
621.5	3991.67878
621.954	3853.31629
622.407	3656.34096
622.861	3503.89735
623.314	3494.54265
623.768	3428.68687
624.221	3310.89077
624.674	3201.70305
625.127	3172.80448
625.58	3140.70459
626.033	3028.56878
626.485	2894.97269
626.938	2824.96951
627.39	2844.85275
627.843	2753.83638
628.295	2654.83524
628.747	2553.96561
629.199	2529.75389
629.651	2475.7446
630.103	2396.77481
630.555	2359.44351
631.006	2336.88711
631.458	2229.87829
631.909	2270.80424
632.361	2125.80567
632.812	2116.75603
633.263	2118.49465
633.714	2084.46722
634.165	2050.95844
634.616	2010.85371
635.067	1878.52629
635.518	1848.77766
635.968	1888.19246
636.419	1849.44217
636.869	1800.74285
637.319	1731.5817
637.769	1638.39974
638.219	1721.71234
638.669	1623.61166
639.119	1633.71314
639.569	1612.64964
640.019	1626.5254
640.468	1523.32499
640.918	1609.65844
641.367	1546.36254
641.816	1569.37494
642.265	1516.43597
642.714	1554.4738
643.163	1531.4348
643.612	1455.4865
644.061	1438.10087
644.51	1457.33582
644.958	1449.22391
645.406	1472.50705
645.855	1384.49484
646.303	1455.4285
646.751	1447.32748
647.199	1477.36149
647.647	1413.33237
648.095	1408.31706
648.543	1357.97434
648.99	1393.42805
649.438	1356.34906
649.885	1399.5558
650.333	1411.87889
650.78	1330.39469
651.227	1292.37086
651.674	1281.1748
652.121	1335.42871
652.568	1276.3484
653.015	1328.54764
653.461	1269.28154
653.908	1353.32599
654.354	1317.35977
654.801	1216.17979
655.247	1219.02248
655.693	1221.49583
656.139	1164.17789
656.585	1199.22764
657.031	1098.01378
657.477	1108.8552
657.922	1091.98173
658.368	1060.1113
658.813	1100.02855
659.259	1010.96843
659.704	1043.94892
660.149	997.88572
660.594	988.9155
661.039	1001.84453
661.484	999.95295
661.929	993.89459
662.373	901.91137
662.818	920.90978
663.262	915.83659
663.707	878.88639
664.151	893.83683
664.595	854.74434
665.039	882.85928
665.483	813.78294
665.927	815.64093
666.371	744.48648
666.814	808.65626
667.258	699.44711
667.701	812.49003
668.145	749.63011
668.588	696.50731
669.031	702.44523
669.474	686.45909
669.917	723.39541
670.36	707.54645
670.803	665.42755
671.245	649.20863
671.688	659.43348
672.13	575.16139
672.573	639.45861
673.015	607.31242
673.457	571.12216
673.899	564.24348
674.341	548.20664
674.783	533.16792
675.225	516.16596
675.666	495.09501
676.108	519.03178
676.549	532.15519
676.991	529.06588
677.432	490.8971
677.873	481.0303
678.314	460.02189
678.755	438.99794
679.196	411.88545
679.637	466.0605
680.078	485.0523
680.518	500.07776
680.959	420.94651
681.399	420.98008
681.839	431.98536
682.28	391.91261
682.72	364.79245
683.16	355.84258
683.6	430.9222
684.039	351.69865
684.479	304.71836
684.919	291.64685
685.358	379.91439
685.798	320.8053
686.237	370.85257
686.676	345.7675
687.115	327.73802
687.554	297.68125
687.993	295.63175
688.432	301.66435
688.871	284.62408
689.309	300.69158
689.748	330.66373
690.186	329.75555
690.625	271.61689
691.063	278.64649
691.501	273.65522
691.939	238.57937
692.377	232.55355
692.815	222.52035
693.253	279.6515
693.69	239.5147
694.128	246.5811
694.565	261.60636
695.003	203.50642
695.44	233.53618
695.877	190.43802
696.314	213.4524
696.751	236.52842
697.188	236.53081
697.625	260.58335
698.061	199.47036
698.498	199.47509
698.934	197.46798
699.371	149.34905
699.807	225.52232
700.243	158.37758
700.679	192.43044
701.115	188.43842
701.551	197.45823
701.987	213.4725
702.422	171.40246
702.858	158.37411
703.294	158.35684
703.729	185.44741
704.164	128.30788
704.599	205.45078
705.035	185.40988
705.47	138.33432
705.904	113.26409
706.339	192.44228
706.774	177.41074
707.209	149.34234
707.643	175.41636
708.078	140.33967
708.512	96.24059
708.946	139.33262
709.38	146.3449
709.814	161.36651
710.248	160.38732
710.682	141.33431
711.116	75.1803
711.549	125.32164
711.983	130.30054
712.416	151.35581
712.85	139.34514
713.283	140.3306
713.716	149.37239
714.149	202.47514
714.582	140.31438
715.015	138.34447
715.448	146.36602
715.881	163.35586
716.313	96.22643
716.746	112.26438
717.178	100.24144
717.61	111.28163
718.043	105.26233
718.475	104.25299
718.907	120.30376
719.339	101.23029
719.77	61.14625
720.202	128.32274
720.634	67.16448
721.065	73.17482
721.497	89.21938
721.928	55.13652
722.359	60.14612
722.79	80.19294
723.221	151.37766
723.652	132.33947
724.083	72.1644
724.514	93.21539
724.945	85.20138
725.375	10.02372
725.806	128.31904
726.236	129.3295
726.666	121.28678
727.096	78.19287
727.526	69.17643
727.956	93.21291
728.386	104.25677
728.816	62.15812
729.246	80.19563
729.675	43.10716
730.105	67.16649
730.534	51.12111
730.964	104.26345
731.393	110.27388
731.822	114.29093
732.251	95.24172
732.68	118.27875
733.109	77.19106
733.537	51.12469
733.966	101.25134
734.395	64.14967
734.823	99.2251
735.251	29.07104
735.68	151.37589
736.108	84.21354
736.536	74.1763
736.964	49.11542
737.392	63.15905
737.82	65.15768
738.247	84.20266
738.675	100.24016
739.102	43.10868
739.53	52.1336
739.957	65.1683
740.384	103.25491
740.811	81.20639
741.238	53.13083
741.665	66.15471
742.092	99.23754
742.519	24.0603
742.945	61.14803
743.372	56.14004
743.798	66.1708
744.225	48.11567
744.651	79.1993
745.077	58.14598
745.503	82.20134
745.929	51.1239
746.355	114.28374
746.781	82.20432
747.207	-2.0048
747.632	10.02482
748.058	61.15356
748.483	61.14223
748.908	54.13553
749.334	72.17816
749.759	50.11944
750.184	53.1277
750.609	50.12431
751.033	86.20481
751.458	36.08233
751.883	78.19449
752.307	15.036
752.732	22.05573
753.156	11.02765
753.58	62.1489
754.005	66.16873
754.429	19.0455
754.853	71.177
755.277	34.08175
755.7	93.23134
756.124	35.08795
756.548	21.05066
756.971	93.22789
757.394	82.21192
757.818	71.18358
758.241	37.09494
758.664	43.10972
759.087	-33.07594
759.51	89.2222
759.933	11.02695
760.356	45.11648
760.778	57.14143
761.201	83.203
761.623	88.21455
762.046	97.23114
762.468	121.29043
762.89	81.20098
763.312	87.21334
763.734	28.06845
764.156	24.06015
764.578	84.19466
765	70.172
765.421	30.07705
765.843	94.24645
766.264	91.22075
766.686	63.15939
767.107	34.08351
767.528	15.0384
767.949	53.13586
768.37	37.09194
768.791	50.12232
769.212	10.02549
769.632	-4.00952
770.053	43.11413
770.473	57.13988
770.894	52.1314
771.314	76.1828
771.734	76.17828
772.154	58.14989
772.575	55.12895
772.994	20.04626
773.414	71.17172
773.834	78.19569
774.254	57.14066
774.673	50.123
775.093	15.03767
775.512	30.0748
775.931	67.17066
776.351	52.13013
776.77	33.08161
777.189	77.18405
777.607	54.13878
778.026	36.09061
778.445	-5.01272
778.864	88.22585
779.282	45.10937
779.701	42.10681
780.119	30.07659
780.537	32.08069
780.955	66.16867
781.373	50.12463
781.791	17.03886
782.209	83.19208
782.627	26.06914
783.045	31.07228
783.462	43.11069
783.88	27.07051
784.297	59.14917
784.715	24.06224
785.132	11.02703
785.549	41.1034
785.966	66.1666
786.383	12.02993
786.8	73.17034
787.217	51.12186
787.633	16.04042
788.05	76.18128
788.466	70.16594
788.883	13.03354
789.299	38.09241
789.715	68.16592
790.131	61.15235
790.547	79.19752
790.963	66.16439
791.379	46.11702
791.795	67.15376
792.21	50.11784
792.626	43.10294
793.041	60.14874
793.457	60.14896
793.872	59.13951
794.287	7.01695
794.702	66.16319
795.117	58.14467
795.532	28.0708
795.947	91.21892
796.362	86.20552
796.776	73.17168
797.191	45.11092
797.605	-26.06232
798.02	77.18756
798.434	66.14778
798.848	10.02494
799.262	24.06013
799.676	52.12763
800.09	64.15796
800.504	57.139
800.918	13.03055
801.331	53.1395
801.745	32.0743
802.158	59.14799
802.572	83.20134
802.985	81.1959
803.398	73.17442
803.811	95.24351
804.224	63.15729
804.637	23.0554
805.05	55.12824
805.462	95.23279
805.875	11.02881
806.288	-4.0098
806.7	7.01781
807.112	81.1879
807.525	48.11912
807.937	-7.01757
808.349	76.1904
808.761	81.19914
809.173	56.13628
809.584	52.12914
809.996	28.06916
810.408	33.08571
810.819	17.04046
811.231	8.02089
811.642	-46.1122
812.053	13.03129
812.464	34.0815
812.875	35.09003
813.286	26.06745
813.697	77.18024
814.108	32.07883
814.519	47.10552
814.929	60.15339
815.34	49.11945
815.75	31.07932
816.16	46.11524
816.571	89.23044
816.981	70.16556
817.391	53.12852
817.801	9.02261
818.211	90.21401
818.62	3.00732
819.03	50.12309
819.44	63.16476
819.849	50.12648
820.259	77.19689
820.668	13.03232
821.077	19.04763
821.486	96.2303
821.895	116.2844
822.304	56.14866
822.713	51.12111
823.122	43.10786
823.531	34.08122
823.939	37.09073
824.348	35.0857
824.756	60.15058
825.164	91.22818
825.573	50.12589
825.981	77.19078
826.389	61.15351
826.797	52.13065
827.205	12.02788
827.612	68.16789
828.02	-10.02385
828.428	78.19829
828.835	12.03187
829.243	10.02412
829.65	49.12225
830.057	45.10974
830.464	46.11257
830.871	80.19126
831.278	11.02688
831.685	66.14754
832.092	53.13016
832.499	82.17906
832.905	55.13955
833.312	9.02079
833.718	82.2038
834.124	41.09428
834.531	50.12643
834.937	61.15669
835.343	76.18315
835.749	106.24594
836.155	90.2346
836.561	47.11602
836.966	47.11538
837.372	74.18806
837.777	68.16931
838.183	54.12051
838.588	56.13928
838.993	58.14146
839.399	5.01236
839.804	21.05159
840.209	-2.00515
840.613	61.13594
841.018	47.11938
841.423	43.11069
841.828	51.12926
842.232	68.16839
842.637	84.19751
843.041	21.05421
843.445	33.08322
843.849	32.07968
844.253	94.22223
844.657	45.11365
845.061	60.13634
845.465	29.07051
845.869	63.14649
846.272	43.10509
846.676	81.19531
847.079	45.11474
847.483	81.20142
847.886	100.24172
848.289	26.06976
848.692	32.08147
849.095	94.22447
849.498	95.23941
849.901	73.16719
850.304	45.10793
850.707	79.2008
851.109	71.17938
851.512	87.21279
851.914	5.01272
852.316	32.08135
852.718	19.04938
853.121	48.1179
853.523	42.09856
853.925	29.07602
854.326	36.09038
854.728	41.10576
855.13	43.11119
855.531	39.09358
855.933	94.2243
856.334	42.10503
856.736	21.04744
857.137	54.12574
857.538	23.05819
857.939	70.17258
858.34	60.14623
858.741	33.08662
859.142	32.07729
859.542	16.0425
859.943	50.12445
860.343	30.07467
860.744	56.13674
861.144	44.10764
861.544	21.05083
861.945	46.11748
862.345	64.15639
862.745	41.10221
863.145	122.2882
863.544	55.13905
863.944	36.08544
864.344	64.15883
864.743	69.17089
865.143	70.1794
865.542	55.12768
865.941	62.15336
866.34	88.20966
866.74	30.08086
867.139	50.1199
867.537	51.13009
867.936	87.20827
868.335	66.16767
868.734	46.11777
869.132	38.08865
869.531	97.23292
869.929	34.07789
870.327	51.12242
870.726	76.18888
871.124	54.12633
871.522	64.16282
871.92	59.14548
872.318	59.1442
872.715	80.19723
873.113	65.15815
873.511	40.09996
873.908	9.02291
874.306	45.11215
874.703	81.20179
875.1	76.19375
875.497	45.10814
875.894	38.09341
876.291	56.13745
876.688	19.04932
877.085	69.16518
877.482	37.09294
877.878	47.11333
878.275	52.13219
878.671	86.19042
879.068	57.1376
879.464	42.10179
879.86	10.02386
880.256	52.12844
880.652	58.14745
881.048	78.19251
881.444	96.22678
881.84	38.09688
882.236	76.1904
882.631	61.14959
883.027	87.20946
883.422	21.05402
883.817	35.08827
884.213	48.12332
884.608	-20.04972
885.003	50.12068
885.398	20.05038
885.793	67.16782
886.188	76.1882
886.582	95.24198
886.977	72.17035
887.371	51.12908
887.766	43.10716
888.16	91.22563
888.554	120.29323
888.949	59.14805
889.343	96.23275
889.737	14.03755
890.131	53.13299
890.525	58.14823
890.918	50.12594
891.312	68.16232
891.706	41.10781
892.099	47.11976
892.492	63.13574
892.886	63.15392
893.279	35.08946
893.672	15.03845
894.065	48.12034
894.458	60.15075
894.851	55.13477
895.244	34.08714
895.637	42.10141
896.029	39.09564
896.422	54.13195
896.814	31.0774
897.206	4.00962
897.599	100.24526
897.991	25.06078
898.383	44.10419
898.775	61.13752
899.167	53.12363
899.559	91.22884
899.951	59.13897
900.342	87.21996
900.734	39.09702
901.125	112.29095
901.517	65.15922
901.908	40.09618
902.299	28.06878
902.69	50.11807
903.082	81.19516
903.473	4.00967
903.863	57.14534
904.254	42.09772
904.645	74.18338
905.036	-5.01224
905.426	90.20459
905.817	39.09596
906.207	24.05751
906.597	35.08215
906.987	40.10391
907.378	27.0686
907.768	46.12175
908.158	63.15334
908.547	36.09326
908.937	62.15884
909.327	62.15032
909.717	125.31332
910.106	67.16051
910.495	97.24024
910.885	66.16677
911.274	28.0703
911.663	72.18213
912.052	75.18432
912.441	22.05624
912.83	32.07377
913.219	59.15424
913.608	68.1661
913.997	41.10299
914.385	65.15495
914.774	51.12423
915.162	20.04796
915.55	71.1712
915.939	40.10118
916.327	71.17662
916.715	49.12494
917.103	96.23441
917.491	98.24045
917.878	75.18364
918.266	72.18607
918.654	56.14297
919.041	15.0394
919.429	49.11573
919.816	64.16189
920.203	47.1141
920.591	84.20709
920.978	27.06643
921.365	40.10516
921.752	18.0432
922.139	81.17482
922.525	50.12013
922.912	55.13407
923.299	51.12677
923.685	43.11234
924.072	76.17445
924.458	40.0993
924.844	58.14336
925.231	28.06548
925.617	30.07659
926.003	46.11769
926.389	14.03555
926.774	43.10914
927.16	69.17083
927.546	-3.00773
927.931	94.23277
928.317	61.14027
928.702	89.20907
929.088	-6.01435
929.473	58.1474
929.858	-8.01956
930.243	28.0675
930.628	15.03674
931.013	45.11166
931.398	92.2099
931.783	46.12122
932.167	51.12469
932.552	65.16246
932.937	53.13151
933.321	39.09807
933.705	54.13606
934.09	105.26281
934.474	93.21914
934.858	38.09878
935.242	32.07445
935.626	20.05147
936.009	14.03746
936.393	62.15745
936.777	66.16856
937.16	85.21986
937.544	63.14811
937.927	30.0764
938.311	75.18228
938.694	57.15059
939.077	45.10785
939.46	37.0911
939.843	67.13933
940.226	29.07467
940.609	1.00232
940.991	30.07664
941.374	53.12949
941.757	69.1697
942.139	0
942.522	58.13691
942.904	64.15347
943.286	103.25929
943.668	44.11411
944.05	51.12562
944.432	46.11362
944.814	65.15969
945.196	-20.04938
945.578	0
945.959	66.15422
946.341	124.30029
946.722	53.12435
947.104	71.16906
947.485	44.10253
947.866	40.10097
948.247	23.05832
948.628	58.14131
949.009	-5.01293
949.39	58.1442
949.771	81.1873
950.152	50.12272
950.532	20.04947
950.913	66.15875
951.293	24.06511
951.674	56.13531
952.054	39.09684
952.434	54.13396
952.814	57.13546
953.194	72.18775
953.574	82.20082
953.954	68.16095
954.334	68.16894
954.714	17.04169
955.093	47.11564
955.473	35.08776
955.853	36.09342
956.232	64.17503
956.611	67.16021
956.99	35.0882
957.37	50.12742
957.749	79.18746
958.128	39.09846
958.506	39.10137
958.885	23.05834
959.264	26.06401
959.643	94.21204
960.021	24.05976
960.4	63.14243
960.778	103.25126
961.156	54.13528
961.535	23.0539
961.913	37.08681
962.291	35.09003
962.669	12.0306
963.047	46.11748
963.424	41.1048
963.802	39.0961
964.18	96.24093
964.557	47.10834
964.935	50.11848
965.312	26.06798
965.69	72.17959
966.067	34.08305
966.444	73.17914
966.821	44.11355
967.198	67.16204
967.575	30.07404
967.952	91.21276
968.329	66.16013
968.705	54.11572
969.082	32.08233
969.458	13.03141
969.835	57.13858
970.211	47.12069
970.587	58.1442
970.963	59.15113
971.339	32.08381
971.715	48.1199
972.091	18.04459
972.467	19.04766
972.843	27.06729
973.219	86.20513
973.594	14.03684
973.97	38.09067
974.345	60.14333
974.721	79.19027
975.096	-14.03429
975.471	85.20029
975.846	71.1699
976.221	9.02302
976.596	25.06021
976.971	55.13567
977.346	47.1095
977.72	72.18271
978.095	41.10612
978.469	18.04323
978.844	99.24672
979.218	55.13172
979.593	64.15295
979.967	76.18426
980.341	57.13107
980.715	63.15837
981.089	41.10281
981.463	55.12617
981.837	28.0687
982.21	99.22819
982.584	60.14465
982.957	5.01259
983.331	66.15555
983.704	42.10336
984.078	41.10121
984.451	100.24753
984.824	42.10244
985.197	77.18609
985.57	68.16999
985.943	102.24952
986.316	47.11555
986.688	24.05817
987.061	40.09394
987.434	43.11218
987.806	56.13567
988.179	29.06871
988.551	83.20932
988.923	38.09379
989.295	62.1546
989.667	11.02647
990.039	42.10393
990.411	70.16048
990.783	85.19436
991.155	2.00485
991.527	107.26073
991.898	47.11717
992.27	44.10896
992.641	58.1453
993.012	75.17563
993.384	38.09085
993.755	75.19036
994.126	46.11073
994.497	20.04936
994.868	64.14661
995.239	41.09953
995.61	40.10082
995.98	21.05129
996.351	13.03241
996.722	8.01871
997.092	19.04526
997.462	15.03528
997.833	58.13728
998.203	61.14759
998.573	79.19566
998.943	63.14736
999.313	45.10793
999.683	61.14608
1000.053	21.0486
1000.423	51.1239
1000.792	62.16034
1001.162	61.14981
1001.531	57.14035
1001.901	34.08499
1002.27	64.14266
1002.639	50.12774
1003.009	37.0882
1003.378	24.06164
1003.747	107.24997
1004.116	19.04573
1004.485	26.06242
1004.853	85.21398
1005.222	11.02793
1005.591	60.14218
1005.959	70.15706
1006.328	16.03625
1006.696	22.05334
1007.064	69.17295
1007.433	79.19638
1007.801	97.23601
1008.169	40.10118
1008.537	39.08655
1008.905	34.07945
1009.273	86.21101
1009.64	27.06468
1010.008	50.11917
1010.375	84.20266
1010.743	90.20617
1011.11	53.12533
1011.478	40.09916
1011.845	71.16626
1012.212	8.01826
1012.579	52.12759
1012.946	96.22643
1013.313	69.1636
1013.68	54.12126
1014.047	22.0527
1014.414	33.07818
1014.78	43.10697
1015.147	53.12809
1015.513	68.16325
1015.88	91.23097
1016.246	103.25173
1016.612	112.25316
1016.978	54.1322
1017.344	63.15529
1017.71	79.19157
1018.076	57.13421
1018.442	89.22733
1018.808	13.0327
1019.174	48.12042
1019.539	118.26792
1019.905	-2.00476
1020.27	12.02981
1020.636	65.15537
1021.001	70.1669
1021.366	47.1129
1021.731	53.13619
1022.096	15.03806
1022.461	52.12299
1022.826	52.12351
1023.191	40.10509
1023.556	56.13106
1023.92	67.16418
1024.285	75.18214
1024.649	37.09087
1025.014	46.11399
1025.378	53.13314
1025.742	59.14623
1026.107	22.05003
1026.471	61.14206
1026.835	33.08203
1027.199	6.01456
1027.562	44.10237
1027.926	54.1319
1028.29	37.09381
1028.654	97.221
1029.017	78.19067
1029.381	31.0743
1029.744	48.12241
1030.107	78.18348
1030.471	94.22309
1030.834	59.13393
1031.197	43.10368
1031.56	54.12727
1031.923	29.07522
1032.286	102.23703
1032.648	64.1526
1033.011	34.07826
1033.374	63.14764
1033.736	20.05283
1034.099	73.17709
1034.461	44.11122
1034.823	26.065
1035.185	48.12081
1035.548	64.15528
1035.91	72.17167
1036.272	38.08666
1036.634	67.16332
1036.995	64.14996
1037.357	38.09261
1037.719	51.12395
1038.08	57.1351
1038.442	64.15142
1038.803	50.11999
1039.165	34.08601
1039.526	33.07996
1039.887	39.09347
1040.248	-25.06242
1040.609	70.17226
1040.97	45.11002
1041.331	36.09132
1041.692	32.07492
1042.053	72.16314
1042.413	64.14867
1042.774	69.16713
1043.134	54.12841
1043.495	28.07063
1043.855	42.10198
1044.215	52.12895
1044.576	-5.01207
1044.936	67.15302
1045.296	67.16661
1045.656	67.16381
1046.016	31.07506
1046.375	52.12602
1046.735	43.09757
1047.095	51.11929
1047.454	82.17246
1047.814	51.12251
1048.173	83.19695
1048.533	86.1955
1048.892	-9.02183
1049.251	53.1329
1049.61	25.0618
1049.969	68.15964
1050.328	5.01094
1050.687	2.00491
1051.046	68.16493
1051.405	69.17096
1051.763	18.04163
1052.122	-11.02772
1052.48	83.20217
1052.839	56.13152
1053.197	59.13854
1053.555	111.24982
1053.914	39.09553
1054.272	85.20402
1054.63	20.04914
1054.988	45.10694
1055.345	12.02604
1055.703	49.11788
1056.061	49.126
1056.419	29.0753
1056.776	85.20464
1057.134	36.08353
1057.491	36.09032
1057.848	57.14164
1058.206	52.12218
1058.563	17.03771
1058.92	83.18994
1059.277	40.0988
1059.634	82.19161
1059.991	113.26731
1060.348	28.06352
1060.704	30.07172
1061.061	122.27924
1061.418	33.08023
1061.774	51.1258
1062.131	35.09271
1062.487	58.13531
1062.843	63.1566
1063.199	48.11934
1063.555	50.11578
1063.911	68.17109
1064.267	33.06905
1064.623	29.07067
1064.979	92.21607
1065.335	119.28052
1065.691	48.11502
1066.046	38.08372
1066.402	11.02517
1066.757	14.03554
1067.112	59.14447
1067.468	10.02378
1067.823	66.15809
1068.178	75.18043
1068.533	74.17847
1068.888	70.16652
1069.243	16.03971
1069.598	61.14781
1069.952	-24.05482
1070.307	18.04478
1070.662	75.17707
1071.016	12.02708
1071.371	74.1674
1071.725	55.13136
1072.079	15.03629
1072.434	0
1072.788	47.11191
1073.142	102.24831
1073.496	71.16763
1073.85	51.11816
1074.203	59.1428
1074.557	54.1434
1074.911	114.26857
1075.265	61.14139
1075.618	65.15815
1075.971	51.1212
1076.325	36.09165
1076.678	53.12104
1077.031	36.08164
1077.385	54.11877
1077.738	81.18156
1078.091	9.02062
1078.444	72.16632
1078.796	10.0247
1079.149	55.13657
1079.502	37.08756
1079.855	34.07948
1080.207	77.18861
1080.56	19.04933
1080.912	21.05136
1081.264	33.07966
1081.617	49.11936
1081.969	46.11603
1082.321	42.10263
1082.673	-21.04858
1083.025	2.00479
1083.377	65.13896
1083.728	58.135
1084.08	40.09996
1084.432	65.1562
1084.783	79.18391
1085.135	46.11528
1085.486	60.13689
1085.838	53.13035
1086.189	41.09961
1086.54	51.12167
1086.891	32.08112
1087.242	57.13848
1087.593	69.16726
1087.944	31.07037
1088.295	79.17839
1088.646	63.1522
1088.996	3.00729
1089.347	11.02716
1089.698	40.09464
1090.048	80.20653
1090.398	66.15246
1090.749	26.06244
1091.099	24.06058
1091.449	36.08983
1091.799	43.10771
1092.149	13.03189
1092.499	47.11461
1092.849	46.1169
1093.199	60.14999
1093.548	12.02902
1093.898	49.12251
1094.248	41.10543
1094.597	0
1094.947	70.18595
1095.296	62.15263
1095.645	68.17616
1095.994	28.06748
1096.343	11.02785
1096.692	25.06589
1097.041	47.1272
1097.39	55.13771
1097.739	46.11954
1098.088	94.24979
1098.437	10.02642
1098.785	79.21178
1099.134	60.15891
1099.482	25.06897
1099.83	61.15985
1100.179	61.15865
1100.527	64.1695
1100.875	25.06631
1101.223	47.12475
1101.571	43.11885
1101.919	20.05247
1102.267	-6.01702
1102.615	-5.01609
1102.962	4.01289
1103.31	4.01285
1103.658	16.0515
