Data from N2 R13 sample 6_Subt2__3__12-19-52-259.txt Node

Date: Tue Sep 02 12:19:52 PDT 2025
User: uwsun
Spectrometer: HDX01956
Trigger mode: 0
Integration Time (sec): 5.000000E-1
Scans to average: 1
Nonlinearity correction enabled: true
Boxcar width: 0
Storing dark spectrum: false
XAxis mode: Wavelengths
Number of Pixels in Spectrum: 2068
>>>>>Begin Spectral Data<<<<<
194.03	71.1971
194.578	63.19768
195.127	68.21007
195.676	80.24752
196.225	133.34496
196.773	153.4092
197.321	147.38494
197.87	227.5382
198.418	224.52421
198.966	172.40915
199.513	119.2721
200.061	146.3378
200.609	211.51086
201.156	149.29506
201.704	176.40235
202.251	160.38747
202.798	167.39595
203.345	239.53326
203.892	200.45611
204.438	237.50952
204.985	176.3752
205.532	185.44235
206.078	175.39079
206.624	185.41073
207.17	277.57139
207.716	218.47483
208.262	224.39453
208.808	135.30184
209.354	204.4466
209.899	271.61589
210.445	224.49824
210.99	200.43322
211.535	239.5043
212.08	244.50818
212.625	233.52567
213.17	237.54146
213.715	113.22848
214.259	226.47384
214.804	231.51562
215.348	225.46308
215.892	189.41158
216.436	227.47499
216.98	265.52378
217.524	210.44769
218.068	211.48226
218.612	222.50689
219.155	170.36462
219.698	217.46733
220.242	223.50558
220.785	214.45304
221.328	224.5063
221.871	215.49773
222.414	216.49021
222.956	176.38563
223.499	173.35542
224.041	190.4054
224.583	239.46729
225.126	213.42475
225.668	183.40562
226.21	157.36231
226.751	140.2799
227.293	184.38425
227.835	184.40928
228.376	209.43965
228.918	257.58668
229.459	192.43415
230	202.43643
230.541	150.31783
231.082	163.36159
231.622	204.42715
232.163	169.37349
232.704	189.42589
233.244	186.42007
233.784	192.43044
234.324	137.27358
234.864	171.35306
235.404	196.42455
235.944	175.37931
236.484	203.46136
237.023	149.32185
237.563	201.41909
238.102	228.485
238.641	196.45059
239.18	119.25474
239.719	206.46884
240.258	222.44919
240.797	190.41103
241.335	205.45494
241.874	193.33237
242.412	160.34998
242.95	159.34434
243.488	202.41584
244.026	209.43229
244.564	226.41497
245.102	205.41298
245.64	230.49947
246.177	165.33577
246.715	260.55788
247.252	276.5628
247.789	229.38573
248.326	134.29224
248.863	182.35863
249.4	220.448
249.936	239.43519
250.473	210.43815
251.009	204.41769
251.546	186.36807
252.082	203.39822
252.618	211.41881
253.154	199.42838
253.69	200.40338
254.226	182.39103
254.761	209.4191
255.297	168.33042
255.832	171.36447
256.367	227.47625
256.903	189.37093
257.438	244.50954
257.972	211.41861
258.507	166.34035
259.042	204.39441
259.576	207.39283
260.111	237.48668
260.645	203.39182
261.179	191.39754
261.713	188.37272
262.247	185.3823
262.781	152.285
263.315	204.44471
263.849	211.46982
264.382	204.41844
264.915	208.43128
265.449	157.34059
265.982	264.52756
266.515	212.45901
267.048	199.37193
267.58	236.45585
268.113	183.35016
268.646	225.4908
269.178	128.25638
269.71	255.48699
270.243	187.38054
270.775	199.45062
271.307	204.43792
271.838	229.4832
272.37	191.41805
272.902	263.52275
273.433	191.36901
273.965	209.45029
274.496	235.51696
275.027	203.446
275.558	214.4576
276.089	136.29736
276.62	221.49901
277.15	226.49309
277.681	195.37439
278.211	251.54055
278.741	152.29599
279.272	201.40232
279.802	202.44651
280.332	199.41197
280.861	261.54637
281.391	201.39877
281.921	248.52249
282.45	238.52213
282.98	249.56888
283.509	216.42342
284.038	209.41581
284.567	285.57521
285.096	236.49699
285.625	203.40161
286.153	225.45724
286.682	251.49378
287.21	184.38783
287.739	215.44151
288.267	169.35864
288.795	261.59773
289.323	184.37332
289.851	236.4773
290.378	255.48959
290.906	210.43835
291.433	243.52309
291.961	231.44737
292.488	250.53573
293.015	205.41508
293.542	215.46939
294.069	238.50098
294.596	229.48978
295.122	207.42546
295.649	245.45972
296.175	232.48384
296.702	217.45386
297.228	230.48094
297.754	236.4495
298.28	210.40582
298.806	248.50502
299.332	236.43835
299.857	199.38207
300.383	260.56149
300.908	179.3699
301.433	262.53401
301.958	293.5669
302.483	215.45466
303.008	275.57287
303.533	310.67892
304.058	248.49351
304.582	239.47128
305.107	185.41107
305.631	279.52999
306.155	237.45899
306.679	218.42472
307.203	216.41842
307.727	246.48566
308.251	294.60032
308.775	217.42589
309.298	253.49701
309.822	295.61344
310.345	289.55916
310.868	246.48383
311.391	310.62351
311.914	259.53258
312.437	303.56015
312.96	217.41965
313.482	253.48763
314.005	259.53138
314.527	279.59671
315.049	278.57384
315.571	250.44125
316.093	355.69509
316.615	292.56023
317.137	321.54398
317.659	337.64923
318.18	316.6054
318.702	387.69079
319.223	359.55717
319.744	300.52094
320.265	267.50719
320.786	316.60394
321.307	325.62641
321.828	351.60129
322.348	344.61449
322.869	273.49282
323.389	153.18877
323.909	286.50085
324.43	396.7202
324.95	295.50669
325.47	347.63476
325.989	290.51053
326.509	296.47434
327.029	313.51175
327.548	306.49708
328.067	326.57031
328.587	374.67846
329.106	370.59466
329.625	440.84584
330.144	316.51912
330.662	340.55264
331.181	350.57531
331.7	395.63865
332.218	390.56768
332.736	315.5156
333.255	324.52011
333.773	366.5909
334.291	366.63659
334.808	359.5295
335.326	428.62729
335.844	406.60676
336.361	360.60628
336.879	344.52028
337.396	461.70093
337.913	399.57666
338.43	445.61127
338.947	413.61518
339.464	336.43826
339.981	362.53311
340.497	425.65387
341.014	448.66189
341.53	400.53176
342.046	384.57386
342.562	495.73744
343.078	401.55795
343.594	419.5894
344.11	472.64398
344.626	454.66871
345.141	503.62468
345.657	517.6412
346.172	434.59285
346.687	458.57052
347.202	499.58529
347.717	516.65925
348.232	508.69453
348.747	478.5733
349.261	417.45333
349.776	478.58332
350.29	431.55868
350.805	584.74323
351.319	570.65027
351.833	483.5269
352.347	480.55983
352.861	527.58723
353.374	578.63109
353.888	538.63371
354.401	511.55096
354.915	477.48019
355.428	545.64127
355.941	498.52692
356.454	606.59401
356.967	561.59929
357.48	564.57022
357.993	605.66976
358.505	444.50393
359.018	616.65381
359.53	575.58842
360.042	622.54382
360.554	564.58835
361.066	538.55886
361.578	662.52749
362.09	601.58079
362.602	585.47729
363.113	673.57688
363.625	601.49236
364.136	701.52223
364.647	476.40439
365.158	715.56865
365.669	741.61459
366.18	669.549
366.691	659.46524
367.201	631.52475
367.712	545.4126
368.222	633.45517
368.733	687.40021
369.243	700.41131
369.753	669.44995
370.263	726.49802
370.773	581.453
371.282	728.45174
371.792	629.32479
372.301	790.4325
372.811	749.51312
373.32	751.22691
373.829	708.3009
374.338	829.22765
374.847	784.22387
375.356	778.22261
375.865	839.04895
376.373	910.06992
376.882	950.20192
377.39	990.08867
377.898	804.04294
378.407	965.87474
378.915	1063.77329
379.423	1137.76615
379.93	1093.70184
380.438	1074.67723
380.946	1232.51859
381.453	1143.52217
381.96	1226.40915
382.468	1263.32613
382.975	1492.20283
383.482	1481.20006
383.989	1319.28369
384.495	1500.218
385.002	1513.35983
385.509	1493.36484
386.015	1694.73444
386.521	1792.7626
387.028	1851.07987
387.534	1786.34604
388.04	2056.48217
388.546	1949.18193
389.051	1989.03801
389.557	2242.33243
390.063	2698.98328
390.568	2486.28734
391.073	2441.68264
391.578	2588.82797
392.084	2340.46347
392.589	2306.53173
393.093	2505.36988
393.598	2843.07272
394.103	3150.43128
394.607	3555.841
395.112	4076.73026
395.616	3994.58241
396.12	3995.01811
396.624	4222.33707
397.128	4708.65674
397.632	5668.61565
398.136	5803.3018
398.639	4942.48463
399.143	5273.49939
399.646	6254.5151
400.15	6336.6936
400.653	6787.65312
401.156	7617.0947
401.659	3849.82416
402.162	600.43513
402.664	0
403.167	0
403.67	0
404.172	0
404.674	0
405.176	0
405.678	0
406.18	0
406.682	0
407.184	0
407.686	0
408.187	0
408.688	0
409.19	0
409.691	0
410.192	0
410.693	0
411.194	435.30976
411.694	4082.94878
412.195	8864.71461
412.696	12089.80453
413.196	12760.96929
413.696	12863.67595
414.196	13703.56671
414.696	17261.84252
415.196	21728.34873
415.696	22168.94038
416.196	16309.84277
416.695	11367.56015
417.195	9454.57544
417.694	9336.68087
418.194	8981.11772
418.693	8006.50652
419.192	8087.78343
419.691	7752.18672
420.19	7576.91662
420.688	7762.6446
421.187	7535.5955
421.685	7055.07059
422.184	6403.10003
422.682	5274.45324
423.18	4176.04887
423.678	3650.5767
424.176	3246.61395
424.674	3155.26279
425.172	3198.93993
425.669	2981.26208
426.167	2897.96249
426.664	2646.80319
427.161	2234.82952
427.659	2186.32427
428.156	1874.34303
428.652	1861.06393
429.149	1758.08693
429.646	1640.12963
430.143	1640.13952
430.639	1574.19804
431.135	1274.44738
431.632	1286.44332
432.128	1160.61084
432.624	1043.75754
433.12	941.70265
433.616	941.71949
434.111	856.82251
434.607	852.89104
435.103	916.84306
435.598	937.8574
436.093	879.05037
436.588	828.0776
437.083	745.13622
437.578	785.19183
438.073	572.23777
438.568	708.32878
439.062	574.18911
439.557	639.32814
440.051	489.25043
440.546	438.24185
441.04	476.30996
441.534	483.37933
442.028	572.39867
442.522	453.33726
443.015	552.32312
443.509	463.38446
444.002	381.33048
444.496	461.30924
444.989	438.38597
445.482	356.33802
445.975	431.32116
446.468	355.25596
446.961	397.28352
447.454	338.28607
447.947	292.2711
448.439	354.35273
448.931	342.29058
449.424	365.39797
449.916	353.36201
450.408	286.26055
450.9	218.23526
451.392	241.28056
451.884	315.31315
452.375	205.23739
452.867	251.25966
453.358	207.21113
453.849	268.24435
454.341	295.29673
454.832	233.22434
455.323	191.22982
455.814	244.2694
456.304	235.2636
456.795	240.26767
457.285	286.31163
457.776	270.31281
458.266	210.25627
458.756	226.28693
459.247	125.1594
459.737	80.10445
460.226	125.14963
460.716	88.11818
461.206	116.15807
461.695	157.22825
462.185	160.21389
462.674	232.2968
463.163	126.15928
463.653	147.17187
464.142	144.20422
464.63	111.16578
465.119	59.08248
465.608	89.12378
466.096	150.1944
466.585	200.27953
467.073	109.16556
467.561	137.20847
468.05	58.08718
468.538	83.13394
469.026	106.16491
469.513	112.14763
470.001	64.09457
470.489	96.14883
470.976	95.14516
471.463	112.18942
471.951	112.19272
472.438	47.07563
472.925	17.02745
473.412	45.07882
473.899	73.11707
474.385	111.19217
474.872	83.13531
475.359	46.08076
475.845	64.09226
476.331	110.16933
476.817	36.0649
477.303	28.04782
477.789	26.04666
478.275	5.00933
478.761	39.07065
479.247	100.16508
479.732	-5.00949
480.218	-8.01618
480.703	-40.07767
481.188	-3.0049
481.673	0
482.158	-30.04842
482.643	38.07622
483.128	-47.08397
483.612	-57.10616
484.097	-12.02355
484.581	12.02216
485.066	9.01737
485.55	-46.08029
486.034	-20.03432
486.518	-47.08876
487.002	-104.20879
487.486	-37.07351
487.969	-86.17313
488.453	-39.0815
488.936	-79.14692
489.42	-23.04169
489.903	-3.00627
490.386	-484.73923
490.869	-26.04694
491.352	9.01841
491.835	-26.04459
492.318	-66.12479
492.8	-6.01024
493.283	-99.21468
493.765	-122.25771
494.247	-69.13843
494.73	-49.09158
495.212	-36.07458
495.694	-124.2494
496.175	-111.22496
496.657	-66.13477
497.139	-21.031
497.62	-127.25986
498.102	-117.2523
498.583	-77.16775
499.064	-130.2517
499.545	-56.11004
500.026	-104.20252
500.507	-87.17583
500.988	-80.17366
501.469	-167.37031
501.949	-111.24244
502.43	-115.23861
502.91	-99.17807
503.39	-109.2421
503.87	-150.31199
504.35	-134.28244
504.83	-116.22363
505.31	-166.35911
505.79	-153.32554
506.269	-62.12735
506.749	-156.31738
507.228	-148.30921
507.707	-120.23579
508.187	-56.11814
508.666	-157.3448
509.145	-123.25521
509.623	-137.28756
510.102	-105.22671
510.581	-49.1048
511.059	-151.33929
511.538	-104.2413
512.016	-97.20684
512.494	-143.31379
512.972	-131.28115
513.45	-187.39008
513.928	-111.24049
514.406	-186.40324
514.884	-147.34126
515.361	-107.22955
515.839	-127.25997
516.316	-143.31088
516.793	-174.4029
517.27	-147.32487
517.747	-169.3945
518.224	-104.21699
518.701	-110.22084
519.178	-154.34539
519.654	-137.29745
520.131	-150.33766
520.607	-135.30545
521.083	-147.30569
521.56	-145.31201
522.036	-141.28275
522.512	-89.199
522.987	-141.30327
523.463	-159.34581
523.939	-111.24767
524.414	-79.16509
524.89	-132.28593
525.365	-120.24715
525.84	-212.46372
526.315	-126.27619
526.79	-86.17545
527.265	-114.23669
527.74	-120.26637
528.215	-103.22068
528.689	-127.25667
529.164	-118.2346
529.638	-127.29937
530.112	-159.34404
530.587	-121.23478
531.061	-175.38869
531.534	-109.2419
532.008	-152.33571
532.482	-82.17139
532.956	-150.3505
533.429	-110.24387
533.903	-62.12453
534.376	-99.19981
534.849	-105.22282
535.322	-103.2224
535.795	-85.1895
536.268	-132.29166
536.741	-82.17982
537.213	-82.17307
537.686	-83.18366
538.158	-144.29644
538.631	-61.13521
539.103	-126.25892
539.575	-45.0851
540.047	-72.14421
540.519	-22.04753
540.991	-63.14075
541.463	-69.1523
541.934	-62.12896
542.406	-56.12089
542.877	-57.11679
543.348	-45.09875
543.82	-17.0377
544.291	25.05229
544.762	-46.09849
545.233	-6.01348
545.703	-38.07562
546.174	23.04764
546.645	-11.02336
547.115	31.06619
547.585	105.21055
548.056	21.04457
548.526	88.17936
548.996	104.21767
549.466	150.31672
549.935	76.15568
550.405	151.28054
550.875	151.30462
551.344	164.33548
551.814	224.43121
552.283	290.51909
552.752	259.49631
553.221	324.56502
553.69	283.51349
554.159	288.57899
554.628	391.68963
555.096	400.81379
555.565	379.67441
556.033	458.85882
556.502	523.9984
556.97	455.80255
557.438	567.05198
557.906	655.1993
558.374	577.03706
558.842	625.16385
559.31	695.18392
559.777	737.3518
560.245	822.4442
560.712	889.50808
561.18	906.43591
561.647	977.5458
562.114	978.58157
562.581	1103.91674
563.048	1140.80656
563.514	1166.9729
563.981	1277.92896
564.448	1299.89501
564.914	1470.15207
565.381	1538.14108
565.847	1597.27308
566.313	1732.3442
566.779	1700.217
567.245	1793.39629
567.711	1871.524
568.176	1900.29095
568.642	1950.74286
569.108	2086.732
569.573	2233.62534
570.038	2236.16191
570.504	2288.39288
570.969	2449.95131
571.434	2503.31403
571.899	2552.69996
572.363	2686.49603
572.828	2892.51832
573.293	2837.51867
573.757	2901.51478
574.222	2950.34035
574.686	2952.35561
575.15	2946.66527
575.614	3104.45446
576.078	3197.54696
576.542	3234.39304
577.006	3077.37524
577.469	3130.90499
577.933	3128.30868
578.396	3141.65638
578.86	3217.58748
579.323	3041.66677
579.786	3037.18538
580.249	3012.43833
580.712	3043.83664
581.175	2928.88697
581.637	2870.56601
582.1	2845.33953
582.563	2834.24806
583.025	2681.80183
583.487	2727.97327
583.95	2557.23697
584.412	2582.17521
584.874	2504.80252
585.336	2391.67202
585.797	2376.28362
586.259	2315.66001
586.721	2170.57484
587.182	2207.61026
587.643	2089.43712
588.105	2095.59929
588.566	1979.1345
589.027	1912.56473
589.488	1959.40363
589.949	1945.6295
590.41	1883.83861
590.87	1859.37513
591.331	1786.15129
591.791	1723.31296
592.252	1623.21053
592.712	1668.42507
593.172	1596.15845
593.632	1638.12035
594.092	1620.15032
594.552	1568.0131
595.011	1520.15195
595.471	1530.09877
595.931	1483.05106
596.39	1508.27556
596.849	1494.18495
597.308	1513.00801
597.768	1488.45101
598.227	1515.31265
598.685	1536.1953
599.144	1463.17365
599.603	1496.2439
600.062	1550.92293
600.52	1521.0722
600.978	1539.28099
601.437	1652.25866
601.895	1656.01659
602.353	1679.17666
602.811	1691.17637
603.269	1720.44403
603.727	1709.43494
604.184	1755.24682
604.642	1792.57176
605.099	1793.3791
605.557	1894.6227
606.014	1876.15264
606.471	1919.7009
606.928	1981.15495
607.385	2008.62707
607.842	2150.46493
608.299	2216.57371
608.755	2202.69835
609.212	2245.36668
609.668	2200.32492
610.125	2287.75145
610.581	2426.75264
611.037	2448.58279
611.493	2382.71995
611.949	2335.76053
612.405	2455.02225
612.861	2542.74492
613.316	2408.75722
613.772	2380.59099
614.227	2463.71828
614.683	2474.3314
615.138	2410.67742
615.593	2386.64929
616.048	2476.62034
616.503	2475.96129
616.958	2365.00555
617.412	2407.75501
617.867	2337.43466
618.321	2380.21508
618.776	2354.47955
619.23	2258.70461
619.684	2356.58486
620.138	2282.6999
620.592	2191.85207
621.046	2162.71208
621.5	2051.79955
621.954	2053.51918
622.407	2078.48454
622.861	1989.78235
623.314	1940.51904
623.768	1864.55749
624.221	1835.99386
624.674	1748.45522
625.127	1759.52285
625.58	1851.51098
626.033	1754.34849
626.485	1603.48715
626.938	1611.49105
627.39	1537.3562
627.843	1488.30235
628.295	1487.30279
628.747	1480.38432
629.199	1504.2735
629.651	1367.14734
630.103	1414.21987
630.555	1361.96808
631.006	1331.21546
631.458	1287.18387
631.909	1314.15902
632.361	1259.13382
632.812	1262.10855
633.263	1230.91225
633.714	1191.86253
634.165	1197.1768
634.616	1099.00102
635.067	1114.87036
635.518	1137.06732
635.968	1092.6375
636.419	1099.81057
636.869	1023.9143
637.319	1080.92359
637.769	996.74347
638.219	1045.96419
638.669	962.83491
639.119	1025.98497
639.569	941.83249
640.019	964.78375
640.468	979.73292
640.918	958.86519
641.367	910.65017
641.816	930.6737
642.265	893.68623
642.714	853.62786
643.163	968.78493
643.612	862.70586
644.061	852.46736
644.51	905.67645
644.958	879.57405
645.406	860.70428
645.855	851.74174
646.303	872.68628
646.751	840.58173
647.199	894.66467
647.647	895.68754
648.095	861.63046
648.543	940.54127
648.99	838.67299
649.438	880.71557
649.885	893.83848
650.333	879.37502
650.78	873.75462
651.227	861.75032
651.674	811.55058
652.121	830.70217
652.568	830.69757
653.015	871.85412
653.461	854.69788
653.908	843.64528
654.354	851.70643
654.801	786.56398
655.247	842.54132
655.693	810.80944
656.139	868.74256
656.585	833.68797
657.031	799.5755
657.477	819.47841
657.922	839.62044
658.368	826.73507
658.813	905.75061
659.259	826.67948
659.704	823.62061
660.149	829.63168
660.594	814.64304
661.039	779.51445
661.484	886.77792
661.929	868.70574
662.373	793.72156
662.818	810.72233
663.262	783.61905
663.707	774.69986
664.151	869.79704
664.595	787.63168
665.039	836.77996
665.483	836.82456
665.927	899.77544
666.371	771.53089
666.814	830.69298
667.258	738.51467
667.701	848.54218
668.145	812.74378
668.588	846.77399
669.031	801.61271
669.474	796.65293
669.917	797.51127
670.36	847.79832
670.803	872.78918
671.245	828.47453
671.688	822.72666
672.13	788.51489
672.573	884.91879
673.015	842.7299
673.457	825.5257
673.899	874.80295
674.341	846.74749
674.783	819.68751
675.225	800.704
675.666	786.63432
676.108	795.48037
676.549	889.78517
676.991	807.52357
677.432	816.37085
677.873	818.62622
678.314	788.63266
678.755	834.74574
679.196	764.51944
679.637	858.79917
680.078	846.696
680.518	810.63122
680.959	844.73479
681.399	824.76729
681.839	841.76156
682.28	805.72318
682.72	793.56731
683.16	863.84423
683.6	844.64684
684.039	789.40963
684.479	769.65032
684.919	732.47599
685.358	848.86088
685.798	843.91753
686.237	805.6913
686.676	890.75396
687.115	797.62376
687.554	759.57707
687.993	805.53241
688.432	825.61923
688.871	859.65754
689.309	726.52886
689.748	851.50582
690.186	865.77042
690.625	826.66653
691.063	827.71164
691.501	875.85539
691.939	827.78704
692.377	822.73575
692.815	825.70217
693.253	896.83516
693.69	870.61829
694.128	817.71276
694.565	856.75159
695.003	874.90912
695.44	820.66273
695.877	822.65314
696.314	890.61055
696.751	850.66013
697.188	891.73252
697.625	936.80592
698.061	830.71824
698.498	870.80592
698.934	929.89126
699.371	878.75942
699.807	834.69961
700.243	871.79315
700.679	892.7094
701.115	911.81848
701.551	941.86369
701.987	931.75469
702.422	881.7829
702.858	918.84981
703.294	918.74916
703.729	932.93127
704.164	945.91515
704.599	897.68389
705.035	889.67867
705.47	915.88718
705.904	887.75417
706.339	896.77075
706.774	955.87122
707.209	865.69944
707.643	893.82696
708.078	868.81296
708.512	805.75355
708.946	882.80647
709.38	887.79015
709.814	870.69364
710.248	874.82631
710.682	835.7105
711.116	864.76081
711.549	878.95492
711.983	831.65018
712.416	855.73496
712.85	881.88514
713.283	823.6821
713.716	884.90904
714.149	790.64191
714.582	829.59575
715.015	846.83473
715.448	816.79289
715.881	788.49091
716.313	759.55607
716.746	706.47107
717.178	735.55765
717.61	777.7325
718.043	735.62193
718.475	785.66154
718.907	755.68966
719.339	697.39535
719.77	689.45054
720.202	678.53683
720.634	679.4739
721.065	647.37635
721.497	659.44985
721.928	633.40133
722.359	631.36902
722.79	583.26905
723.221	615.40547
723.652	638.49162
724.083	610.23925
724.514	586.22181
724.945	610.29557
725.375	626.30476
725.806	584.33161
726.236	571.34137
726.666	600.28758
727.096	576.29062
727.526	526.23338
727.956	469.99216
728.386	509.16016
728.816	489.14985
729.246	465.05289
729.675	461.05861
730.105	494.12886
730.534	492.06638
730.964	486.14433
731.393	526.2074
731.822	450.07747
732.251	474.12209
732.68	472.036
733.109	441.01866
733.537	469.05464
733.966	411.96454
734.395	405.88338
734.823	449.9482
735.251	390.89076
735.68	487.13535
736.108	408.97708
736.536	422.93779
736.964	364.80456
737.392	359.85797
737.82	394.89627
738.247	399.90489
738.675	377.85743
739.102	337.80664
739.53	307.75329
739.957	330.81495
740.384	393.92051
740.811	306.74848
741.238	339.79251
741.665	269.6054
742.092	342.78241
742.519	281.67314
742.945	313.72341
743.372	305.72811
743.798	329.81233
744.225	278.64062
744.651	279.67852
745.077	284.68563
745.503	278.6577
745.929	248.58015
746.355	350.83343
746.781	256.61758
747.207	199.45905
747.632	212.50661
748.058	249.60557
748.483	255.57178
748.908	251.60747
749.334	243.58235
749.759	241.55459
750.184	247.57316
750.609	253.60561
751.033	230.53256
751.458	262.57187
751.883	260.62676
752.307	142.33259
752.732	173.42642
753.156	225.54373
753.58	206.48115
754.005	233.57809
754.429	191.44235
754.853	190.4634
755.277	214.49689
755.7	183.44774
756.124	126.31143
756.548	127.30019
756.971	163.39421
757.394	185.46953
757.818	187.47377
758.241	171.42845
758.664	136.34132
759.087	139.30886
759.51	173.42532
759.933	155.36963
760.356	162.4108
760.778	164.39894
761.201	222.52888
761.623	190.45439
762.046	177.41529
762.468	201.47509
762.89	170.41493
763.312	131.31861
763.734	134.32108
764.156	150.36735
764.578	128.29404
765	163.39362
765.421	95.24121
765.843	152.39458
766.264	152.36449
766.686	131.32741
767.107	103.24976
767.528	98.24719
767.949	123.31141
768.37	143.34845
768.791	123.2968
769.212	102.25581
769.632	104.24244
770.053	90.23701
770.473	153.36877
770.894	151.37479
771.314	169.3993
771.734	90.21055
772.154	106.27166
772.575	129.29805
772.994	78.17832
773.414	142.33883
773.834	71.17835
774.254	76.18689
774.673	130.31506
775.093	87.21563
775.512	72.17816
775.931	129.32497
776.351	129.31832
776.77	62.15252
777.189	115.27288
777.607	87.2223
778.026	124.30716
778.445	44.11098
778.864	104.26616
779.282	98.23581
779.701	106.26651
780.119	86.21739
780.537	51.12816
780.955	109.27646
781.373	88.21783
781.791	51.11577
782.209	133.30473
782.627	53.1403
783.045	95.21871
783.462	75.19198
783.88	47.12233
784.297	93.2337
784.715	57.14698
785.132	84.20365
785.549	68.17066
785.966	75.18901
786.383	89.21889
786.8	88.20474
787.217	50.11949
787.633	19.04797
788.05	172.40269
788.466	77.18229
788.883	71.18136
789.299	35.08516
789.715	86.20913
790.131	73.18192
790.547	88.21966
790.963	114.28146
791.379	53.13466
791.795	85.19436
792.21	82.19206
792.626	113.26689
793.041	98.24125
793.457	82.20276
793.872	51.12078
794.287	52.12484
794.702	103.25295
795.117	77.1914
795.532	61.15334
795.947	94.22601
796.362	107.25468
796.776	142.32946
797.191	54.13289
797.605	22.05225
798.02	42.10297
798.434	62.13894
798.848	64.15807
799.262	51.12714
799.676	105.25519
800.09	69.17014
800.504	55.13417
800.918	61.14201
801.331	86.22509
801.745	56.12941
802.158	39.09818
802.572	84.20373
802.985	108.25987
803.398	83.19793
803.811	98.25107
804.224	90.2236
804.637	56.13403
805.05	60.13976
805.462	72.17718
805.875	25.06531
806.288	-4.0098
806.7	94.23549
807.112	85.19702
807.525	104.25545
807.937	26.06485
808.349	98.24454
808.761	81.19914
809.173	97.23424
809.584	85.20983
809.996	25.06178
810.408	43.11149
810.819	75.17652
811.231	61.15784
811.642	51.12214
812.053	113.26679
812.464	110.25986
812.875	79.20165
813.286	60.15474
813.697	137.31691
814.108	93.22653
814.519	104.23076
814.929	93.23638
815.34	59.14355
815.75	53.13509
816.16	86.21389
816.571	87.22534
816.981	67.15855
817.391	79.19063
817.801	36.08999
818.211	55.13166
818.62	80.19235
819.03	88.21511
819.44	91.23684
819.849	95.23838
820.259	68.17415
820.668	29.07188
821.077	38.09492
821.486	75.18064
821.895	106.26037
822.304	80.21152
822.713	80.18891
823.122	74.18458
823.531	64.15201
823.939	92.2233
824.348	56.13659
824.756	62.15555
825.164	70.17619
825.573	62.15577
825.981	109.26848
826.389	98.24498
826.797	85.21229
827.205	44.10156
827.612	80.19708
828.02	14.03324
828.428	33.08456
828.835	66.17369
829.243	106.25099
829.65	65.16169
830.057	85.20573
830.464	101.24464
830.871	103.24516
831.278	63.15248
831.685	78.17393
832.092	90.21951
832.499	66.14461
832.905	96.2418
833.312	109.24683
833.718	76.18909
834.124	50.11477
834.531	98.24569
834.937	54.13888
835.343	88.21159
835.749	110.25501
836.155	54.14163
836.561	53.13069
836.966	98.23831
837.372	101.25544
837.777	91.22563
838.183	79.1754
838.588	60.14912
838.993	77.18714
839.399	68.16616
839.804	2.00493
840.209	38.09715
840.613	63.14034
841.018	44.11182
841.423	78.19955
841.828	54.13679
842.232	91.22439
842.637	105.24588
843.041	41.10546
843.445	69.17289
843.849	71.17552
844.253	92.21759
844.657	12.03048
845.061	72.16321
845.465	66.15935
845.869	67.15567
846.272	15.03685
846.676	96.23082
847.079	82.20772
847.483	90.22343
847.886	85.20604
848.289	63.168
848.692	66.16701
849.095	53.12755
849.498	140.34996
849.901	43.09908
850.304	106.25128
850.707	54.13786
851.109	105.26366
851.512	41.10114
851.914	34.08607
852.316	55.13925
852.718	30.07783
853.121	81.19774
853.523	34.07992
853.925	66.17192
854.326	19.04785
854.728	58.14917
855.13	14.03638
855.531	45.10785
855.933	83.19847
856.334	23.05771
856.736	53.11894
857.137	63.14643
857.538	28.07078
857.939	53.13107
858.34	72.17509
858.741	97.25185
859.142	71.17023
859.542	-9.02401
859.943	76.18826
860.343	29.07219
860.744	86.20882
861.144	112.27052
861.544	21.05083
861.945	63.16041
862.345	75.18289
862.745	62.15398
863.145	104.24654
863.544	42.10643
863.944	87.20445
864.344	88.21743
864.743	89.21962
865.143	92.23487
865.542	30.06999
865.941	58.14357
866.34	91.21668
866.74	63.16889
867.139	89.21184
867.537	71.18046
867.936	54.13008
868.335	68.17269
868.734	65.16586
869.132	80.1851
869.531	97.23292
869.929	83.18826
870.327	93.22144
870.726	110.27169
871.124	73.17014
871.522	84.21294
871.92	70.17226
872.318	80.19476
872.715	113.27689
873.113	37.0905
873.511	47.1173
873.908	35.08868
874.306	93.22974
874.703	68.1698
875.1	73.1862
875.497	70.16741
875.894	72.17587
876.291	55.13502
876.688	61.15718
877.085	85.20286
877.482	49.12282
877.878	67.16094
878.275	33.08417
878.671	123.27024
879.068	57.1376
879.464	85.20433
879.86	40.0949
880.256	56.13821
880.652	9.02308
881.048	105.25786
881.444	64.15213
881.84	31.07913
882.236	72.18051
882.631	65.15928
883.027	99.23781
883.422	32.08216
883.817	32.08075
884.213	55.14113
884.608	45.11055
885.003	33.0799
885.398	50.12526
885.793	47.11815
886.188	33.08236
886.582	35.09009
886.977	93.21914
887.371	74.18652
887.766	30.07494
888.16	58.14467
888.554	77.18966
888.949	85.21229
889.343	98.23751
889.737	23.0616
890.131	29.07308
890.525	24.0617
890.918	39.09843
891.312	108.25582
891.706	73.19091
892.099	94.23753
892.492	82.17595
892.886	50.12245
893.279	59.15018
893.672	72.18271
894.065	66.16493
894.458	91.22736
894.851	99.24061
895.244	55.14044
895.637	81.19413
896.029	88.21383
896.422	55.13437
896.814	47.117
897.206	4.00962
897.599	148.35976
897.991	36.08735
898.383	33.07831
898.775	65.14641
899.167	9.02117
899.559	91.22884
899.951	100.23367
900.342	53.13481
900.734	8.02001
901.125	66.17281
901.517	53.13011
901.908	65.15554
902.299	29.07122
902.69	43.10168
903.082	95.22829
903.473	76.18121
903.863	53.13524
904.254	56.12993
904.645	68.16869
905.036	37.08986
905.426	133.2997
905.817	69.16883
906.207	20.04796
906.597	52.12165
906.987	50.12967
907.378	55.13905
907.768	39.10334
908.158	53.12924
908.547	68.17519
908.937	50.12837
909.327	81.19568
909.717	112.28139
910.106	42.1011
910.495	84.20854
910.885	83.20909
911.274	84.20877
911.663	105.26404
912.052	103.25183
912.441	42.107
912.83	63.14435
913.219	74.19296
913.608	62.15161
913.997	28.0705
914.385	114.2692
914.774	66.16032
915.162	48.11449
915.55	64.15452
915.939	32.08106
916.327	71.17662
916.715	47.11988
917.103	142.34375
917.491	77.18966
917.878	94.22935
918.266	63.16307
918.654	67.17072
919.041	46.1202
919.429	26.06168
919.816	73.18436
920.203	42.10206
920.591	52.12895
920.978	68.16604
921.365	42.11038
921.752	71.16867
922.139	94.20231
922.525	36.08672
922.912	75.18214
923.299	48.11938
923.685	61.15887
924.072	63.14498
924.458	57.14107
924.844	10.02493
925.231	58.13484
925.617	-1.00257
926.003	81.20595
926.389	53.13366
926.774	55.1393
927.16	97.23892
927.546	69.17557
927.931	86.21327
928.317	21.04868
928.702	101.2367
929.088	42.09953
929.473	68.1725
929.858	10.02436
930.243	22.0531
930.628	71.1721
931.013	41.10181
931.398	62.14231
931.783	64.16814
932.167	88.21367
932.552	63.15752
932.937	74.18291
933.321	40.10057
933.705	42.10605
934.09	100.25052
934.474	67.15868
934.858	82.21155
935.242	51.11821
935.626	16.04121
936.009	30.08007
936.393	30.07662
936.777	65.16603
937.16	88.2275
937.544	58.13649
937.927	38.09664
938.311	97.23477
938.694	85.2235
939.077	33.07927
939.46	113.27432
939.843	74.15364
940.226	103.2618
940.609	13.03007
940.991	34.0868
941.374	53.12949
941.757	93.22772
942.139	36.08111
942.522	88.20652
942.904	64.15347
943.286	64.16224
943.668	101.25934
944.05	85.20805
944.432	39.09645
944.814	70.17181
945.196	-11.02711
945.578	55.13061
945.959	82.19101
946.341	117.28371
946.722	68.15908
947.104	42.10056
947.485	86.19874
947.866	47.11849
948.247	26.06589
948.628	106.25593
949.009	62.15845
949.39	91.22488
949.771	109.25064
950.152	26.0641
950.532	-37.09248
950.913	68.1635
951.293	13.03533
951.674	69.16631
952.054	16.0399
952.434	63.15603
952.814	46.10955
953.194	94.24419
953.574	93.22729
953.954	46.10934
954.334	43.10732
954.714	17.04169
955.093	49.12051
955.473	27.0678
955.853	65.16784
956.232	67.18314
956.611	84.2002
956.99	50.12567
957.37	64.1627
957.749	33.079
958.128	56.14095
958.506	40.10395
958.885	76.19095
959.264	33.08113
959.643	65.14749
960.021	51.12636
960.4	42.09536
960.778	124.30131
961.156	49.12287
961.535	42.09806
961.913	71.16548
962.291	27.06955
962.669	39.09899
963.047	82.20809
963.424	49.12507
963.802	39.0961
964.18	90.22612
964.557	104.23699
964.935	108.25305
965.312	59.1534
965.69	116.28703
966.067	78.18897
966.444	82.20089
966.821	110.28063
967.198	99.23799
967.575	115.27939
967.952	122.2835
968.329	92.22213
968.705	78.16629
969.082	63.16121
969.458	51.12232
969.835	38.09272
970.211	62.15879
970.587	73.181
970.963	58.14859
971.339	51.13315
971.715	40.10006
972.091	105.25595
972.467	98.24232
972.843	71.17552
973.219	108.25652
973.594	51.13337
973.97	85.20099
974.345	57.13624
974.721	91.21868
975.096	59.14253
975.471	85.20029
975.846	87.20755
976.221	50.12697
976.596	54.12934
976.971	100.24463
977.346	96.2215
977.72	78.19773
978.095	50.12922
978.469	119.2803
978.844	108.26871
979.218	48.1151
979.593	94.22335
979.967	53.12905
980.341	45.10373
980.715	108.26929
981.089	53.13261
981.463	72.1646
981.837	51.1246
982.21	112.25749
982.584	67.16131
982.957	25.06271
983.331	76.17877
983.704	53.13016
984.078	86.21054
984.451	97.24024
984.824	41.10002
985.197	61.14786
985.57	73.18232
985.943	106.25911
986.316	124.30052
986.688	115.27393
987.061	89.20702
987.434	51.13287
987.806	67.16198
988.179	54.12732
988.551	93.23412
988.923	62.15235
989.295	86.2135
989.667	10.02407
990.039	41.10147
990.411	77.17628
990.783	83.18986
991.155	23.05554
991.527	89.2176
991.898	90.22262
992.27	58.14326
992.641	76.18978
993.012	128.29662
993.384	70.16633
993.755	32.08184
994.126	59.14167
994.497	79.19286
994.868	82.18716
995.239	50.12118
995.61	73.18291
995.98	41.09976
996.351	54.13362
996.722	43.09987
997.092	30.07131
997.462	60.13987
997.833	92.21632
998.203	72.17384
998.573	67.1663
998.943	45.10563
999.313	50.11981
999.683	52.12474
1000.053	99.22555
1000.423	72.17423
1000.792	69.17823
1001.162	62.15223
1001.531	71.17436
1001.901	69.17139
1002.27	45.1007
1002.639	40.10237
1003.009	60.1424
1003.378	54.13796
1003.747	63.14845
1004.116	43.10302
1004.485	59.14076
1004.853	109.27321
1005.222	64.16097
1005.591	97.22821
1005.959	34.07685
1006.328	26.05879
1006.696	62.14919
1007.064	64.16057
1007.433	78.19393
1007.801	102.24794
1008.169	62.15622
1008.537	65.14347
1008.905	50.11647
1009.273	84.20618
1009.64	1.00241
1010.008	43.10262
1010.375	114.27347
1010.743	98.22413
1011.11	45.10657
1011.478	116.28356
1011.845	90.20997
1012.212	81.18215
1012.579	61.14942
1012.946	58.13781
1013.313	107.25184
1013.68	93.20717
1014.047	28.06699
1014.414	7.01667
1014.78	66.16349
1015.147	107.25595
1015.513	26.06292
1015.88	90.22847
1016.246	98.23974
1016.612	66.15058
1016.978	73.17808
1017.344	50.12354
1017.71	88.21303
1018.076	73.17135
1018.442	82.20971
1018.808	71.17675
1019.174	47.11794
1019.539	135.30545
1019.905	27.06394
1020.27	22.05456
1020.636	75.17893
1021.001	113.2672
1021.366	44.10575
1021.731	52.13364
1022.096	36.091
1022.461	66.15567
1022.826	61.14463
1023.191	83.21647
1023.556	77.17947
1023.92	80.19556
1024.285	47.11474
1024.649	64.15639
1025.014	70.1727
1025.378	71.17777
1025.742	34.08466
1026.107	92.20625
1026.471	107.24693
1026.835	74.18257
1027.199	34.08206
1027.562	67.15517
1027.926	111.26825
1028.29	97.24331
1028.654	76.17389
1029.017	84.20511
1029.381	2.00482
1029.744	83.21037
1030.107	120.27996
1030.471	32.07685
1030.834	81.18305
1031.197	85.20333
1031.56	88.20603
1031.923	61.15735
1032.286	77.17982
1032.648	61.14553
1033.011	53.12153
1033.374	82.19146
1033.736	41.10792
1034.099	55.13387
1034.461	45.11373
1034.823	48.11951
1035.185	109.27134
1035.548	73.17682
1035.91	44.10547
1036.272	64.14519
1036.634	90.21845
1036.995	57.13374
1037.357	38.09261
1037.719	38.09258
1038.08	61.14447
1038.442	65.15376
1038.803	93.22136
1039.165	38.09606
1039.526	74.17793
1039.887	45.10773
1040.248	38.09379
1040.609	77.18924
1040.97	34.0833
1041.331	84.21127
1041.692	49.11434
1042.053	62.14077
1042.413	77.1784
1042.774	53.12876
1043.134	88.20789
1043.495	107.26607
1043.855	96.23073
1044.215	96.23615
1044.576	14.03369
1044.936	121.27333
1045.296	90.22286
1045.656	80.19512
1046.016	63.15162
1046.375	23.05605
1046.735	-4.00916
1047.095	59.13778
1047.454	71.14969
1047.814	78.1864
1048.173	88.20861
1048.533	63.14388
1048.892	19.04585
1049.251	74.18485
1049.61	79.19337
1049.969	73.17121
1050.328	63.13615
1050.687	53.12881
1051.046	76.18405
1051.405	78.19294
1051.763	46.1058
1052.122	19.04763
1052.48	65.15886
1052.839	46.10825
1053.197	43.10129
1053.555	125.28052
1053.914	58.14157
1054.272	86.20639
1054.63	66.1608
1054.988	8.01915
1055.345	55.11825
1055.703	98.23357
1056.061	57.14636
1056.419	75.19319
1056.776	70.16901
1057.134	68.15677
1057.491	73.18192
1057.848	45.11206
1058.206	33.07782
1058.563	39.08612
1058.92	95.21688
1059.277	70.17194
1059.634	75.17549
1059.991	49.11735
1060.348	39.08828
1060.704	23.05506
1061.061	144.32814
1061.418	77.18567
1061.774	64.15749
1062.131	28.07426
1062.487	33.07737
1062.843	74.18358
1063.199	59.14639
1063.555	34.07898
1063.911	56.1412
1064.267	89.18392
1064.623	3.00735
1064.979	82.19296
1065.335	90.21335
1065.691	83.19756
1066.046	56.12291
1066.402	35.07971
1066.757	88.22046
1067.112	81.19752
1067.468	38.08987
1067.823	77.18405
1068.178	43.10408
1068.533	82.19746
1068.888	110.25965
1069.243	78.19138
1069.598	80.19315
1069.952	15.034
1070.307	30.07448
1070.662	55.13036
1071.016	40.08975
1071.371	70.15848
1071.725	103.24374
1072.079	122.28921
1072.434	52.12621
1072.788	51.12134
1073.142	97.23636
1073.496	37.08793
1073.85	24.0559
1074.203	45.1092
1074.557	32.08529
1074.911	115.27088
1075.265	55.12763
1075.618	105.25356
1075.971	64.15172
1076.325	60.1521
1076.678	46.10521
1077.031	41.09288
1077.385	66.1448
1077.738	29.0657
1078.091	14.03204
1078.444	62.14351
1078.796	52.12744
1079.149	85.2099
1079.502	31.07345
1079.855	27.0632
1080.207	97.23672
1080.56	72.18524
1080.912	66.16007
1081.264	35.08446
1081.617	35.08548
1081.969	16.04057
1082.321	76.18454
1082.673	24.05502
1083.025	125.29202
1083.377	47.10087
1083.728	69.16025
1084.08	67.16661
1084.432	41.09897
1084.783	41.09616
1085.135	81.20171
1085.486	44.10071
1085.838	49.1206
1086.189	40.0972
1086.54	84.19913
1086.891	45.11381
1087.242	58.14088
1087.593	69.16726
1087.944	50.11306
1088.295	90.20277
1088.646	43.10427
1088.996	11.02667
1089.347	38.09337
1089.698	32.07583
1090.048	76.19634
1090.398	75.17294
1090.749	43.10294
1091.099	37.09318
1091.449	59.14661
1091.799	73.18186
1092.149	3.00737
1092.499	25.06121
1092.849	45.11438
1093.199	80.19926
1093.548	47.1129
1093.898	55.13736
1094.248	73.18666
1094.597	-4.0103
1094.947	63.16755
1095.296	66.16236
1095.645	66.17104
1095.994	72.17206
1096.343	73.18278
1096.692	3.00794
1097.041	33.08951
1097.39	73.18219
1097.739	22.05741
1098.088	66.1762
1098.437	32.08424
1098.785	74.19854
1099.134	69.18247
1099.482	50.13739
1099.83	84.21926
1100.179	4.01051
1100.527	58.15377
1100.875	44.11634
1101.223	63.16677
1101.571	48.13257
1101.919	9.02366
1102.267	41.11548
1102.615	-2.00643
1102.962	17.05469
1103.31	4.01285
1103.658	19.06114
