Data from N2 R13 sample 4_Subt2__3__12-17-32-761.txt Node

Date: Tue Sep 02 12:17:32 PDT 2025
User: uwsun
Spectrometer: HDX01956
Trigger mode: 0
Integration Time (sec): 5.000000E-1
Scans to average: 1
Nonlinearity correction enabled: true
Boxcar width: 0
Storing dark spectrum: false
XAxis mode: Wavelengths
Number of Pixels in Spectrum: 2068
>>>>>Begin Spectral Data<<<<<
194.03	23.06433
194.578	17.05365
195.127	36.11167
195.676	29.09031
196.225	78.20423
196.773	61.16562
197.321	70.1857
197.87	112.27143
198.418	111.26552
198.966	60.1458
199.513	22.05129
200.061	63.14816
200.609	127.31235
201.156	98.19638
201.704	37.08695
202.251	37.09167
202.798	41.09957
203.345	94.21602
203.892	60.1407
204.438	117.25803
204.985	73.15911
205.532	114.27628
206.078	99.22455
206.624	53.1209
207.17	108.23124
207.716	44.09937
208.262	135.24332
208.808	60.13623
209.354	58.13089
209.899	151.35152
210.445	43.09923
210.99	36.08071
211.535	118.2556
212.08	100.21495
212.625	111.25667
213.17	108.25315
213.715	4.00829
214.259	99.21339
214.804	122.27846
215.348	72.15329
215.892	62.13866
216.436	134.28617
216.98	145.29467
217.524	38.08403
218.068	105.24511
218.612	143.33171
219.155	52.11437
219.698	85.18825
220.242	128.2958
220.785	76.16575
221.328	81.18842
221.871	110.25996
222.414	143.32935
222.956	60.13468
223.499	79.16575
224.041	111.2409
224.583	136.2724
225.126	111.2266
225.668	78.17667
226.21	72.16897
226.751	41.08385
227.293	98.20856
227.835	94.21299
228.376	89.19217
228.918	80.18913
229.459	31.07239
230	72.15989
230.541	104.22258
231.082	59.13371
231.622	74.1594
232.163	61.13785
232.704	95.21819
233.244	48.11146
233.784	134.30399
234.324	38.07763
234.864	79.16648
235.404	150.32811
235.944	129.28235
236.484	103.23883
237.023	117.25446
237.563	62.13327
238.102	103.22506
238.641	129.30054
239.18	78.16845
239.719	94.21878
240.258	135.2786
240.797	105.23128
241.335	108.24451
241.874	87.15407
242.412	103.22802
242.95	30.06676
243.488	100.21059
244.026	83.17652
244.564	86.16348
245.102	100.20633
245.64	122.27103
246.177	90.18628
246.715	138.3039
247.252	107.22657
247.789	75.13164
248.326	34.07572
248.863	67.1356
249.4	100.2092
249.936	104.19587
250.473	72.15483
251.009	86.18079
251.546	107.21566
252.082	130.25942
252.618	109.22151
253.154	81.17879
253.69	87.18003
254.226	78.17134
254.761	96.19754
255.297	100.19983
255.832	66.14388
256.367	168.35706
256.903	130.2587
257.438	104.22393
257.972	95.19359
258.507	107.22231
259.042	106.20976
259.576	69.13536
260.111	136.28565
260.645	75.14921
261.179	96.20404
261.713	55.11243
262.247	57.12117
262.781	78.14892
263.315	60.13479
263.849	73.16719
264.382	129.26909
264.915	55.11794
265.449	60.13285
265.982	107.22161
266.515	86.19122
267.048	79.15204
267.58	140.27665
268.113	84.16459
268.646	74.16658
269.178	84.16996
269.71	108.21361
270.243	92.19127
270.775	84.19466
271.307	115.2516
271.838	137.29492
272.37	74.16597
272.902	67.13926
273.433	69.13721
273.965	91.20103
274.496	93.21068
275.027	91.20464
275.558	43.09535
276.089	50.11131
276.62	87.20181
277.15	77.1733
277.681	54.10721
278.211	70.15661
278.741	73.14483
279.272	109.22282
279.802	81.18357
280.332	106.22401
280.861	76.16561
281.391	100.20308
281.921	145.31241
282.45	137.30695
282.98	83.19596
283.509	66.13397
284.038	62.12758
284.567	138.28793
285.096	69.15064
285.625	44.09029
286.153	90.18853
286.682	93.18977
287.21	70.15124
287.739	92.19417
288.267	64.13893
288.795	94.22249
289.323	41.08591
289.851	105.21874
290.378	42.08479
290.906	65.14005
291.433	85.18919
291.961	97.19388
292.488	85.18864
293.015	101.20937
293.542	75.16859
294.069	88.19135
294.596	110.24133
295.122	131.27387
295.649	76.14856
296.175	137.29175
296.702	81.17452
297.228	116.24869
297.754	57.1133
298.28	50.10033
298.806	96.20226
299.332	58.11251
299.857	89.17541
300.383	122.27126
300.908	54.11472
301.433	60.12791
301.958	132.26525
302.483	43.09436
303.008	104.22489
303.533	96.21973
304.058	103.2119
304.582	34.07028
305.107	72.16374
305.631	127.25019
306.155	94.18828
306.679	57.11531
307.203	95.18936
307.727	94.1922
308.251	68.14597
308.775	79.1601
309.298	67.1374
309.822	72.15716
310.345	94.19037
310.868	82.16751
311.391	128.26825
311.914	65.1395
312.437	119.23013
312.96	112.22205
313.482	73.14679
314.005	38.08186
314.527	52.11668
315.049	126.26896
315.571	34.0634
316.093	103.21371
316.615	77.15541
317.137	100.17963
317.659	213.42258
318.18	129.25832
318.702	81.15604
319.223	86.14418
319.744	135.24469
320.265	70.13936
320.786	63.12779
321.307	108.21903
321.828	108.1971
322.348	118.22311
322.869	104.19587
323.389	68.08644
323.909	128.23348
324.43	125.24301
324.95	103.18602
325.47	119.23024
325.989	138.25262
326.509	77.13111
327.029	76.13252
327.548	68.11788
328.067	56.10495
328.587	70.13683
329.106	128.21989
329.625	168.34413
330.144	67.11772
330.662	89.1549
331.181	104.18269
331.7	70.12361
332.218	121.19084
332.736	111.19207
333.255	102.1741
333.773	115.19888
334.291	176.32153
334.808	93.14838
335.326	139.2219
335.844	77.12658
336.361	51.09315
336.879	74.12101
337.396	132.22045
337.913	99.1565
338.43	87.13349
338.947	124.20095
339.464	155.21461
339.981	105.16685
340.497	83.14064
341.014	76.12511
341.53	83.12209
342.046	85.13857
342.562	132.21839
343.078	132.1996
343.594	106.16404
344.11	124.18852
344.626	52.08608
345.141	117.16525
345.657	208.28624
346.172	111.16769
346.687	69.09782
347.202	65.0886
347.717	164.2351
348.232	130.19977
348.747	80.10994
349.261	23.02892
349.776	127.17459
350.29	108.1555
350.805	158.23091
351.319	112.15012
351.833	7.00908
352.347	143.1878
352.861	127.16352
353.374	191.24037
353.888	84.11566
354.401	143.17681
354.915	54.06409
355.428	116.15827
355.941	112.13705
356.454	183.21206
356.967	160.19847
357.48	229.264
357.993	88.11717
358.505	71.0921
359.018	220.27079
359.53	155.18636
360.042	168.17841
360.554	192.23077
361.066	155.18636
361.578	173.17221
362.09	137.15922
362.602	138.13776
363.113	78.0861
363.625	157.15707
364.136	176.16818
364.647	40.04118
365.158	160.16338
365.669	176.18676
366.18	159.16364
366.691	162.14632
367.201	127.13189
367.712	132.12184
368.222	183.16431
368.733	140.11092
369.243	101.08266
369.753	174.15086
370.263	146.13367
370.773	165.15636
371.282	101.08735
371.792	122.08618
372.301	145.11494
372.811	100.09429
373.32	87.04632
373.829	101.06525
374.338	183.09045
374.847	67.03572
375.356	89.04659
375.865	197.04939
376.373	203.05927
376.882	222.10048
377.39	171.05863
377.898	13.00383
378.407	171.01301
378.915	270.9922
379.423	180.00434
379.93	252.9767
380.438	50.99585
380.946	194.95879
381.453	141.9636
381.96	124.95691
382.468	84.96215
382.975	148.93253
383.482	203.89401
383.989	81.96079
384.495	185.89698
385.002	67.96164
385.509	104.9409
386.015	173.91932
386.521	270.87743
387.028	79.96858
387.534	159.95653
388.04	195.94113
388.546	-3.99969
389.051	-74.01377
389.557	14.00652
390.063	308.20519
390.568	120.10841
391.073	-33.04465
391.578	54.08427
392.084	-221.45564
392.589	-330.9469
393.093	-313.20072
393.598	-296.45527
394.103	-183.1244
394.607	-234.80524
395.112	-170.49455
395.616	-286.85779
396.12	-747.77658
396.624	-925.25843
397.128	-699.84398
397.632	-601.74842
398.136	-1125.06672
398.639	-2107.79665
399.143	-2502.96173
399.646	-2722.62315
400.15	-3477.97303
400.653	-4195.16836
401.156	-5440.02289
401.659	-7395.7649
402.162	-984.13968
402.664	-627.50821
403.167	0
403.67	0
404.172	0
404.674	0
405.176	0
405.678	0
406.18	0
406.682	0
407.184	0
407.686	0
408.187	0
408.688	0
409.19	0
409.691	0
410.192	0
410.693	0
411.194	435.30976
411.694	3920.97496
412.195	5654.32015
412.696	4563.95974
413.196	3262.40607
413.696	3480.93141
414.196	5413.54411
414.696	6570.12539
415.196	7933.59051
415.696	8843.97095
416.196	5693.93761
416.695	3276.99244
417.195	2151.98754
417.694	2328.76196
418.194	2312.19601
418.693	1930.0819
419.192	1899.98476
419.691	1711.02671
420.19	1765.90475
420.688	2130.45727
421.187	1832.5519
421.685	2050.69759
422.184	1814.11964
422.682	1408.69602
423.18	1021.71232
423.678	594.38283
424.176	593.00282
424.674	687.85369
425.172	901.63278
425.669	795.13615
426.167	765.92342
426.664	591.81582
427.161	489.77455
427.659	451.7502
428.156	386.78749
428.652	344.81182
429.149	393.7874
429.646	312.83437
430.143	323.8572
430.639	316.87361
431.135	300.91238
431.632	152.9605
432.128	134.98217
432.624	96.99896
433.12	20.99739
433.616	-77.99417
434.111	-20.00014
434.607	27.00243
435.103	185.00168
435.598	149.00714
436.093	110.03197
436.588	62.02062
437.083	103.04038
437.578	30.01503
438.073	-22.01391
438.568	42.0299
439.062	38.01965
439.557	2.00151
440.051	-9.0063
440.546	-5.0036
441.04	-57.04911
441.534	-22.02181
442.028	23.02106
442.522	-45.04256
443.015	1.0008
443.509	9.00915
444.002	-31.03219
444.496	-34.02947
444.989	-22.0236
445.482	-50.05605
445.975	-76.07223
446.468	-89.08004
446.961	-54.04832
447.454	-34.034
447.947	-102.11163
448.439	-120.1439
448.931	-78.07984
449.424	-103.13325
449.916	-127.15647
450.408	-129.14002
450.9	-171.21339
451.392	-165.22153
451.884	-117.13791
452.375	-165.21786
452.867	-59.06887
453.358	-159.18714
453.849	-177.19456
454.341	-194.23589
454.832	-106.11728
455.323	-167.22735
455.814	-154.19672
456.304	-110.13993
456.795	-106.13418
457.285	-127.16116
457.776	-64.0835
458.266	-163.22584
458.756	-168.2428
459.247	-218.31135
459.737	-171.24245
460.226	-150.19772
460.716	-187.27423
461.206	-196.29462
461.695	-162.25899
462.185	-166.24621
462.674	-94.1339
463.163	-148.20512
463.653	-187.24609
464.142	-168.26199
464.63	-124.19846
465.119	-133.19744
465.608	-185.28018
466.096	-175.25221
466.585	-125.19305
467.073	-104.16806
467.561	-154.2548
468.05	-145.23134
468.538	-89.15064
469.026	-125.20767
469.513	-153.21981
470.001	-199.31787
470.489	-157.26156
470.976	-85.13685
471.463	-172.31343
471.951	-153.28199
472.438	-132.22324
472.925	-160.27134
473.412	-126.23065
473.899	-96.16139
474.385	-145.26818
474.872	-190.33359
475.359	-222.41728
475.845	-157.24204
476.331	-99.16184
476.817	-158.29903
477.303	-132.23517
477.789	-174.32835
478.275	-159.30881
478.761	-182.34833
479.247	-123.21567
479.732	-191.37893
480.218	-121.25106
480.703	-125.24765
481.188	-133.225
481.673	-159.29216
482.158	-180.30294
482.643	-175.36829
483.128	-211.39299
483.612	-175.3355
484.097	-109.21878
484.581	-102.19371
485.066	-154.30889
485.55	-178.32156
486.034	-181.32405
486.518	-219.43103
487.002	-201.41257
487.486	-194.39955
487.969	-205.42401
488.453	-151.32338
488.936	-175.33323
489.42	-99.18292
489.903	-170.36839
490.386	-606.95939
490.869	-167.31243
491.352	-135.28524
491.835	-165.29358
492.318	-131.25163
492.8	-198.3555
493.283	-160.35146
493.765	-218.47019
494.247	-130.26449
494.73	-153.29333
495.212	-105.22088
495.694	-171.34766
496.175	-238.49635
496.657	-131.27144
497.139	-124.18886
497.62	-225.47059
498.102	-196.42981
498.583	-125.2751
499.064	-231.45808
499.545	-150.30128
500.026	-188.37342
500.507	-176.36297
500.988	-163.36008
501.469	-239.53789
501.949	-195.43347
502.43	-234.49841
502.91	-198.3652
503.39	-172.38703
503.87	-213.44925
504.35	-168.35675
504.83	-235.46601
505.31	-172.37257
505.79	-202.43437
506.269	-137.28616
506.749	-217.44763
507.228	-198.41825
507.707	-161.31942
508.187	-110.23481
508.666	-190.42016
509.145	-201.42431
509.623	-185.39242
510.102	-197.43373
510.581	-166.36403
511.059	-207.47045
511.538	-143.33434
512.016	-163.35255
512.494	-166.36602
512.972	-191.41523
513.45	-248.52433
513.928	-205.45305
514.406	-243.53321
514.884	-198.46428
515.361	-142.30693
515.839	-171.35353
516.316	-170.3717
516.793	-176.40769
517.27	-160.35456
517.747	-159.37043
518.224	-148.31181
518.701	-199.40773
519.178	-233.53104
519.654	-151.32883
520.131	-178.40299
520.607	-147.33342
521.083	-182.38142
521.56	-182.39473
522.036	-151.3035
522.512	-144.32562
522.987	-213.46522
523.463	-144.31219
523.939	-147.33044
524.414	-122.25737
524.89	-127.2748
525.365	-173.36055
525.84	-235.51652
526.315	-199.44291
526.79	-154.31903
527.265	-159.33344
527.74	-156.34887
528.215	-198.43291
528.689	-172.35121
529.164	-147.29423
529.638	-145.343
530.112	-208.45478
530.587	-125.24278
531.061	-168.3726
531.534	-119.26464
532.008	-154.34027
532.482	-105.22059
532.956	-213.50384
533.429	-142.31691
533.903	-105.21299
534.376	-145.29574
534.849	-182.39271
535.322	-110.23787
535.795	-120.26947
536.268	-132.29166
536.741	-136.30163
537.213	-109.23141
537.686	-184.41572
538.158	-170.35202
538.631	-102.22801
539.103	-129.26526
539.575	-88.16818
540.047	-116.23471
540.519	-57.12408
540.991	-59.1317
541.463	-85.18825
541.934	-67.13951
542.406	-89.19349
542.877	-58.11886
543.348	-90.19936
543.82	1.00221
544.291	-8.01685
544.762	-39.08338
545.233	15.03355
545.703	-18.03565
546.174	62.12729
546.645	-39.08334
547.115	63.13358
547.585	27.05512
548.056	10.02127
548.526	82.16736
548.996	92.19306
549.466	182.38159
549.935	137.27676
550.405	129.24098
550.875	196.39131
551.344	267.53343
551.814	317.5966
552.283	372.65183
552.752	328.61806
553.221	321.56023
553.69	388.68524
554.159	405.79224
554.628	489.84049
555.096	497.9888
555.565	560.95
556.033	638.14196
556.502	636.17939
556.97	733.19857
557.438	772.3604
557.906	850.48104
558.374	904.4911
558.842	931.60424
559.31	1097.6712
559.777	1068.79868
560.245	1221.92627
560.712	1340.00295
561.18	1481.97469
561.647	1520.04343
562.114	1530.10281
562.581	1728.5243
563.048	1871.37469
563.514	2018.66669
563.981	2134.45301
564.448	2322.40763
564.914	2376.59032
565.381	2630.51236
565.847	2749.64665
566.313	2912.60129
566.779	3059.40953
567.245	3188.57089
567.711	3359.65051
568.176	3610.1769
568.642	3664.81523
569.108	3838.62054
569.573	4188.21309
570.038	4344.47206
570.504	4480.70439
570.969	4686.31898
571.434	4853.36542
571.899	5114.71817
572.363	5245.39019
572.828	5468.33239
573.293	5597.26861
573.757	5740.21719
574.222	5881.99255
574.686	6035.96856
575.15	6147.26018
575.614	6238.0602
576.078	6247.17066
576.542	6307.02592
577.006	6348.96502
577.469	6418.47847
577.933	6344.9164
578.396	6357.24544
578.86	6404.19117
579.323	6218.26094
579.786	6117.80514
580.249	5992.07624
580.712	5966.51029
581.175	5845.5966
581.637	5805.2455
582.1	5624.0585
582.563	5531.99148
583.025	5400.68891
583.487	5417.71263
583.95	5173.10336
584.412	5111.06058
584.874	4970.94029
585.336	4816.87511
585.797	4767.37976
586.259	4688.95315
586.721	4515.98577
587.182	4505.02737
587.643	4322.92778
588.105	4289.18841
588.566	4156.61549
589.027	3969.43307
589.488	4014.11834
589.949	3924.53007
590.41	3800.40184
590.87	3766.26877
591.331	3640.02473
591.791	3589.36914
592.252	3519.33208
592.712	3533.64601
593.172	3353.33506
593.632	3330.23249
594.092	3351.29465
594.552	3203.16777
595.011	3131.48535
595.471	3111.38515
595.931	3070.37236
596.39	2930.75238
596.849	2943.61525
597.308	2906.29805
597.768	2837.08911
598.227	2740.81411
598.685	2657.59893
599.144	2644.6585
599.603	2707.72828
600.062	2554.17107
600.52	2504.42425
600.978	2532.72094
601.437	2503.56394
601.895	2354.21928
602.353	2438.42248
602.811	2405.40985
603.269	2349.72854
603.727	2329.72179
604.184	2270.43479
604.642	2294.81364
605.099	2275.57191
605.557	2268.79011
606.014	2203.24393
606.471	2152.81918
606.928	2141.19499
607.385	2091.66403
607.842	2168.47005
608.299	2136.54922
608.755	2102.66135
609.212	2015.30679
609.668	2000.27128
610.125	2045.6618
610.581	2058.6393
611.037	1994.46241
611.493	2065.62103
611.949	1854.55809
612.405	1853.94594
612.861	1895.53894
613.316	1845.53654
613.772	1776.36769
614.227	1775.4556
614.683	1806.17294
615.138	1687.37335
615.593	1741.39092
616.048	1747.36259
616.503	1732.60707
616.958	1601.55292
617.412	1612.37547
617.867	1603.1463
618.321	1644.0059
618.776	1603.17722
619.23	1593.35066
619.684	1584.23961
620.138	1579.33115
620.592	1491.38674
621.046	1428.2369
621.5	1411.31629
621.954	1443.14234
622.407	1441.10851
622.861	1382.29776
623.314	1389.13101
623.768	1359.16162
624.221	1329.72174
624.674	1206.98056
625.127	1362.18916
625.58	1293.06641
626.033	1336.02923
626.485	1266.15323
626.938	1278.16445
627.39	1243.06704
627.843	1284.10244
628.295	1193.00296
628.747	1227.11506
629.199	1246.02518
629.651	1213.98936
630.103	1211.01024
630.555	1168.78791
631.006	1190.05587
631.458	1140.0097
631.909	1176.00478
632.361	1148.00289
632.812	1179.01368
633.263	1176.85647
633.714	1172.84271
634.165	1201.1819
634.616	1151.06863
635.067	1223.99364
635.518	1135.06471
635.968	1200.7425
636.419	1183.90452
636.869	1146.07902
637.319	1121.97579
637.769	1085.85563
638.219	1205.17597
638.669	1084.00591
639.119	1181.20167
639.569	1120.08814
640.019	1198.08832
640.468	1113.90267
640.918	1138.12075
641.367	1167.98044
641.816	1159.96576
642.265	1157.04455
642.714	1140.02533
643.163	1140.01179
643.612	1075.02126
644.061	1076.74465
644.51	1114.95782
644.958	1099.8586
645.406	1125.09182
645.855	1104.13016
646.303	1142.06651
646.751	1041.86491
647.199	1124.97545
647.647	1088.95582
648.095	1082.94005
648.543	1104.72925
648.99	1095.05596
649.438	1093.02312
649.885	1117.18351
650.333	1071.58418
650.78	1054.02959
651.227	1012.98724
651.674	1060.90633
652.121	1018.99997
652.568	1009.98088
653.015	1085.20156
653.461	1042.98201
653.908	1013.89834
654.354	966.88613
654.801	960.83374
655.247	1000.75874
655.693	1059.24305
656.139	967.89743
656.585	1053.02621
657.031	937.78844
657.477	976.69228
657.922	962.80392
658.368	1013.0394
658.813	1017.9152
659.259	926.84035
659.704	966.83899
660.149	985.86843
660.594	945.85073
661.039	955.77979
661.484	958.89078
661.929	929.79967
662.373	930.96051
662.818	980.00575
663.262	895.80466
663.707	934.9827
664.151	924.88745
664.595	882.79021
665.039	968.00073
665.483	916.96553
665.927	945.84638
666.371	875.69572
666.814	919.83701
667.258	850.7009
667.701	962.69966
668.145	972.01437
668.588	937.92568
669.031	885.74776
669.474	888.80649
669.917	949.73369
670.36	933.94408
670.803	946.9089
671.245	922.60262
671.688	911.8764
672.13	862.62799
672.573	899.94516
673.015	880.79263
673.457	839.54624
673.899	893.83436
674.341	907.8481
674.783	857.75087
675.225	900.8757
675.666	849.74078
676.108	865.58311
676.549	919.83277
676.991	892.64945
677.432	861.42898
677.873	842.66468
678.314	893.80721
678.755	857.78484
679.196	866.68185
679.637	901.87156
680.078	882.75362
680.518	977.89279
680.959	844.73479
681.399	843.80069
681.839	878.82416
682.28	848.7985
682.72	869.68728
683.16	860.839
683.6	827.62011
684.039	845.4882
684.479	827.75279
684.919	816.61396
685.358	856.8753
685.798	926.0693
686.237	903.85658
686.676	899.76799
687.115	909.80527
687.554	888.79258
687.993	856.60955
688.432	893.7249
688.871	901.72128
689.309	908.83634
689.748	912.58853
690.186	884.8016
690.625	894.77586
691.063	893.8212
691.501	926.94185
691.939	950.99919
692.377	898.86491
692.815	899.82433
693.253	933.89511
693.69	938.71571
694.128	937.91273
694.565	942.89041
695.003	986.1014
695.44	922.82644
695.877	978.89698
696.314	1010.77268
696.751	991.87162
697.188	966.84522
697.625	1062.98791
698.061	951.91593
698.498	982.98794
698.934	984.9784
699.371	1034.99815
699.807	1023.99616
700.243	1035.05143
700.679	994.85856
701.115	1036.00722
701.551	1046.01992
701.987	1029.8934
702.422	1041.02889
702.858	1043.04047
703.294	1021.89741
703.729	1060.13274
704.164	1030.04576
704.599	1029.86979
705.035	1004.84316
705.47	975.98408
705.904	1047.99394
706.339	1112.08644
706.774	1035.99009
707.209	1045.96707
707.643	1076.10962
708.078	1009.04061
708.512	1000.08719
708.946	1053.07266
709.38	1051.0407
709.814	1071.98659
710.248	1031.07855
710.682	1074.08102
711.116	983.94969
711.549	967.11186
711.983	1017.93297
712.416	1042.02366
712.85	940.98593
713.283	999.96122
713.716	1039.16822
714.149	1065.07773
714.582	977.81459
715.015	1017.12412
715.448	937.00501
715.881	987.7779
716.313	938.84608
716.746	945.86553
717.178	972.95425
717.61	933.01186
718.043	934.97582
718.475	909.87228
718.907	939.02051
719.339	849.64057
719.77	874.7659
720.202	873.90092
720.634	832.74768
721.065	822.68271
721.497	878.84356
721.928	806.7205
722.359	760.60403
722.79	810.67904
723.221	818.79353
723.652	838.88276
724.083	753.4805
724.514	781.5587
724.945	745.53627
725.375	715.46114
725.806	788.72338
726.236	752.70466
726.666	701.47196
727.096	710.54746
727.526	673.5332
727.956	671.355
728.386	711.5552
728.816	668.5166
729.246	634.38692
729.675	640.41772
730.105	657.4527
730.534	609.28754
730.964	659.50007
731.393	673.49986
731.822	620.43705
732.251	641.46905
732.68	622.32281
733.109	577.29737
733.537	571.25762
733.966	626.40508
734.395	580.21624
734.823	632.27934
735.251	537.18807
735.68	559.28504
736.108	540.25835
736.536	525.13973
736.964	518.10611
737.392	513.18762
737.82	538.18608
738.247	572.24956
738.675	536.17771
739.102	407.96112
739.53	457.08781
739.957	446.07558
740.384	524.19368
740.811	476.12509
741.238	448.02275
741.665	444.9633
742.092	484.07353
742.519	426.99212
742.945	426.96238
743.372	436.01247
743.798	430.03966
744.225	396.89097
744.651	408.96814
745.077	416.97913
745.503	398.91963
745.929	411.93058
746.355	460.06999
746.781	347.82264
747.207	330.74129
747.632	312.73126
748.058	397.9386
748.483	344.75718
748.908	328.78226
749.334	361.84558
749.759	314.71201
750.184	341.77652
750.609	358.8397
751.033	347.78475
751.458	337.72386
751.883	324.77154
752.307	298.67656
752.732	287.69248
753.156	269.64464
753.58	345.78372
754.005	310.75826
754.429	250.5722
754.853	278.66684
755.277	272.62429
755.7	305.72923
756.124	246.59458
756.548	209.48614
756.971	260.61726
757.394	229.57665
757.818	269.67153
758.241	246.608
758.664	246.6051
759.087	210.45973
759.51	202.49395
759.933	225.52934
760.356	228.57136
760.778	200.48323
761.201	259.61264
761.623	227.53903
762.046	245.56717
762.468	294.68234
762.89	226.54584
763.312	208.49857
763.734	206.48681
764.156	200.48523
764.578	234.5261
765	204.4888
765.421	159.39911
765.843	187.4825
766.264	207.49116
766.686	210.51732
767.107	162.38847
767.528	147.36753
767.949	179.44866
768.37	160.38863
768.791	172.41119
769.212	153.38017
769.632	140.32405
770.053	149.38845
770.473	149.3594
770.894	150.37238
771.314	205.48097
771.734	142.32881
772.154	179.45286
772.575	171.39179
772.994	113.25651
773.414	183.43322
773.834	119.29634
774.254	145.352
774.673	145.35042
775.093	142.3484
775.512	121.29671
775.931	156.39108
776.351	109.26996
776.77	105.25624
777.189	99.23564
777.607	108.27494
778.026	82.20469
778.445	74.18565
778.864	130.33118
779.282	98.23581
779.701	99.24922
780.119	93.23479
780.537	113.28079
780.955	125.31614
781.373	84.20808
781.791	114.25547
782.209	156.35577
782.627	107.28068
783.045	85.19608
783.462	105.26735
783.88	43.11199
784.297	122.30497
784.715	64.16483
785.132	84.20365
785.549	41.1034
785.966	102.25581
786.383	-5.01251
786.8	124.28644
787.217	99.23437
787.633	53.13299
788.05	96.2281
788.466	123.28859
788.883	56.14342
789.299	49.11891
789.715	107.25917
790.131	78.19421
790.547	140.34616
790.963	95.23537
791.379	80.20229
791.795	51.11741
792.21	101.23568
792.626	89.21119
793.041	48.11925
793.457	103.2537
793.872	53.12547
794.287	4.00969
794.702	110.26979
795.117	56.13974
795.532	54.13592
795.947	90.21656
796.362	106.25235
796.776	142.32946
797.191	95.23201
797.605	-24.05751
798.02	46.1127
798.434	79.17642
798.848	76.1873
799.262	68.169
799.676	103.25042
800.09	70.17258
800.504	96.2324
800.918	57.1328
801.331	118.30716
801.745	80.18399
802.158	72.18018
802.572	71.17262
802.985	105.2528
803.398	62.14845
803.811	98.25107
804.224	91.22604
804.637	56.13403
805.05	80.18561
805.462	93.22797
805.875	58.15067
806.288	34.08268
806.7	43.10871
807.112	74.1719
807.525	70.17302
807.937	64.15854
808.349	77.19287
808.761	46.11383
809.173	46.11215
809.584	118.28952
809.996	54.13274
810.408	25.06502
810.819	55.12995
811.231	57.14759
811.642	21.05058
812.053	81.19242
812.464	84.19944
812.875	71.18148
813.286	74.19038
813.697	116.26946
814.108	96.23371
814.519	99.21989
814.929	95.24138
815.34	42.10252
815.75	90.2279
816.16	82.20409
816.571	82.21258
816.981	70.16556
817.391	84.20251
817.801	14.03514
818.211	73.17415
818.62	42.10171
819.03	90.21992
819.44	85.22145
819.849	83.20872
820.259	72.18427
820.668	73.17948
821.077	70.17385
821.486	65.15685
821.895	130.3179
822.304	72.19063
822.713	101.23753
823.122	65.1624
823.531	46.10964
823.939	61.14892
824.348	88.21335
824.756	93.23202
825.164	86.21584
825.573	59.14831
825.981	103.25398
826.389	105.26214
826.797	27.06814
827.205	59.13578
827.612	36.08941
828.02	40.09449
828.428	81.20581
828.835	86.22555
829.243	69.16455
829.65	35.08754
830.057	85.20573
830.464	42.10286
830.871	91.2171
831.278	75.18112
831.685	69.15415
832.092	97.23628
832.499	60.13163
832.905	85.21452
833.312	93.21128
833.718	55.13736
834.124	51.11704
834.531	72.18135
834.937	36.09288
835.343	81.19501
835.749	78.18197
836.155	61.1598
836.561	52.12825
836.966	46.11295
837.372	88.22308
837.777	59.14714
838.183	70.15571
838.588	63.15649
838.993	68.16554
839.399	34.08361
839.804	16.03934
840.209	49.12503
840.613	74.16447
841.018	72.18206
841.423	65.16667
841.828	47.11921
842.232	99.24376
842.637	78.18362
843.041	66.16903
843.445	59.1481
843.849	31.0772
844.253	69.16392
844.657	55.13866
845.061	76.17214
845.465	39.09464
845.869	83.19223
846.272	44.10752
846.676	44.10684
847.079	40.10208
847.483	99.24537
847.886	124.29837
848.289	52.13892
848.692	89.22429
849.095	100.23852
849.498	108.27154
849.901	65.14911
850.304	55.13166
850.707	82.20831
851.109	123.30786
851.512	64.1572
851.914	14.03557
852.316	84.21158
852.718	8.02083
853.121	43.10572
853.523	52.12179
853.925	36.09426
854.326	40.10035
854.728	68.17458
855.13	13.03379
855.531	50.11972
855.933	82.19611
856.334	11.02766
856.736	48.10783
857.137	72.16705
857.538	73.18305
857.939	40.09916
858.34	65.15827
858.741	27.07095
859.142	77.1844
859.542	30.07951
859.943	56.13923
860.343	29.07219
860.744	40.09796
861.144	26.06382
861.544	14.03393
861.945	51.13013
862.345	48.11764
862.745	38.09479
863.145	137.3227
863.544	86.21622
863.944	55.13006
864.344	62.15392
864.743	63.1562
865.143	55.14133
865.542	52.12079
865.941	56.13867
866.34	54.12949
866.74	51.13699
867.139	54.12939
867.537	57.14524
867.936	40.09661
868.335	34.08686
868.734	52.13299
869.132	34.07939
869.531	79.19034
869.929	65.14797
870.327	49.11766
870.726	104.25715
871.124	66.15404
871.522	113.28497
871.92	89.21825
872.318	52.12726
872.715	115.28169
873.113	59.14371
873.511	72.17888
873.908	11.02799
874.306	13.03259
874.703	62.15499
875.1	91.23138
875.497	54.12954
875.894	35.08608
876.291	69.16895
876.688	62.15973
877.085	71.1699
877.482	42.10541
877.878	67.16094
878.275	38.09684
878.671	108.23804
879.068	73.17569
879.464	59.14253
879.86	61.14413
880.256	86.21108
880.652	46.11719
881.048	48.11912
881.444	66.15682
881.84	64.16241
882.236	66.16564
882.631	20.04942
883.027	71.17146
883.422	38.09746
883.817	37.09328
884.213	76.1943
884.608	42.10324
885.003	69.16594
885.398	36.09042
885.793	67.16782
886.188	24.06
886.582	60.15377
886.977	109.25605
887.371	35.08884
887.766	22.05504
888.16	100.24753
888.554	33.08194
888.949	74.18519
889.343	108.26125
889.737	18.04825
890.131	70.17511
890.525	57.1457
890.918	63.15831
891.312	99.23491
891.706	42.11042
892.099	111.27963
892.492	74.15906
892.886	40.09814
893.279	62.15773
893.672	23.05887
894.065	62.15504
894.458	41.10336
894.851	73.17828
895.244	47.12018
895.637	54.13008
896.029	59.14414
896.422	83.20172
896.814	46.11453
897.206	46.10972
897.599	108.26449
897.991	52.12579
898.383	69.16259
898.775	10.02278
899.167	20.04695
899.559	84.2115
899.951	99.23138
900.342	92.23239
900.734	51.12659
901.125	69.18057
901.517	30.07396
901.908	61.14608
902.299	27.06633
902.69	52.12275
903.082	72.17377
903.473	42.10079
903.863	20.05133
904.254	44.10233
904.645	87.21508
905.036	10.02441
905.426	71.16202
905.817	51.1252
906.207	37.08844
906.597	8.01888
906.987	58.1502
907.378	65.16404
907.768	49.12962
908.158	53.12924
908.547	53.1369
908.937	58.1487
909.327	97.23362
909.717	73.18469
910.106	54.12969
910.495	56.13974
910.885	63.15928
911.274	47.1176
911.663	65.16463
912.052	62.15274
912.441	48.12216
912.83	57.13076
913.219	40.10491
913.608	97.23566
913.997	48.12042
914.385	73.17375
914.774	75.18187
915.162	43.10266
915.55	85.20441
915.939	69.17364
916.327	47.11743
916.715	34.08692
917.103	118.28694
917.491	74.18237
917.878	91.22216
918.266	35.09103
918.654	64.16316
919.041	35.09162
919.429	34.08054
919.816	47.11925
920.203	38.09241
920.591	49.12158
920.978	79.1925
921.365	45.1182
921.752	53.12634
922.139	103.22125
922.525	29.06995
922.912	50.122
923.299	53.1317
923.685	41.10715
924.072	77.17671
924.458	27.06719
924.844	21.05226
925.231	40.09332
925.617	29.07405
926.003	50.12783
926.389	65.16357
926.774	51.12926
927.16	59.14634
927.546	11.02828
927.931	56.13963
928.317	66.15161
928.702	61.14408
929.088	35.08305
929.473	77.19502
929.858	27.06557
930.243	55.13192
930.628	79.19121
931.013	26.06474
931.398	97.22108
931.783	65.17074
932.167	79.19214
932.552	73.18219
932.937	73.18047
933.321	41.10307
933.705	57.14354
934.09	73.18377
934.474	97.22839
934.858	67.1733
935.242	-1.00234
935.626	30.07707
936.009	33.08803
936.393	66.16749
936.777	26.06687
937.16	35.09131
937.544	66.15507
937.927	41.10421
938.311	64.15586
938.694	52.13749
939.077	39.09358
939.46	67.16405
939.843	143.29233
940.226	69.17643
940.609	101.22955
940.991	54.13738
941.374	38.0931
941.757	90.22049
942.139	52.11677
942.522	88.20652
942.904	44.10591
943.286	94.23702
943.668	55.14236
944.05	50.12318
944.432	26.06445
944.814	68.16697
945.196	15.0368
945.578	8.01917
945.959	54.12648
946.341	82.20015
946.722	72.16831
947.104	91.21585
947.485	43.10022
947.866	44.11098
948.247	50.12616
948.628	90.21795
949.009	24.06175
949.39	71.1761
949.771	59.13703
950.152	21.05182
950.532	-3.00745
950.913	63.15162
951.293	34.09209
951.674	49.11855
952.054	43.10669
952.434	81.19995
952.814	27.06454
953.194	74.1929
953.574	78.19117
953.954	55.13051
954.334	66.16403
954.714	27.06609
955.093	116.28176
955.473	35.08776
955.853	39.10116
956.232	48.1316
956.611	73.17435
956.99	40.10071
957.37	53.135
957.749	60.14289
958.128	48.12099
958.506	40.10395
958.885	77.19342
959.264	12.02962
959.643	63.14301
960.021	56.13862
960.4	51.11558
960.778	89.21768
961.156	32.08049
961.535	56.13039
961.913	101.23401
962.291	35.09003
962.669	52.13168
963.047	30.07683
963.424	29.07428
963.802	82.20045
964.18	106.26555
964.557	85.19444
964.935	77.18151
965.312	46.11987
965.69	58.14504
966.067	61.14825
966.444	46.11345
966.821	62.15951
967.198	67.16204
967.575	107.26034
967.952	110.25623
968.329	44.1072
968.705	74.1579
969.082	-1.00259
969.458	11.02658
969.835	80.19366
970.211	45.11559
970.587	97.23945
970.963	48.12319
971.339	61.15898
971.715	30.07518
972.091	55.13532
972.467	51.12719
972.843	27.06729
973.219	107.25419
973.594	77.20047
973.97	63.14961
974.345	0
974.721	103.24695
975.096	60.14492
975.471	61.14441
975.846	58.13914
976.221	50.12697
976.596	16.0386
976.971	108.26381
977.346	85.19655
977.72	60.15259
978.095	63.16245
978.469	89.21086
978.844	135.33423
979.218	67.16009
979.593	67.16002
979.967	75.18187
980.341	17.0394
980.715	64.16085
981.089	88.21879
981.463	43.09888
981.837	43.10521
982.21	89.20555
982.584	23.05584
982.957	33.08266
983.331	105.24559
983.704	48.11799
984.078	58.14273
984.451	121.29836
984.824	34.08305
985.197	67.16223
985.57	69.17245
985.943	93.22789
986.316	92.22431
986.688	56.1349
987.061	77.17954
987.434	57.14835
987.806	96.23082
988.179	51.12032
988.551	77.1944
988.923	68.1669
989.295	61.15213
989.667	29.06956
990.039	52.12844
990.411	61.1401
990.783	69.15828
991.155	47.11299
991.527	81.19833
991.898	80.19825
992.27	28.06954
992.641	102.2535
993.012	86.20095
993.384	52.12398
993.755	82.20787
994.126	67.16064
994.497	7.01732
994.868	92.20956
995.239	82.19753
995.61	34.08579
995.98	24.05858
996.351	29.07209
996.722	34.0791
997.092	11.02624
997.462	6.01414
997.833	64.15131
998.203	64.15476
998.573	41.10225
998.943	75.17501
999.313	51.12218
999.683	58.13898
1000.053	114.25894
1000.423	39.09496
1000.792	24.06248
1001.162	51.12548
1001.531	74.18163
1001.901	55.13697
1002.27	80.17773
1002.639	55.14039
1003.009	76.17982
1003.378	52.1329
1003.747	60.14147
1004.116	47.11251
1004.485	56.13368
1004.853	70.17669
1005.222	63.15848
1005.591	46.1093
1005.959	67.15042
1006.328	50.11251
1006.696	51.12297
1007.064	39.09829
1007.433	70.17429
1007.801	95.23123
1008.169	51.12876
1008.537	105.22982
1008.905	37.08641
1009.273	79.19408
1009.64	51.12162
1010.008	39.09315
1010.375	97.23345
1010.743	109.24874
1011.11	34.08069
1011.478	110.26919
1011.845	65.15239
1012.212	20.04554
1012.579	80.19527
1012.946	66.15658
1013.313	112.26335
1013.68	46.10347
1014.047	37.08837
1014.414	49.11573
1014.78	45.1119
1015.147	73.17575
1015.513	78.1869
1015.88	90.22847
1016.246	77.1891
1016.612	83.18872
1016.978	39.09574
1017.344	54.13333
1017.71	102.24627
1018.076	111.25861
1018.442	72.18446
1018.808	61.15213
1019.174	30.07551
1019.539	119.27013
1019.905	41.09684
1020.27	30.07429
1020.636	97.23043
1021.001	59.14097
1021.366	4.00969
1021.731	67.17174
1022.096	22.05575
1022.461	51.12064
1022.826	47.11174
1023.191	30.07895
1023.556	77.17947
1023.92	45.11072
1024.285	28.0686
1024.649	95.2308
1025.014	84.20671
1025.378	29.07316
1025.742	56.13887
1026.107	52.11754
1026.471	76.17647
1026.835	61.15086
1027.199	31.07486
1027.562	61.14145
1027.926	77.18728
1028.29	44.11142
1028.654	74.16938
1029.017	92.22431
1029.381	50.1194
1029.744	53.13505
1030.107	61.14396
1030.471	56.13388
1030.834	62.14066
1031.197	103.24553
1031.56	67.15751
1031.923	3.00782
1032.286	69.16139
1032.648	55.13136
1033.011	45.10335
1033.374	94.21896
1033.736	33.08698
1034.099	38.09279
1034.461	11.02797
1034.823	37.09231
1035.185	59.14821
1035.548	85.20542
1035.91	35.08404
1036.272	18.04122
1036.634	84.20411
1036.995	44.1035
1037.357	51.124
1037.719	80.19337
1038.08	74.17481
1038.442	44.10451
1038.803	69.16499
1039.165	92.23031
1039.526	81.1945
1039.887	62.14794
1040.248	12.02976
1040.609	86.21101
1040.97	57.13905
1041.331	59.14906
1041.692	2.00471
1042.053	83.18765
1042.413	70.16241
1042.774	112.26909
1043.134	68.16126
1043.495	47.11815
1043.855	73.17622
1044.215	27.06726
1044.576	50.11949
1044.936	98.22242
1045.296	80.19846
1045.656	55.13477
1046.016	76.18246
1046.375	60.14519
1046.735	16.0365
1047.095	17.04003
1047.454	101.21153
1047.814	53.12726
1048.173	103.24346
1048.533	38.08722
1048.892	28.06745
1049.251	64.16016
1049.61	34.08392
1049.969	30.07095
1050.328	72.15529
1050.687	24.05865
1051.046	59.14334
1051.405	90.22213
1051.763	38.08754
1052.122	42.10484
1052.48	64.15645
1052.839	39.0919
1053.197	59.13854
1053.555	129.28926
1053.914	80.19447
1054.272	93.22289
1054.63	17.0418
1054.988	24.05727
1055.345	78.16686
1055.703	64.15353
1056.061	32.08253
1056.419	25.06496
1056.776	71.17139
1057.134	18.04191
1057.491	77.19175
1057.848	46.11453
1058.206	22.05199
1058.563	40.08831
1058.92	101.23029
1059.277	65.15981
1059.634	84.1962
1059.991	65.15519
1060.348	29.06578
1060.704	47.112
1061.061	43.09998
1061.418	35.08506
1061.774	39.09642
1062.131	25.06633
1062.487	32.07504
1062.843	75.18603
1063.199	40.09959
1063.555	42.09741
1063.911	71.17854
1064.267	57.11864
1064.623	33.08035
1064.979	97.22759
1065.335	109.25744
1065.691	63.15053
1066.046	77.16825
1066.402	12.02746
1066.757	39.09857
1067.112	68.16623
1067.468	29.06871
1067.823	69.16518
1068.178	82.19701
1068.533	58.1403
1068.888	125.2942
1069.243	62.15257
1069.598	49.119
1069.952	-12.02735
1070.307	13.03237
1070.662	44.10451
1071.016	14.03158
1071.371	26.05939
1071.725	89.21119
1072.079	61.14631
1072.434	16.0391
1072.788	38.09064
1073.142	56.1375
1073.496	23.05481
1073.85	30.0698
1074.203	72.17384
1074.557	16.04276
1074.911	103.24318
1075.265	60.1391
1075.618	84.20365
1075.971	60.14235
1076.325	50.12697
1076.678	21.04827
1077.031	34.07713
1077.385	51.11224
1077.738	57.12839
1078.091	3.00688
1078.444	46.10681
1078.796	47.1153
1079.149	40.09959
1079.502	1.00238
1079.855	15.03519
1080.207	70.17169
1080.56	53.13681
1080.912	63.15288
1081.264	95.22664
1081.617	84.20327
1081.969	29.07337
1082.321	44.10748
1082.673	5.01151
1083.025	40.09501
1083.377	83.17675
1083.728	77.17855
1084.08	54.1346
1084.432	37.08939
1084.783	86.19993
1085.135	63.1574
1085.486	-2.00462
1085.838	50.12304
1086.189	37.08996
1086.54	71.16873
1086.891	37.09371
1087.242	64.15528
1087.593	69.16726
1087.944	44.09962
1088.295	77.17394
1088.646	37.08982
1088.996	8.01941
1089.347	71.1734
1089.698	28.0664
1090.048	86.22179
1090.398	39.09058
1090.749	46.11006
1091.099	35.08817
1091.449	47.11704
1091.799	75.18677
1092.149	25.06119
1092.499	31.07582
1092.849	17.04342
1093.199	57.14257
1093.548	42.10099
1093.898	42.10514
1094.248	85.21689
1094.597	5.01285
1094.947	45.12004
1095.296	55.13557
1095.645	78.20172
1095.994	68.16263
1096.343	113.28089
1096.692	48.12602
1097.041	17.04623
1097.39	60.1501
1097.739	60.15554
1098.088	74.1973
1098.437	8.02115
1098.785	45.12131
1099.134	97.25531
1099.482	52.14284
1099.83	74.19349
1100.179	14.03671
1100.527	66.17474
1100.875	40.10583
1101.223	48.12738
1101.571	29.08033
1101.919	13.03415
1102.267	43.12108
1102.615	-6.01931
1102.962	12.03863
1103.31	3.00964
1103.658	11.03543
