Data from N2 R13 sample 11_Subt2__5__12-03-24-285.txt Node

Date: Tue Sep 02 12:03:24 PDT 2025
User: uwsun
Spectrometer: HDX01956
Trigger mode: 0
Integration Time (sec): 5.000000E-1
Scans to average: 1
Nonlinearity correction enabled: true
Boxcar width: 0
Storing dark spectrum: false
XAxis mode: Wavelengths
Number of Pixels in Spectrum: 2068
>>>>>Begin Spectral Data<<<<<
194.03	-57.16138
194.578	-45.14309
195.127	-46.14418
195.676	-71.22389
196.225	-7.01859
196.773	-34.09372
197.321	-46.12439
197.87	-46.11478
198.418	-74.18324
198.966	-126.31679
199.513	-131.31455
200.061	-117.28478
200.609	-32.081
201.156	-98.20529
201.704	-87.20938
202.251	-94.23846
202.798	-78.19364
203.345	-49.11582
203.892	-61.14642
204.438	-40.09111
204.985	-112.25367
205.532	-110.27776
206.078	-66.15471
206.624	-98.23034
207.17	-92.20549
207.716	-76.17584
208.262	-90.17158
208.808	-137.32345
209.354	-137.32144
209.899	-12.02883
210.445	-107.25429
210.99	-108.24929
211.535	-52.11672
212.08	-83.18543
212.625	-76.18225
213.17	-81.19686
213.715	-108.22944
214.259	-101.22704
214.804	-40.09427
215.348	-60.13141
215.892	-95.21932
216.436	-57.12676
216.98	-58.12333
217.524	-127.29051
218.068	-37.08878
218.612	-92.2233
219.155	-70.1579
219.698	-66.15076
220.242	-41.09793
220.785	-61.1369
221.328	-77.18468
221.871	-70.17118
222.414	-75.18023
222.956	-112.26027
223.499	-73.1583
224.041	-37.08283
224.583	-30.0624
225.126	-80.1704
225.668	-86.20127
226.21	-92.2228
226.751	-113.23917
227.293	-46.10096
227.835	-99.2331
228.376	-6.01322
228.918	-50.12118
229.459	-63.14984
230	-69.15771
230.541	-73.16221
231.082	-47.10881
231.622	-75.16672
232.163	-74.17183
232.704	-138.33168
233.244	-42.09926
233.784	-19.04444
234.324	-119.25176
234.864	-85.18558
235.404	-39.08871
235.944	-60.13656
236.484	-32.07618
237.023	-100.22751
237.563	-112.24975
238.102	-67.15166
238.641	-37.08901
239.18	-117.26322
239.719	-80.19257
240.258	-17.03628
240.797	-94.21567
241.335	-66.15471
241.874	-107.19909
242.412	-90.20724
242.95	-67.15209
243.488	-44.09559
244.026	-80.17618
244.564	-83.16428
245.102	-51.1088
245.64	-31.07106
246.177	-38.08091
246.715	-32.07298
247.252	-51.11172
247.789	-30.05411
248.326	-93.21257
248.863	-106.22303
249.4	-35.07541
249.936	-69.13548
250.473	-79.1754
251.009	-94.20544
251.546	-1.00207
252.082	-34.07044
252.618	-72.15236
253.154	-71.16169
253.69	-62.13258
254.226	-102.23253
254.761	-22.04647
255.297	-76.15808
255.832	-78.17523
256.367	-81.18148
256.903	-97.20324
257.438	-97.21787
257.972	-78.1652
258.507	-104.22624
259.042	-70.14423
259.576	-154.31803
260.111	-65.14257
260.645	-89.18384
261.179	-100.2216
261.713	-100.21161
262.247	-74.1618
262.781	-122.24425
263.315	-72.16613
263.849	-97.22972
264.382	-76.16575
264.915	-118.26247
265.449	-128.29451
265.982	-37.0791
266.515	-81.18633
267.048	-44.08719
267.58	-64.13252
268.113	-74.15042
268.646	-144.33859
269.178	-64.13389
269.71	-89.18417
270.243	-39.08345
270.775	-101.24261
271.307	-48.10863
271.838	-31.06914
272.37	-84.19451
272.902	-85.18267
273.433	-97.20036
273.965	-73.16679
274.496	-71.1662
275.027	-72.16732
275.558	-91.20741
276.089	-158.36687
276.62	-71.16984
277.15	-44.10148
277.681	-111.22887
278.211	-104.24101
278.741	-144.30018
279.272	-88.18793
279.802	-116.27339
280.332	-116.25706
280.861	-97.21912
281.391	-111.23628
281.921	-92.20829
282.45	-64.14931
282.98	-76.18495
283.509	-83.17421
284.038	-109.23293
284.567	-38.08238
285.096	-75.16873
285.625	-156.33459
286.153	-103.22497
286.682	-131.28091
287.21	-92.20566
287.739	-107.23568
288.267	-109.24532
288.795	-102.25054
289.323	-130.28268
289.851	-116.25352
290.378	-102.21272
290.906	-121.2711
291.433	-99.22874
291.961	-89.18557
292.488	-77.17663
293.015	-114.24768
293.542	-83.19261
294.069	-97.21921
294.596	-62.14094
295.122	-95.20855
295.649	-72.14568
296.175	-70.15577
296.702	-75.167
297.228	-73.16288
297.754	-105.21659
298.28	-126.26313
298.806	-114.25126
299.332	-167.34139
299.857	-155.32304
300.383	-120.28018
300.908	-159.35345
301.433	-158.35276
301.958	-78.16433
302.483	-141.32137
303.008	-85.19123
303.533	-97.23061
304.058	-94.20196
304.582	-159.34287
305.107	-164.39072
305.631	-90.18636
306.155	-136.28691
306.679	-158.33537
307.203	-119.249
307.727	-163.3527
308.251	-131.29326
308.775	-152.32432
309.298	-167.36058
309.822	-167.38293
310.345	-115.24405
310.868	-107.22796
311.391	-98.21563
311.914	-143.32065
312.437	-122.24957
312.96	-152.31996
313.482	-165.35
314.005	-184.41522
314.527	-166.3891
315.049	-155.35099
315.571	-179.35147
316.093	-140.30623
316.615	-191.40922
317.137	-146.27889
317.659	-139.29845
318.18	-153.32639
318.702	-170.34729
319.223	-178.32008
319.744	-206.40592
320.265	-170.35737
320.786	-199.42783
321.307	-182.39356
321.828	-158.30782
322.348	-205.41831
322.869	-265.54443
323.389	-395.58406
323.909	-164.32134
324.43	-143.29578
324.95	-210.40971
325.47	-208.43398
325.989	-197.3912
326.509	-237.43791
327.029	-256.4857
327.548	-239.44824
328.067	-284.57701
328.587	-202.42034
329.106	-246.46513
329.625	-119.25958
330.144	-241.4578
330.662	-289.55354
331.181	-247.474
331.7	-240.45823
332.218	-231.40164
332.736	-218.41037
333.255	-259.48527
333.773	-255.48463
334.291	-259.52537
334.808	-276.48715
335.326	-250.44379
335.844	-332.60839
336.361	-358.72171
336.879	-298.53837
337.396	-316.59311
337.913	-307.54258
338.43	-335.5788
338.947	-318.58009
339.464	-331.5312
339.981	-346.62158
340.497	-332.62621
341.014	-376.69738
341.53	-398.67286
342.046	-392.72525
342.562	-354.66509
343.078	-357.61978
343.594	-372.65731
344.11	-368.64244
344.626	-369.68252
345.141	-368.60087
345.657	-352.57376
346.172	-411.71924
346.687	-384.62349
347.202	-393.61712
347.717	-371.62226
348.232	-401.71393
348.747	-385.61017
349.261	-516.77366
349.776	-440.71808
350.29	-470.80069
350.805	-444.77108
351.319	-430.68172
351.833	-450.67624
352.347	-417.65293
352.861	-463.71911
353.374	-387.58729
353.888	-467.75983
354.401	-490.74484
354.915	-514.74005
355.428	-462.75148
355.941	-490.73153
356.454	-445.6396
356.967	-445.67255
357.48	-460.67092
357.993	-486.77323
358.505	-569.90256
359.018	-414.62698
359.53	-546.82759
360.042	-508.69
360.554	-535.81696
361.066	-534.80648
361.578	-508.65574
362.09	-535.78165
362.602	-531.68431
363.113	-545.75128
363.625	-543.70844
364.136	-565.72074
364.647	-640.8492
365.158	-577.77491
365.669	-579.80652
366.18	-577.77953
366.691	-585.71549
367.201	-565.75776
367.712	-607.7531
368.222	-579.70864
368.733	-634.70825
369.243	-608.6791
369.753	-590.70334
370.263	-684.87089
370.773	-623.80261
371.282	-742.90922
371.792	-786.85136
372.301	-765.90056
372.811	-719.93304
373.32	-732.62637
373.829	-832.85562
374.338	-793.6962
374.847	-823.72954
375.356	-853.7655
375.865	-838.52368
376.373	-916.64691
376.882	-898.80008
377.39	-922.69617
377.898	-1071.74838
378.407	-1025.49223
378.915	-1027.39561
379.423	-1059.45763
379.93	-1154.39617
380.438	-1321.46247
380.946	-1237.23787
381.453	-1386.22487
381.96	-1453.06657
382.468	-1642.87109
382.975	-1576.84901
383.482	-1684.66485
383.989	-1762.80598
384.495	-1775.49074
385.002	-1983.18944
385.509	-2018.18551
386.015	-2176.9295
386.521	-2194.92619
387.028	-2341.8352
387.534	-2408.81113
388.04	-2403.80783
388.546	-2768.76969
389.051	-2863.98399
389.557	-2941.25128
390.063	-3057.30097
390.568	-3268.65322
391.073	-3494.45985
391.578	-3703.6704
392.084	-3742.0979
392.589	-4055.24171
393.093	-4536.0454
393.598	-4868.77312
394.103	-5222.49587
394.607	-5681.25226
395.112	-6016.28205
395.616	-6363.81042
396.12	-7388.26644
396.624	-8235.72195
397.128	-8818.80403
397.632	-9603.20287
398.136	-10611.21694
398.639	-11921.17475
399.143	-13499.20105
399.646	-15201.96726
400.15	-17065.91473
400.653	-18912.71385
401.156	-21888.30931
401.659	-26294.75664
402.162	-20175.44809
402.664	-2744.90298
403.167	-11.28237
403.67	0
404.172	0
404.674	0
405.176	0
405.678	0
406.18	0
406.682	0
407.184	0
407.686	0
408.187	0
408.688	0
409.19	-3067.43309
409.691	-13261.26944
410.192	-19359.92882
410.693	-23420.33591
411.194	-24612.21573
411.694	-23674.40661
412.195	-21723.08777
412.696	-20272.46548
413.196	-19689.16545
413.696	-19111.84663
414.196	-18653.65375
414.696	-16748.52012
415.196	-15470.06724
415.696	-12517.84654
416.196	-10400.01723
416.695	-9458.33052
417.195	-8584.85776
417.694	-8094.85025
418.194	-7514.157
418.693	-7346.53371
419.192	-6895.48752
419.691	-6996.64978
420.19	-6598.95528
420.688	-6193.60696
421.187	-5946.38333
421.685	-5453.13793
422.184	-4872.52105
422.682	-4285.61734
423.18	-4008.05484
423.678	-3716.66956
424.176	-3382.56096
424.674	-3197.81124
425.172	-2868.14535
425.669	-2703.80264
426.167	-2394.82238
426.664	-2331.84201
427.161	-2199.96664
427.659	-1928.22313
428.156	-1941.18441
428.652	-1873.62085
429.149	-1746.64236
429.646	-1678.65621
430.143	-1484.91579
430.639	-1479.02428
431.135	-1496.29181
431.632	-1372.21703
432.128	-1351.43469
432.624	-1295.57959
433.12	-1263.33263
433.616	-1167.30403
434.111	-1273.53495
434.607	-1105.52585
435.103	-1016.4057
435.598	-1046.46627
436.093	-953.65165
436.588	-915.63869
437.083	-895.69217
437.578	-878.7541
438.073	-970.99076
438.568	-800.84891
439.062	-812.69219
439.557	-759.81385
440.051	-757.76297
440.546	-802.84355
441.04	-772.90048
441.534	-744.97184
442.028	-689.84192
442.522	-712.87854
443.015	-675.73024
443.509	-646.84174
444.002	-680.89942
444.496	-671.76333
444.989	-631.84592
445.482	-677.94698
445.975	-703.85848
446.468	-682.7862
446.961	-658.75842
447.454	-629.79152
447.947	-728.99804
448.439	-663.95588
448.931	-677.87
449.424	-635.97392
449.916	-623.90594
450.408	-691.92106
450.9	-647.94557
451.392	-700.10781
451.884	-636.89662
452.375	-687.06753
452.867	-557.77333
453.358	-706.00139
453.849	-640.8339
454.341	-600.83824
454.832	-626.83614
455.323	-579.89632
455.814	-612.90785
456.304	-604.90251
456.795	-596.88569
457.285	-518.74815
457.776	-515.77659
458.266	-602.95415
458.756	-606.99701
459.247	-622.001
459.737	-624.01163
460.226	-570.85937
460.716	-621.03198
461.206	-569.95249
461.695	-550.97755
462.185	-602.01107
462.674	-521.84347
463.163	-517.80306
463.653	-526.77251
464.142	-536.9265
464.63	-497.88079
465.119	-539.90026
465.608	-518.8635
466.096	-509.81102
466.585	-466.79259
467.073	-457.81283
467.561	-503.91324
468.05	-447.77526
468.538	-429.79352
469.026	-453.82118
469.513	-489.77734
470.001	-481.83072
470.489	-490.89166
470.976	-414.72926
471.463	-444.86504
471.951	-412.8088
472.438	-426.77832
472.925	-420.7627
473.412	-436.86077
473.899	-403.73461
474.385	-425.84122
474.872	-461.86722
475.359	-437.86497
475.845	-414.68701
476.331	-336.58595
476.817	-377.7518
477.303	-401.76436
477.789	-378.74906
478.275	-419.86429
478.761	-339.6735
479.247	-348.64641
479.732	-432.9053
480.218	-363.7938
480.703	-351.73216
481.188	-392.71003
481.673	-356.68666
482.158	-389.69221
482.643	-356.77899
483.128	-418.81864
483.612	-328.65211
484.097	-339.71655
484.581	-345.69406
485.066	-350.7338
485.55	-342.64381
486.034	-340.63375
486.518	-378.77184
487.002	-395.84624
487.486	-355.7576
487.969	-369.79123
488.453	-322.71501
488.936	-335.66276
489.42	-345.67679
489.903	-308.68705
490.386	-750.23501
490.869	-291.56114
491.352	-302.6614
491.835	-297.54658
492.318	-339.68388
492.8	-319.59062
493.283	-355.81165
493.765	-304.66775
494.247	-290.61151
494.73	-280.5533
495.212	-275.60011
495.694	-320.67269
496.175	-337.71825
496.657	-252.53628
497.139	-263.41724
497.62	-337.72231
498.102	-344.7778
498.583	-301.68683
499.064	-315.63692
499.545	-306.63674
500.026	-350.72148
500.507	-275.57975
500.988	-320.73003
501.469	-328.75159
501.949	-254.57153
502.43	-328.71288
502.91	-301.56955
503.39	-253.57871
503.87	-312.67234
504.35	-287.62524
504.83	-330.66893
505.31	-321.71738
505.79	-296.64935
506.269	-234.49928
506.749	-336.71161
507.228	-356.778
507.707	-270.54931
508.187	-262.57768
508.666	-315.71471
509.145	-320.69312
509.623	-267.57648
510.102	-299.67235
510.581	-242.53917
511.059	-287.6628
511.538	-262.62679
512.016	-287.63717
512.494	-240.53737
512.972	-280.62021
513.45	-342.73792
513.928	-285.64035
514.406	-376.84806
514.884	-258.61204
515.361	-273.60659
515.839	-262.55271
516.316	-288.64536
516.793	-263.61969
517.27	-250.56437
517.747	-274.65274
518.224	-231.49555
518.701	-225.46371
519.178	-281.64663
519.654	-226.49998
520.131	-293.67881
520.607	-246.56915
521.083	-301.64738
521.56	-260.57327
522.036	-247.50745
522.512	-245.56537
522.987	-282.6249
523.463	-275.61281
523.939	-227.51862
524.414	-228.49218
524.89	-253.56216
525.365	-254.53889
525.84	-299.66601
526.315	-290.6576
526.79	-213.44708
527.265	-259.55514
527.74	-240.546
528.215	-231.50859
528.689	-246.51075
529.164	-234.47781
529.638	-192.4583
530.112	-262.57937
530.587	-203.40161
531.061	-286.64984
531.534	-221.50186
532.008	-247.55635
532.482	-229.49423
532.956	-285.6835
533.429	-171.38391
533.903	-178.36709
534.376	-194.40009
534.849	-222.48313
535.322	-218.48228
535.795	-234.53773
536.268	-213.47859
536.741	-173.38665
537.213	-179.38583
537.686	-239.54603
538.158	-181.37572
538.631	-182.41355
539.103	-197.4113
539.575	-127.24501
540.047	-151.30798
540.519	-180.40204
540.991	-150.34112
541.463	-171.38549
541.934	-142.30062
542.406	-179.39658
542.877	-107.22171
543.348	-109.2424
543.82	-71.15921
544.291	-66.14083
544.762	-87.18793
545.233	-97.22198
545.703	-111.22465
546.174	-38.07978
546.645	-81.17467
547.115	-21.04534
547.585	-16.03298
548.056	0
548.526	-29.06068
548.996	66.1393
549.466	42.09078
549.935	21.04355
550.405	65.12335
550.875	127.25762
551.344	153.31376
551.814	212.40929
552.283	227.41292
552.752	277.5285
553.221	262.46437
553.69	359.63881
554.159	347.68811
554.628	421.73674
555.096	463.92844
555.565	537.91663
556.033	638.14196
556.502	710.2927
556.97	765.2399
557.438	878.50503
557.906	983.6537
558.374	1057.67105
558.842	1168.88819
559.31	1224.79622
559.777	1387.13787
560.245	1547.21877
560.712	1694.27405
561.18	1829.17247
561.647	1952.27423
562.114	2158.40754
562.581	2386.83471
563.048	2571.55339
563.514	2790.83843
563.981	3047.47455
564.448	3267.3041
564.914	3544.42513
565.381	3891.14686
565.847	4188.16192
566.313	4501.95034
566.779	4768.6069
567.245	5162.60907
567.711	5560.55079
568.176	5903.04011
568.642	6287.56211
569.108	6797.40154
569.573	7237.32453
570.038	7735.33029
570.504	8223.00446
570.969	8648.81113
571.434	9313.13519
571.899	9748.20389
572.363	10311.17684
572.828	10912.6033
573.293	11523.604
573.757	11996.26175
574.222	12672.97515
574.686	13192.75875
575.15	13729.23488
575.614	14170.52901
576.078	14606.17987
576.542	14969.15255
577.006	15284.56699
577.469	15778.85552
577.933	16073.30904
578.396	16535.19966
578.86	16683.12991
579.323	16595.94466
579.786	16977.59305
580.249	17079.72719
580.712	17026.34899
581.175	17217.50559
581.637	17249.34259
582.1	17182.59055
582.563	17076.7286
583.025	17153.1203
583.487	17095.43145
583.95	16806.63474
584.412	16977.02002
584.874	16837.24642
585.336	16713.31194
585.797	16432.93716
586.259	16198.35852
586.721	16048.90399
587.182	15650.452
587.643	15534.86253
588.105	15195.60738
588.566	15009.72259
589.027	14457.28412
589.488	14164.39914
589.949	13955.68684
590.41	13612.85488
590.87	13213.46929
591.331	13040.82506
591.791	12510.40949
592.252	12286.06475
592.712	11865.05797
593.172	11460.353
593.632	11164.98881
594.092	10941.84919
594.552	10574.41459
595.011	10025.13448
595.471	9834.5706
595.931	9382.28034
596.39	9021.41878
596.849	8838.04839
597.308	8564.51489
597.768	8180.26068
598.227	8091.01867
598.685	7783.6033
599.144	7379.36553
599.603	7222.35092
600.062	7053.83861
600.52	6867.9847
600.978	6657.24879
601.437	6477.08984
601.895	6197.7524
602.353	6004.01046
602.811	5856.0401
603.269	5696.51489
603.727	5478.61039
604.184	5255.34401
604.642	5173.90922
605.099	4990.67227
605.557	5004.9799
606.014	4786.34387
606.471	4559.33927
606.928	4513.44399
607.385	4416.22008
607.842	4291.95828
608.299	4185.14743
608.755	4076.39066
609.212	3962.9636
609.668	3816.99221
610.125	3871.52779
610.581	3875.48314
611.037	3637.36437
611.493	3530.59577
611.949	3472.68261
612.405	3381.78092
612.861	3423.63285
613.316	3277.71597
613.772	3197.53977
614.227	3089.70049
614.683	2985.27681
615.138	2928.68822
615.593	2845.6695
616.048	2895.61703
616.503	2827.99926
616.958	2692.07329
617.412	2697.78706
617.867	2508.45063
618.321	2562.21464
618.776	2471.49271
619.23	2358.73061
619.684	2374.58801
620.138	2311.70755
620.592	2243.872
621.046	2182.71941
621.5	2151.84658
621.954	2103.53785
622.407	1993.45175
622.861	2015.79665
623.314	1939.51855
623.768	1889.57188
624.221	1787.97607
624.674	1728.44187
625.127	1797.54818
625.58	1810.4867
626.033	1780.36382
626.485	1569.45776
626.938	1576.46107
627.39	1587.39824
627.843	1552.35793
628.295	1467.28469
628.747	1499.40236
629.199	1453.2288
629.651	1428.20483
630.103	1437.24143
630.555	1386.98917
631.006	1354.23988
631.458	1307.20612
631.909	1312.1569
632.361	1234.10527
632.812	1219.06014
633.263	1275.95684
633.714	1236.90827
634.165	1243.23462
634.616	1210.14246
635.067	1180.94623
635.518	1142.07383
635.968	1178.7219
636.419	1083.79198
636.869	1108.02913
637.319	1081.92488
637.769	1033.79095
638.219	1088.02232
638.669	955.82461
639.119	1032.99523
639.569	961.86264
640.019	996.82844
640.468	959.70622
640.918	972.88622
641.367	926.67244
641.816	995.76132
642.265	964.78906
642.714	912.71588
643.163	952.76237
643.612	794.59603
644.061	872.49392
644.51	918.69509
644.958	868.55869
645.406	885.74368
645.855	885.79753
646.303	842.63983
646.751	857.60709
647.199	881.64569
647.647	886.67422
648.095	789.52009
648.543	878.4641
648.99	843.68104
649.438	842.65614
649.885	814.70534
650.333	806.28713
650.78	855.7255
651.227	803.65378
651.674	790.51801
652.121	788.63121
652.568	797.64214
653.015	815.75585
653.461	744.5167
653.908	763.5171
654.354	765.56414
654.801	722.4578
655.247	737.3844
655.693	710.61852
656.139	731.51344
656.585	781.60122
657.031	656.33648
657.477	704.30769
657.922	705.40487
658.368	707.52367
658.813	798.58273
659.259	676.42096
659.704	664.35587
660.149	670.36752
660.594	673.40192
661.039	650.30202
661.484	714.48907
661.929	681.3966
662.373	618.39108
662.818	653.43544
663.262	621.33013
663.707	648.46046
664.151	630.37178
664.595	599.29344
665.039	637.41429
665.483	629.43231
665.927	632.32545
666.371	550.14765
666.814	627.33722
667.258	591.25271
667.701	614.18215
668.145	665.47285
668.588	593.31214
669.031	585.23565
669.474	585.27126
669.917	612.21222
670.36	631.40212
670.803	622.34747
671.245	583.10324
671.688	583.28837
672.13	512.04883
672.573	598.37617
673.015	582.265
673.457	586.14763
673.899	564.24348
674.341	520.1516
674.783	472.0473
675.225	521.17608
675.666	505.11484
676.108	505.00716
676.549	548.18595
676.991	507.02662
677.432	526.95428
677.873	552.16457
678.314	515.13126
678.755	487.09653
679.196	519.09029
679.637	541.21285
680.078	505.09112
680.518	566.20304
680.959	514.13403
681.399	511.16894
681.839	487.09877
682.28	445.02547
682.72	494.04384
683.16	493.13674
683.6	516.08421
684.039	471.91133
684.479	471.07471
684.919	403.87492
685.358	476.12509
685.798	403.99898
686.237	494.10801
686.676	493.06105
687.115	465.01783
687.554	466.03053
687.993	471.97023
688.432	397.8586
688.871	450.95426
689.309	469.04257
689.748	460.8975
690.186	442.992
690.625	467.01877
691.063	424.95747
691.501	413.96469
691.939	450.04957
692.377	491.11096
692.815	427.96051
693.253	476.06626
693.69	466.95454
694.128	452.02278
694.565	458.02039
695.003	454.07839
695.44	428.94638
695.877	413.9096
696.314	529.04436
696.751	471.00145
697.188	426.92071
697.625	482.03
698.061	434.97885
698.498	488.09811
698.934	453.02068
699.371	416.92331
699.807	456.00796
700.243	466.04553
700.679	473.99887
701.115	528.14649
701.551	456.00418
701.987	493.02783
702.422	411.92187
702.858	470.04328
703.294	530.10389
703.729	494.12252
704.164	476.06669
704.599	456.94968
705.035	435.9134
705.47	494.11391
705.904	481.0405
706.339	537.14948
706.774	497.07793
707.209	437.9459
707.643	506.12473
708.078	481.08962
708.512	415.97962
708.946	522.15507
709.38	547.18907
709.814	444.95263
710.248	449.02524
710.682	479.05911
711.116	475.05244
711.549	480.15553
711.983	486.0417
712.416	529.15232
712.85	473.10007
713.283	502.09966
713.716	510.18835
714.149	516.13703
714.582	513.06155
715.015	464.08695
715.448	513.19793
715.881	519.04569
716.313	413.91379
716.746	406.90336
717.178	409.92944
717.61	440.04828
718.043	504.16514
718.475	451.0232
718.907	462.09532
719.339	387.83125
719.77	416.92944
720.202	426.01409
720.634	376.86985
721.065	396.88952
721.497	420.9716
721.928	403.93617
722.359	342.7887
722.79	381.86618
723.221	438.03592
723.652	425.03429
724.083	368.78993
724.514	395.85975
724.945	374.83632
725.375	363.80185
725.806	375.89243
726.236	397.96575
726.666	390.87604
727.096	369.8633
727.526	337.82076
727.956	313.68476
728.386	371.8707
728.816	325.79006
729.246	339.78878
729.675	294.69904
730.105	326.77153
730.534	326.73291
730.964	324.78837
731.393	393.92771
731.822	339.83056
732.251	312.76315
732.68	335.75792
733.109	317.75183
733.537	294.68612
733.966	308.73738
734.395	275.61636
734.823	325.70501
735.251	290.67572
735.68	341.81932
736.108	273.67063
736.536	284.64922
736.964	273.6149
737.392	269.65396
737.82	242.56744
738.247	258.60188
738.675	315.72543
739.102	258.62687
739.53	231.5748
739.957	266.66464
740.384	272.6522
740.811	268.66017
741.238	246.5856
741.665	218.49575
742.092	270.62665
742.519	214.5192
742.945	242.56722
743.372	235.56853
743.798	226.56859
744.225	191.44778
744.651	201.49597
745.077	191.46922
745.503	251.59693
745.929	206.48587
746.355	248.60213
746.781	175.42864
747.207	175.40562
747.632	196.46981
748.058	246.59861
748.483	179.40764
748.908	139.3435
749.334	151.36822
749.759	145.34008
750.184	160.37767
750.609	199.48127
751.033	208.48372
751.458	186.41252
751.883	173.4239
752.307	122.28686
752.732	169.41686
753.156	166.40562
753.58	190.44517
754.005	154.3876
754.429	144.33661
754.853	155.38051
755.277	148.34813
755.7	156.3836
756.124	147.36193
756.548	140.33008
756.971	186.44788
757.394	166.42273
757.818	123.31517
758.241	144.36256
758.664	148.37063
759.087	99.22181
759.51	145.35833
759.933	115.27635
760.356	130.33153
760.778	119.29192
761.201	164.39506
761.623	132.31918
762.046	164.38576
762.468	126.30215
762.89	164.40073
763.312	121.29484
763.734	121.29065
764.156	132.32435
764.578	135.30968
765	128.31114
765.421	89.22621
765.843	104.27221
766.264	169.40394
766.686	114.2858
767.107	90.21877
767.528	13.03329
767.949	71.18142
768.37	100.24563
768.791	114.27555
769.212	65.1641
769.632	66.15501
770.053	65.17189
770.473	67.16412
770.894	86.21599
771.314	122.29088
771.734	70.1644
772.154	120.30678
772.575	128.2958
772.994	68.15577
773.414	121.28988
773.834	72.18083
774.254	121.29506
774.673	107.26044
775.093	75.1863
775.512	51.12668
775.931	87.22082
776.351	91.22612
776.77	46.11349
777.189	64.15336
777.607	82.20971
778.026	84.2096
778.445	45.11349
778.864	87.22332
779.282	78.1884
779.701	60.1521
780.119	56.14231
780.537	58.14557
780.955	90.22904
781.373	100.24699
781.791	47.10678
782.209	95.21932
782.627	53.1403
783.045	68.1574
783.462	72.1844
783.88	38.09906
784.297	49.1241
784.715	33.08545
785.132	77.18693
785.549	57.14334
785.966	88.22125
786.383	58.14347
786.8	71.16574
787.217	67.1596
787.633	19.04797
788.05	132.31146
788.466	76.17996
788.883	51.13073
789.299	86.20725
789.715	47.11513
790.131	76.1893
790.547	58.14557
790.963	70.17423
791.379	70.17732
791.795	49.11286
792.21	65.15275
792.626	78.18548
793.041	38.09458
793.457	75.18569
793.872	7.01672
794.287	18.04349
794.702	69.17052
795.117	71.17668
795.532	12.03043
795.947	83.19998
796.362	78.18669
796.776	118.27508
797.191	23.05692
797.605	35.08292
798.02	62.15145
798.434	50.11233
798.848	82.20186
799.262	72.17881
799.676	80.19534
800.09	64.15796
800.504	61.14864
800.918	27.06328
801.331	72.1889
801.745	70.16132
802.158	44.11067
802.572	64.15581
802.985	68.16486
803.398	63.15082
803.811	101.25862
804.224	37.09281
804.637	39.09365
805.05	82.19018
805.462	48.11864
805.875	18.04708
806.288	20.04876
806.7	81.2034
807.112	28.06563
807.525	67.1657
807.937	47.11679
808.349	21.05313
808.761	62.15297
809.173	77.18665
809.584	70.17327
809.996	37.09124
810.408	41.10634
810.819	61.14396
811.231	8.02089
811.642	-31.0754
812.053	47.11238
812.464	51.12186
812.875	36.09259
813.286	18.04676
813.697	105.24443
814.108	76.18571
814.519	84.18716
814.929	57.1458
815.34	56.13633
815.75	32.08187
816.16	78.19428
816.571	76.19723
816.981	45.10694
817.391	73.17635
817.801	61.1518
818.211	95.22568
818.62	25.06074
819.03	68.16684
819.44	90.23428
819.849	62.1565
820.259	68.17415
820.668	18.0447
821.077	-4.01007
821.486	81.19487
821.895	92.22656
822.304	77.20369
822.713	54.12816
823.122	67.16734
823.531	72.17075
823.939	90.21853
824.348	72.17509
824.756	67.16794
825.164	69.1737
825.573	64.16074
825.981	48.11956
826.389	80.20063
826.797	51.12816
827.205	17.03945
827.612	90.22131
828.02	3.00714
828.428	91.23081
828.835	35.09259
829.243	48.11493
829.65	52.12966
830.057	42.10248
830.464	60.14645
830.871	70.16767
831.278	53.12852
831.685	68.15195
832.092	87.21231
832.499	37.08157
832.905	55.13955
833.312	63.144
833.718	68.16943
834.124	58.13292
834.531	56.14146
834.937	68.17446
835.343	113.27041
835.749	121.2799
836.155	51.13383
836.561	37.0915
836.966	78.19039
837.372	70.17802
837.777	44.11003
838.183	90.19936
838.588	29.07248
838.993	64.15592
839.399	52.12744
839.804	3.00739
840.209	52.13262
840.613	93.20588
841.018	37.09414
841.423	74.18945
841.828	76.19177
842.232	103.25342
842.637	38.09015
843.041	8.0207
843.445	34.08573
843.849	53.13146
844.253	65.15453
844.657	-3.00764
845.061	69.1565
845.465	55.13307
845.869	94.21723
846.272	33.0808
846.676	32.07787
847.079	35.0894
847.483	79.19652
847.886	63.15334
848.289	52.13892
848.692	65.16451
849.095	66.15845
849.498	118.29614
849.901	56.12869
850.304	69.16474
850.707	20.05137
851.109	53.13433
851.512	95.23201
851.914	-18.04599
852.316	45.11414
852.718	1.00261
853.121	50.12277
853.523	-5.01184
853.925	47.12283
854.326	68.16974
854.728	52.13387
855.13	20.05192
855.531	15.03616
855.933	17.04116
856.334	22.05521
856.736	15.03393
857.137	72.16705
857.538	20.05063
857.939	37.09177
858.34	68.16548
858.741	39.10227
859.142	66.15839
859.542	31.08215
859.943	42.10469
860.343	39.09691
860.744	98.23742
861.144	38.09306
861.544	0
861.945	54.13772
862.345	74.18049
862.745	19.04756
863.145	112.26509
863.544	49.12402
863.944	52.12303
864.344	50.1244
864.743	77.19043
865.143	31.07999
865.542	56.12998
865.941	59.14602
866.34	94.22369
866.74	55.14764
867.139	39.09372
867.537	72.18297
867.936	54.13008
868.335	34.08686
868.734	42.1076
869.132	41.0956
869.531	76.18322
869.929	-15.0347
870.327	-2.00485
870.726	99.24501
871.124	97.22501
871.522	45.11486
871.92	76.18682
872.318	30.07372
872.715	52.12886
873.113	68.16536
873.511	32.08008
873.908	-5.01276
874.306	31.07745
874.703	56.14014
875.1	68.1736
875.497	28.0675
875.894	9.02224
876.291	37.09114
876.688	24.06224
877.085	43.10345
877.482	54.13523
877.878	33.07978
878.275	41.10443
878.671	59.13137
879.068	75.18043
879.464	71.17113
879.86	41.09725
880.256	63.15529
880.652	49.12477
881.048	64.15836
881.444	34.08128
881.84	41.10447
882.236	66.16564
882.631	40.09847
883.027	97.23309
883.422	24.0617
883.817	5.01268
884.213	44.11312
884.608	12.02966
885.003	59.14216
885.398	-14.03548
885.793	59.14799
886.188	23.05751
886.582	69.17656
886.977	43.10231
887.371	56.14161
887.766	42.10469
888.16	80.19875
888.554	76.18723
888.949	71.17777
889.343	85.2065
889.737	3.00806
890.131	54.13548
890.525	48.12289
890.918	30.07583
891.312	79.18818
891.706	24.06329
892.099	47.11976
892.492	55.1187
892.886	71.1732
893.279	26.06656
893.672	37.09448
894.065	27.06795
894.458	68.1706
894.851	63.15415
895.244	33.08459
895.637	32.07741
896.029	44.1078
896.422	88.21367
896.814	36.0898
897.206	-1.00241
897.599	91.22356
897.991	59.14253
898.383	37.08773
898.775	5.0114
899.167	3.00707
899.559	49.12415
899.951	60.1413
900.342	78.19752
900.734	-3.00752
901.125	81.21154
901.517	23.05678
901.908	46.11048
902.299	2.00494
902.69	66.15537
903.082	94.22593
903.473	-8.01938
903.863	61.15543
904.254	56.12993
904.645	87.21508
905.036	31.07537
905.426	101.22909
905.817	2.00495
906.207	17.04079
906.597	49.1147
906.987	73.18856
907.378	25.06354
907.768	27.07169
908.158	46.11232
908.547	57.14713
908.937	63.16138
909.327	90.21705
909.717	63.15968
910.106	51.12256
910.495	60.14961
910.885	69.17426
911.274	96.23807
911.663	83.20954
912.052	56.13811
912.441	52.13224
912.83	51.11713
913.219	48.12572
913.608	42.10309
913.997	3.00759
914.385	76.18079
914.774	30.07336
915.162	44.10503
915.55	29.07048
915.939	48.12125
916.327	90.22311
916.715	8.02055
917.103	97.2368
917.491	71.17507
917.878	59.1449
918.266	60.15538
918.654	50.12778
919.041	27.07078
919.429	56.13209
919.816	76.19184
920.203	38.09241
920.591	67.1657
920.978	78.1901
921.365	52.13643
921.752	45.10744
922.139	61.13222
922.525	26.06275
922.912	56.13648
923.299	68.16851
923.685	33.08636
924.072	61.14044
924.458	56.13862
924.844	35.08688
925.231	48.11181
925.617	12.03073
926.003	95.24095
926.389	11.02795
926.774	31.07885
927.16	86.21226
927.546	27.06921
927.931	52.12975
928.317	84.19227
928.702	84.19751
929.088	3.00716
929.473	34.08677
929.858	25.06074
930.243	51.12242
930.628	78.18882
931.013	34.08453
931.398	52.1196
931.783	67.17593
932.167	43.10529
932.552	92.22881
932.937	103.25323
933.321	18.04544
933.705	28.07088
934.09	72.18129
934.474	42.09995
934.858	45.11684
935.242	5.01169
935.626	44.11277
936.009	47.12508
936.393	4.01026
936.777	37.09498
937.16	39.10168
937.544	53.12484
937.927	41.10421
938.311	55.13417
938.694	53.14011
939.077	16.03856
939.46	89.21703
939.843	57.1188
940.226	39.10025
940.609	24.0554
940.991	38.09695
941.374	23.05651
941.757	72.17698
942.139	23.05196
942.522	65.15323
942.904	59.14162
943.286	36.09171
943.668	35.09091
944.05	28.06926
944.432	38.09399
944.814	49.12074
945.196	23.05634
945.578	-9.02164
945.959	54.12648
946.341	82.20015
946.722	69.16139
947.104	45.10768
947.485	45.10484
947.866	48.12099
948.247	10.02541
948.628	60.14612
949.009	43.11026
949.39	57.14174
949.771	71.1645
950.152	56.1373
950.532	-21.05233
950.913	71.17062
951.293	25.06781
951.674	96.23021
952.054	22.0548
952.434	42.10442
952.814	52.1237
953.194	50.13087
953.574	112.27276
953.954	34.081
954.334	31.07754
954.714	18.04413
955.093	34.08385
955.473	37.09274
955.853	47.12174
956.232	53.1452
956.611	57.13656
956.99	51.12816
957.37	30.07672
957.749	74.17576
958.128	44.11098
958.506	57.14769
958.885	36.0911
959.264	28.0689
959.643	115.25829
960.021	38.09437
960.4	37.08409
960.778	85.20805
961.156	49.12287
961.535	40.09343
961.913	72.16778
962.291	26.06698
962.669	27.06868
963.047	45.11495
963.424	54.13772
963.802	43.10588
964.18	121.30231
964.557	95.21688
964.935	72.16989
965.312	40.10434
965.69	93.23109
966.067	77.18658
966.444	77.18882
966.821	47.12123
967.198	85.20488
967.575	78.19081
967.952	69.16202
968.329	69.16732
968.705	72.15369
969.082	78.19906
969.458	23.05546
969.835	72.17456
970.211	32.08238
970.587	81.20054
970.963	95.24181
971.339	69.17958
971.715	76.18888
972.091	68.1669
972.467	31.07759
972.843	39.09698
973.219	110.26117
973.594	40.1048
973.97	85.20099
974.345	52.12441
974.721	57.13786
975.096	50.121
975.471	94.22111
975.846	15.03628
976.221	27.06885
976.596	74.17657
976.971	39.09649
977.346	92.21244
977.72	101.25499
978.095	51.13178
978.469	76.18051
978.844	80.20006
979.218	13.03138
979.593	75.17886
979.967	88.21287
980.341	41.09458
980.715	61.1534
981.089	51.12765
981.463	13.03007
981.837	54.13186
982.21	106.24399
982.584	21.051
982.957	69.17171
983.331	60.14158
983.704	43.1058
984.078	71.1743
984.451	100.24753
984.824	43.10486
985.197	41.09976
985.57	63.15763
985.943	75.18439
986.316	82.2003
986.688	42.10145
987.061	55.1288
987.434	30.07844
987.806	77.18581
988.179	26.06164
988.551	58.14693
988.923	43.10603
989.295	96.23789
989.667	22.05284
990.039	45.11129
990.411	48.11053
990.783	25.05785
991.155	48.11537
991.527	107.26073
991.898	63.1566
992.27	9.02243
992.641	88.21926
993.012	65.15251
993.384	41.09796
993.755	44.11229
994.126	43.10357
994.497	17.04198
994.868	25.05772
995.239	35.08506
995.61	11.02787
995.98	7.01714
996.351	32.0795
996.722	14.0327
997.092	44.10431
997.462	14.03293
997.833	64.15131
998.203	54.13082
998.573	17.04258
998.943	36.08465
999.313	49.11744
999.683	9.02177
1000.053	62.14231
1000.423	67.16229
1000.792	47.12186
1001.162	7.01736
1001.531	62.15252
1001.901	65.16158
1002.27	42.09404
1002.639	34.08711
1003.009	33.07873
1003.378	49.12529
1003.747	86.20174
1004.116	-6.01451
1004.485	66.15724
1004.853	60.15172
1005.222	43.10856
1005.591	82.19349
1005.959	33.07461
1006.328	5.01135
1006.696	45.10863
1007.064	79.19766
1007.433	96.23789
1007.801	69.16876
1008.169	68.17115
1008.537	61.13476
1008.905	-2.00471
1009.273	61.15036
1009.64	19.04559
1010.008	79.18724
1010.375	124.2969
1010.743	119.27101
1011.11	46.10892
1011.478	64.15796
1011.845	101.23512
1012.212	82.18437
1012.579	50.12272
1012.946	41.09774
1013.313	128.30003
1013.68	77.17209
1014.047	25.05985
1014.414	27.06404
1014.78	44.10943
1015.147	74.17813
1015.513	41.09894
1015.88	116.29311
1016.246	83.20361
1016.612	72.16407
1016.978	49.12007
1017.344	26.06452
1017.71	63.15323
1018.076	81.18983
1018.442	89.22733
1018.808	33.08272
1019.174	41.10299
1019.539	106.24126
1019.905	28.0663
1020.27	71.17449
1020.636	98.23276
1021.001	59.14097
1021.366	24.0579
1021.731	60.15399
1022.096	4.01017
1022.461	24.05707
1022.826	46.10938
1023.191	62.16228
1023.556	52.12179
1023.92	95.23158
1024.285	51.12441
1024.649	78.1901
1025.014	83.20429
1025.378	49.12318
1025.742	63.15603
1026.107	100.22382
1026.471	58.13516
1026.835	55.13617
1027.199	12.02908
1027.562	32.07463
1027.926	54.1319
1028.29	44.11142
1028.654	80.18289
1029.017	83.2027
1029.381	55.13121
1029.744	59.15018
1030.107	90.21121
1030.471	61.14569
1030.834	84.18971
1031.197	119.2828
1031.56	27.06397
1031.923	47.12153
1032.286	84.1959
1032.648	61.14553
1033.011	68.15546
1033.374	83.19375
1033.736	50.1314
1034.099	40.09763
1034.461	30.07602
1034.823	49.12198
1035.185	84.21006
1035.548	110.26458
1035.91	55.13156
1036.272	57.1295
1036.634	60.14645
1036.995	75.17535
1037.357	6.01471
1037.719	52.12636
1038.08	64.15148
1038.442	65.15376
1038.803	93.22136
1039.165	37.09355
1039.526	53.12794
1039.887	56.13378
1040.248	32.07907
1040.609	56.13816
1040.97	45.11002
1041.331	51.12903
1041.692	11.02586
1042.053	43.09801
1042.413	81.18752
1042.774	61.14798
1043.134	131.30688
1043.495	61.15296
1043.855	8.01955
1044.215	64.15836
1044.576	20.04807
1044.936	58.1327
1045.296	85.21067
1045.656	86.20952
1046.016	75.18009
1046.375	68.16431
1046.735	15.03423
1047.095	38.08911
1047.454	84.17659
1047.814	76.18169
1048.173	121.28501
1048.533	42.09633
1048.892	23.05546
1049.251	57.14282
1049.61	49.1206
1049.969	63.14805
1050.328	66.14254
1050.687	7.01716
1051.046	23.05625
1051.405	81.20025
1051.763	56.12854
1052.122	60.14928
1052.48	32.07869
1052.839	63.14776
1053.197	53.1246
1053.555	120.26958
1053.914	77.18728
1054.272	78.18747
1054.63	50.12218
1054.988	62.14686
1055.345	40.08628
1055.703	49.11788
1056.061	51.13109
1056.419	41.10623
1056.776	75.18091
1057.134	41.09503
1057.491	45.11272
1057.848	80.19796
1058.206	35.08251
1058.563	56.12322
1058.92	63.14475
1059.277	66.16224
1059.634	72.16857
1059.991	88.20917
1060.348	36.08154
1060.704	-11.0265
1061.061	114.26135
1061.418	44.10676
1061.774	35.08659
1062.131	8.02129
1062.487	60.13993
1062.843	33.08248
1063.199	48.11934
1063.555	33.07667
1063.911	70.17606
1064.267	65.13505
1064.623	23.05611
1064.979	119.27801
1065.335	84.19936
1065.691	45.10789
1066.046	78.1704
1066.402	26.05932
1066.757	83.20812
1067.112	69.16864
1067.468	12.02852
1067.823	56.13439
1068.178	53.12804
1068.533	56.13552
1068.888	80.18994
1069.243	40.09883
1069.598	53.12862
1069.952	-25.05712
1070.307	55.13592
1070.662	57.13505
1071.016	42.0942
1071.371	40.09111
1071.725	82.19484
1072.079	64.15341
1072.434	34.0828
1072.788	52.1237
1073.142	73.17868
1073.496	30.07139
1073.85	28.06517
1074.203	86.20709
1074.557	60.15918
1074.911	118.27778
1075.265	55.12763
1075.618	57.1389
1075.971	27.06446
1076.325	47.11942
1076.678	-1.00231
1077.031	30.06811
1077.385	79.17284
1077.738	34.07695
1078.091	22.05028
1078.444	56.12977
1078.796	77.18784
1079.149	34.08475
1079.502	34.08051
1079.855	58.13494
1080.207	89.21752
1080.56	41.10605
1080.912	42.10232
1081.264	66.15833
1081.617	52.12659
1081.969	7.01778
1082.321	70.17016
1082.673	29.06642
1083.025	62.14664
1083.377	-140.31257
1083.728	73.16941
1084.08	40.09996
1084.432	20.04847
1084.783	94.21818
1085.135	36.09038
1085.486	1.00231
1085.838	58.14252
1086.189	26.06334
1086.54	33.079
1086.891	33.08364
1087.242	36.08781
1087.593	84.20304
1087.944	-8.0183
1088.295	90.20277
1088.646	43.10427
1088.996	31.07489
1089.347	58.14199
1089.698	14.03329
1090.048	98.25221
1090.398	59.13648
1090.749	64.1526
1091.099	6.01519
1091.449	55.13677
1091.799	33.08281
1092.149	-7.01724
1092.499	68.16517
1092.849	47.11942
1093.199	90.22376
1093.548	31.07469
1093.898	43.10763
1094.248	68.17403
1094.597	-5.01287
1094.947	46.12269
1095.296	20.04962
1095.645	29.07563
1095.994	66.15791
1096.343	57.14313
1096.692	19.05013
1097.041	15.04081
1097.39	80.1994
1097.739	60.15554
1098.088	70.18676
1098.437	-14.03714
1098.785	90.24083
1099.134	58.15366
1099.482	61.16733
1099.83	45.11824
1100.179	-4.01052
1100.527	40.10637
1100.875	57.15038
1101.223	20.05332
1101.571	24.06653
1101.919	2.00526
1102.267	22.06215
1102.615	5.01607
1102.962	12.03863
1103.31	-6.0193
1103.658	17.05472
