Data from N2 R13 sample 5_Subt2__4__12-19-09-748.txt Node

Date: Tue Sep 02 12:19:09 PDT 2025
User: uwsun
Spectrometer: HDX01956
Trigger mode: 0
Integration Time (sec): 5.000000E-1
Scans to average: 1
Nonlinearity correction enabled: true
Boxcar width: 0
Storing dark spectrum: false
XAxis mode: Wavelengths
Number of Pixels in Spectrum: 2068
>>>>>Begin Spectral Data<<<<<
194.03	19.05317
194.578	21.06624
195.127	14.04355
195.676	18.05614
196.225	84.21971
196.773	77.20852
197.321	44.11724
197.87	108.26194
198.418	93.22323
198.966	63.153
199.513	25.05825
200.061	57.13421
200.609	142.34827
201.156	15.03064
201.704	51.11952
202.251	52.12848
202.798	78.18811
203.345	144.32761
203.892	113.26223
204.438	88.19526
204.985	83.18052
205.532	98.23822
206.078	101.22899
206.624	28.06419
207.17	104.22287
207.716	77.17273
208.262	111.20129
208.808	22.05034
209.354	42.09509
209.899	147.34247
210.445	43.09923
210.99	91.2017
211.535	102.2217
212.08	129.27555
212.625	102.23628
213.17	116.27148
213.715	47.09647
214.259	95.20495
214.804	134.30511
215.348	124.26102
215.892	109.2414
216.436	149.31716
216.98	111.22732
217.524	51.11248
218.068	116.2702
218.612	117.2728
219.155	105.22837
219.698	85.18825
220.242	145.33395
220.785	155.33237
221.328	85.19756
221.871	109.25764
222.414	143.32935
222.956	32.07224
223.499	67.14094
224.041	113.24514
224.583	133.26658
225.126	119.24249
225.668	91.20557
226.21	66.15507
226.751	27.0554
227.293	77.16462
227.835	78.17731
228.376	132.28238
228.918	147.34301
229.459	100.23036
230	81.17954
230.541	108.23094
231.082	58.13147
231.622	146.30963
232.163	46.10427
232.704	63.14562
233.244	81.18685
233.784	101.23067
234.324	3.00618
234.864	93.19538
235.404	134.2941
235.944	125.27383
236.484	151.3468
237.023	101.22041
237.563	103.21944
238.102	104.2272
238.641	129.30054
239.18	49.10648
239.719	94.21878
240.258	107.22221
240.797	134.29336
241.335	124.27982
241.874	68.12102
242.412	68.15163
242.95	61.13487
243.488	121.25364
244.026	76.16188
244.564	113.21339
245.102	80.1658
245.64	100.22317
246.177	86.17816
246.715	116.25663
247.252	90.19128
247.789	120.20814
248.326	80.17647
248.863	42.08549
249.4	94.19691
249.936	103.19403
250.473	52.1123
251.009	119.24834
251.546	80.16224
252.082	95.19112
252.618	87.17769
253.154	64.14177
253.69	91.18814
254.226	94.20579
254.761	120.24559
255.297	77.15469
255.832	79.17175
256.367	131.28067
256.903	121.24129
257.438	114.24493
257.972	100.20354
258.507	62.13011
259.042	85.16903
259.576	67.13149
260.111	131.27545
260.645	81.16092
261.179	80.17062
261.713	106.21418
262.247	100.21059
262.781	78.14892
263.315	114.25326
263.849	78.17846
264.382	106.22224
264.915	129.2722
265.449	-7.01572
265.982	111.22969
266.515	126.27782
267.048	150.28375
267.58	131.25941
268.113	85.16651
268.646	88.19753
269.178	58.11806
269.71	124.24434
270.243	87.18108
270.775	98.22647
271.307	148.32154
271.838	161.34479
272.37	133.29467
272.902	96.19825
273.433	95.18777
273.965	71.1575
274.496	98.22178
275.027	117.26171
275.558	102.2234
276.089	68.15082
276.62	136.31241
277.15	101.2262
277.681	129.25162
278.211	60.13451
278.741	53.10564
279.272	83.17067
279.802	91.20582
280.332	90.19087
280.861	136.29258
281.391	51.10473
281.921	147.31658
282.45	151.33734
282.98	88.20756
283.509	106.2132
284.038	84.17199
284.567	131.27375
285.096	85.18495
285.625	54.11057
286.153	90.18853
286.682	119.24139
287.21	79.17036
287.739	57.12123
288.267	87.18793
288.795	121.2849
289.323	85.17636
289.851	74.15522
290.378	98.19529
290.906	66.14217
291.433	95.21101
291.961	67.13485
292.488	78.17336
293.015	41.08613
293.542	120.26725
294.069	106.22961
294.596	110.24133
295.122	160.33235
295.649	66.12932
296.175	122.26065
296.702	145.30811
297.228	120.25705
297.754	96.18908
298.28	77.15355
298.806	96.20226
299.332	102.19579
299.857	91.17927
300.383	156.3444
300.908	65.13776
301.433	104.21959
301.958	177.35198
302.483	107.23163
303.008	120.2586
303.533	124.28222
304.058	112.22994
304.582	79.16164
305.107	71.1615
305.631	192.37246
306.155	91.1824
306.679	100.2003
307.203	89.17764
307.727	120.24392
308.251	115.24437
308.775	68.13816
309.298	100.20354
309.822	153.32823
310.345	112.22589
310.868	155.31139
311.391	174.36094
311.914	100.213
312.437	193.36662
312.96	170.33246
313.482	92.18419
314.005	84.17915
314.527	80.17847
315.049	133.28348
315.571	122.22254
316.093	124.25607
316.615	95.19094
317.137	160.28298
317.659	153.3078
318.18	153.30468
318.702	122.23271
319.223	133.22011
319.744	156.28124
320.265	100.1977
320.786	119.2383
321.307	123.24859
321.828	113.20596
322.348	132.24872
322.869	128.23964
323.389	139.17235
323.909	163.29469
324.43	194.37094
324.95	128.22969
325.47	140.26951
325.989	140.25615
326.509	106.17908
327.029	152.25973
327.548	128.21836
328.067	128.23561
328.587	166.3171
329.106	180.30493
329.625	158.32438
330.144	86.15036
330.662	126.21715
331.181	114.19973
331.7	95.16666
332.218	167.2599
332.736	163.27815
333.255	140.23652
333.773	164.27993
334.291	172.31454
334.808	142.22338
335.326	199.31224
335.844	157.25235
336.361	66.12008
336.879	112.1812
337.396	108.18156
337.913	73.11627
338.43	166.24876
338.947	171.27345
339.464	178.24463
339.981	79.12647
340.497	175.28914
341.014	102.1667
341.53	79.11634
342.046	122.19682
342.562	171.27987
343.078	153.2299
343.594	208.31228
344.11	183.27333
344.626	117.1902
345.141	160.2229
345.657	206.28367
346.172	128.19239
346.687	129.17942
347.202	153.20256
347.717	190.27016
348.232	166.25238
348.747	171.22807
349.261	103.1259
349.776	123.16931
350.29	145.20636
350.805	209.30066
351.319	181.23707
351.833	170.20834
352.347	165.21508
352.861	122.15735
353.374	207.25906
353.888	174.23261
354.401	183.22307
354.915	131.15111
355.428	211.27899
355.941	127.15458
356.454	246.27839
356.967	190.23319
357.48	183.2146
357.993	208.2659
358.505	224.27552
359.018	268.32427
359.53	209.24638
360.042	205.21449
360.554	229.27156
361.066	144.17382
361.578	204.20042
362.09	170.19515
362.602	162.16009
363.113	228.23711
363.625	214.20899
364.136	191.18132
364.647	164.16028
365.158	271.26413
365.669	195.20535
366.18	263.2592
366.691	186.16616
367.201	194.19598
367.712	222.1967
368.222	166.15021
368.733	203.15574
369.243	198.15436
369.753	220.18664
370.263	194.17379
370.773	231.2126
371.282	180.1499
371.792	76.05506
372.301	262.19553
372.811	260.22805
373.32	264.12354
373.829	176.10866
374.338	234.11134
374.847	226.10736
375.356	218.10387
375.865	237.05635
376.373	328.08234
376.882	356.14434
377.39	245.07786
377.898	135.03435
378.407	209.01359
378.915	325.98586
379.423	188.00411
379.93	296.96937
380.438	190.97768
380.946	273.93739
381.453	248.93076
381.96	238.91292
382.468	192.9114
382.975	288.86428
383.482	370.80282
383.989	231.88537
384.495	364.79575
385.002	285.84095
385.509	353.80449
386.015	299.866
386.521	432.81436
387.028	338.88226
387.534	384.91471
388.04	465.88716
388.546	97.99517
389.051	188.0515
389.557	251.13981
390.063	730.61858
390.568	269.26096
391.073	286.43278
391.578	323.5494
392.084	152.34531
392.589	-88.26553
393.093	-68.2726
393.598	155.8128
394.103	169.07932
394.607	401.25743
395.112	439.02188
395.616	152.56042
396.12	-79.96499
396.624	-402.40479
397.128	-15.21615
397.632	427.21127
398.136	-92.30324
398.639	-1138.69605
399.143	-1705.8936
399.646	-1490.52303
400.15	-2049.56748
400.653	-2766.22857
401.156	-4114.67227
401.659	-5497.36138
402.162	-690.3651
402.664	-373.92544
403.167	0
403.67	0
404.172	0
404.674	0
405.176	0
405.678	0
406.18	0
406.682	0
407.184	0
407.686	0
408.187	0
408.688	0
409.19	0
409.691	0
410.192	0
410.693	0
411.194	435.30976
411.694	4082.94878
412.195	8261.731
412.696	7013.05067
413.196	5722.01476
413.696	5520.43631
414.196	7518.28037
414.696	9583.80707
415.196	10665.86031
415.696	11450.20942
416.196	7944.89158
416.695	4384.84874
417.195	3297.90436
417.694	3288.39982
418.194	3155.45063
418.693	2639.33689
419.192	2577.65818
419.691	2383.51107
420.19	2691.72886
420.688	2771.10645
421.187	2891.36461
421.685	2706.3194
422.184	2704.63351
422.682	2126.66971
423.18	1430.58046
423.678	1231.33054
424.176	978.86002
424.674	1010.41684
425.172	1027.77731
425.669	1105.30953
426.167	1073.9883
426.664	904.78124
427.161	750.68385
427.659	706.62154
428.156	612.67331
428.652	558.69067
429.149	519.71634
429.646	576.68642
430.143	566.73402
430.639	405.83288
431.135	423.86684
431.632	389.88115
432.128	385.92639
432.624	227.98949
433.12	161.97431
433.616	133.98274
434.111	78.99836
434.607	174.0082
435.103	272.99589
435.598	225.00592
436.093	246.06051
436.588	161.04817
437.083	269.09011
437.578	160.07261
438.073	-35.02231
438.568	106.0728
439.062	109.05353
439.557	98.07023
440.051	34.02322
440.546	76.05237
441.04	24.01988
441.534	18.01754
442.028	137.11905
442.522	84.07496
443.015	77.05912
443.509	56.05585
444.002	-26.02694
444.496	62.05132
444.989	4.00425
445.482	32.03474
445.975	4.00367
446.468	-26.02271
446.961	-22.0194
447.454	-60.06065
447.947	-49.05251
448.439	-31.03597
448.931	-14.01395
449.424	-26.03275
449.916	25.02914
450.408	-21.02182
450.9	-77.09291
451.392	-96.12594
451.884	-113.133
452.375	-130.16963
452.867	-22.02533
453.358	-57.06456
453.849	-120.12896
454.341	-117.13831
454.832	-95.10466
455.323	-140.1889
455.814	-61.07542
456.304	-85.10719
456.795	-87.1094
457.285	-42.05172
457.776	-47.06097
458.266	-74.09958
458.756	-80.11245
459.247	-145.20232
459.737	-164.232
460.226	-100.12959
460.716	-135.1948
461.206	-82.11902
461.695	-124.19608
462.185	-117.17094
462.674	-137.19781
463.163	-64.08629
463.653	-117.15033
464.142	-125.19248
464.63	-94.14915
465.119	-110.16215
465.608	-145.21696
466.096	-132.18768
466.585	-80.12191
467.073	-87.13992
467.561	-141.23245
468.05	-21.03232
468.538	-89.15064
469.026	-98.1616
469.513	-140.20031
470.001	-151.23788
470.489	-84.13713
470.976	-115.18674
471.463	-118.21208
471.951	-68.12265
472.438	-88.14705
472.925	-160.27134
473.412	-78.14105
473.899	-76.12707
474.385	-94.17164
474.872	-121.20859
475.359	-169.31351
475.845	-111.1688
476.331	-68.1102
476.817	-100.18657
477.303	-115.20398
477.789	-119.22153
478.275	-162.31486
478.761	-143.27111
479.247	-47.08076
479.732	-178.35207
480.218	-114.23616
480.703	-113.22324
481.188	-137.23202
481.673	-197.36546
482.158	-160.26781
482.643	-129.26873
483.128	-126.22972
483.612	-155.29572
484.097	-125.25182
484.581	-149.28621
485.066	-130.2593
485.55	-121.2154
486.034	-159.28305
486.518	-140.27042
487.002	-194.39757
487.486	-166.33973
487.969	-157.32124
488.453	-105.22263
488.936	-118.22158
489.42	-96.17724
489.903	-92.19605
490.386	-561.87658
490.869	-140.26017
491.352	-104.21824
491.835	-126.22192
492.318	-148.28546
492.8	-165.29373
493.283	-150.3288
493.765	-170.36289
494.247	-93.18761
494.73	-160.30727
495.212	-114.24029
495.694	-145.29305
496.175	-190.39202
496.657	-117.24167
497.139	-97.14654
497.62	-208.4334
498.102	-133.28779
498.583	-169.37537
499.064	-156.30392
499.545	-123.24551
500.026	-214.42764
500.507	-136.27795
500.988	-156.34412
501.469	-217.48618
501.949	-174.38511
502.43	-207.43832
502.91	-178.32666
503.39	-141.31526
503.87	-199.41843
504.35	-115.24138
504.83	-161.31374
505.31	-179.38831
505.79	-204.43886
506.269	-181.38176
506.749	-187.38314
507.228	-168.35255
507.707	-185.36909
508.187	-136.29195
508.666	-195.43167
509.145	-222.4708
509.623	-203.43229
510.102	-147.32025
510.581	-142.30982
511.059	-198.44918
511.538	-155.36324
512.016	-166.35927
512.494	-138.3025
512.972	-170.36792
513.45	-278.59161
513.928	-192.42317
514.406	-193.41904
514.884	-181.42301
515.361	-137.29581
515.839	-178.36858
516.316	-148.32209
516.793	-170.39332
517.27	-133.29307
517.747	-173.40416
518.224	-119.24911
518.701	-112.22496
519.178	-232.52865
519.654	-103.22201
520.131	-158.35626
520.607	-144.32641
521.083	-181.37924
521.56	-139.29871
522.036	-159.32017
522.512	-138.31167
522.987	-202.44017
523.463	-178.38869
523.939	-159.35829
524.414	-125.26388
524.89	-154.33515
525.365	-172.35839
525.84	-196.42727
526.315	-153.33729
526.79	-138.28486
527.265	-145.30314
527.74	-146.32583
528.215	-180.39206
528.689	-197.40454
529.164	-144.28803
529.638	-187.44593
530.112	-175.37996
530.587	-189.37269
531.061	-194.43259
531.534	-158.35422
532.008	-147.32433
532.482	-97.20342
532.956	-188.44256
533.429	-116.25749
533.903	-103.20884
534.376	-105.21221
534.849	-119.25331
535.322	-114.24673
535.795	-137.30872
536.268	-127.28032
536.741	-116.2562
537.213	-100.21189
537.686	-150.33656
538.158	-145.29857
538.631	-103.2303
539.103	-132.27162
539.575	-48.09084
540.047	-81.16258
540.519	-99.21742
540.991	-41.09118
541.463	-69.1523
541.934	-45.09324
542.406	-117.25587
542.877	-50.10228
543.348	-24.05243
543.82	0
544.291	1.0021
544.762	19.04011
545.233	17.03801
545.703	-2.00395
546.174	72.14749
546.645	11.02325
547.115	71.15028
547.585	84.16926
548.056	128.26529
548.526	93.18934
548.996	161.33271
549.466	267.54928
549.935	174.34852
550.405	210.38442
550.875	289.56452
551.344	352.68938
551.814	377.69906
552.283	435.74964
552.752	430.79
553.221	431.73046
553.69	524.89274
554.159	602.12121
554.628	568.95577
555.096	679.29217
555.565	748.20375
556.033	800.37318
556.502	818.44917
556.97	896.39969
557.438	988.64457
557.906	1112.80631
558.374	1148.7685
558.842	1248.97306
559.31	1400.94738
559.777	1425.17269
560.245	1574.23919
560.712	1707.28213
561.18	1878.19324
561.647	2016.29693
562.114	2135.40131
562.581	2337.82212
563.048	2428.54243
563.514	2680.83667
563.981	2875.50502
564.448	3059.36355
564.914	3221.53333
565.381	3367.3715
565.847	3647.42413
566.313	3864.2901
566.779	4139.96001
567.245	4327.07537
567.711	4591.0693
568.176	4717.58836
568.642	5023.11675
569.108	5293.83966
569.573	5687.41981
570.038	5857.76213
570.504	6168.96213
570.969	6290.57152
571.434	6724.85576
571.899	6975.26
572.363	7243.17493
572.828	7466.3266
573.293	7726.5142
573.757	8073.86409
574.222	8215.9841
574.686	8300.10665
575.15	8559.5778
575.614	8723.8222
576.078	8886.1388
576.542	9019.4084
577.006	9002.37408
577.469	9242.89344
577.933	9076.54287
578.396	9203.80668
578.86	9172.73872
579.323	9053.48074
579.786	9006.40108
580.249	8793.94968
580.712	8778.98158
581.175	8601.70582
581.637	8564.55962
582.1	8420.28003
582.563	8252.00397
583.025	8020.94087
583.487	7861.40224
583.95	7591.2293
584.412	7551.16225
584.874	7250.43827
585.336	6944.24783
585.797	6756.83816
586.259	6555.22424
586.721	6233.20826
587.182	6097.27027
587.643	5856.15952
588.105	5728.43149
588.566	5407.95217
589.027	5227.74504
589.488	5142.49506
589.949	4937.98108
590.41	4745.87507
590.87	4522.86849
591.331	4478.57853
591.791	4295.02053
592.252	4123.04519
592.712	4023.43354
593.172	3845.12576
593.632	3727.06603
594.092	3600.1962
594.552	3514.04916
595.011	3309.43467
595.471	3290.33235
595.931	3066.37333
596.39	3006.74277
596.849	2921.61828
597.308	2888.30147
597.768	2842.08921
598.227	2747.81415
598.685	2785.59415
599.144	2725.65835
599.603	2556.72122
600.062	2466.17426
600.52	2420.41904
600.978	2443.70908
601.437	2400.55266
601.895	2357.21947
602.353	2315.40849
602.811	2254.38878
603.269	2227.69519
603.727	2178.67712
604.184	2151.40748
604.642	2039.71372
605.099	2104.52212
605.557	2004.68246
606.014	1957.18196
606.471	1896.68703
606.928	1931.13893
607.385	1870.55445
607.842	1877.35985
608.299	1826.41192
608.755	1809.51146
609.212	1841.23749
609.668	1826.20235
610.125	1793.52348
610.581	1811.50952
611.037	1743.33423
611.493	1651.38319
611.949	1621.39826
612.405	1632.85875
612.861	1588.33542
613.316	1588.35802
613.772	1564.22616
614.227	1503.25519
614.683	1538.02221
615.138	1389.1335
615.593	1428.15366
616.048	1517.20078
616.503	1401.31243
616.958	1435.3936
617.412	1357.15107
617.867	1316.92531
618.321	1400.85237
618.776	1352.98328
619.23	1284.06875
619.684	1295.99475
620.138	1279.05659
620.592	1254.13956
621.046	1246.05227
621.5	1218.10446
621.954	1232.94428
622.407	1185.86808
622.861	1181.06988
623.314	1100.82974
623.768	1112.89233
624.221	1088.52246
624.674	1063.81399
625.127	1088.88313
625.58	1145.90647
626.033	1061.74192
626.485	989.80693
626.938	1000.82018
627.39	1028.81001
627.843	990.7529
628.295	976.7352
628.747	994.81928
629.199	971.69915
629.651	916.62491
630.103	969.71517
630.555	932.52471
631.006	927.71302
631.458	937.73929
631.909	971.74633
632.361	979.78412
632.812	872.61159
633.263	904.53732
633.714	913.54141
634.165	879.72698
634.616	880.69123
635.067	886.57888
635.518	857.66869
635.968	894.41925
636.419	866.51773
636.869	876.69807
637.319	820.55761
637.769	847.53997
638.219	821.62727
638.669	800.58523
639.119	832.68479
639.569	812.62926
640.019	874.65311
640.468	798.47824
640.918	827.65978
641.367	797.4863
641.816	766.4358
642.265	813.5649
642.714	773.50348
643.163	787.51623
643.612	786.58283
644.061	734.3034
644.51	782.49252
644.958	766.41109
645.406	786.58429
645.855	775.61321
646.303	814.59573
646.751	757.45415
647.199	753.45062
647.647	762.48311
648.095	736.43582
648.543	799.36085
648.99	719.47463
649.438	778.55306
649.885	796.67421
650.333	766.23699
650.78	765.57544
651.227	761.58193
651.674	776.49608
652.121	738.54463
652.568	756.57188
653.015	769.67296
653.461	768.55717
653.908	764.51873
654.354	746.53179
654.801	710.43747
655.247	779.44836
655.693	707.61265
656.139	734.51864
656.585	749.5466
657.031	739.4775
657.477	712.31996
657.922	757.49048
658.368	766.63012
658.813	779.55183
659.259	662.39577
659.704	700.41784
660.149	706.42936
660.594	703.45475
661.039	688.36618
661.484	761.5707
661.929	723.46883
662.373	694.53809
662.818	692.50883
663.262	631.34867
663.707	713.5858
664.151	691.48534
664.595	666.41773
665.039	749.6246
665.483	749.66454
665.927	739.51365
666.371	661.34576
666.814	684.44095
667.258	703.45411
667.701	756.40657
668.145	736.6062
668.588	685.48694
669.031	687.41907
669.474	714.50949
669.917	711.37615
670.36	711.55389
670.803	771.61767
671.245	690.2721
671.688	750.60018
672.13	630.25666
672.573	696.57064
673.015	698.48013
673.457	662.27351
673.899	676.45586
674.341	679.45451
674.783	635.36191
675.225	650.42914
675.666	669.4269
676.108	618.20071
676.549	671.41446
676.991	723.39274
677.432	693.20275
677.873	716.4569
678.314	634.3583
678.755	642.4003
679.196	669.3596
679.637	690.50002
680.078	680.41495
680.518	689.42575
680.959	692.47059
681.399	698.53734
681.839	659.4353
682.28	651.43942
682.72	657.33943
683.16	665.4814
683.6	742.48248
684.039	689.26232
684.479	666.46067
684.919	655.34381
685.358	729.63947
685.798	678.59324
686.237	709.5208
686.676	758.53967
687.115	727.50448
687.554	670.41946
687.993	656.29346
688.432	678.37635
688.871	671.35252
689.309	754.57815
689.748	716.3109
690.186	720.52152
690.625	659.38002
691.063	696.4823
691.501	701.54234
691.939	730.60988
692.377	702.52096
692.815	711.50412
693.253	680.4601
693.69	697.35158
694.128	671.45158
694.565	713.50573
695.003	745.67137
695.44	751.54658
695.877	735.50749
696.314	786.45959
696.751	812.60005
697.188	727.46824
697.625	813.6144
698.061	714.51607
698.498	780.65131
698.934	810.69322
699.371	753.55209
699.807	778.60547
700.243	749.5839
700.679	790.55081
701.115	750.55247
701.551	752.55453
701.987	858.64573
702.422	746.55588
702.858	820.6892
703.294	804.57388
703.729	844.78301
704.164	826.71908
704.599	814.55895
705.035	722.41847
705.47	788.67116
705.904	842.68254
706.339	907.78792
706.774	838.6869
707.209	768.543
707.643	842.74232
708.078	794.68536
708.512	795.73541
708.946	877.79824
709.38	819.67845
709.814	823.61985
710.248	848.7821
710.682	848.73208
711.116	779.61795
711.549	840.88494
711.983	821.63409
712.416	871.76103
712.85	857.84322
713.283	819.67543
713.716	903.94219
714.149	888.80567
714.582	825.58956
715.015	806.76276
715.448	823.80563
715.881	866.60765
716.313	799.62342
716.746	780.59881
717.178	744.57366
717.61	829.8287
718.043	807.75419
718.475	794.67731
718.907	811.79419
719.339	700.40039
719.77	726.51614
720.202	724.62589
720.634	672.46086
721.065	733.53043
721.497	732.58602
721.928	602.34121
722.359	655.41391
722.79	674.43913
723.221	718.60714
723.652	702.62082
724.083	633.27932
724.514	655.34502
724.945	599.27522
725.375	604.26497
725.806	639.44104
726.236	559.31621
726.666	563.21768
727.096	584.30642
727.526	587.36022
727.956	537.11726
728.386	562.26747
728.816	519.21339
729.246	496.11615
729.675	463.06279
730.105	549.24089
730.534	526.13196
730.964	532.24163
731.393	552.26059
731.822	531.25214
732.251	498.17354
732.68	516.1223
733.109	444.02499
733.537	437.99104
733.966	440.0246
734.395	451.97411
734.823	493.0292
735.251	374.85698
735.68	426.00477
736.108	408.97708
736.536	374.83942
736.964	377.83102
737.392	392.9309
737.82	449.00794
738.247	388.88191
738.675	405.91588
739.102	355.84679
739.53	365.88594
739.957	338.83348
740.384	393.92051
740.811	352.8536
741.238	341.79687
741.665	292.65406
742.092	354.8079
742.519	303.72279
742.945	305.70605
743.372	288.68977
743.798	323.7984
744.225	305.69904
744.651	300.72671
745.077	285.68792
745.503	331.77503
745.929	294.68153
746.355	304.7303
746.781	267.64277
747.207	226.51852
747.632	248.58855
748.058	254.61715
748.483	263.58874
748.908	262.63277
749.334	236.56633
749.759	256.58734
750.184	214.49983
750.609	259.61926
751.033	255.58751
751.458	258.56361
751.883	242.58536
752.307	193.44751
752.732	183.45023
753.156	227.54835
753.58	249.57666
754.005	222.55191
754.429	184.42673
754.853	176.43037
755.277	199.46343
755.7	232.56244
756.124	135.33313
756.548	169.39621
756.971	205.49185
757.394	152.38804
757.818	161.40978
758.241	198.49368
758.664	179.44575
759.087	126.28073
759.51	184.45144
759.933	160.38119
760.356	131.33402
760.778	160.38951
761.201	188.45081
761.623	191.45669
762.046	172.40395
762.468	211.49776
762.89	184.44793
763.312	144.34938
763.734	100.24117
764.156	161.39348
764.578	159.36298
765	152.36782
765.421	93.23621
765.843	126.32855
766.264	211.50027
766.686	155.3857
767.107	118.28533
767.528	95.23975
767.949	120.30398
768.37	114.27929
768.791	167.39962
769.212	97.24349
769.632	68.15964
770.053	127.33235
770.473	94.2291
770.894	132.32877
771.314	108.25819
771.734	93.21744
772.154	131.33426
772.575	126.2913
772.994	83.18956
773.414	128.30624
773.834	67.16842
774.254	102.24961
774.673	168.40423
775.093	86.21319
775.512	55.13652
775.931	105.26565
776.351	59.14746
776.77	72.17679
777.189	110.26127
777.607	107.27244
778.026	147.3626
778.445	50.12598
778.864	131.33367
779.282	108.25938
779.701	115.28867
780.119	74.18746
780.537	42.10571
780.955	99.25154
781.373	95.23486
781.791	83.18719
782.209	152.34693
782.627	84.22121
783.045	86.19835
783.462	80.2046
783.88	35.09128
784.297	91.22875
784.715	32.08287
785.132	50.122
785.549	72.18057
785.966	90.2262
786.383	82.20194
786.8	123.28419
787.217	75.17838
787.633	64.16028
788.05	108.25602
788.466	98.23106
788.883	50.12819
789.299	110.26388
789.715	98.23777
790.131	115.2844
790.547	74.18519
790.963	89.22075
791.379	104.26186
791.795	87.19885
792.21	88.20587
792.626	89.21119
793.041	80.19759
793.457	87.21492
793.872	76.17912
794.287	23.05552
794.702	85.20944
795.117	46.11499
795.532	39.09843
795.947	79.19049
796.362	102.24301
796.776	131.3046
797.191	72.17659
797.605	-12.02869
798.02	47.11513
798.434	90.20053
798.848	49.12136
799.262	27.0676
799.676	103.25042
800.09	67.16527
800.504	94.22764
800.918	21.04927
801.331	101.26368
801.745	47.10881
802.158	63.15791
802.572	104.25129
802.985	100.24099
803.398	68.16263
803.811	98.25107
804.224	88.21871
804.637	67.16002
805.05	59.13746
805.462	91.22315
805.875	60.15581
806.288	53.12842
806.7	57.14375
807.112	61.14206
807.525	127.31062
807.937	72.17809
808.349	89.22244
808.761	101.2474
809.173	80.19381
809.584	72.17816
809.996	30.07407
810.408	20.05206
810.819	84.19736
811.231	45.11676
811.642	65.15525
812.053	31.07435
812.464	104.24597
812.875	84.21422
813.286	56.14452
813.697	166.38178
814.108	104.25281
814.519	90.20028
814.929	123.31097
815.34	69.16757
815.75	61.15527
816.16	79.19673
816.571	65.169
816.981	95.2236
817.391	103.24742
817.801	1.00252
818.211	68.16238
818.62	42.10171
819.03	69.16927
819.44	84.21889
819.849	77.19384
820.259	86.21956
820.668	63.15518
821.077	28.07007
821.486	59.14253
821.895	93.22898
822.304	85.22456
822.713	51.12111
823.122	52.13022
823.531	38.09071
823.939	57.13926
824.348	76.18467
824.756	81.20252
825.164	96.2405
825.573	33.08334
825.981	94.23217
826.389	69.17339
826.797	65.16293
827.205	51.11756
827.612	94.23098
828.02	37.08746
828.428	91.23081
828.835	58.15284
829.243	60.14333
829.65	38.09499
830.057	56.13628
830.464	56.13679
830.871	80.19126
831.278	24.05852
831.685	68.15195
832.092	91.22191
832.499	68.14893
832.905	86.217
833.312	78.17774
833.718	72.17927
834.124	90.20492
834.531	100.25061
834.937	71.18206
835.343	78.1879
835.749	124.28667
836.155	59.15461
836.561	74.18177
836.966	68.16629
837.372	77.19557
837.777	49.12242
838.183	116.25556
838.588	66.16385
838.993	101.24436
839.399	42.10313
839.804	-7.01729
840.209	42.1073
840.613	57.12713
841.018	60.15205
841.423	55.14128
841.828	73.1843
842.232	68.16839
842.637	50.11835
843.041	37.09524
843.445	50.12571
843.849	61.15108
844.253	71.1686
844.657	43.10864
845.061	71.16098
845.465	59.14264
845.869	52.12117
846.272	78.18939
846.676	66.15959
847.079	53.13495
847.483	107.26481
847.886	79.19171
848.289	61.16272
848.692	44.11178
849.095	67.16082
849.498	151.37671
849.901	53.12187
850.304	78.1859
850.707	80.2033
851.109	117.29316
851.512	62.15235
851.914	15.0381
852.316	74.18672
852.718	-4.01044
853.121	67.16399
853.523	56.13106
853.925	43.11245
854.326	48.12025
854.728	27.06981
855.13	15.03897
855.531	47.1126
855.933	59.14173
856.334	60.14955
856.736	-3.00681
857.137	61.14184
857.538	34.08585
857.939	46.11391
858.34	80.19425
858.741	86.22371
859.142	69.16549
859.542	47.12421
859.943	50.12445
860.343	37.09197
860.744	75.18248
861.144	102.24683
861.544	12.02909
861.945	62.15789
862.345	54.1322
862.745	72.17849
863.145	101.23957
863.544	78.19639
863.944	55.13006
864.344	82.20283
864.743	93.22932
865.143	87.2223
865.542	56.12998
865.941	71.17533
866.34	78.18619
866.74	79.21122
867.139	44.10563
867.537	69.17544
867.936	69.16575
868.335	59.15007
868.734	78.19857
869.132	86.19874
869.531	77.1856
869.929	15.03449
870.327	50.12004
870.726	95.23529
871.124	66.15404
871.522	84.21294
871.92	72.17711
872.318	74.18035
872.715	70.17289
873.113	85.20604
873.511	36.09003
873.908	22.05587
874.306	42.10473
874.703	90.22384
875.1	95.24138
875.497	53.12717
875.894	21.05178
876.291	46.11312
876.688	42.10858
877.085	71.1699
877.482	80.1994
877.878	35.08459
878.275	55.13975
878.671	85.18825
879.068	46.11127
879.464	69.16638
879.86	28.06658
880.256	67.16503
880.652	77.19509
881.048	59.14613
881.444	72.17088
881.84	61.15488
882.236	76.1904
882.631	61.14959
883.027	75.18098
883.422	81.20617
883.817	42.10579
884.213	42.10802
884.608	34.0837
885.003	43.10392
885.398	28.07042
885.793	65.16287
886.188	37.09228
886.582	92.23446
886.977	89.20988
887.371	58.14661
887.766	52.12938
888.16	70.17423
888.554	55.13602
888.949	80.19998
889.343	53.12953
889.737	42.11213
890.131	59.14789
890.525	63.16087
890.918	81.20289
891.312	106.25118
891.706	69.18057
892.099	79.20016
892.492	80.17173
892.886	12.0296
893.279	71.18034
893.672	30.0767
894.065	23.05792
894.458	90.2249
894.851	77.18791
895.244	27.06928
895.637	69.16575
896.029	45.11023
896.422	34.08339
896.814	39.09723
897.206	56.13332
897.599	101.24767
897.991	45.109
898.383	36.08537
898.775	44.09954
899.167	15.03525
899.559	74.18666
899.951	58.13664
900.342	35.08931
900.734	-7.01756
901.125	60.15726
901.517	44.1082
901.908	68.16263
902.299	66.16098
902.69	66.15537
903.082	55.13317
903.473	6.0145
903.863	63.16047
904.254	27.063
904.645	81.20047
905.036	46.11153
905.426	133.2997
905.817	65.15916
906.207	60.14278
906.597	53.12397
906.987	64.16557
907.378	34.08628
907.768	38.10071
908.158	55.13407
908.547	20.05196
908.937	73.18666
909.327	79.19092
909.717	89.22453
910.106	51.12256
910.495	78.19385
910.885	93.23387
911.274	31.07779
911.663	76.19211
912.052	66.16248
912.441	75.18995
912.83	51.11713
913.219	106.27489
913.608	71.17333
913.997	77.19217
914.385	76.18079
914.774	55.13387
915.162	45.1074
915.55	68.16406
915.939	28.07098
916.327	39.09758
916.715	39.09962
917.103	94.22961
917.491	66.16289
917.878	67.1643
918.266	69.17841
918.654	78.19836
919.041	0
919.429	27.06404
919.816	58.14687
920.203	50.12131
920.591	62.15347
920.978	82.1997
921.365	46.12081
921.752	43.1027
922.139	92.19809
922.525	46.1106
922.912	45.1099
923.299	53.1317
923.685	52.13564
924.072	88.2015
924.458	49.12145
924.844	56.13847
925.231	34.07942
925.617	29.07405
926.003	97.24594
926.389	80.20078
926.774	91.229
927.16	89.21954
927.546	38.09722
927.931	83.20594
928.317	63.14481
928.702	67.15806
929.088	24.05707
929.473	66.16749
929.858	1.00244
930.243	48.11528
930.628	42.10236
931.013	81.19966
931.398	62.14231
931.783	52.13689
932.167	66.16092
932.552	66.16493
932.937	115.28211
933.321	40.10057
933.705	63.15848
934.09	74.18625
934.474	65.154
934.858	27.07032
935.242	53.1228
935.626	62.1584
936.009	56.14881
936.393	68.1725
936.777	16.04122
937.16	66.17128
937.544	89.20817
937.927	34.08653
938.311	96.2324
938.694	84.22091
939.077	91.21618
939.46	93.22662
939.843	93.19227
940.226	58.14859
940.609	73.16685
940.991	61.15499
941.374	46.11253
941.757	48.11851
942.139	17.03845
942.522	79.18572
942.904	45.1083
943.286	92.23206
943.668	76.196
944.05	44.10852
944.432	48.11851
944.814	95.2321
945.196	-5.01231
945.578	-6.01442
945.959	59.13805
946.341	86.20976
946.722	80.18671
947.104	22.05288
947.485	80.1851
947.866	63.15837
948.247	55.13866
948.628	93.22509
949.009	15.03865
949.39	80.1981
949.771	99.2281
950.152	59.14457
950.532	6.01488
950.913	82.19664
951.293	24.06511
951.674	46.11136
952.054	10.02496
952.434	40.09949
952.814	55.13076
953.194	86.22371
953.574	59.14511
953.954	85.20053
954.334	38.09492
954.714	45.10978
955.093	109.26511
955.473	30.07529
955.853	40.10373
956.232	47.12888
956.611	91.2166
956.99	36.09071
957.37	56.14256
957.749	50.11931
958.128	31.07838
958.506	72.18607
958.885	53.13371
959.264	28.0689
959.643	44.10027
960.021	39.09684
960.4	38.08635
960.778	81.19841
961.156	55.13776
961.535	62.14419
961.913	83.19299
962.291	27.06955
962.669	44.11158
963.047	22.05642
963.424	58.14781
963.802	23.05684
964.18	87.2187
964.557	70.16061
964.935	75.17687
965.312	54.14052
965.69	82.20417
966.067	67.16265
966.444	48.11834
966.821	58.14932
967.198	93.22382
967.575	115.27939
967.952	149.3444
968.329	38.09268
968.705	80.17048
969.082	24.06183
969.458	36.08659
969.835	52.12655
970.211	56.14357
970.587	89.22002
970.963	42.1079
971.339	55.14349
971.715	26.06521
972.091	107.26073
972.467	95.23503
972.843	41.10192
973.219	127.30054
973.594	23.06044
973.97	104.24502
974.345	63.15041
974.721	109.26103
975.096	84.20197
975.471	67.15843
975.846	48.11537
976.221	55.13955
976.596	86.20474
976.971	46.11366
977.346	93.21471
977.72	28.07161
978.095	71.18282
978.469	87.2062
978.844	105.26138
979.218	-4.00969
979.593	93.22102
979.967	61.14831
980.341	35.08084
980.715	58.14593
981.089	56.14004
981.463	35.08061
981.837	49.11976
982.21	84.1942
982.584	37.08959
982.957	5.01259
983.331	105.24559
983.704	30.07399
984.078	59.14516
984.451	112.27663
984.824	25.06117
985.197	40.09734
985.57	64.1601
985.943	96.23511
986.316	60.14716
986.688	61.14681
987.061	54.12648
987.434	50.13029
987.806	55.13327
988.179	30.07106
988.551	82.20683
988.923	39.09624
989.295	76.18902
989.667	3.00723
990.039	24.05958
990.411	59.13556
990.783	100.22797
991.155	50.12013
991.527	105.25595
991.898	25.06257
992.27	78.19195
992.641	80.19962
993.012	77.18024
993.384	47.11217
993.755	38.09708
994.126	73.17482
994.497	34.0837
994.868	79.18042
995.239	33.08023
995.61	38.09582
995.98	43.10459
996.351	-11.02754
996.722	72.16626
997.092	46.10901
997.462	17.03997
997.833	100.23477
998.203	64.15476
998.573	55.13682
998.943	11.02599
999.313	25.06019
999.683	42.10095
1000.053	3.00697
1000.423	87.20994
1000.792	78.20116
1001.162	41.10106
1001.531	81.19856
1001.901	38.09492
1002.27	80.17773
1002.639	35.08965
1003.009	38.09057
1003.378	37.09481
1003.747	71.16704
1004.116	-6.01451
1004.485	33.07912
1004.853	74.18666
1005.222	69.17339
1005.591	111.26044
1005.959	33.07461
1006.328	64.1436
1006.696	53.12775
1007.064	86.2149
1007.433	18.04524
1007.801	93.22645
1008.169	68.17115
1008.537	72.15869
1008.905	48.11185
1009.273	117.28542
1009.64	45.10744
1010.008	80.18957
1010.375	121.28988
1010.743	119.27101
1011.11	54.12767
1011.478	76.18716
1011.845	57.13384
1012.212	86.1932
1012.579	49.12029
1012.946	90.21253
1013.313	116.27254
1013.68	60.13457
1014.047	57.13562
1014.414	23.0546
1014.78	49.12176
1015.147	130.3096
1015.513	45.10851
1015.88	102.25838
1016.246	93.22772
1016.612	67.15283
1016.978	74.18049
1017.344	36.08918
1017.71	132.31689
1018.076	63.14816
1018.442	81.20719
1018.808	68.16937
1019.174	48.12042
1019.539	141.31864
1019.905	44.10386
1020.27	70.17207
1020.636	111.26298
1021.001	121.28567
1021.366	25.0603
1021.731	67.17174
1022.096	28.07088
1022.461	38.09012
1022.826	62.14698
1023.191	65.17004
1023.556	67.15647
1023.92	72.17626
1024.285	88.21319
1024.649	57.13947
1025.014	89.21881
1025.378	85.21229
1025.742	68.16826
1026.107	81.18201
1026.471	91.21067
1026.835	52.12881
1027.199	6.01456
1027.562	58.13457
1027.926	81.19686
1028.29	76.19136
1028.654	67.15357
1029.017	77.18826
1029.381	55.13121
1029.744	50.12747
1030.107	99.23192
1030.471	86.20442
1030.834	99.22291
1031.197	125.29672
1031.56	95.22211
1031.923	69.17773
1032.286	101.23475
1032.648	106.2507
1033.011	44.10108
1033.374	97.22581
1033.736	7.01853
1034.099	70.1699
1034.461	38.09616
1034.823	42.10469
1035.185	60.15069
1035.548	69.16726
1035.91	58.13866
1036.272	44.10023
1036.634	101.24464
1036.995	105.24405
1037.357	43.1047
1037.719	100.2408
1038.08	81.19109
1038.442	103.24186
1038.803	57.13661
1039.165	71.17842
1039.526	86.20631
1039.887	61.14558
1040.248	53.13045
1040.609	55.13572
1040.97	70.17035
1041.331	51.12903
1041.692	19.0446
1042.053	98.22088
1042.413	58.13489
1042.774	69.16713
1043.134	89.21021
1043.495	52.1306
1043.855	94.22601
1044.215	77.19008
1044.576	37.08864
1044.936	64.14625
1045.296	71.17643
1045.656	95.23106
1046.016	71.17062
1046.375	85.20472
1046.735	84.18902
1047.095	77.17918
1047.454	77.16212
1047.814	48.11537
1048.173	86.20395
1048.533	54.12355
1048.892	24.05786
1049.251	105.26081
1049.61	28.06918
1049.969	74.17353
1050.328	82.17648
1050.687	64.15522
1051.046	60.14574
1051.405	58.14399
1051.763	2.00464
1052.122	11.02761
1052.48	88.21415
1052.839	40.09424
1053.197	43.10129
1053.555	144.3219
1053.914	66.16086
1054.272	113.26979
1054.63	37.09063
1054.988	31.07387
1055.345	33.07128
1055.703	57.13692
1056.061	46.11835
1056.419	23.05978
1056.776	113.27061
1057.134	50.11569
1057.491	47.11768
1057.848	59.14655
1058.206	61.14307
1058.563	41.0905
1058.92	100.22806
1059.277	92.22506
1059.634	77.1801
1059.991	110.26036
1060.348	30.06803
1060.704	19.04552
1061.061	102.23441
1061.418	35.08506
1061.774	84.20595
1062.131	12.03191
1062.487	80.18583
1062.843	82.20313
1063.199	36.0897
1063.555	33.07667
1063.911	58.14619
1064.267	75.15548
1064.623	57.13817
1064.979	111.25973
1065.335	110.25976
1065.691	57.13635
1066.046	65.14239
1066.402	66.14937
1066.757	62.15605
1067.112	78.19031
1067.468	66.15525
1067.823	80.19111
1068.178	73.17569
1068.533	78.18797
1068.888	128.30109
1069.243	77.18896
1069.598	57.13822
1069.952	-6.01366
1070.307	40.09912
1070.662	62.14675
1071.016	39.08752
1071.371	60.13612
1071.725	83.19718
1072.079	55.13207
1072.434	4.0098
1072.788	30.07167
1073.142	101.24593
1073.496	23.05481
1073.85	46.10669
1074.203	81.19524
1074.557	52.13814
1074.911	128.30074
1075.265	55.12763
1075.618	104.25119
1075.971	57.13531
1076.325	37.09418
1076.678	58.13233
1077.031	54.12201
1077.385	30.06632
1077.738	88.19696
1078.091	19.04345
1078.444	56.12977
1078.796	76.18544
1079.149	49.1218
1079.502	32.0758
1079.855	84.19443
1080.207	66.162
1080.56	58.14958
1080.912	55.13367
1081.264	63.15122
1081.617	55.13382
1081.969	59.14847
1082.321	56.13648
1082.673	16.03674
1083.025	80.18855
1083.377	6.01299
1083.728	83.19223
1084.08	50.12472
1084.432	27.06535
1084.783	97.22501
1085.135	41.10284
1085.486	11.02534
1085.838	103.25098
1086.189	46.11165
1086.54	134.31459
1086.891	23.0584
1087.242	37.09023
1087.593	93.22441
1087.944	45.10186
1088.295	93.2094
1088.646	88.21159
1088.996	4.00971
1089.347	64.15651
1089.698	-4.00954
1090.048	61.158
1090.398	107.24516
1090.749	54.129
1091.099	44.11067
1091.449	59.14661
1091.799	50.12508
1092.149	31.07579
1092.499	21.05146
1092.849	40.10176
1093.199	64.15987
1093.548	21.05069
1093.898	42.10514
1094.248	51.13091
1094.597	27.06914
1094.947	40.10679
1095.296	58.14289
1095.645	84.21701
1095.994	87.20731
1096.343	88.21974
1096.692	13.03433
1097.041	20.05436
1097.39	85.21167
1097.739	28.07299
1098.088	93.24717
1098.437	-7.01855
1098.785	74.19854
1099.134	80.21117
1099.482	46.12648
1099.83	62.16244
1100.179	8.021
1100.527	77.20349
1100.875	51.13469
1101.223	60.15891
1101.571	36.09961
1101.919	19.04986
1102.267	49.13785
1102.615	1.00322
1102.962	15.04827
1103.31	4.01285
1103.658	13.04186
