Data from N2 R13 sample 11_Subt2__4__12-03-23-284.txt Node

Date: Tue Sep 02 12:03:23 PDT 2025
User: uwsun
Spectrometer: HDX01956
Trigger mode: 0
Integration Time (sec): 5.000000E-1
Scans to average: 1
Nonlinearity correction enabled: true
Boxcar width: 0
Storing dark spectrum: false
XAxis mode: Wavelengths
Number of Pixels in Spectrum: 2068
>>>>>Begin Spectral Data<<<<<
194.03	-67.18998
194.578	-40.12711
195.127	-55.17258
195.676	-73.23026
196.225	-29.07731
196.773	-16.04398
197.321	-43.11622
197.87	-47.1173
198.418	-82.20335
198.966	-76.18937
199.513	-118.28264
200.061	-106.25747
200.609	-55.1398
201.156	-109.22889
201.704	-126.30548
202.251	-93.23588
202.798	-107.26704
203.345	-67.15892
203.892	-88.21231
204.438	-63.14417
204.985	-85.19146
205.532	-102.25719
206.078	-94.22154
206.624	-105.24713
207.17	-79.17598
207.716	-103.23959
208.262	-80.15215
208.808	-167.39657
209.354	-80.18561
209.899	-55.13322
210.445	-126.30053
210.99	-121.28001
211.535	-46.10313
212.08	-94.21048
212.625	-67.16039
213.17	-50.12081
213.715	-136.29069
214.259	-75.16769
214.804	-84.19967
215.348	-93.2051
215.892	-118.27367
216.436	-53.11777
216.98	-79.16875
217.524	-99.22519
218.068	-39.09361
218.612	-59.14232
219.155	-85.19233
219.698	-86.19724
220.242	-61.14625
220.785	-58.13008
221.328	-72.17253
221.871	-57.13905
222.414	-59.14135
222.956	-98.2271
223.499	-75.1627
224.041	-72.16235
224.583	-4.00827
225.126	-74.15742
225.668	-90.2108
226.21	-71.17126
226.751	-104.21969
227.293	-86.19034
227.835	-54.12603
228.376	19.04164
228.918	-40.09676
229.459	-90.21516
230	-52.11845
230.541	-35.07716
231.082	-54.12519
231.622	-47.10387
232.163	-81.18834
232.704	-94.22404
233.244	-102.24385
233.784	-32.07504
234.324	-141.29974
234.864	-93.20339
235.404	-43.09789
235.944	-51.11587
236.484	-39.09297
237.023	-86.1951
237.563	-74.16371
238.102	-60.13562
238.641	-51.12302
239.18	-79.17634
239.719	-85.2048
240.258	-34.07283
240.797	-80.18304
241.335	-56.13101
241.874	-37.06764
242.412	-94.21663
242.95	-130.29887
243.488	-71.15514
244.026	-58.12714
244.564	-25.04881
245.102	-108.23324
245.64	-49.11272
246.177	-48.10242
246.715	-64.1469
247.252	-57.12502
247.789	-26.04685
248.326	-105.24057
248.863	-93.19512
249.4	-73.15857
249.936	-71.13948
250.473	-85.18895
251.009	-88.19208
251.546	-103.21763
252.082	-105.22098
252.618	-43.09042
253.154	-106.24311
253.69	-120.25982
254.226	-82.18618
254.761	-83.17768
255.297	-108.22624
255.832	-108.24412
256.367	-39.08662
256.903	-126.2657
257.438	-36.07984
257.972	-53.11164
258.507	-125.27314
259.042	-60.12335
259.576	-90.18319
260.111	-15.03255
260.645	-76.15653
261.179	-82.18103
261.713	-59.12373
262.247	-78.17069
262.781	-115.22986
263.315	-123.28668
263.849	-67.15776
264.382	-53.11503
264.915	-81.17879
265.449	-144.33238
265.982	-67.14417
266.515	-61.13976
267.048	-95.1905
267.58	-97.20234
268.113	-134.2761
268.646	-93.2165
269.178	-121.25633
269.71	-43.08806
270.243	-70.15079
270.775	-105.25241
271.307	-86.19613
271.838	-68.15283
272.37	-94.21809
272.902	-80.17173
273.433	-146.30489
273.965	-72.16447
274.496	-94.22103
275.027	-112.26232
275.558	-155.35784
276.089	-172.40048
276.62	-69.16499
277.15	-61.14117
277.681	-30.06073
278.211	-69.15879
278.741	-139.28944
279.272	-96.20537
279.802	-42.09756
280.332	-152.33936
280.861	-59.13225
281.391	-149.31979
281.921	-82.18527
282.45	-69.16114
282.98	-70.17016
283.509	-101.21284
284.038	-105.22419
284.567	-82.17944
285.096	-82.18474
285.625	-93.19676
286.153	-176.39034
286.682	-140.30079
287.21	-125.28133
287.739	-122.26957
288.267	-163.37091
288.795	-86.21062
289.323	-144.31405
289.851	-97.21115
290.378	-84.17448
290.906	-161.36369
291.433	-108.24998
291.961	-165.34984
292.488	-91.20934
293.015	-142.31035
293.542	-156.36723
294.069	-108.24461
294.596	-90.20575
295.122	-144.31937
295.649	-70.14157
296.175	-76.16933
296.702	-113.25359
297.228	-92.20609
297.754	-114.23564
298.28	-107.22251
298.806	-160.35604
299.332	-155.316
299.857	-149.31012
300.383	-102.23731
300.908	-198.4437
301.433	-145.32286
301.958	-94.19874
302.483	-177.40635
303.008	-121.27422
303.533	-129.30857
304.058	-127.2748
304.582	-181.39215
305.107	-174.41533
305.631	-79.16318
306.155	-144.30432
306.679	-112.23534
307.203	-139.29214
307.727	-160.34598
308.251	-167.37662
308.775	-199.42893
309.298	-203.44169
309.822	-155.35456
310.345	-135.28774
310.868	-132.28275
311.391	-104.22912
311.914	-164.36933
312.437	-118.24117
312.96	-166.3505
313.482	-129.27148
314.005	-209.47403
314.527	-189.445
315.049	-174.39554
315.571	-206.40707
316.093	-142.31074
316.615	-190.40699
317.137	-143.27296
317.659	-146.31395
318.18	-149.31758
318.702	-146.29663
319.223	-198.35788
319.744	-173.33825
320.265	-191.40338
320.786	-214.46156
321.307	-139.29781
321.828	-184.36069
322.348	-179.3631
322.869	-241.49244
323.389	-392.57909
323.909	-189.37251
324.43	-137.28298
324.95	-244.4799
325.47	-251.52869
325.989	-227.45394
326.509	-276.51496
327.029	-248.4696
327.548	-253.47614
328.067	-259.52321
328.587	-190.39431
329.106	-248.46914
329.625	-179.39543
330.144	-260.49618
330.662	-290.55559
331.181	-251.48215
331.7	-243.4643
332.218	-206.3558
332.736	-234.44222
333.255	-291.54955
333.773	-289.5538
334.291	-237.47833
334.808	-268.47204
335.326	-269.47988
335.844	-319.58265
336.361	-333.66745
336.879	-304.55005
337.396	-343.64807
337.913	-292.51405
338.43	-303.51904
338.947	-361.66572
339.464	-388.63283
339.981	-303.53831
340.497	-344.65076
341.014	-352.64896
341.53	-371.6226
342.046	-374.68883
342.562	-334.62442
343.078	-412.72573
343.594	-342.59956
344.11	-377.65972
344.626	-362.6684
345.141	-426.70693
345.657	-383.62975
346.172	-351.60451
346.687	-416.68156
347.202	-378.59097
347.717	-389.65568
348.232	-399.71
348.747	-417.667
349.261	-490.72887
349.776	-398.64186
350.29	-464.78918
350.805	-378.64494
351.319	-448.71396
351.833	-529.81403
352.347	-489.7818
352.861	-420.64407
353.374	-457.70812
353.888	-468.76167
354.401	-439.65711
354.915	-475.67551
355.428	-441.71306
355.941	-529.79916
356.454	-446.64124
356.967	-478.72962
357.48	-471.68931
357.993	-510.81703
358.505	-499.77553
359.018	-491.76085
359.53	-558.84884
360.042	-548.7542
360.554	-452.67311
361.066	-523.78724
361.578	-486.62257
362.09	-559.82281
362.602	-546.7073
363.113	-555.76757
363.625	-556.72864
364.136	-520.65292
364.647	-653.87027
365.158	-546.72568
365.669	-521.7121
366.18	-587.79568
366.691	-578.70514
367.201	-587.79307
367.712	-597.73805
368.222	-608.75195
368.733	-587.64372
369.243	-630.70972
369.753	-583.6932
370.263	-714.91865
370.773	-693.91451
371.282	-683.81907
371.792	-782.84567
372.301	-699.80256
372.811	-748.98039
373.32	-815.72572
373.829	-746.73959
374.338	-809.71568
374.847	-861.777
375.356	-874.79209
375.865	-898.58251
376.373	-862.59003
376.882	-970.89377
377.39	-930.70526
377.898	-1108.79086
378.407	-1052.51597
378.915	-1078.43546
379.423	-1115.50521
379.93	-1106.3606
380.438	-1261.41406
380.946	-1278.26353
381.453	-1413.24204
381.96	-1467.07364
382.468	-1602.85593
382.975	-1618.86429
383.482	-1746.68044
383.989	-1766.80752
384.495	-1782.49157
385.002	-1962.19086
385.509	-2095.18362
386.015	-2123.94408
386.521	-2107.94987
387.028	-2389.82045
387.534	-2440.7987
388.04	-2505.77235
388.546	-2668.81442
389.051	-2862.98452
389.557	-3062.18476
390.063	-2983.34226
390.568	-3342.61151
391.073	-3471.47276
391.578	-3741.64893
392.084	-3862.03774
392.589	-4167.19857
393.093	-4488.0572
393.598	-4842.7736
394.103	-5117.46288
394.607	-5576.16222
395.112	-6092.37116
395.616	-6596.21633
396.12	-7568.74783
396.624	-8236.72601
397.128	-8864.03042
397.632	-9497.49227
398.136	-10545.66802
398.639	-11946.43565
399.143	-13626.80158
399.646	-15219.20679
400.15	-16974.58966
400.653	-19161.21711
401.156	-21914.63038
401.659	-26283.65384
402.162	-20403.88681
402.664	-2729.68516
403.167	-64.60549
403.67	0
404.172	0
404.674	0
405.176	0
405.678	0
406.18	0
406.682	0
407.184	0
407.686	0
408.187	0
408.688	0
409.19	-3404.01302
409.691	-13137.21492
410.192	-19359.92882
410.693	-23262.88696
411.194	-25023.62273
411.694	-23550.41986
412.195	-21680.71551
412.696	-20107.85891
413.196	-19774.00519
413.696	-18965.45254
414.196	-18671.83219
414.696	-16954.79362
415.196	-15180.28215
415.696	-12601.05343
416.196	-10600.36185
416.695	-9196.00698
417.195	-8604.0121
417.694	-8101.90304
418.194	-7442.71592
418.693	-7418.90822
419.192	-7038.17133
419.691	-6968.52603
420.19	-6664.21075
420.688	-6283.90876
421.187	-5989.51198
421.685	-5415.07142
422.184	-4846.50273
422.682	-4282.61718
423.18	-3992.06073
423.678	-3673.69165
424.176	-3391.55599
424.674	-3171.82601
425.172	-2898.12897
425.669	-2735.78824
426.167	-2446.80127
426.664	-2373.8295
427.161	-2182.96987
427.659	-2028.21989
428.156	-1881.19092
428.652	-1779.59777
429.149	-1810.659
429.646	-1654.6511
430.143	-1549.94164
430.639	-1479.02428
431.135	-1483.28271
431.632	-1346.20128
432.128	-1332.41948
432.624	-1294.57865
433.12	-1260.33052
433.616	-1098.25983
434.111	-1310.56865
434.607	-1208.62241
435.103	-1038.4229
435.598	-989.41985
436.093	-962.66128
436.588	-900.62278
437.083	-824.61334
437.578	-832.69862
438.073	-937.94371
438.568	-830.89156
439.062	-817.69816
439.557	-742.79015
440.051	-773.78442
440.546	-753.77606
441.04	-784.91863
441.534	-748.97841
442.028	-712.87729
442.522	-708.87234
443.015	-644.68804
443.509	-697.92413
444.002	-703.9371
444.496	-693.79504
444.989	-679.92493
445.482	-718.01591
445.975	-704.86001
446.468	-729.85546
446.961	-687.80061
447.454	-654.83027
447.947	-705.9592
448.439	-622.8852
448.931	-729.95379
449.424	-639.98122
449.916	-620.90074
450.408	-666.88026
450.9	-712.05983
451.392	-670.05106
451.884	-619.86789
452.375	-642.98613
452.867	-599.84301
453.358	-617.85184
453.849	-646.84345
454.341	-651.92452
454.832	-654.88177
455.323	-638.00303
455.814	-619.92021
456.304	-605.90428
456.795	-561.82475
457.285	-563.82464
457.776	-535.81163
458.266	-599.94857
458.756	-572.93212
459.247	-595.95199
459.737	-603.97361
460.226	-534.79633
460.716	-583.96046
461.206	-575.96413
461.695	-549.97552
462.185	-575.96044
462.674	-473.75534
463.163	-520.80843
463.653	-527.77422
464.142	-518.89108
464.63	-521.92911
465.119	-566.9524
465.608	-560.94435
466.096	-488.77286
466.585	-448.75825
467.073	-519.93799
467.561	-468.84211
468.05	-445.77138
468.538	-467.87203
469.026	-495.90694
469.513	-416.64739
470.001	-495.8581
470.489	-459.82867
470.976	-444.78826
471.463	-448.87367
471.951	-434.85642
472.438	-463.85386
472.925	-495.91609
473.412	-434.85642
473.899	-350.62942
474.385	-377.73782
474.872	-405.75137
475.359	-474.94633
475.845	-401.66304
476.331	-289.49771
476.817	-375.74746
477.303	-435.83602
477.789	-380.75338
478.275	-389.797
478.761	-325.64358
479.247	-364.67883
479.732	-408.85048
480.218	-368.80558
480.703	-357.74567
481.188	-370.66642
481.673	-366.70764
482.158	-434.78132
482.643	-322.69954
483.128	-389.75662
483.612	-367.73628
484.097	-314.66008
484.581	-286.56754
485.066	-350.7338
485.55	-400.76375
486.034	-335.62365
486.518	-370.75413
487.002	-365.77691
487.486	-330.70043
487.969	-367.7866
488.453	-313.69373
488.936	-296.58025
489.42	-311.60519
489.903	-292.64921
490.386	-741.2171
490.869	-275.52825
491.352	-240.51875
491.835	-270.49352
492.318	-334.67302
492.8	-281.51532
493.283	-330.75071
493.765	-329.72645
494.247	-264.55351
494.73	-291.57652
495.212	-287.62789
495.694	-301.6301
496.175	-392.84543
496.657	-225.47601
497.139	-228.35806
497.62	-356.76615
498.102	-320.72001
498.583	-316.72323
499.064	-286.57444
499.545	-306.63674
500.026	-297.60493
500.507	-289.61114
500.988	-276.62407
501.469	-307.70052
501.949	-272.61428
502.43	-351.76659
502.91	-295.55738
503.39	-277.63666
503.87	-330.71387
504.35	-234.50405
504.83	-322.65152
505.31	-283.6275
505.79	-320.70555
506.269	-299.64695
506.749	-314.66182
507.228	-321.69633
507.707	-245.49561
508.187	-245.53827
508.666	-320.72679
509.145	-315.68157
509.623	-276.59706
510.102	-251.55887
510.581	-205.45324
511.059	-327.76117
511.538	-235.55931
512.016	-272.60199
512.494	-229.51158
512.972	-243.53411
513.45	-332.71482
513.928	-279.6261
514.406	-341.76364
514.884	-306.73259
515.361	-269.59721
515.839	-331.70883
516.316	-312.70259
516.793	-230.53846
517.27	-281.63835
517.747	-234.55319
518.224	-259.55897
518.701	-273.56871
519.178	-318.73716
519.654	-218.48148
520.131	-259.59601
520.607	-262.60808
521.083	-248.52731
521.56	-272.60123
522.036	-255.52483
522.512	-202.46216
522.987	-270.59681
523.463	-295.6601
523.939	-215.49002
524.414	-244.52852
524.89	-286.63983
525.365	-211.44346
525.84	-326.7302
526.315	-273.61691
526.79	-198.41422
527.265	-250.53481
527.74	-244.55555
528.215	-243.53635
528.689	-291.61025
529.164	-200.40523
529.638	-238.57308
530.112	-247.54449
530.587	-306.62
531.061	-255.57577
531.534	-215.48764
532.008	-259.5848
532.482	-215.46262
532.956	-271.6482
533.429	-216.48941
533.903	-199.41234
534.376	-205.42382
534.849	-221.48085
535.322	-236.52406
535.795	-216.49458
536.268	-189.42258
536.741	-161.35894
537.213	-168.36126
537.686	-214.48646
538.158	-196.40821
538.631	-195.44426
539.103	-255.53924
539.575	-141.27294
540.047	-147.29955
540.519	-141.3124
540.991	-85.19076
541.463	-119.26541
541.934	-126.26581
542.406	-203.452
542.877	-126.26219
543.348	-97.21518
543.82	-69.15466
544.291	-108.23254
544.762	-79.17036
545.233	-89.20334
545.703	-46.09171
546.174	-40.08401
546.645	-127.27657
547.115	-20.04317
547.585	-10.02059
548.056	14.02976
548.526	38.07833
548.996	40.0849
549.466	69.14828
549.935	84.17176
550.405	102.19182
550.875	95.19412
551.344	170.34729
551.814	211.40746
552.283	260.46899
552.752	265.50707
553.221	306.53616
553.69	431.75266
554.159	388.76205
554.628	473.81646
555.096	459.92127
555.565	569.96293
556.033	676.19832
556.502	728.31951
556.97	838.3308
557.438	893.52469
557.906	996.66974
558.374	1096.71368
558.842	1182.90343
559.31	1314.87668
559.777	1444.18965
560.245	1661.30109
560.712	1788.32956
561.18	1914.20741
561.647	2104.32357
562.114	2247.42837
562.581	2539.86403
563.048	2738.55135
563.514	2980.82588
563.981	3226.42881
564.448	3514.21269
564.914	3803.31371
565.381	4123.02679
565.847	4483.99841
566.313	4656.8624
566.779	5078.43729
567.245	5436.47142
567.711	5943.39801
568.176	6299.95905
568.642	6672.50584
569.108	7174.46481
569.573	7626.5373
570.038	8177.86979
570.504	8689.74828
570.969	9137.67651
571.434	9632.0233
571.899	10256.83327
572.363	10838.31791
572.828	11570.84674
573.293	12121.02446
573.757	12735.04355
574.222	13348.01205
574.686	13803.71576
575.15	14272.91158
575.614	14939.7745
576.078	15498.07618
576.542	15803.87273
577.006	16232.90607
577.469	16802.3543
577.933	16935.41463
578.396	17277.082
578.86	17605.39635
579.323	17790.56867
579.786	17913.43414
580.249	18108.78036
580.712	17934.64796
581.175	18134.04968
581.637	18140.69116
582.1	18244.21027
582.563	18109.91968
583.025	18034.18622
583.487	18013.22578
583.95	17896.34448
584.412	17923.02648
584.874	17751.47946
585.336	17499.8812
585.797	17191.09224
586.259	17170.78722
586.721	16715.55101
587.182	16640.54288
587.643	16333.69391
588.105	15962.70154
588.566	15916.42604
589.027	15421.68408
589.488	15056.85451
589.949	14721.54108
590.41	14228.40907
590.87	14110.85001
591.331	13696.06214
591.791	13357.52982
592.252	13010.03681
592.712	12624.71995
593.172	12180.50019
593.632	11715.90879
594.092	11383.00287
594.552	11082.71907
595.011	10629.37484
595.471	10365.41507
595.931	9949.9536
596.39	9645.89975
596.849	9420.33286
597.308	9021.42505
597.768	8846.15518
598.227	8360.33662
598.685	8146.97828
599.144	7981.82393
599.603	7641.57436
600.062	7355.00871
600.52	7247.12147
600.978	7032.29438
601.437	6761.09838
601.895	6531.7465
602.353	6406.94826
602.811	6120.97313
603.269	5952.41779
603.727	5792.47335
604.184	5634.17392
604.642	5451.76455
605.099	5297.51033
605.557	5213.86541
606.014	4957.25109
606.471	4911.13999
606.928	4850.25595
607.385	4503.17152
607.842	4518.83067
608.299	4471.98892
608.755	4278.28464
609.212	4327.76482
609.668	4074.85811
610.125	4129.40172
610.581	4014.41636
611.037	3817.28376
611.493	3771.49835
611.949	3588.64127
612.405	3523.71686
612.861	3554.58689
613.316	3337.69946
613.772	3373.48719
614.227	3395.62179
614.683	3272.19359
615.138	3115.6572
615.593	3085.6349
616.048	3071.58829
616.503	2942.99607
616.958	2790.08064
617.412	2842.78472
617.867	2690.44908
618.321	2733.19803
618.776	2604.49785
619.23	2473.75249
619.684	2468.60121
620.138	2476.74065
620.592	2391.91853
621.046	2364.77358
621.5	2268.89254
621.954	2236.57916
622.407	2157.51052
622.861	2064.82222
623.314	2053.57011
623.768	2018.63876
624.221	1918.02058
624.674	1879.53503
625.127	1874.59609
625.58	1861.51672
626.033	1848.40152
626.485	1741.59682
626.938	1758.60616
627.39	1709.49235
627.843	1658.44268
628.295	1618.4132
628.747	1613.50428
629.199	1559.31931
629.651	1513.27981
630.103	1476.27699
630.555	1439.03141
631.006	1425.3124
631.458	1412.3173
631.909	1374.22099
632.361	1393.27772
632.812	1305.15537
633.263	1271.95295
633.714	1234.90627
634.165	1316.32257
634.616	1240.17883
635.067	1277.04989
635.518	1240.19693
635.968	1228.76813
636.419	1201.92386
636.869	1168.10731
637.319	1161.02408
637.769	1083.85318
638.219	1135.0855
638.669	1124.05956
639.119	1056.0286
639.569	1072.022
640.019	1066.92301
640.468	1050.82483
640.918	1081.0425
641.367	997.76852
641.816	996.76264
642.265	1029.87923
642.714	988.82461
643.163	1062.91285
643.612	911.78238
644.061	911.54468
644.51	906.67789
644.958	959.68248
645.406	949.84197
645.855	919.85225
646.303	970.83234
646.751	868.62336
647.199	946.73907
647.647	866.64434
648.095	843.60331
648.543	932.5315
648.99	852.69547
649.438	899.74479
649.885	870.80031
650.333	874.36915
650.78	883.77067
651.227	843.72069
651.674	838.59186
652.121	872.7715
652.568	818.67753
653.015	837.7948
653.461	762.5471
653.908	816.60267
654.354	814.64605
654.801	803.59155
655.247	810.49455
655.693	753.70175
656.139	813.65265
656.585	820.66651
657.031	779.5432
657.477	747.37293
657.922	712.41654
658.368	775.64607
658.813	740.48736
659.259	700.46372
659.704	740.48531
660.149	719.4514
660.594	719.48259
661.039	727.43065
661.484	734.52406
661.929	742.50097
662.373	640.43419
662.818	716.5533
663.262	647.37813
663.707	704.56868
664.151	676.45773
664.595	670.42502
665.039	683.50208
665.483	661.49554
665.927	698.44278
666.371	630.29158
666.814	664.4049
667.258	640.34225
667.701	666.26647
668.145	630.40539
668.588	638.39862
669.031	610.2815
669.474	610.31863
669.917	671.31099
670.36	611.36324
670.803	629.36062
671.245	652.21333
671.688	637.39203
672.13	550.11716
672.573	626.43264
673.015	635.36484
673.457	588.15101
673.899	608.3283
674.341	619.34296
674.783	523.14838
675.225	577.28783
675.666	543.18937
676.108	533.05621
676.549	573.23353
676.991	553.10819
677.432	521.94641
677.873	553.16643
678.314	492.08587
678.755	559.24041
679.196	491.03771
679.637	544.21883
680.078	517.11423
680.518	565.20117
680.959	506.11822
681.399	529.20581
681.839	549.22324
682.28	513.16647
682.72	485.0268
683.16	509.16996
683.6	503.05987
684.039	494.95057
684.479	524.1831
684.919	430.92817
685.358	543.26709
685.798	478.16632
686.237	515.15022
686.676	513.09944
687.115	514.11368
687.554	513.12356
687.993	504.02869
688.432	495.04618
688.871	486.02062
689.309	452.00824
689.748	464.90444
690.186	531.16793
690.625	479.04235
691.063	504.1175
691.501	502.14993
691.939	489.13197
692.377	467.06171
692.815	514.13356
693.253	484.08243
693.69	495.00548
694.128	466.05152
694.565	488.08062
695.003	484.14315
695.44	497.08113
695.877	513.10417
696.314	494.98489
696.751	545.14047
697.188	476.01584
697.625	570.19524
698.061	470.0502
698.498	557.23597
698.934	520.1559
699.371	519.12524
699.807	547.18655
700.243	452.01697
700.679	541.1236
701.115	532.15421
701.551	529.14745
701.987	555.14144
702.422	514.12646
702.858	459.02114
703.294	502.05196
703.729	531.19771
704.164	489.09295
704.599	523.07117
705.035	485.0053
705.47	475.07514
705.904	462.00337
706.339	568.20782
706.774	485.05454
707.209	473.014
707.643	487.08669
708.078	502.13243
708.512	462.07845
708.946	523.15705
709.38	501.09954
709.814	512.08052
710.248	519.1687
710.682	464.02909
711.116	482.06642
711.549	522.24682
711.983	497.0628
712.416	535.16393
712.85	503.16305
713.283	482.06021
713.716	555.28193
714.149	542.18792
714.582	495.02835
715.015	513.19043
715.448	509.18951
715.881	546.09338
716.313	479.04323
716.746	457.00407
717.178	431.97506
717.61	490.15645
718.043	497.15052
718.475	458.03764
718.907	513.20449
719.339	448.94961
719.77	422.94168
720.202	472.1139
720.634	440.00284
721.065	460.01766
721.497	443.01801
721.928	433.99988
722.359	347.79943
722.79	422.9514
723.221	394.94177
723.652	445.07902
724.083	374.80177
724.514	388.84577
724.945	386.86101
725.375	421.91866
725.806	367.87474
726.236	437.05284
726.666	367.82828
727.096	367.85896
727.526	348.8458
727.956	315.68885
728.386	392.9162
728.816	364.87838
729.246	357.8277
729.675	328.77476
730.105	363.85292
730.534	352.78713
730.964	344.83389
731.393	443.03342
731.822	375.91259
732.251	348.84549
732.68	378.8477
733.109	300.71385
733.537	320.74297
733.966	330.78672
734.395	308.68563
734.823	351.75718
735.251	288.67133
735.68	342.82157
736.108	319.77693
736.536	285.65137
736.964	284.63824
737.392	298.72051
737.82	267.62299
738.247	291.67444
738.675	326.74911
739.102	283.68438
739.53	268.66236
739.957	270.67414
740.384	308.73344
740.811	269.66251
741.238	248.59014
741.665	271.60965
742.092	261.60684
742.519	190.46305
742.945	228.53587
743.372	234.56622
743.798	237.59508
744.225	235.54618
744.651	211.51969
745.077	230.56094
745.503	223.5332
745.929	281.65308
746.355	297.71444
746.781	219.53202
747.207	178.41232
747.632	154.3721
748.058	235.57303
748.483	182.41422
748.908	153.37712
749.334	208.5018
749.759	172.40127
750.184	179.42096
750.609	224.53917
751.033	195.45465
751.458	226.49706
751.883	230.55759
752.307	154.35984
752.732	150.37129
753.156	179.43633
753.58	208.48563
754.005	193.48235
754.429	181.42002
754.853	173.42327
755.277	149.35041
755.7	164.40267
756.124	155.38107
756.548	90.21426
756.971	180.43393
757.394	162.41284
757.818	153.38997
758.241	135.34045
758.664	162.40466
759.087	82.18437
759.51	137.33905
759.933	133.31851
760.356	160.40587
760.778	109.26788
761.201	185.44387
761.623	158.38017
762.046	185.43338
762.468	163.38811
762.89	142.3484
763.312	155.37529
763.734	118.28361
764.156	162.39585
764.578	109.25134
765	112.27307
765.421	53.13557
765.843	101.26449
766.264	144.34583
766.686	74.18686
767.107	93.22594
767.528	94.23727
767.949	106.26918
768.37	120.29366
768.791	109.26372
769.212	57.14411
769.632	70.16427
770.053	86.22662
770.473	88.21471
770.894	102.25544
771.314	137.32571
771.734	75.17597
772.154	108.27669
772.575	115.26645
772.994	106.24096
773.414	109.26173
773.834	77.19321
774.254	75.18446
774.673	107.26044
775.093	59.14698
775.512	38.09461
775.931	98.24825
776.351	53.13261
776.77	81.19856
777.189	97.23097
777.607	90.22985
778.026	96.23902
778.445	48.12099
778.864	108.2762
779.282	96.23108
779.701	85.21452
780.119	62.15739
780.537	25.06312
780.955	70.17877
781.373	66.16403
781.791	55.12475
782.209	101.2329
782.627	70.18477
783.045	83.19154
783.462	98.24984
783.88	41.10682
784.297	36.09139
784.715	30.07772
785.132	53.12924
785.549	51.12839
785.966	84.21135
786.383	62.15325
786.8	98.22755
787.217	48.11475
787.633	4.01013
788.05	87.20708
788.466	78.18462
788.883	52.13327
789.299	68.16443
789.715	88.21391
790.131	72.17946
790.547	140.34616
790.963	51.12737
791.379	54.13718
791.795	90.20559
792.21	89.20817
792.626	68.16201
793.041	59.14629
793.457	66.16367
793.872	66.15585
794.287	46.11056
794.702	56.13872
795.117	59.14714
795.532	47.11845
795.947	89.21419
796.362	112.26632
796.776	110.25683
797.191	9.02233
797.605	8.01905
798.02	25.06149
798.434	97.21581
798.848	49.12136
799.262	28.0701
799.676	97.2361
800.09	51.12617
800.504	44.10756
800.918	65.1512
801.331	61.16034
801.745	29.06738
802.158	55.13806
802.572	64.15581
802.985	106.25515
803.398	36.08662
803.811	45.11636
804.224	65.16222
804.637	32.07694
805.05	31.07262
805.462	78.19173
805.875	41.10682
806.288	8.01955
806.7	87.21823
807.112	48.11207
807.525	87.21437
807.937	33.08221
808.349	45.11337
808.761	55.13587
809.173	35.08551
809.584	38.09461
809.996	9.02231
810.408	28.07279
810.819	40.09479
811.231	7.01828
811.642	-10.02423
812.053	10.02408
812.464	14.03369
812.875	49.12573
813.286	15.03899
813.697	118.27399
814.108	65.15916
814.519	59.13214
814.929	60.15339
815.34	26.06365
815.75	50.12751
816.16	89.22123
816.571	68.17671
816.981	58.13749
817.391	56.13572
817.801	26.06511
818.211	75.17886
818.62	67.16149
819.03	55.13527
819.44	71.18542
819.849	62.1565
820.259	60.15388
820.668	42.10385
821.077	48.11969
821.486	99.23736
821.895	48.11917
822.304	60.15918
822.713	42.09991
823.122	51.12774
823.531	29.06934
823.939	35.08586
824.348	56.13659
824.756	76.19019
825.164	55.13881
825.573	37.09338
825.981	89.22002
826.389	53.13357
826.797	16.04046
827.205	48.11071
827.612	95.23339
828.02	26.06159
828.428	44.11253
828.835	37.09785
829.243	77.18335
829.65	62.15431
830.057	26.06363
830.464	-1.00247
830.871	84.20067
831.278	59.14291
831.685	82.1827
832.092	64.15685
832.499	55.12079
832.905	57.14457
833.312	41.09413
833.718	56.13984
834.124	39.08972
834.531	104.26045
834.937	50.12868
835.343	66.15935
835.749	131.30243
836.155	37.09732
836.561	73.17934
836.966	63.1542
837.372	117.29506
837.777	32.0802
838.183	33.07397
838.588	15.03759
838.993	74.17995
839.399	63.15409
839.804	18.04425
840.209	51.13009
840.613	43.09618
841.018	68.17207
841.423	54.13873
841.828	25.06366
842.232	75.18548
842.637	83.1952
843.041	-6.01556
843.445	33.08322
843.849	20.04991
844.253	54.12865
844.657	15.03809
845.061	68.15427
845.465	40.09705
845.869	38.08879
846.272	31.07593
846.676	78.18818
847.079	25.06397
847.483	24.0603
847.886	82.19888
848.289	23.06174
848.692	60.15199
849.095	42.10129
849.498	86.21708
849.901	52.1196
850.304	53.12693
850.707	60.15302
851.109	58.14687
851.512	34.08398
851.914	11.02796
852.316	47.11917
852.718	15.03901
853.121	8.0198
853.523	43.10089
853.925	2.00527
854.326	24.06039
854.728	47.12111
855.13	-16.04179
855.531	40.09596
855.933	30.07246
856.334	11.02766
856.736	9.02038
857.137	50.11651
857.538	23.05819
857.939	-2.005
858.34	13.03196
858.741	53.13865
859.142	48.11559
859.542	10.02659
859.943	25.06251
860.343	17.04241
860.744	44.10768
861.144	35.08576
861.544	-18.04389
861.945	19.04875
862.345	52.12735
862.745	58.14415
863.145	73.17409
863.544	59.14906
863.944	53.12537
864.344	45.11206
864.743	49.1218
865.143	48.12349
865.542	24.05606
865.941	60.14847
866.34	76.18148
866.74	47.12633
867.139	35.08417
867.537	58.14776
867.936	32.07741
868.335	34.08686
868.734	30.07702
869.132	58.13478
869.531	53.12833
869.929	23.0528
870.327	81.19331
870.726	69.17171
871.124	97.22501
871.522	43.1098
871.92	68.1674
872.318	49.11998
872.715	96.23598
873.113	48.11716
873.511	34.08506
873.908	-29.07431
874.306	22.05506
874.703	68.1698
875.1	44.11281
875.497	37.08905
875.894	15.03703
876.291	53.13016
876.688	53.13676
877.085	74.17698
877.482	71.17726
877.878	15.03639
878.275	30.07656
878.671	48.10712
879.068	63.15191
879.464	27.06562
879.86	4.00956
880.256	38.0941
880.652	33.08426
881.048	54.13387
881.444	52.12389
881.84	32.08167
882.236	54.13582
882.631	29.07154
883.027	72.17384
883.422	23.05914
883.817	17.04301
884.213	44.11312
884.608	33.08125
885.003	31.07509
885.398	48.12029
885.793	55.13806
886.188	11.02756
886.582	109.27695
886.977	42.09995
887.371	57.14411
887.766	17.04257
888.16	109.26937
888.554	51.12622
888.949	29.07316
889.343	71.17294
889.737	19.05092
890.131	39.09811
890.525	52.13304
890.918	72.18064
891.312	59.14108
891.706	54.14168
892.099	62.15756
892.492	27.05862
892.886	60.14667
893.279	38.09708
893.672	34.08686
894.065	56.14019
894.458	75.18793
894.851	117.28339
895.244	30.07694
895.637	59.14199
896.029	58.14173
896.422	40.098
896.814	39.09723
897.206	-26.06287
897.599	86.21148
897.991	12.02925
898.383	10.02383
898.775	40.09056
899.167	50.1167
899.559	72.18168
899.951	101.23596
900.342	47.11967
900.734	-32.08063
901.125	114.29604
901.517	29.07151
901.908	94.22369
902.299	-3.00741
902.69	41.09699
903.082	96.23065
903.473	2.00484
903.863	41.10484
904.254	23.05371
904.645	96.23694
905.036	25.06085
905.426	76.17326
905.817	12.02967
906.207	6.01443
906.597	18.04239
906.987	72.18601
907.378	44.11146
907.768	49.12962
908.158	74.17975
908.547	33.08554
908.937	50.12837
909.327	65.1575
909.717	83.20962
910.106	70.16761
910.495	59.14714
910.885	59.14927
911.274	45.11263
911.663	67.16963
912.052	72.17705
912.441	39.09941
912.83	63.14435
913.219	85.22123
913.608	54.13225
913.997	32.08051
914.385	41.09819
914.774	52.12664
915.162	21.05035
915.55	44.10664
915.939	39.09867
916.327	61.15202
916.715	9.02311
917.103	70.17175
917.491	48.11886
917.878	45.1108
918.266	71.18352
918.654	25.06417
919.041	20.05249
919.429	64.15072
919.816	71.17938
920.203	55.13332
920.591	60.14858
920.978	75.18289
921.365	30.079
921.752	8.01924
922.139	74.15995
922.525	52.12489
922.912	47.11474
923.299	11.02754
923.685	21.05507
924.072	46.10622
924.458	33.08203
924.844	44.10904
925.231	77.17833
925.617	3.0077
926.003	54.13796
926.389	50.12616
926.774	50.12675
927.16	67.16594
927.546	24.06155
927.931	45.11243
928.317	55.12662
928.702	58.13707
929.088	4.00955
929.473	29.07408
929.858	-1.00244
930.243	5.01211
930.628	18.04407
931.013	22.05482
931.398	79.18071
931.783	48.12645
932.167	40.098
932.552	41.10292
932.937	64.15848
933.321	8.02023
933.705	40.10104
934.09	68.17134
934.474	68.16101
934.858	37.0962
935.242	24.05593
935.626	71.1811
936.009	19.0508
936.393	44.11209
936.777	33.08477
937.16	27.07054
937.544	67.15739
937.927	25.06372
938.311	55.13417
938.694	59.15582
939.077	30.07211
939.46	79.19301
939.843	48.10024
940.226	45.11555
940.609	50.11481
940.991	57.14493
941.374	23.05651
941.757	67.16485
942.139	52.11677
942.522	69.16253
942.904	41.09875
943.286	89.22461
943.668	38.09865
944.05	17.04214
944.432	34.08416
944.814	19.04708
945.196	25.06121
945.578	19.04543
945.959	49.11488
946.341	109.26471
946.722	35.08241
947.104	36.0863
947.485	35.0817
947.866	48.12099
948.247	34.08604
948.628	15.03684
949.009	45.11535
949.39	55.13682
949.771	83.19185
950.152	9.02226
950.532	-25.06235
950.913	47.11346
951.293	30.08131
951.674	36.08731
952.054	58.14352
952.434	36.0896
952.814	38.09064
953.194	75.19547
953.574	96.23449
953.954	38.09047
954.334	69.17139
954.714	10.02455
955.093	53.13026
955.473	29.0728
955.853	63.16273
956.232	55.15063
956.611	70.16729
956.99	62.15549
957.37	57.14508
957.749	24.05755
958.128	69.17327
958.506	21.05475
958.885	29.07348
959.264	13.03208
959.643	79.17875
960.021	72.1777
960.4	36.08184
960.778	83.20323
961.156	22.05543
961.535	59.1373
961.913	57.13322
962.291	25.06442
962.669	54.1367
963.047	30.07683
963.424	44.11241
963.802	6.01487
964.18	84.21127
964.557	63.14475
964.935	76.17919
965.312	6.01574
965.69	59.14752
966.067	69.16744
966.444	89.21776
966.821	76.19505
967.198	51.12372
967.575	90.21968
967.952	73.17128
968.329	27.06599
968.705	53.1136
969.082	45.11551
969.458	-28.06817
969.835	39.09514
970.211	36.09262
970.587	32.07994
970.963	92.23429
971.339	38.09943
971.715	53.13227
972.091	43.10603
972.467	66.16415
972.843	33.08215
973.219	103.24488
973.594	12.03159
973.97	96.22652
974.345	14.03374
974.721	61.14742
975.096	49.1186
975.471	68.16076
975.846	58.13914
976.221	24.06123
976.596	59.14119
976.971	78.19159
977.346	65.1509
977.72	47.1198
978.095	68.17519
978.469	63.15001
978.844	115.28576
979.218	6.0145
979.593	23.0554
979.967	27.06606
980.341	39.09
980.715	43.10848
981.089	37.09284
981.463	70.16009
981.837	42.10278
982.21	114.26198
982.584	56.13511
982.957	8.02013
983.331	39.0924
983.704	28.06908
984.078	45.111
984.451	125.308
984.824	33.08062
985.197	71.17178
985.57	62.15516
985.943	62.1528
986.316	54.13259
986.688	75.18002
987.061	44.10326
987.434	57.14835
987.806	30.07303
988.179	41.09691
988.551	96.24154
988.923	82.20075
989.295	111.27431
989.667	-9.02174
990.039	40.09901
990.411	52.11964
990.783	95.21679
991.155	7.01696
991.527	106.25834
991.898	39.09737
992.27	45.11141
992.641	48.12047
993.012	76.17794
993.384	62.14754
993.755	34.08692
994.126	85.20309
994.497	29.07146
994.868	51.11713
995.239	28.06814
995.61	42.10583
995.98	44.107
996.351	28.06961
996.722	24.05595
997.092	25.05948
997.462	-14.03311
997.833	63.14897
998.203	69.16669
998.573	36.08986
998.943	61.14273
999.313	65.15531
999.683	-12.02914
1000.053	41.09451
1000.423	66.15989
1000.792	49.12701
1001.162	50.12304
1001.531	32.07915
1001.901	75.18609
1002.27	51.11398
1002.639	73.18574
1003.009	83.19611
1003.378	44.11261
1003.747	74.174
1004.116	-1.00242
1004.485	63.15018
1004.853	61.15422
1005.222	74.18579
1005.591	77.18187
1005.959	21.04759
1006.328	27.06104
1006.696	55.13252
1007.064	49.12327
1007.433	24.06026
1007.801	68.16635
1008.169	72.18109
1008.537	70.15435
1008.905	23.05386
1009.273	91.22307
1009.64	-1.00241
1010.008	41.09789
1010.375	103.2476
1010.743	108.2465
1011.11	3.00716
1011.478	51.12617
1011.845	70.16395
1012.212	86.1932
1012.579	38.09348
1012.946	69.1636
1013.313	124.29088
1013.68	96.21372
1014.047	30.07175
1014.414	19.04514
1014.78	30.0748
1015.147	119.284
1015.513	67.16088
1015.88	91.23097
1016.246	65.15998
1016.612	46.10537
1016.978	87.21168
1017.344	55.13577
1017.71	68.16524
1018.076	72.16903
1018.442	87.2223
1018.808	82.20372
1019.174	53.13285
1019.539	125.28341
1019.905	23.05451
1020.27	66.16236
1020.636	85.20239
1021.001	85.20208
1021.366	3.00727
1021.731	65.16667
1022.096	27.06836
1022.461	57.13468
1022.826	16.03827
1023.191	47.12333
1023.556	40.09391
1023.92	71.17385
1024.285	83.20127
1024.649	51.12492
1025.014	83.20429
1025.378	52.13065
1025.742	49.12167
1026.107	81.18201
1026.471	88.20385
1026.835	49.12145
1027.199	43.10361
1027.562	49.11389
1027.926	70.17048
1028.29	54.1365
1028.654	67.15357
1029.017	78.19067
1029.381	43.10282
1029.744	62.15773
1030.107	90.21121
1030.471	72.1716
1030.834	61.13842
1031.197	86.20568
1031.56	100.23358
1031.923	48.12409
1032.286	85.19819
1032.648	38.09106
1033.011	79.1802
1033.374	91.21209
1033.736	7.01853
1034.099	72.17469
1034.461	47.11874
1034.823	39.09726
1035.185	88.2199
1035.548	52.12645
1035.91	81.1928
1036.272	41.09345
1036.634	91.22083
1036.995	51.1198
1037.357	34.08293
1037.719	62.15037
1038.08	82.19341
1038.442	18.04297
1038.803	82.19559
1039.165	68.17097
1039.526	46.11119
1039.887	47.11247
1040.248	7.01738
1040.609	51.12594
1040.97	49.11971
1041.331	61.15406
1041.692	51.11896
1042.053	75.16984
1042.413	92.21252
1042.774	57.13838
1043.134	70.16594
1043.495	84.20975
1043.855	59.1428
1044.215	66.16325
1044.576	46.11001
1044.936	82.18671
1045.296	75.18623
1045.656	56.1372
1046.016	66.15875
1046.375	52.12602
1046.735	35.07955
1047.095	55.12854
1047.454	44.09331
1047.814	48.11537
1048.173	69.16417
1048.533	43.0986
1048.892	43.10329
1049.251	48.12047
1049.61	42.10351
1049.969	52.12246
1050.328	64.13828
1050.687	34.08293
1051.046	59.14334
1051.405	53.1317
1051.763	42.09668
1052.122	51.1271
1052.48	61.1492
1052.839	45.10591
1053.197	20.04732
1053.555	58.13196
1053.914	79.19207
1054.272	116.27679
1054.63	26.06382
1054.988	-7.0168
1055.345	32.06914
1055.703	80.19133
1056.061	41.10557
1056.419	28.07271
1056.776	53.12838
1057.134	71.16359
1057.491	46.1152
1057.848	55.13672
1058.206	79.18463
1058.563	59.12974
1058.92	61.14021
1059.277	77.18889
1059.634	95.22142
1059.991	79.18811
1060.348	-9.02057
1060.704	33.07885
1061.061	53.12299
1061.418	19.04632
1061.774	57.14045
1062.131	10.0266
1062.487	50.11683
1062.843	34.08496
1063.199	45.11194
1063.555	-4.00936
1063.911	43.10868
1064.267	109.22424
1064.623	68.16449
1064.979	60.1418
1065.335	121.28512
1065.691	112.26509
1066.046	81.17684
1066.402	48.10903
1066.757	60.15107
1067.112	44.10804
1067.468	22.05219
1067.823	65.15572
1068.178	56.13521
1068.533	60.14509
1068.888	15.03606
1069.243	14.03476
1069.598	78.1884
1069.952	-18.04107
1070.307	12.02989
1070.662	68.16076
1071.016	-32.07286
1071.371	52.11816
1071.725	95.22516
1072.079	34.08197
1072.434	37.09006
1072.788	47.11191
1073.142	94.22918
1073.496	36.08557
1073.85	27.06286
1074.203	36.08751
1074.557	54.1434
1074.911	104.24549
1075.265	35.08154
1075.618	60.14612
1075.971	44.10471
1076.325	60.1521
1076.678	25.05742
1077.031	64.14431
1077.385	73.15992
1077.738	71.15947
1078.091	-30.06927
1078.444	78.17997
1078.796	11.02716
1079.149	59.14639
1079.502	35.08286
1079.855	57.13264
1080.207	64.15715
1080.56	38.09834
1080.912	42.10232
1081.264	45.10838
1081.617	58.14104
1081.969	-2.00509
1082.321	53.12924
1082.673	-16.03698
1083.025	24.05718
1083.377	-198.44735
1083.728	49.11425
1084.08	55.13707
1084.432	45.10855
1084.783	85.19764
1085.135	16.04031
1085.486	-4.00924
1085.838	30.0741
1086.189	51.12367
1086.54	87.20612
1086.891	34.08616
1087.242	33.08053
1087.593	43.10474
1087.944	53.11977
1088.295	89.20056
1088.646	67.16174
1088.996	5.01214
1089.347	27.06648
1089.698	-10.02389
1090.048	68.17592
1090.398	30.0698
1090.749	32.07677
1091.099	21.05304
1091.449	73.18093
1091.799	50.12508
1092.149	-32.07915
1092.499	86.20819
1092.849	32.08152
1093.199	113.27976
1093.548	50.12004
1093.898	37.09271
1094.248	44.11308
1094.597	8.02055
1094.947	57.15175
1095.296	12.02981
1095.645	68.17616
1095.994	65.15554
1096.343	48.12073
1096.692	23.06064
1097.041	14.03809
1097.39	47.11785
1097.739	19.0496
1098.088	61.16299
1098.437	14.03697
1098.785	43.11596
1099.134	60.15891
1099.482	33.09092
1099.83	83.21669
1100.179	14.03671
1100.527	11.02939
1100.875	18.0478
1101.223	43.11421
1101.571	23.06377
1101.919	0
1102.267	48.13506
1102.615	-4.01287
1102.962	13.04184
1103.31	0
1103.658	5.01612
