Data from N2 R13 sample 6_Subt2__2__12-19-51-255.txt Node

Date: Tue Sep 02 12:19:51 PDT 2025
User: uwsun
Spectrometer: HDX01956
Trigger mode: 0
Integration Time (sec): 5.000000E-1
Scans to average: 1
Nonlinearity correction enabled: true
Boxcar width: 0
Storing dark spectrum: false
XAxis mode: Wavelengths
Number of Pixels in Spectrum: 2068
>>>>>Begin Spectral Data<<<<<
194.03	90.24911
194.578	84.26288
195.127	74.22843
195.676	83.25671
196.225	137.35509
196.773	135.36213
197.321	150.3926
197.87	238.56308
198.418	177.41804
198.966	203.48
199.513	172.38909
200.061	180.41365
200.609	211.51086
201.156	169.33309
201.704	191.43532
202.251	156.37806
202.798	193.4553
203.345	220.4928
203.892	206.46922
204.438	221.47676
204.985	181.38544
205.532	187.44696
206.078	190.42297
206.624	196.43416
207.17	256.53056
207.716	143.31643
208.262	242.42423
208.808	146.3257
209.354	195.42771
209.899	224.51393
210.445	162.36498
210.99	195.42284
211.535	227.48025
212.08	267.55324
212.625	176.4017
213.17	197.45371
213.715	117.23636
214.259	229.47981
214.804	233.51987
215.348	258.52705
215.892	245.52717
216.436	223.46703
216.98	266.52563
217.524	183.39242
218.068	218.49756
218.612	268.60623
219.155	197.42006
219.698	187.40532
220.242	210.47737
220.785	177.37775
221.328	162.37079
221.871	226.52205
222.414	211.47935
222.956	188.41088
223.499	248.50088
224.041	203.43192
224.583	207.4078
225.126	175.35206
225.668	177.39281
226.21	168.38684
226.751	139.27796
227.293	192.40024
227.835	155.34685
228.376	180.38106
228.918	209.48173
229.459	164.37296
230	148.32346
230.541	164.34643
231.082	168.37229
231.622	180.3789
232.163	139.30912
232.704	195.43887
233.244	149.33905
233.784	224.49886
234.324	101.20338
234.864	162.33515
235.404	259.55346
235.944	192.41465
236.484	240.54135
237.023	180.38623
237.563	153.32242
238.102	227.48298
238.641	210.48142
239.18	122.26099
239.719	205.46666
240.258	224.45303
240.797	143.31247
241.335	226.49935
241.874	169.2929
242.412	175.38158
242.95	138.3002
243.488	247.50332
244.026	165.34465
244.564	221.4063
245.102	215.43213
245.64	206.44964
246.177	190.38444
246.715	222.48025
247.252	193.40098
247.789	269.44818
248.326	225.48122
248.863	156.30928
249.4	254.51323
249.936	262.47429
250.473	190.39818
251.009	181.37253
251.546	149.29741
252.082	216.42242
252.618	197.3923
253.154	167.36197
253.69	212.4264
254.226	210.44846
254.761	208.4172
255.297	177.34738
255.832	198.41954
256.367	194.40998
256.903	217.42307
257.438	225.47184
257.972	224.44305
258.507	174.3561
259.042	207.39993
259.576	141.27189
260.111	241.49445
260.645	230.44106
261.179	184.38356
261.713	187.37082
262.247	206.42369
262.781	201.37232
263.315	190.41542
263.849	197.43992
264.382	213.43602
264.915	219.45297
265.449	144.31325
265.982	239.48037
266.515	197.4279
267.048	195.36481
267.58	298.56705
268.113	204.38836
268.646	209.45745
269.178	165.32766
269.71	225.43283
270.243	192.39027
270.775	194.43975
271.307	246.52329
271.838	186.39618
272.37	179.39278
272.902	205.41298
273.433	206.39656
273.965	207.44618
274.496	210.46439
275.027	226.49413
275.558	161.34822
276.089	135.29524
276.62	231.52052
277.15	228.49724
277.681	231.43966
278.211	253.54462
278.741	183.35373
279.272	203.40613
279.802	183.40612
280.332	176.36623
280.861	229.48278
281.391	167.33395
281.921	240.50652
282.45	236.51796
282.98	225.51653
283.509	250.48613
284.038	220.43657
284.567	234.47781
285.096	195.41435
285.625	196.3884
286.153	204.41655
286.682	191.38106
287.21	234.48779
287.739	200.41209
288.267	167.35455
288.795	268.6129
289.323	203.41009
289.851	264.5305
290.378	216.41862
290.906	190.39836
291.433	250.53735
291.961	211.41059
292.488	242.51949
293.015	229.46112
293.542	205.4485
294.069	250.52485
294.596	242.51612
295.122	269.54516
295.649	215.40642
296.175	232.48384
296.702	239.49744
297.228	244.50863
297.754	241.45847
298.28	206.39847
298.806	204.41958
299.332	200.37482
299.857	262.49539
300.383	237.51434
300.908	176.36395
301.433	231.47415
301.958	270.52528
302.483	162.34656
303.008	255.53357
303.533	242.53761
304.058	249.49539
304.582	204.40558
305.107	192.42601
305.631	256.48902
306.155	240.46446
306.679	200.39132
307.203	275.52519
307.727	216.42943
308.251	228.47253
308.775	181.35825
309.298	190.3788
309.822	233.49121
310.345	296.57174
310.868	243.47827
311.391	261.53088
311.914	271.55575
312.437	307.56698
312.96	291.55278
313.482	253.48763
314.005	278.56791
314.527	282.60273
315.049	317.64861
315.571	263.46262
316.093	303.60058
316.615	328.62383
317.137	276.47342
317.659	345.66336
318.18	329.62833
318.702	257.47415
319.223	296.46785
319.744	339.58259
320.265	233.44627
320.786	316.60394
321.307	327.62996
321.828	336.5779
322.348	376.66612
322.869	339.60165
323.389	70.08892
323.909	352.60575
324.43	394.71693
324.95	312.53346
325.47	318.58597
325.989	294.51703
326.509	307.49043
327.029	317.51771
327.548	327.52806
328.067	327.57191
328.587	339.62044
329.106	364.58601
329.625	372.72683
330.144	336.54891
330.662	300.4931
331.181	388.63105
331.7	334.54931
332.218	367.53799
332.736	405.64631
333.255	348.55484
333.773	390.62539
334.291	394.68023
334.808	324.48298
335.326	401.59258
335.844	456.67125
336.361	354.59715
336.879	356.53651
337.396	405.62602
337.913	368.53697
338.43	421.58279
338.947	395.59156
339.464	383.49166
339.981	342.50673
340.497	403.62403
341.014	375.56635
341.53	407.53981
342.046	395.58835
342.562	465.69901
343.078	440.60459
343.594	439.61363
344.11	454.62304
344.626	422.62764
345.141	425.54226
345.657	534.65835
346.172	400.55244
346.687	374.4796
347.202	411.49766
347.717	530.6739
348.232	460.63869
348.747	485.58023
349.261	433.46779
349.776	433.53686
350.29	440.56861
350.805	584.74323
351.319	537.62018
351.833	482.52601
352.347	531.60773
352.861	472.537
353.374	574.6277
353.888	525.62133
354.401	502.54316
354.915	491.49143
355.428	499.59701
355.941	584.59693
356.454	615.60055
356.967	518.56274
357.48	594.59317
357.993	544.6163
358.505	490.54654
359.018	635.66893
359.53	554.57178
360.042	615.53942
360.554	550.57697
361.066	525.54821
361.578	576.47852
362.09	553.54533
362.602	569.46784
363.113	602.53314
363.625	614.49986
364.136	633.48826
364.647	550.45103
365.158	681.55069
365.669	663.57041
366.18	654.54057
366.691	701.48369
367.201	647.53396
367.712	713.49373
368.222	591.43453
368.733	650.38748
369.243	668.40036
369.753	664.44784
370.263	750.50769
370.773	666.49724
371.282	656.42465
371.792	616.32095
372.301	608.37327
372.811	710.49689
373.32	714.22428
373.829	796.3145
374.338	779.22629
374.847	738.22161
375.356	825.22377
375.865	800.05525
376.373	943.06393
376.882	894.20522
377.39	903.10284
377.898	870.03095
378.407	1058.84106
378.915	1074.76864
379.423	976.83129
379.93	1146.67687
380.438	1045.69102
380.946	1149.5631
381.453	1211.48475
381.96	1217.41426
382.468	1219.35056
382.975	1492.20283
383.482	1418.23005
383.989	1323.28157
384.495	1404.25644
385.002	1365.38978
385.509	1550.35563
386.015	1563.70033
386.521	1827.77601
387.028	1866.08965
387.534	1885.43257
388.04	2107.53386
388.546	1724.88368
389.051	2075.21295
389.557	2186.18401
390.063	2669.88579
390.568	2546.50493
391.073	2556.1774
391.578	2510.46696
392.084	2502.31422
392.589	2500.74786
393.093	2595.04405
393.598	2979.30792
394.103	3226.22319
394.607	3557.86544
395.112	4075.71692
395.616	4031.08466
396.12	3923.99323
396.624	4274.08512
397.128	4963.17854
397.632	5762.75952
398.136	5766.91954
398.639	4988.91051
399.143	5459.98088
399.646	6343.37757
400.15	6569.74778
400.653	6944.24471
401.156	7412.33235
401.659	3840.6577
402.162	637.25911
402.664	0
403.167	0
403.67	0
404.172	0
404.674	0
405.176	0
405.678	0
406.18	0
406.682	0
407.184	0
407.686	0
408.187	0
408.688	0
409.19	0
409.691	0
410.192	0
410.693	0
411.194	435.30976
411.694	4082.94878
412.195	8864.71461
412.696	12089.80453
413.196	12760.96929
413.696	12863.67595
414.196	13703.56671
414.696	17261.84252
415.196	21757.06438
415.696	22034.01056
416.196	16362.46054
416.695	11460.31124
417.195	9221.33224
417.694	9383.15514
418.194	8838.4574
418.693	7634.69705
419.192	7872.93479
419.691	7801.85853
420.19	7608.35538
420.688	7826.55193
421.187	7519.36138
421.685	7080.43779
422.184	6462.91245
422.682	5421.12816
423.18	4139.73768
423.678	3683.80059
424.176	3285.82512
424.674	3292.90294
425.172	3139.72471
425.669	3013.34541
426.167	2933.03223
426.664	2534.66096
427.161	2299.86975
427.659	2126.31466
428.156	1870.34289
428.652	1808.08089
429.149	1801.0712
429.646	1720.09675
430.143	1591.16524
430.639	1448.26799
431.135	1350.40467
431.632	1310.42987
432.128	1160.61084
432.624	1067.74711
433.12	965.69128
433.616	1055.66554
434.111	820.83606
434.607	815.90268
435.103	1015.80511
435.598	902.86967
436.093	846.05611
436.588	831.07718
437.083	822.13146
437.578	739.19123
438.073	574.2382
438.568	637.3117
439.062	610.19374
439.557	630.32555
440.051	549.26936
440.546	535.27656
441.04	394.26887
441.534	458.36421
442.028	534.37997
442.522	487.35613
443.015	477.2925
443.509	510.41396
444.002	456.38178
444.496	416.28621
444.989	425.37676
445.482	392.36639
445.975	341.26616
446.468	353.25479
446.961	409.29019
447.454	405.3319
447.947	320.29342
448.439	329.33125
448.931	277.24264
449.424	374.40636
449.916	346.35585
450.408	260.23964
450.9	253.26927
451.392	269.30991
451.884	248.25351
452.375	202.23417
452.867	291.29614
453.358	185.19041
453.849	287.25944
454.341	212.22064
454.832	261.24826
455.323	199.23875
455.814	276.30096
456.304	205.23259
456.795	188.21387
457.285	275.30093
457.776	256.29814
458.266	169.20926
458.756	269.33645
459.247	100.12862
459.737	119.15332
460.226	137.16328
460.716	137.18101
461.206	184.24517
461.695	179.25846
462.185	150.20119
462.674	168.21966
463.163	109.13861
463.653	171.19815
464.142	57.08307
464.63	89.13381
465.119	29.04093
465.608	52.07318
466.096	127.16588
466.585	111.15957
467.073	142.21357
467.561	92.14187
468.05	125.18409
468.538	166.26159
469.026	130.20083
469.513	50.06728
470.001	100.14614
470.489	38.05991
470.976	80.12279
471.463	72.12309
471.951	79.13713
472.438	69.11034
472.925	-14.0228
473.412	41.07189
473.899	91.14518
474.385	2.00356
474.872	-5.00835
475.359	28.04939
475.845	43.06239
476.331	115.17677
476.817	97.17214
477.303	30.05121
477.789	5.00902
478.275	-27.05079
478.761	37.06706
479.247	37.06215
479.732	11.02079
480.218	-21.0426
480.703	-3.00577
481.188	0
481.673	48.08361
482.158	-103.1697
482.643	43.08615
483.128	-33.05874
483.612	-31.05736
484.097	-4.00783
484.581	-49.09185
485.066	-18.03497
485.55	-46.08029
486.034	-41.07075
486.518	-56.10598
487.002	-72.14348
487.486	-38.07551
487.969	-87.17519
488.453	-33.06887
488.936	-26.04771
489.42	-32.05813
489.903	-45.09491
490.386	-499.76555
490.869	-9.01618
491.352	-17.03499
491.835	10.01699
492.318	-37.06946
492.8	-23.03944
493.283	-82.17717
493.765	-94.19735
494.247	-36.07167
494.73	-14.02594
495.212	-14.02886
495.694	-135.27222
496.175	-172.35344
496.657	-46.0935
497.139	-12.01767
497.62	-151.31064
498.102	-125.27001
498.583	-60.13025
499.064	-103.19814
499.545	-98.19447
500.026	-95.1846
500.507	-78.15732
500.988	-68.14723
501.469	-109.23878
501.949	-56.12089
502.43	-166.34835
502.91	-113.20398
503.39	-79.17438
503.87	-117.24156
504.35	-86.17936
504.83	-142.27546
505.31	-121.25924
505.79	-132.27957
506.269	-89.18392
506.749	-147.29846
507.228	-145.30274
507.707	-138.27231
508.187	-92.19562
508.666	-149.32668
509.145	-171.3586
509.623	-108.22524
510.102	-112.24219
510.581	-95.20521
511.059	-137.30695
511.538	-109.25315
512.016	-113.24179
512.494	-107.23301
512.972	-102.21754
513.45	-171.35543
513.928	-177.38888
514.406	-195.42356
514.884	-122.28182
515.361	-96.20546
515.839	-122.24946
516.316	-141.3064
516.793	-107.24447
517.27	-136.29987
517.747	-149.34645
518.224	-130.27281
518.701	-129.26012
519.178	-190.42928
519.654	-119.25738
520.131	-123.27536
520.607	-109.24532
521.083	-184.38578
521.56	-131.28103
522.036	-105.2088
522.512	-141.31864
522.987	-125.26793
523.463	-131.28322
523.939	-139.31194
524.414	-106.22283
524.89	-116.25041
525.365	-86.17577
525.84	-167.36182
526.315	-143.31458
526.79	-73.14849
527.265	-82.16904
527.74	-82.18058
528.215	-125.26909
528.689	-104.20908
529.164	-104.20609
529.638	-172.40899
530.112	-138.29726
530.587	-116.22481
531.061	-137.30189
531.534	-94.20796
532.008	-147.32433
532.482	-116.24429
532.956	-170.39879
533.429	-83.18297
533.903	-69.13881
534.376	-98.19775
534.849	-127.27081
535.322	-96.20697
535.795	-127.2856
536.268	-110.24194
536.741	-122.26979
537.213	-72.15163
537.686	-79.17467
538.158	-114.2331
538.631	-67.14869
539.103	-108.22103
539.575	-40.07556
540.047	-63.12592
540.519	-45.0977
540.991	-44.09791
541.463	-30.06568
541.934	-48.09953
542.406	-70.15156
542.877	-44.08989
543.348	2.00435
543.82	-13.0288
544.291	-25.05287
544.762	-6.01274
545.233	2.00449
545.703	-5.00987
546.174	45.09274
546.645	-31.06613
547.115	78.16484
547.585	49.09953
548.056	79.16553
548.526	112.22703
548.996	114.23807
549.466	142.30036
549.935	86.17577
550.405	176.32495
550.875	178.35686
551.344	192.39027
551.814	266.50689
552.283	302.5389
552.752	295.56038
553.221	259.45941
553.69	304.54865
554.159	339.6735
554.628	353.62878
555.096	430.86885
555.565	463.80601
556.033	535.98421
556.502	531.01005
556.97	578.98693
557.438	566.05038
557.906	627.15602
558.374	672.17886
558.842	657.21387
559.31	738.24284
559.777	786.42414
560.245	846.47716
560.712	892.51196
561.18	917.44883
561.647	1053.63041
562.114	1077.69405
562.581	1167.99427
563.048	1232.90205
563.514	1252.06903
563.981	1343.98976
564.448	1360.94786
564.914	1448.1337
565.381	1571.16485
565.847	1650.31103
566.313	1720.33669
566.779	1781.26236
567.245	1842.42391
567.711	1950.56612
568.176	1952.31235
568.642	2031.78749
569.108	2143.75633
569.573	2274.63645
570.038	2361.17244
570.504	2461.41216
570.969	2520.96618
571.434	2625.31074
571.899	2809.7034
572.363	2833.4838
572.828	2892.51832
573.293	2926.50647
573.757	2976.5025
574.222	3049.31798
574.686	3080.32616
575.15	3175.62215
575.614	3285.40362
576.078	3309.51505
576.542	3280.37876
577.006	3284.3152
577.469	3303.86896
577.933	3321.24763
578.396	3300.61587
578.86	3298.56487
579.323	3186.63636
579.786	3250.11933
580.249	3056.42867
580.712	3134.82165
581.175	2971.8832
581.637	3015.54346
582.1	2983.31315
582.563	2944.2261
583.025	2797.80238
583.487	2804.95728
583.95	2662.22943
584.412	2743.15678
584.874	2557.80952
585.336	2562.69453
585.797	2498.28814
586.259	2435.68357
586.721	2278.605
587.182	2351.64648
587.643	2201.46967
588.105	2170.62634
588.566	2048.15338
589.027	1996.6075
589.488	2021.42866
589.949	2042.67806
590.41	1902.84319
590.87	1890.39046
591.331	1869.18796
591.791	1807.36193
592.252	1703.26181
592.712	1734.47189
593.172	1711.23089
593.632	1703.15817
594.092	1704.20158
594.552	1615.04162
595.011	1624.22689
595.471	1632.16795
595.931	1657.16923
596.39	1655.39197
596.849	1559.2362
597.308	1582.05344
597.768	1531.49268
598.227	1598.38159
598.685	1618.25555
599.144	1583.26969
599.603	1657.36998
600.062	1528.90971
600.52	1658.16262
600.978	1684.39059
601.437	1769.33119
601.895	1675.02658
602.353	1695.18604
602.811	1760.21454
603.269	1855.52949
603.727	1859.53018
604.184	1874.30684
604.642	1875.62461
605.099	1975.47126
605.557	2032.69624
606.014	2090.2204
606.471	2005.74922
606.928	2104.18722
607.385	2243.71913
607.842	2369.51286
608.299	2349.60503
608.755	2370.74519
609.212	2357.38352
609.668	2405.35332
610.125	2482.79499
610.581	2634.77794
611.037	2528.59036
611.493	2561.74684
611.949	2465.78806
612.405	2560.01415
612.861	2576.7482
613.316	2641.78695
613.772	2640.61374
614.227	2689.73681
614.683	2722.32147
615.138	2508.69142
615.593	2604.67409
616.048	2724.63009
616.503	2613.98515
616.958	2530.04831
617.412	2546.77674
617.867	2461.44798
618.321	2551.21518
618.776	2483.4936
619.23	2499.75628
619.684	2452.59935
620.138	2367.72074
620.592	2322.89869
621.046	2326.7641
621.5	2252.88682
621.954	2212.57259
622.407	2189.51984
622.861	2106.84274
623.314	2022.55701
623.768	2008.63401
624.221	1990.0403
624.674	1892.54224
625.127	1882.60081
625.58	1873.52349
626.033	1855.4052
626.485	1701.56661
626.938	1695.55895
627.39	1665.45978
627.843	1646.43354
628.295	1631.4234
628.747	1591.48544
629.199	1545.30788
629.651	1443.2185
630.103	1483.28324
630.555	1423.01865
631.006	1446.33303
631.458	1349.25172
631.909	1382.22902
632.361	1341.2237
632.812	1255.10078
633.263	1279.96072
633.714	1304.97415
634.165	1237.22718
634.616	1223.15832
635.067	1262.03422
635.518	1200.14771
635.968	1205.74712
636.419	1162.8816
636.869	1142.07383
637.319	1078.921
637.769	1080.84951
638.219	1126.07355
638.669	1056.96889
639.119	1035.99961
639.569	1048.98958
640.019	1019.85999
640.468	1033.80323
640.918	1029.97001
641.367	1018.79608
641.816	1004.77315
642.265	975.80459
642.714	1006.84961
643.163	972.79054
643.612	943.83117
644.061	924.5613
644.51	910.68363
644.958	951.6719
645.406	923.80249
645.855	915.84587
646.303	973.83667
646.751	893.65993
647.199	936.72495
647.647	915.7169
648.095	940.74617
648.543	935.53517
648.99	908.78362
649.438	924.78274
649.885	949.92938
650.333	984.49332
650.78	940.86041
651.227	892.80066
651.674	901.6856
652.121	875.77639
652.568	953.89539
653.015	990.05173
653.461	894.76102
653.908	910.74814
654.354	925.82344
654.801	902.74688
655.247	932.6679
655.693	921.00877
656.139	892.78092
656.585	935.85093
657.031	857.66711
657.477	899.59014
657.922	880.68312
658.368	947.93665
658.813	964.83873
659.259	921.83252
659.704	830.63174
660.149	921.77397
660.594	873.73852
661.039	898.69693
661.484	952.88156
661.929	889.73846
662.373	839.80372
662.818	857.80378
663.262	861.74953
663.707	847.83183
664.151	875.80703
664.595	847.73277
665.039	878.85246
665.483	912.95862
665.927	901.77857
666.371	813.59865
666.814	867.75374
667.258	832.67174
667.701	970.71028
668.145	910.91331
668.588	861.79952
669.031	847.68746
669.474	918.85489
669.917	965.75589
670.36	944.96224
670.803	868.78257
671.245	890.5599
671.688	918.88787
672.13	816.55827
672.573	883.91702
673.015	903.82996
673.457	899.63224
673.899	924.8849
674.341	863.77587
674.783	860.75582
675.225	883.84716
675.666	839.72412
676.108	917.65657
676.549	875.76268
676.991	909.67384
677.432	865.43406
677.873	902.75851
678.314	881.78777
678.755	907.86816
679.196	870.68802
679.637	893.85822
680.078	932.83168
680.518	862.7154
680.959	918.85573
681.399	838.79193
681.839	873.81577
682.28	880.85344
682.72	863.678
683.16	879.87196
683.6	921.76464
684.039	890.54929
684.479	818.73709
684.919	896.73937
685.358	926.99891
685.798	865.95886
686.237	915.87622
686.676	947.84157
687.115	890.77529
687.554	911.8294
687.993	889.6582
688.432	883.70962
688.871	837.62352
689.309	921.85714
689.748	916.59384
690.186	918.85658
690.625	882.75687
691.063	912.852
691.501	896.89128
691.939	840.81012
692.377	905.87654
692.815	920.85808
693.253	923.87903
693.69	923.69458
694.128	937.91273
694.565	902.82668
695.003	945.0317
695.44	939.85281
695.877	905.78564
696.314	925.65916
696.751	958.82374
697.188	944.81269
697.625	995.89292
698.061	914.8569
698.498	971.97057
698.934	942.9121
699.371	936.85076
699.807	898.80368
700.243	907.85228
700.679	1014.88671
701.115	965.90239
701.551	938.85904
701.987	1000.85325
702.422	927.85643
702.858	914.84343
703.294	966.81944
703.729	954.96723
704.164	985.97815
704.599	931.73327
705.035	926.73289
705.47	951.94571
705.904	951.85286
706.339	986.90798
706.774	950.8636
707.209	915.77673
707.643	982.96895
708.078	926.90945
708.512	911.94014
708.946	920.86826
709.38	918.83966
709.814	964.83518
710.248	944.94225
710.682	912.83603
711.116	894.80964
711.549	898.99122
711.983	840.66459
712.416	933.85986
712.85	903.9231
713.283	876.76913
713.716	910.95433
714.149	903.82996
714.582	840.61269
715.015	827.80073
715.448	816.79289
715.881	840.56935
716.313	806.63506
716.746	782.60219
717.178	784.64389
717.61	810.79384
718.043	786.71611
718.475	774.64216
718.907	776.7292
719.339	724.44045
719.77	727.51789
720.202	744.66401
720.634	682.47948
721.065	730.52517
721.497	747.61338
721.928	709.54495
722.359	643.39153
722.79	630.35785
723.221	689.55136
723.652	719.6545
724.083	670.34276
724.514	662.35728
724.945	615.30479
725.375	588.23576
725.806	624.41147
726.236	635.4733
726.666	619.32299
727.096	585.3084
727.526	503.18465
727.956	548.1374
728.386	547.23737
728.816	512.19863
729.246	525.17451
729.675	483.10435
730.105	579.30081
730.534	502.08578
730.964	537.25209
731.393	538.23203
731.822	488.16017
732.251	500.1778
732.68	474.03996
733.109	455.04814
733.537	450.01576
733.966	427.99895
734.395	394.8614
734.823	437.92529
735.251	411.93474
735.68	438.03073
736.108	423.0079
736.536	413.91951
736.964	459.99435
737.392	401.95062
737.82	369.84366
738.247	402.91113
738.675	428.96335
739.102	345.82452
739.53	346.84283
739.957	343.84502
740.384	437.0126
740.811	381.91887
741.238	329.77065
741.665	312.69597
742.092	334.76534
742.519	322.7653
742.945	304.70387
743.372	286.68524
743.798	289.71883
744.225	302.69258
744.651	290.70381
745.077	302.7266
745.503	266.63077
745.929	258.60235
746.355	334.79778
746.781	306.7312
747.207	210.48336
747.632	215.51348
748.058	255.61947
748.483	228.51408
748.908	240.58205
749.334	237.56862
749.759	219.50618
750.184	242.56212
750.609	222.53456
751.033	298.68067
751.458	246.53877
751.883	255.61529
752.307	206.47642
752.732	155.38332
753.156	224.54141
753.58	248.57446
754.005	203.50642
754.429	219.50437
754.853	169.4138
755.277	207.4813
755.7	211.51355
756.124	184.44993
756.548	151.35526
756.971	201.48262
757.394	213.5379
757.818	184.46642
758.241	165.41387
758.664	139.34866
759.087	147.3261
759.51	171.42056
759.933	159.37888
760.356	155.39354
760.778	150.36585
761.201	194.46466
761.623	166.39882
762.046	181.42434
762.468	195.46144
762.89	182.44322
763.312	177.42678
763.734	148.35368
764.156	183.44541
764.578	153.3497
765	166.40063
765.421	108.27358
765.843	144.37433
766.264	179.42702
766.686	157.39054
767.107	102.24739
767.528	89.22485
767.949	142.3583
768.37	112.27449
768.791	168.40193
769.212	88.22125
769.632	60.14108
770.053	135.3528
770.473	114.2768
770.894	151.37479
771.314	128.30484
771.734	125.29042
772.154	146.37154
772.575	106.24603
772.994	65.14899
773.414	123.29456
773.834	114.28415
774.254	95.23279
774.673	154.37153
775.093	103.25454
775.512	74.18304
775.931	102.2582
776.351	141.34716
776.77	74.18163
777.189	95.22629
777.607	86.21979
778.026	99.24636
778.445	13.03297
778.864	90.2309
779.282	75.18125
779.701	80.20208
780.119	80.20244
780.537	27.06814
780.955	148.37277
781.373	66.16403
781.791	74.1672
782.209	136.31141
782.627	88.23158
783.045	105.24125
783.462	78.19955
783.88	76.19682
784.297	69.17414
784.715	48.12396
785.132	91.22033
785.549	67.16818
785.966	98.24595
786.383	79.19466
786.8	97.22528
787.217	48.11475
787.633	46.11557
788.05	108.25602
788.466	147.34328
788.883	21.05411
789.299	74.17874
789.715	76.18516
790.131	88.21871
790.547	82.20491
790.963	65.16193
791.379	48.12207
791.795	111.25248
792.21	68.15971
792.626	114.2692
793.041	107.26297
793.457	81.20032
793.872	46.10905
794.287	22.05312
794.702	68.16808
795.117	47.11747
795.532	48.12094
795.947	115.2754
796.362	101.24067
796.776	102.23853
797.191	52.12801
797.605	-1.00239
798.02	42.10297
798.434	105.23322
798.848	41.10169
799.262	42.10488
799.676	116.28134
800.09	54.13352
800.504	65.15827
800.918	4.00942
801.331	80.2096
801.745	19.04423
802.158	27.06812
802.572	110.26549
802.985	87.21017
803.398	102.24236
803.811	106.27118
804.224	59.14741
804.637	58.13877
805.05	74.1719
805.462	104.25441
805.875	12.03142
806.288	39.09475
806.7	38.09616
807.112	94.21749
807.525	66.16325
807.937	68.16832
808.349	84.21013
808.761	83.20399
809.173	55.13387
809.584	85.20983
809.996	58.14247
810.408	35.09088
810.819	80.18811
811.231	69.17829
811.642	86.20458
812.053	93.22042
812.464	110.25986
812.875	57.14606
813.286	63.16239
813.697	98.22845
814.108	69.16883
814.519	99.21989
814.929	105.26631
815.34	67.16277
815.75	75.19043
816.16	61.15241
816.571	53.13808
816.981	82.19349
817.391	79.19063
817.801	47.11726
818.211	93.22102
818.62	32.07764
819.03	90.21992
819.44	73.19058
819.849	48.12146
820.259	90.2296
820.668	55.13567
821.077	55.13697
821.486	92.22087
821.895	128.31312
822.304	46.12232
822.713	36.08574
823.122	74.18458
823.531	80.18943
823.939	73.17782
824.348	121.29154
824.756	95.23692
825.164	78.19604
825.573	46.11591
825.981	106.26123
826.389	70.17587
826.797	45.1132
827.205	86.19685
827.612	84.20679
828.02	62.14584
828.428	46.1176
828.835	77.20226
829.243	103.24403
829.65	54.1346
830.057	106.25554
830.464	38.09313
830.871	82.19596
831.278	87.20962
831.685	77.17174
832.092	85.20751
832.499	72.15756
832.905	69.17463
833.312	60.13722
833.718	100.24771
834.124	80.18252
834.531	58.14645
834.937	53.13633
835.343	83.19975
835.749	106.24594
836.155	40.10516
836.561	66.16236
836.966	104.25262
837.372	76.19307
837.777	47.11747
838.183	124.27273
838.588	84.20785
838.993	61.1487
839.399	62.15167
839.804	49.11976
840.209	57.14524
840.613	99.21889
841.018	81.20449
841.423	86.21971
841.828	48.12172
842.232	92.22681
842.637	88.20676
843.041	38.0978
843.445	69.17289
843.849	45.11178
844.253	76.1803
844.657	47.11866
845.061	53.1206
845.465	32.07776
845.869	94.21723
846.272	48.1172
846.676	74.17867
847.079	85.21521
847.483	98.24294
847.886	143.34284
848.289	35.09377
848.692	52.13191
849.095	89.21273
849.498	102.25673
849.901	80.18296
850.304	75.17886
850.707	84.21332
851.109	83.20924
851.512	60.14749
851.914	3.00764
852.316	34.0864
852.718	-22.05758
853.121	79.19293
853.523	70.16338
853.925	29.07602
854.326	31.0779
854.728	48.12366
855.13	54.13936
855.531	44.10547
855.933	72.17253
856.334	43.10751
856.736	20.04519
857.137	36.08412
857.538	33.08334
857.939	81.19929
858.34	121.29154
858.741	39.10227
859.142	65.15602
859.542	74.19467
859.943	61.15152
860.343	49.12154
860.744	72.17528
861.144	74.18002
861.544	7.01699
861.945	25.06408
862.345	55.13462
862.745	34.08487
863.145	69.16467
863.544	68.17152
863.944	93.21829
864.344	90.22229
864.743	104.25593
865.143	72.18446
865.542	50.11619
865.941	88.21663
866.34	81.19324
866.74	85.22704
867.139	67.16015
867.537	85.21551
867.936	78.18704
868.335	89.22517
868.734	26.0668
869.132	55.12789
869.531	92.22112
869.929	39.08925
870.327	65.1556
870.726	78.19378
871.124	79.18391
871.522	53.13509
871.92	95.2327
872.318	55.13452
872.715	83.20451
873.113	80.1941
873.511	46.11482
873.908	11.02799
874.306	52.12943
874.703	44.11035
875.1	91.23138
875.497	51.12242
875.894	29.0714
876.291	53.13016
876.688	60.15463
877.085	72.17226
877.482	60.1501
877.878	45.10855
878.275	82.20735
878.671	96.21212
879.068	86.20646
879.464	61.14731
879.86	74.17441
880.256	107.26161
880.652	46.11719
881.048	105.25786
881.444	84.1989
881.84	63.1599
882.236	68.1706
882.631	47.11555
883.027	65.15715
883.422	48.12289
883.817	38.09578
884.213	50.12841
884.608	21.05182
885.003	58.13977
885.398	46.11532
885.793	42.10567
886.188	31.0774
886.582	117.29685
886.977	68.16101
887.371	69.17407
887.766	56.13923
888.16	86.21343
888.554	79.19451
888.949	79.19752
889.343	61.14886
889.737	5.01343
890.131	43.10809
890.525	68.17348
890.918	57.14339
891.312	92.2186
891.706	55.14428
892.099	109.27469
892.492	106.22627
892.886	57.13941
893.279	47.11988
893.672	73.18522
894.065	42.10541
894.458	55.13831
894.851	81.19752
895.244	61.15559
895.637	105.25049
896.029	42.10294
896.422	73.17775
896.814	37.09228
897.206	27.06464
897.599	103.25248
897.991	36.08735
898.383	83.19505
898.775	57.1286
899.167	-2.00472
899.559	105.26338
899.951	100.23367
900.342	66.16749
900.734	16.03997
901.125	101.26287
901.517	93.22662
901.908	76.18148
902.299	45.11019
902.69	58.13675
903.082	112.26827
903.473	57.1364
903.863	56.14282
904.254	63.14597
904.645	87.21508
905.036	36.08744
905.426	87.19789
905.817	52.12763
906.207	20.04796
906.597	20.04708
906.987	89.22925
907.378	93.23353
907.768	82.21572
908.158	46.11232
908.547	34.08811
908.937	89.22693
909.327	90.21705
909.717	117.29369
910.106	66.15815
910.495	123.30318
910.885	77.19419
911.274	51.12751
911.663	112.28129
912.052	56.13811
912.441	49.12468
912.83	70.16016
913.219	99.25704
913.608	94.2285
913.997	22.05545
914.385	99.23446
914.774	55.13387
915.162	54.12865
915.55	78.18783
915.939	50.12625
916.327	100.24744
916.715	50.12747
917.103	59.14506
917.491	112.27408
917.878	58.14247
918.266	38.09878
918.654	51.13032
919.041	56.14608
919.429	70.16466
919.816	56.14186
920.203	32.0779
920.591	24.05982
920.978	85.20689
921.365	46.12081
921.752	85.20138
922.139	63.1365
922.525	49.11775
922.912	50.122
923.299	39.09716
923.685	78.20256
924.072	100.22843
924.458	51.12636
924.844	47.11641
925.231	37.08637
925.617	48.12216
926.003	55.14049
926.389	15.03809
926.774	94.23642
927.16	78.19279
927.546	15.03853
927.931	77.19126
928.317	71.16294
928.702	67.15806
929.088	42.09953
929.473	35.08931
929.858	15.03651
930.243	48.11528
930.628	78.18882
931.013	52.12886
931.398	52.1196
931.783	68.17853
932.167	81.19693
932.552	56.14019
932.937	84.20724
933.321	47.11802
933.705	90.22531
934.09	105.26281
934.474	98.2307
934.858	60.15538
935.242	72.16619
935.626	43.11022
936.009	32.08538
936.393	63.15996
936.777	45.11535
937.16	86.22241
937.544	72.16897
937.927	42.10673
938.311	86.20858
938.694	90.23644
939.077	69.16461
939.46	83.20263
939.843	121.24859
940.226	82.2092
940.609	72.1646
940.991	53.13486
941.374	38.0931
941.757	71.17456
942.139	13.02943
942.522	92.21573
942.904	63.1511
943.286	94.23702
943.668	72.18582
944.05	78.19117
944.432	43.10627
944.814	112.27276
945.196	54.13151
945.578	28.06684
945.959	65.15191
946.341	118.28608
946.722	58.13595
947.104	69.16436
947.485	69.16
947.866	25.06327
948.247	70.176
948.628	92.22271
949.009	46.11789
949.39	81.20054
949.771	86.19866
950.152	45.11055
950.532	11.02725
950.913	50.12063
951.293	22.0597
951.674	48.11616
952.054	61.15086
952.434	70.17315
952.814	86.20324
953.194	79.20575
953.574	82.20082
953.954	100.23523
954.334	79.19587
954.714	56.13633
955.093	80.19563
955.473	69.17196
955.853	40.10373
956.232	80.21822
956.611	70.16729
956.99	69.17283
957.37	94.23769
957.749	73.17342
958.128	35.08843
958.506	64.16563
958.885	67.16861
959.264	35.08602
959.643	71.16091
960.021	64.15819
960.4	39.0886
960.778	73.17908
961.156	43.10794
961.535	47.10963
961.913	90.20898
962.291	40.1028
962.669	18.04586
963.047	52.13266
963.424	43.10988
963.802	65.15939
964.18	80.20136
964.557	82.18769
964.935	86.20237
965.312	42.10952
965.69	61.15246
966.067	86.20803
966.444	41.10121
966.821	51.13146
967.198	89.21436
967.575	101.24602
967.952	103.24025
968.329	82.19836
968.705	43.09237
969.082	39.10021
969.458	31.07464
969.835	54.13136
970.211	71.18155
970.587	41.10225
970.963	62.15873
971.339	5.01316
971.715	96.23772
972.091	88.21519
972.467	90.22286
972.843	56.13882
973.219	130.30746
973.594	51.13337
973.97	145.33888
974.345	62.14805
974.721	81.19501
975.096	73.17589
975.471	73.17242
975.846	55.13202
976.221	56.14206
976.596	70.16716
976.971	35.08665
977.346	101.2328
977.72	101.25499
978.095	41.10612
978.469	100.23642
978.844	124.30761
979.218	38.0913
979.593	87.207
979.967	86.20811
980.341	77.17635
980.715	38.09595
981.089	79.19673
981.463	36.0829
981.837	75.18241
982.21	88.20328
982.584	57.13749
982.957	50.12485
983.331	92.21573
983.704	81.19789
984.078	27.06682
984.451	133.32723
984.824	42.10244
985.197	68.16462
985.57	20.05043
985.943	49.12105
986.316	48.11799
986.688	44.10624
987.061	47.11023
987.434	68.17665
987.806	70.16914
988.179	43.1016
988.551	71.17944
988.923	61.14992
989.295	71.17675
989.667	14.03367
990.039	41.10147
990.411	76.17403
990.783	49.11286
991.155	0
991.527	109.2655
991.898	59.14677
992.27	39.09666
992.641	68.17005
993.012	97.22617
993.384	54.1287
993.755	45.11482
994.126	104.24759
994.497	40.09836
994.868	106.24077
995.239	84.20228
995.61	52.13079
995.98	19.04642
996.351	55.13607
996.722	40.09295
997.092	17.04051
997.462	9.02119
997.833	84.19782
998.203	103.24723
998.573	58.1442
998.943	58.13579
999.313	98.23267
999.683	48.11524
1000.053	51.11732
1000.423	77.18616
1000.792	68.17568
1001.162	62.15223
1001.531	75.18405
1001.901	101.24941
1002.27	75.16679
1002.639	86.21832
1003.009	61.14475
1003.378	51.13036
1003.747	73.17168
1004.116	32.07682
1004.485	88.20877
1004.853	108.27076
1005.222	54.13606
1005.591	72.17022
1005.959	41.09254
1006.328	34.07676
1006.696	48.11581
1007.064	66.16552
1007.433	68.16937
1007.801	92.22405
1008.169	73.18357
1008.537	86.18899
1008.905	25.05852
1009.273	66.16254
1009.64	33.07897
1010.008	82.19424
1010.375	128.30624
1010.743	122.27767
1011.11	16.03811
1011.478	105.25719
1011.845	74.17319
1012.212	54.12211
1012.579	33.08125
1012.946	114.26795
1013.313	92.21717
1013.68	65.14563
1014.047	64.15207
1014.414	64.15072
1014.78	56.13898
1015.147	68.16387
1015.513	52.12522
1015.88	85.21597
1016.246	78.19152
1016.612	107.2421
1016.978	69.16845
1017.344	55.13577
1017.71	114.27462
1018.076	107.24948
1018.442	96.24491
1018.808	26.06525
1019.174	46.11545
1019.539	108.24571
1019.905	29.06865
1020.27	56.13801
1020.636	67.16009
1021.001	68.1622
1021.366	41.0986
1021.731	72.1844
1022.096	8.02032
1022.461	70.16498
1022.826	80.18899
1023.191	66.17263
1023.556	35.08225
1023.92	91.22199
1024.285	54.13166
1024.649	90.21886
1025.014	64.15807
1025.378	55.13811
1025.742	83.20481
1026.107	81.18201
1026.471	93.21522
1026.835	68.16795
1027.199	41.09882
1027.562	57.13228
1027.926	35.0858
1028.29	78.19632
1028.654	65.14905
1029.017	72.1762
1029.381	49.11703
1029.744	50.12747
1030.107	77.18116
1030.471	21.05054
1030.834	66.14961
1031.197	91.21743
1031.56	78.18298
1031.923	55.14202
1032.286	82.19131
1032.648	107.25301
1033.011	47.1079
1033.374	96.22353
1033.736	18.04756
1034.099	79.19142
1034.461	37.09365
1034.823	45.1121
1035.185	57.14324
1035.548	55.13367
1035.91	54.1292
1036.272	3.00689
1036.634	69.16814
1036.995	48.11282
1037.357	47.11436
1037.719	39.095
1038.08	60.14213
1038.442	44.10451
1038.803	25.06028
1039.165	33.08349
1039.526	66.15893
1039.887	51.12195
1040.248	3.00745
1040.609	51.12594
1040.97	29.07111
1041.331	75.18894
1041.692	12.02821
1042.053	33.07537
1042.413	108.24869
1042.774	89.21476
1043.134	85.20092
1043.495	71.17771
1043.855	64.15476
1044.215	59.14613
1044.576	20.04807
1044.936	109.24683
1045.296	74.18378
1045.656	57.13962
1046.016	97.23194
1046.375	63.15237
1046.735	32.07277
1047.095	38.08911
1047.454	33.07015
1047.814	50.12013
1048.173	101.23883
1048.533	67.15289
1048.892	10.02417
1049.251	70.17499
1049.61	8.01984
1049.969	74.17353
1050.328	31.06745
1050.687	66.16001
1051.046	41.09994
1051.405	65.16116
1051.763	47.10808
1052.122	56.13943
1052.48	47.11525
1052.839	33.07785
1053.197	75.17556
1053.555	116.26081
1053.914	80.19447
1054.272	71.17087
1054.63	45.11006
1054.988	9.02154
1055.345	20.04332
1055.703	94.22421
1056.061	32.08253
1056.419	38.09851
1056.776	74.17853
1057.134	71.16359
1057.491	74.18438
1057.848	58.1441
1058.206	104.24187
1058.563	4.0089
1058.92	88.20118
1059.277	82.20097
1059.634	87.20309
1059.991	90.21385
1060.348	20.04545
1060.704	42.10018
1061.061	114.26135
1061.418	52.12598
1061.774	49.12092
1062.131	46.12163
1062.487	37.08668
1062.843	82.20313
1063.199	83.20504
1063.555	48.11119
1063.911	95.23787
1064.267	39.0815
1064.623	68.16449
1064.979	122.28485
1065.335	128.3012
1065.691	109.25814
1066.046	67.14671
1066.402	22.05023
1066.757	71.17842
1067.112	97.23583
1067.468	37.08753
1067.823	44.10583
1068.178	89.21354
1068.533	52.12593
1068.888	64.15242
1069.243	65.15987
1069.598	64.15499
1069.952	-7.01594
1070.307	28.06954
1070.662	38.09036
1071.016	53.1186
1071.371	64.14508
1071.725	78.18548
1072.079	60.14394
1072.434	68.16455
1072.788	76.17996
1073.142	43.10584
1073.496	19.04531
1073.85	48.11128
1074.203	74.1786
1074.557	53.14077
1074.911	98.2316
1075.265	63.14597
1075.618	96.23222
1075.971	65.15406
1076.325	67.16963
1076.678	37.08477
1077.031	27.06134
1077.385	51.11224
1077.738	32.07245
1078.091	-14.03223
1078.444	63.14579
1078.796	44.108
1079.149	77.19043
1079.502	50.11803
1079.855	21.04922
1080.207	82.20067
1080.56	49.12657
1080.912	101.24335
1081.264	78.18669
1081.617	63.15306
1081.969	44.11102
1082.321	76.18454
1082.673	34.07779
1083.025	42.09972
1083.377	73.1558
1083.728	100.23082
1084.08	92.22773
1084.432	67.16094
1084.783	92.21362
1085.135	52.13018
1085.486	-5.01156
1085.838	100.24381
1086.189	55.13327
1086.54	106.25021
1086.891	32.08112
1087.242	42.10232
1087.593	114.27399
1087.944	92.20625
1088.295	79.17839
1088.646	40.09705
1088.996	35.08449
1089.347	99.24052
1089.698	-13.03107
1090.048	69.17848
1090.398	72.16613
1090.749	78.18548
1091.099	-4.01015
1091.449	53.13184
1091.799	70.17448
1092.149	27.06606
1092.499	45.10978
1092.849	33.08406
1093.199	95.23597
1093.548	16.03866
1093.898	59.14725
1094.248	65.16644
1094.597	9.02312
1094.947	32.08555
1095.296	89.218
1095.645	80.20682
1095.994	73.17442
1096.343	47.11823
1096.692	16.04223
1097.041	-2.00546
1097.39	84.20922
1097.739	60.15554
1098.088	81.21571
1098.437	0
1098.785	76.20384
1099.134	47.12475
1099.482	43.11829
1099.83	90.23468
1100.179	30.07844
1100.527	75.19827
1100.875	45.11896
1101.223	63.16677
1101.571	51.14079
1101.919	34.08899
1102.267	20.05651
1102.615	-1.00322
1102.962	20.06432
1103.31	3.00964
1103.658	16.0515
