Data from N2 R13 sample 6_Subt2__5__12-19-54-258.txt Node

Date: Tue Sep 02 12:19:54 PDT 2025
User: uwsun
Spectrometer: HDX01956
Trigger mode: 0
Integration Time (sec): 5.000000E-1
Scans to average: 1
Nonlinearity correction enabled: true
Boxcar width: 0
Storing dark spectrum: false
XAxis mode: Wavelengths
Number of Pixels in Spectrum: 2068
>>>>>Begin Spectral Data<<<<<
194.03	90.24911
194.578	52.16339
195.127	71.21925
195.676	76.23527
196.225	118.30685
196.773	144.3857
197.321	167.43582
197.87	238.56308
198.418	219.51302
198.966	172.40915
199.513	135.30769
200.061	139.32205
200.609	183.44541
201.156	171.33688
201.704	193.4397
202.251	174.42026
202.798	169.40054
203.345	224.50134
203.892	187.42758
204.438	249.53393
204.985	214.45245
205.532	176.42155
206.078	190.42297
206.624	188.41713
207.17	253.5247
207.716	191.4184
208.262	210.37123
208.808	146.3257
209.354	189.41507
209.899	251.57275
210.445	207.46206
210.99	177.38528
211.535	251.52823
212.08	243.50621
212.625	187.42586
213.17	254.57831
213.715	123.24813
214.259	241.50361
214.804	235.52412
215.348	175.36423
215.892	208.45112
216.436	319.65388
216.98	229.45645
217.524	198.4232
218.068	211.48226
218.612	248.56328
219.155	175.37494
219.698	204.44056
220.242	196.44681
220.785	191.40639
221.328	179.4083
221.871	182.42409
222.414	223.50537
222.956	139.30694
223.499	157.32371
224.041	195.41562
224.583	207.4078
225.126	182.36555
225.668	177.39281
226.21	138.31967
226.751	139.27796
227.293	201.41816
227.835	163.36415
228.376	229.4796
228.918	192.44405
229.459	190.42981
230	197.42608
230.541	189.39705
231.082	215.47177
231.622	204.42715
232.163	177.39052
232.704	124.28314
233.244	177.40048
233.784	226.50311
234.324	153.3044
234.864	126.26278
235.404	205.44319
235.944	192.41465
236.484	240.54135
237.023	209.44565
237.563	161.33868
238.102	208.44438
238.641	187.43068
239.18	160.33947
239.719	188.42944
240.258	232.46835
240.797	195.4214
241.335	230.50776
241.874	185.31927
242.412	202.43792
242.95	175.37769
243.488	212.43544
244.026	195.4046
244.564	168.31298
245.102	182.36859
245.64	231.50154
246.177	189.38251
246.715	219.47407
247.252	188.39103
247.789	313.51519
248.326	164.35539
248.863	183.36052
249.4	250.50561
249.936	205.3765
250.473	196.41021
251.009	220.44881
251.546	161.32046
252.082	213.41685
252.618	199.3961
253.154	160.34732
253.69	192.38795
254.226	174.37449
254.761	221.44194
255.297	179.35114
255.832	191.40532
256.367	194.40998
256.903	183.35967
257.438	218.45787
257.972	207.41106
258.507	175.35807
259.042	185.35931
259.576	182.34749
260.111	237.48668
260.645	267.50744
261.179	223.46083
261.713	222.43663
262.247	181.37437
262.781	153.2868
263.315	202.44054
263.849	183.40984
264.382	245.49788
264.915	198.41146
265.449	69.15249
265.982	213.43068
266.515	232.50017
267.048	207.38612
267.58	233.45038
268.113	213.40461
268.646	218.47624
269.178	123.24665
269.71	235.45097
270.243	256.51276
270.775	222.50035
271.307	211.45226
271.838	256.53697
272.37	200.43692
272.902	246.4909
273.433	185.35794
273.965	254.54195
274.496	208.46016
275.027	201.4418
275.558	223.47591
276.089	159.34596
276.62	181.41203
277.15	223.48685
277.681	207.39628
278.211	213.46246
278.741	183.35373
279.272	217.43273
279.802	184.40826
280.332	176.36623
280.861	224.47276
281.391	231.45508
281.921	249.52448
282.45	199.44016
282.98	167.38784
283.509	227.44383
284.038	219.43469
284.567	257.52203
285.096	225.47497
285.625	241.47254
286.153	204.41655
286.682	161.32345
287.21	169.35739
287.739	206.42388
288.267	213.44767
288.795	223.51461
289.323	184.37332
289.851	250.50399
290.378	198.38538
290.906	188.39434
291.433	260.55764
291.961	244.47107
292.488	277.59013
293.015	222.44775
293.542	216.47147
294.069	259.54266
294.596	258.54834
295.122	228.4664
295.649	261.48781
296.175	228.47592
296.702	228.47571
297.228	237.49481
297.754	270.51001
298.28	252.48208
298.806	224.45864
299.332	199.37304
299.857	205.39302
300.383	291.62426
300.908	197.40546
301.433	174.36175
301.958	239.4684
302.483	198.42027
303.008	280.58264
303.533	248.55025
304.058	265.52526
304.582	206.40936
305.107	183.4068
305.631	318.59833
306.155	223.43332
306.679	264.50871
307.203	243.46768
307.727	260.51161
308.251	221.45874
308.775	224.4389
309.298	237.46734
309.822	279.58224
310.345	334.63927
310.868	269.5262
311.391	300.60478
311.914	230.47604
312.437	316.58228
312.96	270.51552
313.482	235.4549
314.005	246.50619
314.527	237.51149
315.049	332.67699
315.571	255.44949
316.093	274.54678
316.615	282.54235
317.137	277.475
317.659	321.62078
318.18	278.53749
318.702	271.49823
319.223	346.53903
319.744	291.50652
320.265	282.53373
320.786	250.48544
321.307	301.5835
321.828	300.52094
322.348	299.54031
322.869	285.5129
323.389	115.1438
323.909	292.51055
324.43	384.70051
324.95	275.47486
325.47	311.57408
325.989	329.57328
326.509	309.49334
327.029	305.49978
327.548	333.53684
328.067	320.56069
328.587	355.6471
329.106	295.4842
329.625	400.77635
330.144	345.56219
330.662	299.49159
331.181	350.57531
331.7	342.56122
332.218	390.56768
332.736	398.63641
333.255	366.58054
333.773	403.64386
334.291	375.65069
334.808	408.5928
335.326	462.67009
335.844	390.58566
336.361	356.6002
336.879	361.54323
337.396	399.61783
337.913	432.61798
338.43	443.60892
338.947	380.57166
339.464	403.5138
339.981	358.52786
340.497	431.66193
341.014	444.65677
341.53	417.55123
342.046	405.60142
342.562	484.72344
343.078	408.56642
343.594	418.58818
344.11	436.60182
344.626	462.67884
345.141	461.58095
345.657	416.53425
346.172	437.59637
346.687	465.57782
347.202	480.56692
347.717	499.64123
348.232	476.65753
348.747	535.62854
349.261	426.46149
349.776	492.59742
350.29	478.60977
350.805	530.687
351.319	541.62388
351.833	518.55742
352.347	469.54922
352.861	506.56835
353.374	579.63194
353.888	515.61171
354.401	527.56466
354.915	501.49936
355.428	530.62703
355.941	514.5404
356.454	588.58073
356.967	518.56274
357.48	555.56319
357.993	558.62884
358.505	557.60547
359.018	661.68915
359.53	608.61386
360.042	622.54382
360.554	628.63838
361.066	483.51286
361.578	639.51494
362.09	562.55212
362.602	560.46244
363.113	658.56796
363.625	641.51502
364.136	676.51013
364.647	540.44497
365.158	754.5882
365.669	721.6037
366.18	645.53543
366.691	682.4755
367.201	628.52301
367.712	674.47672
368.222	639.45802
368.733	658.39031
369.243	670.40107
369.753	707.46539
370.263	685.48056
370.773	673.50065
371.282	766.46459
371.792	611.31944
372.301	719.41208
372.811	748.51271
373.32	644.21707
373.829	769.31084
374.338	761.22545
374.847	714.21994
375.356	824.22376
375.865	798.05555
376.373	932.06598
376.882	978.19965
377.39	807.11416
377.898	809.0421
378.407	986.8674
378.915	973.81004
379.423	1118.77425
379.93	1071.712
380.438	1039.69385
380.946	1196.53801
381.453	1089.55152
381.96	1182.4341
382.468	1313.2986
382.975	1471.21387
383.482	1438.22043
383.989	1288.30018
384.495	1518.21112
385.002	1392.38357
385.509	1570.35278
386.015	1709.7391
386.521	1854.78697
387.028	1746.01647
387.534	1928.47284
388.04	1994.42248
388.546	1899.11108
389.051	1900.86741
389.557	2082.92075
390.063	2708.01375
390.568	2550.51961
391.073	2436.66134
391.578	2538.5956
392.084	2418.87114
392.589	2328.6677
393.093	2571.86877
393.598	2719.97735
394.103	3315.16101
394.607	3676.30184
395.112	3864.95995
395.616	3841.48403
396.12	4015.31112
396.624	4371.49186
397.128	4978.38804
397.632	5424.62262
398.136	5708.30171
398.639	4967.71624
399.143	5409.5804
399.646	6253.50533
400.15	6377.22117
400.653	7255.40683
401.156	7200.44471
401.659	3806.03185
402.162	678.18395
402.664	0
403.167	0
403.67	0
404.172	0
404.674	0
405.176	0
405.678	0
406.18	0
406.682	0
407.184	0
407.686	0
408.187	0
408.688	0
409.19	0
409.691	0
410.192	0
410.693	0
411.194	435.30976
411.694	4082.94878
412.195	8864.71461
412.696	12089.80453
413.196	12760.96929
413.696	12863.67595
414.196	13703.56671
414.696	17261.84252
415.196	21764.24417
415.696	21782.3744
416.196	16623.5632
416.695	11144.74759
417.195	9248.59621
417.694	9307.38111
418.194	8955.82441
418.693	7859.61678
419.192	7947.93219
419.691	7909.30725
420.19	7613.42611
420.688	7749.45721
421.187	7474.71726
421.685	6917.07497
422.184	6232.79904
422.682	5189.49351
423.18	4166.97091
423.678	3661.65116
424.176	3254.65709
424.674	3118.09428
425.172	3211.98796
425.669	2941.15964
426.167	2921.00817
426.664	2625.7756
427.161	2297.86846
427.659	2166.32081
428.156	1972.34926
428.652	1835.07212
429.149	1784.07734
429.646	1620.13815
430.143	1719.09892
430.639	1504.23673
431.135	1342.40918
431.632	1335.41581
432.128	1164.6088
432.624	1089.7374
433.12	981.68363
433.616	941.71949
434.111	913.80019
434.607	855.89007
435.103	853.86549
435.598	921.86306
436.093	928.04091
436.588	838.07619
437.083	808.13256
437.578	750.19148
438.073	552.23326
438.568	683.32314
439.062	650.19796
439.557	566.30552
440.051	563.27343
440.546	481.25804
441.04	510.32555
441.534	530.40646
442.028	546.38599
442.522	454.33783
443.015	481.29423
443.509	527.42421
444.002	454.38047
444.496	453.30525
444.989	457.39921
445.482	418.38624
445.975	375.28767
446.468	407.28525
446.961	366.26578
447.454	363.30358
447.947	309.28472
448.439	365.36201
448.931	262.2311
449.424	279.31444
449.916	343.3532
450.408	278.25417
450.9	241.25772
451.392	239.27844
451.884	300.30012
452.375	208.24059
452.867	243.2522
453.358	234.23602
453.849	257.23548
454.341	252.25802
454.832	227.21913
455.323	163.19811
455.814	216.24107
456.304	198.22525
456.795	226.25341
457.285	264.29013
457.776	331.37481
458.266	185.22778
458.756	147.19175
459.247	147.18603
459.737	108.13967
460.226	138.16441
460.716	111.14794
461.206	157.21107
461.695	165.23928
462.185	150.20119
462.674	219.28142
463.163	127.16049
463.653	170.19707
464.142	96.13822
464.63	205.29749
465.119	72.10023
465.608	129.17711
466.096	109.14324
466.585	189.26509
467.073	126.19041
467.561	86.13285
468.05	103.15272
468.538	156.24654
469.026	129.19934
469.513	91.1208
470.001	94.13763
470.489	92.14279
470.976	99.15109
471.463	39.06727
471.951	86.14901
472.438	68.10877
472.925	8.01295
473.412	68.11838
473.899	53.08548
474.385	63.11046
474.872	5.00833
475.359	11.01949
475.845	35.05091
476.331	102.15739
476.817	80.1426
477.303	34.05797
477.789	10.01802
478.275	-3.00561
478.761	67.12051
479.247	4.00678
479.732	-27.05151
480.218	-21.0426
480.703	8.01536
481.188	-17.02785
481.673	14.02461
482.158	-68.11095
482.643	44.08813
483.128	15.02637
483.612	-30.0555
484.097	7.01367
484.581	19.03502
485.066	-28.05452
485.55	-23.0399
486.034	-42.0725
486.518	-81.15424
487.002	-106.2129
487.486	-56.11175
487.969	-109.2206
488.453	-22.0458
488.936	-30.05511
489.42	1.0018
489.903	-49.10344
490.386	-487.74447
490.869	-21.03787
491.352	-49.10158
491.835	-47.08107
492.318	-52.09798
492.8	-58.10039
493.283	-78.16838
493.765	-66.13771
494.247	-30.05964
494.73	-34.06331
495.212	-49.1018
495.694	-136.2743
496.175	-118.23952
496.657	-32.06484
497.139	16.02335
497.62	-119.24305
498.102	-60.1278
498.583	-61.13244
499.064	-105.20208
499.545	-63.12399
500.026	-70.13521
500.507	-94.19028
500.988	-71.15383
501.469	-141.31096
501.949	-71.15376
502.43	-172.36142
502.91	-149.27144
503.39	-127.28314
503.87	-101.20778
504.35	-67.13914
504.83	-80.15289
505.31	-138.29675
505.79	-111.23401
506.269	-130.27112
506.749	-109.21939
507.228	-149.31136
507.707	-115.2257
508.187	-59.12455
508.666	-123.2682
509.145	-160.33472
509.623	-166.35066
510.102	-133.28889
510.581	-78.16787
511.059	-161.3625
511.538	-108.25077
512.016	-84.17861
512.494	-127.27774
512.972	-120.25693
513.45	-200.4184
513.928	-112.24271
514.406	-192.41678
514.884	-115.26528
515.361	-134.28914
515.839	-123.25156
516.316	-111.23967
516.793	-120.27489
517.27	-140.30895
517.747	-156.36323
518.224	-155.32706
518.701	-111.2229
519.178	-183.41288
519.654	-129.27961
520.131	-151.33999
520.607	-144.32641
521.083	-169.35316
521.56	-173.3745
522.036	-114.22717
522.512	-74.16494
522.987	-138.29662
523.463	-108.23234
523.939	-122.27284
524.414	-77.16084
524.89	-130.28147
525.365	-124.25561
525.84	-180.39106
526.315	-142.31232
526.79	-101.20675
527.265	-152.31827
527.74	-172.38592
528.215	-133.2868
528.689	-185.37887
529.164	-87.17172
529.638	-113.26565
530.112	-135.29061
530.587	-148.28902
531.061	-150.33143
531.534	-98.21699
532.008	-160.35397
532.482	-115.24213
532.956	-165.38668
533.429	-97.21446
533.903	-76.15314
534.376	-140.28522
534.849	-116.24676
535.322	-102.22019
535.795	-102.2282
536.268	-65.14161
536.741	-90.1977
537.213	-58.12177
537.686	-124.27674
538.158	-136.27947
538.631	-78.1735
539.103	-132.27162
539.575	-54.10235
540.047	-50.09964
540.519	-76.1661
540.991	-44.09791
541.463	-38.08333
541.934	-70.14586
542.406	-80.17359
542.877	-42.08576
543.348	-26.05682
543.82	20.04401
544.291	-11.02319
544.762	-5.01061
545.233	-10.02248
545.703	-48.09574
546.174	13.02699
546.645	-9.01911
547.115	33.07043
547.585	40.08142
548.056	38.08034
548.526	67.13721
548.996	120.25026
549.466	163.34319
549.935	126.25518
550.405	127.23736
550.875	138.27923
551.344	222.44816
551.814	217.41844
552.283	301.53725
552.752	294.55862
553.221	270.47755
553.69	389.68682
554.159	339.6735
554.628	341.60929
555.096	401.81564
555.565	362.64699
556.033	493.91649
556.502	444.86381
556.97	459.80877
557.438	458.87408
557.906	568.06248
558.374	569.02475
558.842	615.14803
559.31	643.11046
559.777	663.23842
560.245	780.38528
560.712	773.35188
561.18	865.3868
561.647	890.44281
562.114	936.53128
562.581	1005.79104
563.048	1134.80008
563.514	1141.94343
563.981	1195.84834
564.448	1220.822
564.914	1348.0452
565.381	1434.06053
565.847	1475.1772
566.313	1548.21679
566.779	1581.14131
567.245	1614.27979
567.711	1698.41527
568.176	1766.22684
568.642	1832.66894
569.108	1915.64485
569.573	2112.58595
570.038	2134.14626
570.504	2203.3766
570.969	2287.90496
571.434	2387.30939
571.899	2465.69007
572.363	2525.49603
572.828	2661.53722
573.293	2650.53107
573.757	2672.53484
574.222	2708.37571
574.686	2774.384
575.15	2805.67912
575.614	2860.50033
576.078	2827.61292
576.542	2952.4614
577.006	2864.41782
577.469	2999.92288
577.933	2862.36747
578.396	2932.69233
578.86	2946.64231
579.323	2961.67936
579.786	2911.21574
580.249	2722.47906
580.712	2794.85635
581.175	2703.89041
581.637	2729.57782
582.1	2588.36373
582.563	2615.27439
583.025	2524.78868
583.487	2471.00605
583.95	2434.23821
584.412	2417.17995
584.874	2282.75386
585.336	2197.62396
585.797	2167.25518
586.259	2175.62062
586.721	2098.55034
587.182	2021.54269
587.643	1948.3839
588.105	1939.53029
588.566	1958.12812
589.027	1858.53447
589.488	1776.31359
589.949	1738.50223
590.41	1702.78285
590.87	1766.32485
591.331	1643.07631
591.791	1570.20983
592.252	1544.155
592.712	1473.26638
593.172	1538.11803
593.632	1572.07866
594.092	1431.01492
594.552	1405.90169
595.011	1358.01796
595.471	1403.00116
595.931	1383.97314
596.39	1385.16463
596.849	1303.01439
597.308	1365.89877
597.768	1287.2354
598.227	1331.13958
598.685	1365.05227
599.144	1312.03608
599.603	1393.1522
600.062	1395.82182
600.52	1356.94449
600.978	1365.12698
601.437	1447.10579
601.895	1425.87402
602.353	1473.03834
602.811	1515.06257
603.269	1570.33237
603.727	1514.28471
604.184	1545.11489
604.642	1591.4214
605.099	1634.2782
605.557	1700.49486
606.014	1730.08806
606.471	1672.53049
606.928	1748.06547
607.385	1890.56585
607.842	1864.35352
608.299	1997.49618
608.755	1944.58839
609.212	2000.30165
609.668	2038.28353
610.125	2124.69557
610.581	2112.66175
611.037	2110.50631
611.493	2100.63534
611.949	2119.68993
612.405	2211.01768
612.861	2141.65101
613.316	2145.68178
613.772	2142.53307
614.227	2148.63892
614.683	2154.2917
615.138	2091.5888
615.593	2152.58912
616.048	2189.56224
616.503	2158.85891
616.958	2106.90126
617.412	2114.66797
617.867	2071.37338
618.321	2138.1856
618.776	2049.40433
619.23	2076.63988
619.684	2073.50743
620.138	1997.59417
620.592	1873.68759
621.046	1873.57419
621.5	1865.69233
621.954	1890.44596
622.407	1764.33753
622.861	1762.63563
623.314	1720.39253
623.768	1644.4101
624.221	1625.90394
624.674	1585.3373
625.127	1655.44775
625.58	1559.30959
626.033	1511.17989
626.485	1430.32767
626.938	1407.30204
627.39	1374.20486
627.843	1354.17498
628.295	1342.16406
628.747	1339.241
629.199	1315.09706
629.651	1260.03895
630.103	1172.96708
630.555	1206.82585
631.006	1182.0463
631.458	1117.98201
631.909	1226.06256
632.361	1086.92635
632.812	1149.97912
633.263	1073.74317
633.714	1090.7536
634.165	1057.99067
634.616	1052.9392
635.067	1018.75323
635.518	1000.88175
635.968	1050.59401
636.419	998.6895
636.869	978.85018
637.319	915.69837
637.769	921.64352
638.219	952.82983
638.669	881.71305
639.119	842.70118
639.569	836.66822
640.019	879.66056
640.468	843.54431
640.918	896.76992
641.367	827.53093
641.816	752.41436
642.265	854.62781
642.714	793.53512
643.163	850.61312
643.612	731.4905
644.061	754.33207
644.51	772.47696
644.958	774.42301
645.406	738.50377
645.855	743.5575
646.303	761.5103
646.751	725.40329
647.199	793.51318
647.647	756.4735
648.095	682.34732
648.543	784.34062
648.99	741.51228
649.438	756.51677
649.885	752.59683
650.333	776.24966
650.78	760.56688
651.227	768.59402
651.674	742.44207
652.121	766.5934
652.568	777.60806
653.015	855.82633
653.461	689.42193
653.908	686.38818
654.354	754.54546
654.801	693.40844
655.247	791.46635
655.693	751.69792
656.139	760.56338
656.585	747.54315
657.031	660.34342
657.477	758.38935
657.922	770.51149
658.368	710.52916
658.813	690.40266
659.259	723.5042
659.704	767.53002
660.149	749.50167
660.594	753.54097
661.039	656.31224
661.484	767.58098
661.929	746.5077
662.373	672.49609
662.818	732.58265
663.262	721.51134
663.707	694.54956
664.151	717.53269
664.595	673.43048
665.039	738.60446
665.483	701.57325
665.927	716.47409
666.371	731.46486
666.814	712.49081
667.258	718.4802
667.701	768.42469
668.145	719.5747
668.588	707.52758
669.031	622.3033
669.474	701.48618
669.917	754.44455
670.36	738.60378
670.803	748.5773
671.245	699.28583
671.688	723.55152
672.13	645.28216
672.573	731.63793
673.015	732.54083
673.457	728.37854
673.899	729.55232
674.341	708.50723
674.783	731.53569
675.225	731.58015
675.666	700.48309
676.108	734.38721
676.549	764.57796
676.991	707.36709
677.432	722.2436
677.873	706.43979
678.314	745.55826
678.755	711.52837
679.196	711.43129
679.637	730.57362
680.078	720.48499
680.518	808.62794
680.959	706.49581
681.399	708.55612
681.839	723.55352
682.28	674.48319
682.72	697.40822
683.16	699.54629
683.6	732.46585
684.039	732.32677
684.479	706.53549
684.919	700.42172
685.358	684.55232
685.798	746.72995
686.237	798.67915
686.676	716.46814
687.115	757.55615
687.554	701.47519
687.993	706.3759
688.432	720.44777
688.871	748.48136
689.309	730.53594
689.748	735.33932
690.186	812.68169
690.625	710.47024
691.063	823.70487
691.501	775.67889
691.939	719.58924
692.377	767.63896
692.815	714.50949
693.253	740.5686
693.69	721.39021
694.128	707.51781
694.565	743.55887
695.003	800.77462
695.44	773.58409
695.877	678.40828
696.314	771.43701
696.751	770.5321
697.188	739.48841
697.625	830.64169
698.061	770.61522
698.498	836.74839
698.934	813.69838
699.371	762.5675
699.807	792.62927
700.243	738.56436
700.679	861.6622
701.115	796.6309
701.551	815.66123
701.987	820.58709
702.422	796.64192
702.858	787.63313
703.294	788.54833
703.729	769.65102
704.164	829.72419
704.599	801.53881
705.035	792.53063
705.47	779.65529
705.904	834.66961
706.339	835.67354
706.774	768.57064
707.209	816.62149
707.643	778.63273
708.078	805.70465
708.512	736.6265
708.946	815.69429
709.38	832.70013
709.814	728.46455
710.248	792.68476
710.682	818.68206
711.116	733.53787
711.549	777.76597
711.983	735.49188
712.416	784.61642
712.85	769.68498
713.283	750.55801
713.716	766.69565
714.149	750.57253
714.582	738.45131
715.015	764.68561
715.448	748.66678
715.881	760.44765
716.313	711.4733
716.746	706.47107
717.178	718.52722
717.61	659.5049
718.043	699.554
718.475	652.41974
718.907	736.65353
719.339	669.34786
719.77	588.26505
720.202	634.4498
720.634	632.38545
721.065	605.29861
721.497	596.32837
721.928	592.32162
722.359	532.17821
722.79	529.1645
723.221	609.39342
723.652	593.39851
724.083	568.16481
724.514	553.16133
724.945	500.08698
725.375	505.0804
725.806	570.30331
726.236	529.25272
726.666	508.11142
727.096	563.26482
727.526	473.12036
727.956	442.94057
728.386	519.18061
728.816	476.12205
729.246	431.98457
729.675	411.95513
730.105	455.04773
730.534	419.92397
730.964	459.08631
731.393	454.05684
731.822	440.05549
732.251	401.96453
732.68	478.04788
733.109	404.94201
733.537	368.84627
733.966	391.9212
734.395	367.80695
734.823	424.90031
735.251	374.85698
735.68	418.98957
736.108	425.01228
736.536	353.79571
736.964	332.73874
737.392	334.80205
737.82	354.81181
738.247	295.68317
738.675	369.8406
739.102	331.79319
739.53	255.63174
739.957	328.81031
740.384	343.81128
740.811	343.83319
741.238	287.6778
741.665	284.63719
742.092	296.68345
742.519	259.62305
742.945	251.58728
743.372	300.71686
743.798	238.59748
744.225	250.57932
744.651	270.65774
745.077	285.68792
745.503	264.62627
745.929	237.55561
746.355	326.77987
746.781	281.67468
747.207	191.44129
747.632	190.45595
748.058	244.59397
748.483	210.47524
748.908	170.41771
749.334	196.47392
749.759	218.50397
750.184	192.45039
750.609	196.47428
751.033	271.62237
751.458	257.56155
751.883	212.5157
752.307	200.4631
752.732	149.36889
753.156	194.47156
753.58	213.49681
754.005	171.42907
754.429	162.37735
754.853	150.36857
755.277	136.32065
755.7	148.36446
756.124	141.34755
756.548	148.3484
756.971	167.40358
757.394	138.35317
757.818	157.39989
758.241	165.41387
758.664	140.3511
759.087	135.30022
759.51	142.35111
759.933	130.3115
760.356	115.29405
760.778	142.34685
761.201	161.38805
761.623	154.37083
762.046	170.39941
762.468	171.40653
762.89	146.35795
763.312	160.38703
763.734	147.35136
764.156	118.2907
764.578	158.36077
765	154.37252
765.421	112.28351
765.843	158.40973
766.264	172.41087
766.686	122.30541
767.107	157.37684
767.528	81.20493
767.949	109.27665
768.37	113.27689
768.791	149.35777
769.212	83.20887
769.632	77.18045
770.053	101.26548
770.473	126.30525
770.894	136.33849
771.314	128.30484
771.734	90.21055
772.154	122.31179
772.575	148.34066
772.994	90.20525
773.414	168.39886
773.834	80.20063
774.254	108.264
774.673	141.34101
775.093	90.22294
775.512	66.16349
775.931	75.19077
776.351	75.18691
776.77	87.21303
777.189	119.28215
777.607	81.20719
778.026	124.30716
778.445	56.14095
778.864	80.2056
779.282	90.21689
779.701	62.15711
780.119	45.11458
780.537	41.10321
780.955	101.25653
781.373	57.1419
781.791	73.16497
782.209	101.2329
782.627	56.14817
783.045	49.11385
783.462	50.12855
783.88	53.1378
784.297	82.20646
784.715	37.09574
785.132	64.15575
785.549	48.1209
785.966	57.14411
786.383	97.23822
786.8	75.17494
787.217	79.18775
787.633	29.07308
788.05	122.28843
788.466	117.27484
788.883	38.09763
789.299	22.05366
789.715	105.25442
790.131	86.21381
790.547	75.18765
790.963	109.26937
791.379	69.17482
791.795	95.21679
792.21	100.23339
792.626	59.14081
793.041	107.26297
793.457	51.12682
793.872	31.0737
794.287	28.06753
794.702	111.27219
795.117	20.05023
795.532	71.17816
795.947	90.21656
796.362	93.22195
796.776	123.28645
797.191	74.18143
797.605	-7.01672
798.02	47.11513
798.434	62.13894
798.848	32.0795
799.262	46.11478
799.676	75.1833
800.09	99.24277
800.504	117.28211
800.918	88.20377
801.331	113.2944
801.745	65.14994
802.158	47.11815
802.572	91.22042
802.985	105.2528
803.398	71.16971
803.811	79.20307
804.224	65.16222
804.637	91.21635
805.05	90.2084
805.462	101.24721
805.875	32.0835
806.288	-11.02697
806.7	47.11874
807.112	111.25595
807.525	74.18277
807.937	36.08963
808.349	58.14577
808.761	87.21366
809.173	78.18904
809.584	99.24376
809.996	17.04207
810.408	76.19593
810.819	79.18579
811.231	68.17574
811.642	54.12925
812.053	115.2714
812.464	81.19242
812.875	94.2393
813.286	94.24099
813.697	93.21701
814.108	92.22414
814.519	79.1762
814.929	121.30602
815.34	76.18433
815.75	58.14771
816.16	83.20654
816.571	74.1921
816.981	109.25585
817.391	72.17397
817.801	30.07508
818.211	108.25592
818.62	41.09931
819.03	97.23672
819.44	92.2394
819.849	46.11644
820.259	56.14372
820.668	64.15761
821.077	51.1271
821.486	70.16876
821.895	89.2193
822.304	66.17492
822.713	32.07627
823.122	53.13271
823.531	49.11672
823.939	50.12232
824.348	82.19903
824.756	102.25405
825.164	57.1438
825.573	52.13088
825.981	97.23945
826.389	85.21298
826.797	45.1132
827.205	113.25724
827.612	88.21647
828.02	40.09449
828.428	56.14292
828.835	58.15284
829.243	108.25563
829.65	39.09747
830.057	57.13869
830.464	41.10043
830.871	81.19361
831.278	84.20251
831.685	102.22632
832.092	82.2003
832.499	65.14245
832.905	111.27883
833.312	111.25126
833.718	68.16943
834.124	59.13518
834.531	82.20617
834.937	94.24006
835.343	80.19264
835.749	113.26181
836.155	56.14682
836.561	61.15019
836.966	101.24547
837.372	61.15538
837.777	33.08269
838.183	82.18194
838.588	60.14912
838.993	78.18953
839.399	50.12259
839.804	27.06626
840.209	51.13009
840.613	53.11831
841.018	47.11938
841.423	85.21719
841.828	55.1393
842.232	111.2727
842.637	79.18594
843.041	33.085
843.445	89.2222
843.849	65.16087
844.253	123.28916
844.657	37.09358
845.061	66.14979
845.465	54.13068
845.869	83.19223
846.272	25.06131
846.676	60.14525
847.079	54.13747
847.483	108.26724
847.886	95.22985
848.289	33.08844
848.692	77.19447
849.095	109.25954
849.498	125.31332
849.901	49.11276
850.304	43.10317
850.707	88.22332
851.109	124.31031
851.512	52.12801
851.914	16.04063
852.316	63.15928
852.718	38.09844
853.121	68.16641
853.523	42.09856
853.925	32.08384
854.326	32.0804
854.728	42.10832
855.13	8.02081
855.531	33.07927
855.933	64.15359
856.334	60.14955
856.736	76.16975
857.137	52.12113
857.538	10.02536
857.939	9.02244
858.34	65.15827
858.741	66.17228
859.142	42.10125
859.542	65.17126
859.943	76.18826
860.343	25.06228
860.744	40.09796
861.144	65.15839
861.544	-9.02191
861.945	36.0921
862.345	36.08843
862.745	24.06002
863.145	105.24886
863.544	64.16155
863.944	81.19057
864.344	84.2077
864.743	91.22447
865.143	76.19457
865.542	53.12309
865.941	63.1558
866.34	32.07706
866.74	62.16624
867.139	21.05064
867.537	55.14019
867.936	40.09661
868.335	60.15259
868.734	85.21612
869.132	36.08402
869.531	78.18797
869.929	21.04823
870.327	53.12717
870.726	96.23772
871.124	95.22046
871.522	80.20294
871.92	69.16983
872.318	56.13694
872.715	87.21421
873.113	21.05152
873.511	73.18133
873.908	12.03053
874.306	43.1072
874.703	55.13766
875.1	44.11281
875.497	64.15324
875.894	25.0616
876.291	57.13988
876.688	76.19532
877.085	72.17226
877.482	97.24103
877.878	40.09658
878.275	35.08924
878.671	84.18607
879.068	107.25585
879.464	91.21851
879.86	76.17905
880.256	66.1626
880.652	79.20009
881.048	79.19494
881.444	58.13802
881.84	64.16241
882.236	82.20521
882.631	81.19789
883.027	91.21892
883.422	51.1305
883.817	21.05309
884.213	54.13859
884.608	45.11055
885.003	101.24141
885.398	21.05288
885.793	82.20483
886.188	24.06
886.582	101.25699
886.977	87.20524
887.371	64.16161
887.766	26.065
888.16	108.26694
888.554	100.24526
888.949	104.25885
889.343	78.18975
889.737	22.05893
890.131	34.08561
890.525	76.19362
890.918	62.15583
891.312	46.11027
891.706	72.18832
892.099	87.22011
892.492	66.14211
892.886	46.11274
893.279	61.15521
893.672	42.10715
894.065	43.1079
894.458	80.20027
894.851	75.1831
895.244	48.12272
895.637	57.13723
896.029	91.221
896.422	51.12469
896.814	60.14901
897.206	-3.00722
897.599	134.32658
897.991	55.13297
898.383	55.12995
898.775	78.17523
899.167	26.06097
899.559	84.2115
899.951	99.23138
900.342	57.14488
900.734	-4.01003
901.125	86.2244
901.517	26.06415
901.908	74.17678
902.299	24.059
902.69	58.13675
903.082	97.233
903.473	20.0482
903.863	77.19564
904.254	12.02808
904.645	48.11951
905.036	52.12593
905.426	102.23131
905.817	67.16399
906.207	58.13808
906.597	-16.03793
906.987	85.2191
907.378	53.13404
907.768	55.14535
908.158	98.23697
908.547	78.2006
908.937	26.06703
909.327	59.14312
909.717	96.24189
910.106	17.04112
910.495	111.27421
910.885	94.23634
911.274	55.13741
911.663	75.18962
912.052	91.22298
912.441	42.107
912.83	29.0669
913.219	81.21096
913.608	84.20457
913.997	25.06298
914.385	58.13845
914.774	77.18665
915.162	51.12158
915.55	117.27966
915.939	33.08358
916.327	64.15941
916.715	44.11229
917.103	115.2798
917.491	91.22356
917.878	92.22456
918.266	75.19373
918.654	71.18078
919.041	38.09943
919.429	84.19705
919.816	69.17439
920.203	62.15009
920.591	54.13387
920.978	46.11278
921.365	42.11038
921.752	91.21535
922.139	57.12365
922.525	46.1106
922.912	60.14612
923.299	33.0823
923.685	54.14081
924.072	68.15633
924.458	54.13372
924.844	53.13112
925.231	-4.00941
925.617	20.05115
926.003	100.25341
926.389	29.07345
926.774	78.19674
927.16	73.1806
927.546	26.06666
927.931	76.18882
928.317	22.05098
928.702	55.13006
929.088	49.11596
929.473	33.08423
929.858	-11.0269
930.243	19.04588
930.628	50.12168
931.013	47.11658
931.398	91.20766
931.783	59.15514
932.167	65.15851
932.552	56.14019
932.937	82.20238
933.321	59.14783
933.705	68.17091
934.09	113.28242
934.474	104.24454
934.858	77.19882
935.242	11.0257
935.626	60.15334
936.009	70.18558
936.393	82.2075
936.777	19.04892
937.16	70.18153
937.544	59.13881
937.927	37.09411
938.311	57.139
938.694	79.20793
939.077	45.10785
939.46	108.26243
939.843	128.26255
940.226	33.08492
940.609	84.19157
940.991	47.11972
941.374	39.09553
941.757	81.19878
942.139	39.08781
942.522	105.24559
942.904	57.13687
943.286	104.26176
943.668	50.12953
944.05	42.10362
944.432	61.15025
944.814	137.33208
945.196	4.00983
945.578	30.07158
945.959	83.1933
946.341	113.27422
946.722	28.06602
947.104	70.16671
947.485	33.07707
947.866	56.14095
948.247	55.13866
948.628	42.10263
949.009	53.13567
949.39	92.22731
949.771	82.18957
950.152	52.12759
950.532	5.0124
950.913	88.21078
951.293	14.03804
951.674	82.19716
952.054	46.11408
952.434	55.13642
952.814	50.11899
953.194	57.14901
953.574	93.22729
953.954	41.09755
954.334	52.12957
954.714	38.09282
955.093	113.27463
955.473	25.0628
955.853	24.06241
956.232	68.18585
956.611	104.24692
956.99	53.13314
957.37	56.14256
957.749	62.1476
958.128	20.05066
958.506	38.09878
958.885	44.11118
959.264	-3.00742
959.643	74.16761
960.021	62.1533
960.4	13.02969
960.778	97.23689
961.156	34.08549
961.535	48.11194
961.913	95.22037
962.291	64.16379
962.669	74.18666
963.047	68.17299
963.424	51.13013
963.802	81.19804
964.18	47.119
964.557	54.1243
964.935	54.12786
965.312	35.09138
965.69	112.27734
966.067	80.19374
966.444	97.23698
966.821	85.2178
967.198	74.17874
967.575	56.13755
967.952	52.12251
968.329	62.15054
968.705	80.17048
969.082	69.17637
969.458	50.11995
969.835	74.17934
970.211	68.17397
970.587	87.21516
970.963	66.16885
971.339	15.0394
971.715	71.17662
972.091	69.16933
972.467	40.09996
972.843	42.10438
973.219	87.20747
973.594	29.07612
973.97	106.24963
974.345	13.03133
974.721	90.21631
975.096	8.01951
975.471	57.13505
975.846	45.10822
976.221	43.10933
976.596	52.1246
976.971	36.08911
977.346	110.25309
977.72	73.18522
978.095	41.10612
978.469	122.2872
978.844	94.23447
979.218	32.07697
979.593	88.20934
979.967	90.21763
980.341	86.19661
980.715	57.14344
981.089	39.09783
981.463	42.0966
981.837	35.08576
982.21	116.26647
982.584	81.1945
982.957	63.15695
983.331	80.18803
983.704	33.08134
984.078	52.12811
984.451	114.28146
984.824	23.0563
985.197	40.09734
985.57	78.19463
985.943	104.25432
986.316	98.23867
986.688	73.17529
987.061	66.15422
987.434	38.09922
987.806	76.18343
988.179	31.07342
988.551	73.18443
988.923	63.15478
989.295	79.19638
989.667	4.00964
990.039	39.09656
990.411	80.18304
990.783	70.16055
991.155	17.0411
991.527	131.31778
991.898	56.13938
992.27	69.17008
992.641	75.18732
993.012	70.16408
993.384	54.1287
993.755	47.11988
994.126	60.14405
994.497	50.12272
994.868	80.18267
995.239	47.11397
995.61	31.07826
995.98	62.15026
996.351	50.12381
996.722	43.09987
997.092	50.11839
997.462	-10.02363
997.833	84.19782
998.203	99.23781
998.573	40.09978
998.943	95.22081
999.313	53.12693
999.683	112.26561
1000.053	63.14458
1000.423	71.17185
1000.792	66.17057
1001.162	39.09617
1001.531	88.21543
1001.901	88.21783
1002.27	73.16241
1002.639	63.16058
1003.009	47.11183
1003.378	83.21096
1003.747	51.12046
1004.116	17.04093
1004.485	76.18072
1004.853	68.17171
1005.222	108.26949
1005.591	72.17022
1005.959	62.13934
1006.328	88.19648
1006.696	20.04851
1007.064	84.20998
1007.433	59.14719
1007.801	75.18323
1008.169	92.23056
1008.537	71.15652
1008.905	69.16012
1009.273	66.16254
1009.64	9.02164
1010.008	82.19424
1010.375	129.30857
1010.743	150.33946
1011.11	80.18818
1011.478	68.16771
1011.845	65.15239
1012.212	44.0997
1012.579	64.15668
1012.946	95.22412
1013.313	130.3046
1013.68	95.21153
1014.047	-6.01445
1014.414	47.11105
1014.78	22.05494
1015.147	84.20182
1015.513	6.01457
1015.88	85.21597
1016.246	77.1891
1016.612	81.18424
1016.978	31.07622
1017.344	62.15285
1017.71	104.251
1018.076	71.16672
1018.442	82.20971
1018.808	42.10511
1019.174	75.18725
1019.539	66.15143
1019.905	33.07806
1020.27	13.03229
1020.636	111.26298
1021.001	101.23938
1021.366	25.0603
1021.731	76.1945
1022.096	42.10605
1022.461	69.16265
1022.826	36.08577
1023.191	73.19071
1023.556	66.15416
1023.92	81.19797
1024.285	20.04907
1024.649	71.17327
1025.014	83.20429
1025.378	51.12816
1025.742	84.20724
1026.107	101.22601
1026.471	102.23562
1026.835	65.16063
1027.199	9.02182
1027.562	41.09545
1027.926	102.24692
1028.29	76.19136
1028.654	69.15809
1029.017	95.23149
1029.381	49.11703
1029.744	59.15018
1030.107	94.22042
1030.471	53.12678
1030.834	97.21849
1031.197	117.27816
1031.56	64.15055
1031.923	74.19045
1032.286	100.23247
1032.648	51.1219
1033.011	44.10108
1033.374	84.19605
1033.736	37.09745
1034.099	51.12423
1034.461	26.06593
1034.823	22.05504
1035.185	69.17302
1035.548	73.17682
1035.91	93.22085
1036.272	72.16308
1036.634	83.20172
1036.995	81.18916
1037.357	68.1648
1037.719	54.13117
1038.08	131.30604
1038.442	30.07145
1038.803	83.19793
1039.165	47.11862
1039.526	42.1016
1039.887	28.06725
1040.248	22.05446
1040.609	85.20859
1040.97	71.17275
1041.331	50.12652
1041.692	30.07027
1042.053	89.20097
1042.413	59.13719
1042.774	98.23608
1043.134	113.26565
1043.495	72.18018
1043.855	65.15715
1044.215	69.17058
1044.576	33.07912
1044.936	65.14851
1045.296	86.21311
1045.656	70.17105
1046.016	74.17772
1046.375	62.14998
1046.735	83.18681
1047.095	101.23392
1047.454	66.1393
1047.814	53.12726
1048.173	100.23651
1048.533	63.14388
1048.892	37.08898
1049.251	81.20208
1049.61	41.10106
1049.969	49.11546
1050.328	82.17648
1050.687	60.14563
1051.046	48.11686
1051.405	53.1317
1051.763	25.05774
1052.122	39.0974
1052.48	63.15403
1052.839	75.17549
1053.197	52.12227
1053.555	81.18342
1053.914	107.25878
1054.272	78.18747
1054.63	7.01724
1054.988	26.06202
1055.345	98.20874
1055.703	95.22655
1056.061	52.13364
1056.419	36.09336
1056.776	69.16663
1057.134	39.09043
1057.491	29.07285
1057.848	62.15392
1058.206	71.1662
1058.563	41.0905
1058.92	71.16287
1059.277	112.27296
1059.634	115.26697
1059.991	82.19514
1060.348	30.06803
1060.704	24.05744
1061.061	131.2993
1061.418	20.04874
1061.774	44.10868
1062.131	15.03987
1062.487	62.14453
1062.843	58.14431
1063.199	47.11687
1063.555	-8.01874
1063.911	38.09612
1064.267	112.23025
1064.623	14.03421
1064.979	69.16278
1065.335	81.19235
1065.691	81.19287
1066.046	77.16825
1066.402	62.14043
1066.757	62.15605
1067.112	63.15415
1067.468	23.05456
1067.823	86.20521
1068.178	111.26521
1068.533	42.1019
1068.888	97.22955
1069.243	50.12331
1069.598	66.15977
1069.952	19.04303
1070.307	16.03982
1070.662	60.14207
1071.016	-4.00906
1071.371	40.09111
1071.725	57.13609
1072.079	18.04353
1072.434	24.05856
1072.788	52.1237
1073.142	95.23158
1073.496	26.06192
1073.85	103.23618
1074.203	58.14041
1074.557	56.14866
1074.911	52.12398
1075.265	76.17563
1075.618	77.18693
1075.971	56.13296
1076.325	65.16463
1076.678	24.05513
1077.031	51.1153
1077.385	71.1556
1077.738	54.12171
1078.091	22.05028
1078.444	55.12748
1078.796	68.16616
1079.149	64.15865
1079.502	11.02616
1079.855	42.09803
1080.207	85.2079
1080.56	9.02341
1080.912	31.07568
1081.264	97.23132
1081.617	41.10002
1081.969	-1.00254
1082.321	70.17016
1082.673	39.08914
1083.025	27.06429
1083.377	129.27196
1083.728	53.12348
1084.08	65.16169
1084.432	52.12527
1084.783	94.21818
1085.135	89.22131
1085.486	90.20409
1085.838	59.14495
1086.189	67.16198
1086.54	94.2224
1086.891	42.10628
1087.242	63.15288
1087.593	80.19352
1087.944	56.12648
1088.295	74.16727
1088.646	63.1522
1088.996	-8.01947
1089.347	12.02963
1089.698	13.03092
1090.048	65.16825
1090.398	42.09749
1090.749	88.20885
1091.099	33.08316
1091.449	72.17849
1091.799	79.19659
1092.149	28.0685
1092.499	62.15077
1092.849	62.15711
1093.199	80.19926
1093.548	69.16505
1093.898	55.13736
1094.248	54.13854
1094.597	14.03593
1094.947	64.17018
1095.296	60.14776
1095.645	89.22973
1095.994	51.12237
1096.343	90.22466
1096.692	20.05276
1097.041	39.10568
1097.39	68.16986
1097.739	61.15811
1098.088	87.23146
1098.437	44.1156
1098.785	110.29338
1099.134	81.21377
1099.482	56.15373
1099.83	79.20639
1100.179	32.08364
1100.527	75.19827
1100.875	43.11371
1101.223	82.21638
1101.571	41.11336
1101.919	7.01841
1102.267	4.01133
1102.615	2.00643
1102.962	11.03541
1103.31	4.01285
1103.658	10.03221
