Data from N2 R13 sample 6_Subt2__4__12-19-53-261.txt Node

Date: Tue Sep 02 12:19:53 PDT 2025
User: uwsun
Spectrometer: HDX01956
Trigger mode: 0
Integration Time (sec): 5.000000E-1
Scans to average: 1
Nonlinearity correction enabled: true
Boxcar width: 0
Storing dark spectrum: false
XAxis mode: Wavelengths
Number of Pixels in Spectrum: 2068
>>>>>Begin Spectral Data<<<<<
194.03	73.20259
194.578	70.21946
195.127	57.17634
195.676	90.27811
196.225	124.32212
196.773	118.31742
197.321	164.42821
197.87	240.56759
198.418	224.52421
198.966	185.43897
199.513	131.29882
200.061	153.3535
200.609	224.54101
201.156	185.36325
201.704	181.41336
202.251	190.45751
202.798	202.4757
203.345	261.57969
203.892	219.49752
204.438	229.49317
204.985	196.41603
205.532	193.46077
206.078	167.37354
206.624	203.449
207.17	218.45565
207.716	205.44774
208.262	262.45688
208.808	134.29967
209.354	197.43191
209.899	247.56408
210.445	216.48125
210.99	149.32626
211.535	241.5083
212.08	238.49635
212.625	200.45427
213.17	189.43598
213.715	102.20676
214.259	198.4177
214.804	270.59781
215.348	268.54624
215.892	202.43867
216.436	221.46305
216.98	277.54596
217.524	209.44565
218.068	223.50845
218.612	197.45208
219.155	166.35635
219.698	182.3949
220.242	188.42926
220.785	180.3839
221.328	173.3951
221.871	229.52866
222.414	183.4181
222.956	140.30908
223.499	163.33563
224.041	209.4441
224.583	205.40405
225.126	220.438
225.668	214.47126
226.21	122.2835
226.751	139.27796
227.293	225.46559
227.835	150.336
228.376	227.47562
228.918	208.47952
229.459	154.35093
230	197.42608
230.541	202.42314
231.082	223.4885
231.622	187.39302
232.163	206.45174
232.704	169.38238
233.244	125.28582
233.784	226.50311
234.324	88.17773
234.864	160.33116
235.404	192.41624
235.944	208.44766
236.484	216.48961
237.023	206.43954
237.563	219.4548
238.102	215.45864
238.641	208.47703
239.18	169.35786
239.719	192.43822
240.258	166.34019
240.797	189.40895
241.335	220.48671
241.874	204.35028
242.412	180.39206
242.95	135.29386
243.488	169.35049
244.026	166.34666
244.564	183.33965
245.102	208.41874
245.64	222.48292
246.177	133.27263
246.715	200.4347
247.252	242.49729
247.789	280.4651
248.326	151.32813
248.863	166.32833
249.4	243.49224
249.936	161.29897
250.473	176.36999
251.009	207.42354
251.546	179.35479
252.082	259.50135
252.618	206.40936
253.154	204.43867
253.69	236.47204
254.226	204.43622
254.761	172.34786
255.297	156.30769
255.832	197.41751
256.367	190.40188
256.903	151.29902
257.438	221.46387
257.972	163.32701
258.507	168.34429
259.042	191.37043
259.576	133.25696
260.111	199.41216
260.645	217.41744
261.179	195.4055
261.713	194.38408
262.247	208.42761
262.781	191.35468
263.315	133.2943
263.849	215.47832
264.382	209.42822
264.915	198.41146
265.449	156.33849
265.982	208.42105
266.515	194.42166
267.048	228.42307
267.58	190.37105
268.113	206.39198
268.646	221.48248
269.178	199.39204
269.71	187.36302
270.243	243.48819
270.775	179.40698
271.307	265.56137
271.838	252.52905
272.37	230.49926
272.902	215.43213
273.433	192.37086
273.965	220.47287
274.496	196.4347
275.027	207.45441
275.558	160.34613
276.089	156.33964
276.62	250.56114
277.15	216.47227
277.681	236.44863
278.211	237.51193
278.741	169.32776
279.272	159.32135
279.802	227.49915
280.332	208.42974
280.861	193.4101
281.391	191.37982
281.921	207.44004
282.45	243.53253
282.98	185.42811
283.509	256.49709
284.038	237.46844
284.567	225.46037
285.096	193.41028
285.625	187.37135
286.153	182.37349
286.682	206.40955
287.21	210.4401
287.739	184.38049
288.267	237.49547
288.795	261.59773
289.323	163.33231
289.851	225.4562
290.378	224.43329
290.906	151.31932
291.433	210.45527
291.961	221.42902
292.488	265.56603
293.015	183.3724
293.542	221.48187
294.069	165.3529
294.596	232.49587
295.122	213.4372
295.649	281.5226
296.175	215.45008
296.702	273.5639
297.228	258.53614
297.754	201.3861
298.28	237.45503
298.806	194.39991
299.332	200.37482
299.857	277.52182
300.383	255.55128
300.908	181.37387
301.433	174.36175
301.958	253.4942
302.483	223.47075
303.008	237.49789
303.533	284.62539
304.058	252.50101
304.582	204.40558
305.107	163.36385
305.631	267.50867
306.155	205.40005
306.679	242.46878
307.203	309.58526
307.727	253.49865
308.251	255.5253
308.775	174.34496
309.298	212.4205
309.822	227.47919
310.345	219.43083
310.868	297.57712
311.391	271.54997
311.914	267.54804
312.437	274.51021
312.96	226.43611
313.482	259.49847
314.005	267.5468
314.527	219.47447
315.049	274.56609
315.571	242.42802
316.093	339.66628
316.615	267.51536
317.137	326.5517
317.659	322.62256
318.18	287.55369
318.702	319.57941
319.223	222.35837
319.744	291.50652
320.265	280.5302
320.786	280.5398
321.307	282.54915
321.828	332.57163
322.348	321.57681
322.869	294.52788
323.389	160.19692
323.909	334.57754
324.43	340.62714
324.95	314.53659
325.47	328.60288
325.989	371.63931
326.509	275.44332
327.029	351.5678
327.548	347.5572
328.067	329.5751
328.587	367.66694
329.106	326.53048
329.625	433.83378
330.144	349.56807
330.662	343.55705
331.181	401.64982
331.7	367.59806
332.218	357.52494
332.736	380.61074
333.255	391.61576
333.773	375.6039
334.291	408.70178
334.808	413.59914
335.326	419.61579
335.844	308.47392
336.361	340.57572
336.879	354.53381
337.396	377.58752
337.913	387.5614
338.43	477.64848
338.947	385.57832
339.464	363.46917
339.981	382.55913
340.497	423.65117
341.014	401.60092
341.53	458.59718
342.046	336.5094
342.562	432.65582
343.078	440.60459
343.594	442.61723
344.11	439.60538
344.626	433.64186
345.141	499.62058
345.657	481.60408
346.172	469.63341
346.687	499.61271
347.202	423.51
347.717	523.66659
348.232	489.67267
348.747	439.53392
349.261	502.52775
349.776	471.5762
350.29	458.58827
350.805	508.66337
351.319	538.62111
351.833	456.50266
352.347	438.51875
352.861	499.56197
353.374	531.59033
353.888	472.56938
354.401	504.5449
354.915	530.5219
355.428	497.59504
355.941	582.59537
356.454	601.59034
356.967	592.62471
357.48	592.59166
357.993	559.62973
358.505	509.56363
359.018	604.64411
359.53	552.57017
360.042	636.55249
360.554	609.62387
361.066	505.53156
361.578	589.48628
362.09	639.60757
362.602	600.48597
363.113	573.51416
363.625	620.50327
364.136	681.51259
364.647	521.43325
365.158	628.52097
365.669	688.58507
366.18	672.55067
366.691	667.46885
367.201	629.52359
367.712	669.47446
368.222	631.45422
368.733	668.39379
369.243	675.40282
369.753	731.47462
370.263	697.48579
370.773	679.50354
371.282	697.44052
371.792	683.33954
372.301	697.40506
372.811	683.48502
373.32	634.21579
373.829	723.30356
374.338	765.22565
374.847	776.22357
375.356	829.22381
375.865	819.05227
376.373	927.0669
376.882	958.20131
377.39	949.0958
377.898	821.04005
378.407	1071.83612
378.915	981.80688
379.423	1034.80876
379.93	1037.72746
380.438	1038.69432
380.946	1175.54926
381.453	1232.4731
381.96	1235.40404
382.468	1314.29805
382.975	1467.21598
383.482	1467.20664
383.989	1439.22129
384.495	1393.26103
385.002	1438.37374
385.509	1515.3611
386.015	1718.74197
386.521	1794.76334
387.028	1852.08052
387.534	1934.47859
388.04	2051.47723
388.546	1701.85581
389.051	2024.10822
389.557	2205.23395
390.063	2645.80592
390.568	2383.9281
391.073	2542.1157
391.578	2452.20388
392.084	2312.31918
392.589	2463.51065
393.093	2350.22951
393.598	2954.07735
394.103	3134.26322
394.607	3674.27718
395.112	3905.48752
395.616	3958.08091
396.12	4027.48697
396.624	4246.68915
397.128	4605.21719
397.632	5698.98532
398.136	5532.43356
398.639	4955.60511
399.143	5360.18799
399.646	6220.1834
400.15	6502.86625
400.653	7261.50818
401.156	7660.67926
401.659	3837.60229
402.162	649.53553
402.664	0
403.167	0
403.67	0
404.172	0
404.674	0
405.176	0
405.678	0
406.18	0
406.682	0
407.184	0
407.686	0
408.187	0
408.688	0
409.19	0
409.691	0
410.192	0
410.693	0
411.194	435.30976
411.694	4082.94878
412.195	8864.71461
412.696	12089.80453
413.196	12760.96929
413.696	12863.67595
414.196	13703.56671
414.696	17261.84252
415.196	21728.34873
415.696	21843.25862
416.196	16280.49934
416.695	11481.48242
417.195	9380.87026
417.694	9517.51806
418.194	8833.39825
418.693	7906.21778
419.192	8068.52923
419.691	7892.07533
420.19	7727.0075
420.688	7703.80808
421.187	7442.24857
421.685	6914.03099
422.184	6392.96255
422.682	5221.8582
423.18	4097.37685
423.678	3729.10836
424.176	3328.05492
424.674	3121.10787
425.172	3121.65994
425.669	3071.49954
426.167	2995.15911
426.664	2616.7639
427.161	2120.76701
427.659	2121.31396
428.156	1958.34801
428.652	1911.04893
429.149	1836.05889
429.646	1760.08106
430.143	1652.13328
430.639	1449.26743
431.135	1380.38773
431.632	1216.48231
432.128	1231.57424
432.624	1061.74973
433.12	994.67736
433.616	1029.67811
434.111	863.81982
434.607	906.87311
435.103	1058.78764
435.598	936.85775
436.093	920.04253
436.588	802.08105
437.083	799.13321
437.578	744.19136
438.073	522.22602
438.568	639.31223
439.062	632.19618
439.557	610.31959
440.051	537.26577
440.546	536.27688
441.04	523.33129
441.534	539.41147
442.028	516.37074
442.522	446.33327
443.015	521.31095
443.509	456.37993
444.002	481.39791
444.496	465.31121
444.989	414.36885
445.482	343.32751
445.975	393.29869
446.468	372.26576
446.961	348.25515
447.454	389.32127
447.947	303.27994
448.439	295.30122
448.931	321.27545
449.424	327.36183
449.916	332.3434
450.408	325.29089
450.9	195.21235
451.392	296.33758
451.884	279.28156
452.375	215.24804
452.867	279.28534
453.358	224.22687
453.849	186.17588
454.341	245.25158
454.832	209.20332
455.323	186.22421
455.814	257.28233
456.304	218.24613
456.795	228.25545
457.285	274.29996
457.776	277.32009
458.266	188.23123
458.756	193.24783
459.247	119.15206
459.737	193.24238
460.226	153.18128
460.716	125.16582
461.206	116.15807
461.695	147.21437
462.185	117.15865
462.674	169.2209
463.163	214.26228
463.653	150.17518
464.142	88.12702
464.63	183.26737
465.119	38.05348
465.608	134.18367
466.096	99.13054
466.585	166.23453
467.073	123.18605
467.561	152.23026
468.05	123.18126
468.538	140.22228
469.026	127.19637
469.513	30.04064
470.001	101.14756
470.489	116.17878
470.976	83.12728
471.463	114.1927
471.951	73.12692
472.438	15.02436
472.925	41.06575
473.412	81.14053
473.899	90.14363
474.385	57.1001
474.872	58.09521
475.359	-5.0089
475.845	103.14668
476.331	82.12727
476.817	54.0969
477.303	4.00688
477.789	-23.04179
478.275	13.02421
478.761	26.04726
479.247	21.03543
479.732	-48.09205
480.218	-34.06917
480.703	-10.01928
481.188	-21.03445
481.673	0
482.158	-62.10099
482.643	-3.00607
483.128	-44.07855
483.612	-24.04433
484.097	12.02341
484.581	-18.03348
485.066	1.00193
485.55	-95.16798
486.034	-21.03605
486.518	-41.07731
487.002	-70.13943
487.486	-45.08957
487.969	-69.13836
488.453	-15.03118
488.936	-64.11858
489.42	5.009
489.903	-74.15707
490.386	-436.65637
490.869	-5.00898
491.352	8.01637
491.835	-34.05844
492.318	-83.15759
492.8	-50.08636
493.283	-100.21689
493.765	-84.17596
494.247	-52.10391
494.73	-38.07083
495.212	-31.06415
495.694	-93.18571
496.175	-130.26461
496.657	-65.1327
497.139	-12.01767
497.62	-135.27673
498.102	-99.21266
498.583	-77.16775
499.064	-128.24771
499.545	-65.12799
500.026	-83.16082
500.507	-42.08401
500.988	-90.19578
501.469	-129.28378
501.949	-70.15156
502.43	-140.2921
502.91	-99.17807
503.39	-54.11857
503.87	-127.2628
504.35	-95.19852
504.83	-88.16851
505.31	-100.21328
505.79	-126.26651
506.269	-88.18181
506.749	-141.28588
507.228	-141.29412
507.707	-93.18157
508.187	-99.21083
508.666	-163.35843
509.145	-131.27229
509.623	-149.31357
510.102	-100.21569
510.581	-105.2273
511.059	-109.24281
511.538	-72.16599
512.016	-114.24398
512.494	-135.29573
512.972	-116.24816
513.45	-166.34466
513.928	-120.26049
514.406	-195.42356
514.884	-130.30078
515.361	-113.24273
515.839	-170.35138
516.316	-117.25295
516.793	-133.30546
517.27	-91.19876
517.747	-132.30589
518.224	-106.22126
518.701	-120.24147
519.178	-169.3802
519.654	-124.26848
520.131	-144.32376
520.607	-119.26838
521.083	-144.29925
521.56	-134.28765
522.036	-104.20676
522.512	-65.14461
522.987	-180.3904
523.463	-144.31219
523.939	-116.2591
524.414	-88.18426
524.89	-156.33964
525.365	-126.25985
525.84	-178.38655
526.315	-172.38068
526.79	-117.24037
527.265	-126.26231
527.74	-139.30976
528.215	-109.23384
528.689	-132.26709
529.164	-140.27977
529.638	-110.25845
530.112	-155.3351
530.587	-155.3032
531.061	-142.31323
531.534	-108.23963
532.008	-136.29937
532.482	-104.21844
532.956	-160.37459
533.429	-104.23028
533.903	-69.13881
534.376	-114.23088
534.849	-87.1839
535.322	-112.24229
535.795	-76.16912
536.268	-107.23519
536.741	-104.22912
537.213	-88.18597
537.686	-121.26987
538.158	-154.31774
538.631	-54.11952
539.103	-111.22732
539.575	-76.14482
540.047	-59.11782
540.519	-32.06929
540.991	-47.10465
541.463	-7.01525
541.934	-36.07444
542.406	-58.12526
542.877	-34.0693
543.348	-16.0349
543.82	-31.06894
544.291	2.0042
544.762	-44.09417
545.233	13.02909
545.703	-61.12204
546.174	1.00208
546.645	-23.04898
547.115	43.09157
547.585	58.11757
548.056	30.06354
548.526	114.23098
548.996	126.26243
549.466	101.21555
549.935	114.23151
550.405	147.27338
550.875	161.32405
551.344	199.40385
551.814	194.37616
552.283	248.44872
552.752	262.5017
553.221	300.52647
553.69	299.54031
554.159	334.66434
554.628	333.59623
555.096	410.83223
555.565	431.75663
556.033	475.88697
556.502	416.81473
556.97	536.92551
557.438	547.01984
557.906	581.08336
558.374	555.00306
558.842	648.19989
559.31	617.07281
559.777	657.22901
560.245	841.47033
560.712	803.39343
561.18	891.41811
561.647	906.46224
562.114	912.50185
562.581	1132.95232
563.048	1135.80116
563.514	1216.02907
563.981	1240.89328
564.448	1326.91878
564.914	1367.06265
565.381	1431.05807
565.847	1500.19783
566.313	1595.25186
566.779	1659.19215
567.245	1763.37848
567.711	1789.47533
568.176	1852.26949
568.642	1899.71222
569.108	2012.69693
569.573	2136.59456
570.038	2228.16091
570.504	2279.39137
570.969	2372.93147
571.434	2500.31401
571.899	2513.6961
572.363	2615.49782
572.828	2705.53579
573.293	2740.52741
573.757	2798.52716
574.222	2841.35981
574.686	2890.36722
575.15	3006.65635
575.614	3036.46999
576.078	2987.59232
576.542	3059.43953
577.006	3087.37274
577.469	3117.90714
577.933	3059.32691
578.396	3131.65857
578.86	3139.60665
579.323	3015.6712
579.786	2970.20238
580.249	2937.45277
580.712	2944.84834
581.175	2774.89236
581.637	2845.56885
582.1	2794.34701
582.563	2681.26901
583.025	2550.79188
583.487	2542.00031
583.95	2489.2387
584.412	2500.17943
584.874	2422.78825
585.336	2366.66721
585.797	2288.27491
586.259	2203.62955
586.721	2092.54814
587.182	2134.5866
587.643	2100.44069
588.105	1993.55616
588.566	2038.15084
589.027	1809.50511
589.488	1780.31582
589.949	1868.58597
590.41	1744.79777
590.87	1792.33956
591.331	1694.10479
591.791	1643.26131
592.252	1590.18793
592.712	1611.38185
593.172	1481.07572
593.632	1565.07404
594.092	1527.08721
594.552	1519.98222
595.011	1433.08264
595.471	1455.04269
595.931	1476.04581
596.39	1376.15602
596.849	1462.15846
597.308	1417.93937
597.768	1385.34484
598.227	1438.24365
598.685	1478.14945
599.144	1441.15478
599.603	1456.20933
600.062	1393.82039
600.52	1437.00948
600.978	1464.21766
601.437	1494.1438
601.895	1540.95036
602.353	1597.12555
602.811	1488.04298
603.269	1594.35144
603.727	1643.38749
604.184	1643.18067
604.642	1665.48049
605.099	1838.40417
605.557	1754.53338
606.014	1874.15186
606.471	1839.65091
606.928	1849.10893
607.385	1940.59305
607.842	2098.44891
608.299	2058.52112
608.755	2004.61823
609.212	2126.34006
609.668	2147.31328
610.125	2167.71209
610.581	2272.71632
611.037	2198.53342
611.493	2328.70786
611.949	2270.74262
612.405	2229.01919
612.861	2331.70858
613.316	2239.71409
613.772	2266.56788
614.227	2298.68486
614.683	2289.31611
615.138	2259.64392
615.593	2259.62112
616.048	2280.58641
616.503	2247.89462
616.958	2239.9609
617.412	2244.71374
617.867	2169.40133
618.321	2231.20117
618.776	2203.44994
619.23	2095.64772
619.684	2141.53094
620.138	2106.64131
620.592	2012.76869
621.046	2084.68082
621.5	1996.77055
621.954	1929.46523
622.407	1941.42917
622.861	1790.65589
623.314	1837.46435
623.768	1771.49977
624.221	1701.94013
624.674	1652.38831
625.127	1645.44008
625.58	1600.34192
626.033	1675.29873
626.485	1502.39706
626.938	1547.43546
627.39	1521.34232
627.843	1511.32271
628.295	1400.22166
628.747	1360.26342
629.199	1353.13493
629.651	1333.11395
630.103	1318.12509
630.555	1282.89808
631.006	1255.13157
631.458	1268.16242
631.909	1329.1748
632.361	1210.07735
632.812	1156.98753
633.263	1126.80261
633.714	1145.814
634.165	1150.11578
634.616	1042.92551
635.067	1061.80669
635.518	1032.9269
635.968	1079.6242
636.419	1023.72029
636.869	964.82986
637.319	940.73406
637.769	964.70144
638.219	958.83873
638.669	899.74064
639.119	924.83211
639.569	880.73828
640.019	879.66056
640.468	830.52541
640.918	882.74793
641.367	830.53535
641.816	858.57224
642.265	864.64292
642.714	866.64753
643.163	843.60253
643.612	794.59603
644.061	803.40079
644.51	807.53101
644.958	781.43339
645.406	835.6643
645.855	871.77468
646.303	823.60999
646.751	809.53481
647.199	817.55002
647.647	774.50221
648.095	815.56049
648.543	832.40465
648.99	790.59454
649.438	824.62753
649.885	786.65678
650.333	821.30557
650.78	788.61449
651.227	800.6487
651.674	820.56441
652.121	802.65504
652.568	736.53704
653.015	842.80359
653.461	735.50138
653.908	848.6531
654.354	744.52837
654.801	722.4578
655.247	837.53407
655.693	816.8206
656.139	768.57702
656.585	811.65157
657.031	735.47085
657.477	761.39381
657.922	750.4791
658.368	777.64961
658.813	832.63721
659.259	760.56829
659.704	771.53658
660.149	784.55927
660.594	777.58154
661.039	727.43065
661.484	741.53622
661.929	815.62138
662.373	745.63374
662.818	685.49576
663.262	735.53597
663.707	722.60284
664.151	787.65707
664.595	711.49888
665.039	735.59895
665.483	766.69636
665.927	786.59299
666.371	746.48979
666.814	762.57804
667.258	759.55046
667.701	808.48416
668.145	763.65569
668.588	753.6111
669.031	734.50035
669.474	719.51841
669.917	759.4524
670.36	746.61843
670.803	825.71054
671.245	809.44768
671.688	750.60018
672.13	713.39516
672.573	780.73024
673.015	770.60741
673.457	752.41575
673.899	776.63568
674.341	750.58221
674.783	684.45168
675.225	764.63993
675.666	701.48489
676.108	751.41351
676.549	801.64079
676.991	771.46829
677.432	772.31227
677.873	743.50265
678.314	784.62582
678.755	753.60416
679.196	782.54879
679.637	826.7442
680.078	786.59734
680.518	793.60317
680.959	733.54395
681.399	752.63769
681.839	742.58789
682.28	743.61158
682.72	761.51522
683.16	745.63237
683.6	792.56424
684.039	763.3722
684.479	717.5558
684.919	704.42856
685.358	701.58546
685.798	742.72202
686.237	789.66347
686.676	777.5715
687.115	754.55102
687.554	753.56668
687.993	790.50927
688.432	756.50769
688.871	748.48136
689.309	721.51998
689.748	802.43697
690.186	773.61474
690.625	759.55466
691.063	792.65191
691.501	813.74705
691.939	767.67848
692.377	770.64431
692.815	762.5942
693.253	782.64257
693.69	798.5106
694.128	820.71792
694.565	829.70661
695.003	811.79493
695.44	833.68413
695.877	801.61862
696.314	849.5522
696.751	851.6617
697.188	831.63869
697.625	868.70174
698.061	805.67571
698.498	877.81763
698.934	839.74268
699.371	815.65672
699.807	850.72598
700.243	797.66786
700.679	853.64988
701.115	876.76267
701.551	834.69269
701.987	820.58709
702.422	830.6991
702.858	838.71936
703.294	882.69508
703.729	855.80193
704.164	818.70544
704.599	841.60028
705.035	815.5665
705.47	803.69745
705.904	829.6615
706.339	900.77701
706.774	849.70476
707.209	836.65357
707.643	832.72545
708.078	827.74289
708.512	797.73904
708.946	840.73663
709.38	859.74467
709.814	806.59267
710.248	835.75976
710.682	775.60892
711.116	796.64705
711.549	840.88494
711.983	825.64054
712.416	824.68377
712.85	777.69967
713.283	761.57702
713.716	825.80395
714.149	807.67095
714.582	781.5205
715.015	816.78089
715.448	782.73037
715.881	808.52137
716.313	715.48028
716.746	761.56649
717.178	707.50738
717.61	755.69104
718.043	751.65174
718.475	711.52902
718.907	760.69911
719.339	641.29966
719.77	651.38186
720.202	675.53095
720.634	629.37973
721.065	639.36166
721.497	628.39054
721.928	609.35486
722.359	584.27957
722.79	616.33162
723.221	618.41148
723.652	633.48137
724.083	604.22871
724.514	612.26876
724.945	571.2229
725.375	513.09566
725.806	563.28909
726.236	563.32461
726.666	539.17166
727.096	557.25286
727.526	533.24811
727.956	485.02053
728.386	497.1355
728.816	451.06817
729.246	452.0261
729.675	464.06487
730.105	503.14739
730.534	491.06444
730.964	475.12078
731.393	451.05046
731.822	488.16017
732.251	399.96008
732.68	463.01813
733.109	427.99112
733.537	391.89502
733.966	429.00109
734.395	357.78662
734.823	442.93485
735.251	373.85486
735.68	435.02425
736.108	358.86554
736.536	373.83735
736.964	344.76353
737.392	356.85129
737.82	352.80755
738.247	336.77177
738.675	410.92624
739.102	366.87119
739.53	288.70917
739.957	289.71909
740.384	365.85963
740.811	360.87168
741.238	290.68449
741.665	229.5196
742.092	322.73962
742.519	229.55402
742.945	284.66018
743.372	308.73485
743.798	237.59508
744.225	253.58592
744.651	274.66698
745.077	284.68563
745.503	234.55832
745.929	249.58237
746.355	292.70308
746.781	229.55527
747.207	171.39666
747.632	194.4652
748.058	267.64715
748.483	225.50763
748.908	203.49574
749.334	213.51337
749.759	185.43049
750.184	188.44135
750.609	209.5045
751.033	250.57656
751.458	232.50961
751.883	199.48525
752.307	166.38697
752.732	183.45023
753.156	206.4996
753.58	192.44968
754.005	213.5304
754.429	172.39985
754.853	185.45162
755.277	178.41624
755.7	196.47838
756.124	152.3739
756.548	141.33238
756.971	206.49416
757.394	164.41779
757.818	133.3402
758.241	153.3846
758.664	170.42403
759.087	137.30455
759.51	151.37274
759.933	144.34412
760.356	143.36385
760.778	160.38951
761.201	192.46005
761.623	163.39183
762.046	191.4469
762.468	208.49097
762.89	140.34362
763.312	167.40343
763.734	121.29065
764.156	132.32435
764.578	156.35634
765	158.3819
765.421	92.23371
765.843	146.37939
766.264	166.397
766.686	124.31031
767.107	121.29242
767.528	122.3064
767.949	150.37794
768.37	130.31754
768.791	142.34142
769.212	48.12155
769.632	55.12945
770.053	110.28869
770.473	116.28155
770.894	155.38444
771.314	114.27223
771.734	72.16903
772.154	102.26159
772.575	115.26645
772.994	96.21867
773.414	160.38046
773.834	78.19569
774.254	66.1626
774.673	132.31978
775.093	78.19364
775.512	56.13898
775.931	108.27309
776.351	93.23101
776.77	72.17679
777.189	62.14862
777.607	95.2424
778.026	59.14789
778.445	53.13347
778.864	90.2309
779.282	83.20028
779.701	118.29604
780.119	45.11458
780.537	43.10821
780.955	133.33589
781.373	85.21052
781.791	83.18719
782.209	102.23516
782.627	57.15079
783.045	61.14139
783.462	63.1616
783.88	69.17891
784.297	92.23123
784.715	49.12652
785.132	100.24172
785.549	44.11091
785.966	76.19149
786.383	63.15569
786.8	98.22755
787.217	75.17838
787.633	39.09811
788.05	116.27456
788.466	116.27254
788.883	60.15356
789.299	86.20725
789.715	74.18035
790.131	76.1893
790.547	46.1157
790.963	99.2451
791.379	89.22469
791.795	39.09
792.21	46.1085
792.626	90.21352
793.041	74.18297
793.457	88.21735
793.872	32.07606
794.287	35.0843
794.702	76.18758
795.117	47.11747
795.532	80.20042
795.947	114.27306
796.362	135.31959
796.776	120.27963
797.191	72.17659
797.605	-14.03348
798.02	91.22108
798.434	93.20708
798.848	41.10169
799.262	44.10983
799.676	127.30738
800.09	77.18959
800.504	82.19903
800.918	25.05861
801.331	100.26111
801.745	87.19981
802.158	34.08567
802.572	79.19178
802.985	83.20066
803.398	93.22136
803.811	92.23595
804.224	107.26501
804.637	36.08649
805.05	79.18333
805.462	115.28075
805.875	15.03925
806.288	18.0439
806.7	90.22563
807.112	79.18333
807.525	54.13387
807.937	64.15854
808.349	80.20027
808.761	89.21849
809.173	110.26498
809.584	104.25583
809.996	34.08388
810.408	39.10119
810.819	93.21812
811.231	75.19359
811.642	55.13161
812.053	117.27602
812.464	108.25523
812.875	82.2092
813.286	61.15729
813.697	117.27172
814.108	79.19293
814.519	55.12328
814.929	109.27626
815.34	68.16517
815.75	54.13762
816.16	105.26024
816.571	77.19979
816.981	97.22821
817.391	110.26388
817.801	55.13702
818.211	94.22335
818.62	46.11132
819.03	95.23192
819.44	98.25475
819.849	95.23838
820.259	121.307
820.668	53.13079
821.077	32.08002
821.486	67.16161
821.895	101.24831
822.304	84.22195
822.713	55.13051
823.122	68.1698
823.531	20.04791
823.939	85.20658
824.348	78.18946
824.756	96.23937
825.164	68.17121
825.573	40.1009
825.981	88.21759
826.389	102.25479
826.797	37.09321
827.205	60.13805
827.612	61.1508
828.02	24.05687
828.428	68.17317
828.835	55.14501
829.243	86.20442
829.65	54.1346
830.057	106.25554
830.464	74.18015
830.871	92.21944
831.278	77.18588
831.685	49.10992
832.092	83.2027
832.499	45.09904
832.905	62.15711
833.312	78.17774
833.718	87.21602
834.124	39.08972
834.531	75.18881
834.937	120.30506
835.343	88.21159
835.749	65.15203
836.155	72.18826
836.561	63.15506
836.966	86.2096
837.372	58.14781
837.777	39.09762
838.183	35.07842
838.588	72.17855
838.993	51.12455
839.399	32.07872
839.804	29.07114
840.209	47.11997
840.613	53.11831
841.018	48.1219
841.423	80.2046
841.828	39.09906
842.232	111.2727
842.637	58.13707
843.041	15.03876
843.445	39.09825
843.849	49.12163
844.253	58.13808
844.657	29.07345
845.061	58.13185
845.465	77.18553
845.869	97.22403
846.272	28.06862
846.676	123.29422
847.079	32.08178
847.483	99.24537
847.886	107.25829
848.289	31.0831
848.692	34.08653
849.095	86.20568
849.498	124.31087
849.901	65.14911
850.304	63.15059
850.707	66.16814
851.109	110.27597
851.512	54.13289
851.914	14.03557
852.316	63.15928
852.718	37.09587
853.121	37.09107
853.523	74.17257
853.925	2.00527
854.326	8.02019
854.728	76.19484
855.13	27.07001
855.531	83.19748
855.933	80.1914
856.334	59.14709
856.736	58.13003
857.137	8.0188
857.538	100.24953
857.939	26.06462
858.34	83.20142
858.741	60.15678
859.142	51.12274
859.542	16.0425
859.943	46.11458
860.343	42.10431
860.744	89.21598
861.144	81.19679
861.544	-2.00486
861.945	89.22557
862.345	48.11764
862.745	26.065
863.145	91.21626
863.544	20.05088
863.944	42.09957
864.344	99.24412
864.743	109.26798
865.143	84.21475
865.542	20.04675
865.941	27.06721
866.34	73.17442
866.74	76.2033
867.139	61.14597
867.537	66.1679
867.936	74.17759
868.335	39.09955
868.734	59.15071
869.132	70.16228
869.531	115.27519
869.929	36.08243
870.327	63.15087
870.726	89.22067
871.124	68.15864
871.522	44.11233
871.92	90.22066
872.318	71.17314
872.715	112.27449
873.113	41.10021
873.511	19.04766
873.908	-10.02554
874.306	32.07994
874.703	68.1698
875.1	69.17612
875.497	57.13666
875.894	30.07385
876.291	56.13745
876.688	76.19532
877.085	66.15809
877.482	66.16493
877.878	33.07978
878.275	52.13219
878.671	92.20345
879.068	109.26053
879.464	69.16638
879.86	48.1137
880.256	89.21833
880.652	48.12224
881.048	74.18277
881.444	54.1286
881.84	53.13476
882.236	106.26411
882.631	64.15685
883.027	109.26133
883.422	81.20617
883.817	31.07824
884.213	62.1589
884.608	59.14457
885.003	61.14692
885.398	45.11284
885.793	45.11316
886.188	51.12687
886.582	142.35868
886.977	81.19131
887.371	48.12155
887.766	49.12198
888.16	61.15207
888.554	79.19451
888.949	68.17036
889.343	80.19454
889.737	24.06426
890.131	59.14789
890.525	59.15076
890.918	47.11845
891.312	99.23491
891.706	68.17798
892.099	106.26727
892.492	101.21583
892.886	34.08351
893.279	40.10216
893.672	37.09448
894.065	57.14267
894.458	63.1582
894.851	68.16623
895.244	36.09223
895.637	73.17522
896.029	61.14898
896.422	119.28726
896.814	67.16618
897.206	49.11681
897.599	101.24767
897.991	91.21851
898.383	46.10888
898.775	46.10402
899.167	17.03993
899.559	61.15422
899.951	130.30198
900.342	97.2448
900.734	6.01502
901.125	76.19865
901.517	67.16405
901.908	91.21668
902.299	27.06633
902.69	83.19474
903.082	96.23065
903.473	43.10317
903.863	65.16551
904.254	29.06764
904.645	77.19071
905.036	22.05358
905.426	75.17101
905.817	70.17124
906.207	49.11685
906.597	75.17467
906.987	89.22925
907.378	57.14406
907.768	50.13225
908.158	112.27011
908.547	63.16245
908.937	75.19171
909.327	85.20519
909.717	64.16218
910.106	29.06998
910.495	94.23294
910.885	102.25608
911.274	114.28177
911.663	68.17213
912.052	52.12834
912.441	54.13728
912.83	117.26516
913.219	85.22123
913.608	91.22133
913.997	37.09301
914.385	65.15495
914.774	83.20097
915.162	17.04079
915.55	47.11384
915.939	41.10369
916.327	49.12238
916.715	62.15773
917.103	97.2368
917.491	118.28845
917.878	87.21255
918.266	29.0755
918.654	87.2209
919.041	29.076
919.429	51.12041
919.816	67.16939
920.203	54.13092
920.591	31.07717
920.978	55.13462
921.365	49.12862
921.752	72.17101
922.139	89.19176
922.525	43.10345
922.912	38.09293
923.299	49.12185
923.685	55.14339
924.072	83.19025
924.458	58.14352
924.844	53.13112
925.231	53.12333
925.617	46.11711
926.003	65.16574
926.389	48.12116
926.774	109.27341
927.16	72.17816
927.546	61.15543
927.931	69.17164
928.317	59.13572
928.702	86.20214
929.088	29.06889
929.473	57.14488
929.858	35.08487
930.243	53.12717
930.628	85.2055
931.013	76.18751
931.398	91.20766
931.783	45.1186
932.167	63.15369
932.552	75.18711
932.937	96.23633
933.321	44.11055
933.705	25.06332
934.09	105.26281
934.474	54.12821
934.858	53.13742
935.242	27.06288
935.626	70.17858
936.009	56.14881
936.393	74.18752
936.777	44.11281
937.16	52.13527
937.544	112.26078
937.927	47.11934
938.311	63.15346
938.694	126.329
939.077	39.09358
939.46	76.18578
939.843	93.19227
940.226	63.16126
940.609	74.16911
940.991	50.12729
941.374	21.05161
941.757	80.19636
942.139	84.18739
942.522	81.19035
942.904	64.15347
943.286	105.26423
943.668	78.20109
944.05	39.09627
944.432	44.10872
944.814	54.13293
945.196	46.1122
945.578	19.04543
945.959	85.19788
946.341	92.22414
946.722	54.12668
947.104	93.22051
947.485	76.17598
947.866	50.12598
948.247	21.05326
948.628	81.19649
949.009	44.11281
949.39	110.27089
949.771	87.20093
950.152	83.20248
950.532	-39.09751
950.913	54.13018
951.293	39.10555
951.674	56.13531
952.054	51.12636
952.434	39.09702
952.814	71.16828
953.194	75.19547
953.574	66.16212
953.954	83.19588
954.334	60.14928
954.714	19.04658
955.093	82.20045
955.473	42.10518
955.853	59.1525
956.232	64.17503
956.611	71.16964
956.99	55.13811
957.37	65.16521
957.749	78.18512
958.128	45.11349
958.506	56.14513
958.885	92.23048
959.264	52.1274
959.643	83.18765
960.021	53.13127
960.4	22.05015
960.778	107.26083
961.156	66.16499
961.535	58.135
961.913	105.24308
962.291	-1.00259
962.669	50.12666
963.047	94.23803
963.424	41.1048
963.802	104.25318
964.18	70.1765
964.557	46.10605
964.935	75.17687
965.312	60.15597
965.69	67.16727
966.067	65.15786
966.444	93.22738
966.821	45.11612
967.198	97.23327
967.575	72.17633
967.952	69.16202
968.329	38.09268
968.705	90.19137
969.082	68.17385
969.458	10.02417
969.835	58.14099
970.211	41.10539
970.587	93.22974
970.963	59.15113
971.339	30.0786
971.715	58.14462
972.091	64.1572
972.467	75.18623
972.843	1.0025
973.219	114.27045
973.594	68.17732
973.97	115.27035
974.345	72.1716
974.721	74.1784
975.096	77.18538
975.471	59.13973
975.846	59.14151
976.221	57.14457
976.596	75.17893
976.971	68.16734
977.346	59.13713
977.72	72.18271
978.095	88.22592
978.469	50.11935
978.844	76.19019
979.218	51.12223
979.593	61.14586
979.967	80.19381
980.341	34.07854
980.715	75.18813
981.089	76.18937
981.463	53.12163
981.837	50.12218
982.21	99.22819
982.584	30.07273
982.957	23.05771
983.331	85.19959
983.704	61.14959
984.078	49.12078
984.451	82.20365
984.824	52.12659
985.197	63.15266
985.57	105.26072
985.943	66.16254
986.316	86.20991
986.688	84.20128
987.061	69.16114
987.434	70.18178
987.806	88.21191
988.179	69.16221
988.551	80.20186
988.923	63.15478
989.295	92.22815
989.667	14.03367
990.039	84.20625
990.411	65.14917
990.783	75.17184
991.155	36.08672
991.527	96.23441
991.898	67.16643
992.27	29.07201
992.641	65.16263
993.012	85.19866
993.384	48.11453
993.755	55.14009
994.126	48.1155
994.497	54.13244
994.868	88.20061
995.239	61.14753
995.61	46.11582
995.98	13.0318
996.351	34.08444
996.722	50.11596
997.092	24.05711
997.462	-2.00472
997.833	50.11853
998.203	77.18574
998.573	45.11215
998.943	73.17041
999.313	50.11981
999.683	51.12237
1000.053	108.24561
1000.423	79.19092
1000.792	37.0961
1001.162	56.13765
1001.531	48.11838
1001.901	65.16158
1002.27	98.2169
1002.639	37.09474
1003.009	30.07161
1003.378	71.18085
1003.747	58.1368
1004.116	17.04093
1004.485	61.14547
1004.853	92.23131
1005.222	43.10856
1005.591	83.19581
1005.959	31.07011
1006.328	3.00682
1006.696	51.12297
1007.064	72.18038
1007.433	81.20127
1007.801	108.26223
1008.169	94.23549
1008.537	102.2234
1008.905	29.06783
1009.273	65.1601
1009.64	3.00722
1010.008	87.20588
1010.375	128.30624
1010.743	164.37009
1011.11	66.15567
1011.478	75.18473
1011.845	60.14081
1012.212	22.05007
1012.579	49.12029
1012.946	110.25875
1013.313	92.21717
1013.68	86.19185
1014.047	24.05746
1014.414	14.03329
1014.78	94.23166
1015.147	90.21598
1015.513	48.11567
1015.88	91.23097
1016.246	89.21808
1016.612	79.17977
1016.978	72.17568
1017.344	76.18689
1017.71	99.23916
1018.076	111.25861
1018.442	100.25494
1018.808	58.14473
1019.174	38.09551
1019.539	134.30325
1019.905	67.15745
1020.27	49.12092
1020.636	73.17422
1021.001	83.1974
1021.366	78.18626
1021.731	53.13619
1022.096	16.04059
1022.461	52.12299
1022.826	61.14463
1023.191	67.17522
1023.556	70.16338
1023.92	104.25309
1024.285	74.17975
1024.649	103.24986
1025.014	85.20913
1025.378	43.10821
1025.742	81.19995
1026.107	85.19084
1026.471	84.19474
1026.835	68.16795
1027.199	20.0484
1027.562	55.12768
1027.926	95.23028
1028.29	69.17395
1028.654	89.2031
1029.017	74.18103
1029.381	51.12176
1029.744	65.16527
1030.107	91.21351
1030.471	92.21843
1030.834	89.2008
1031.197	127.30135
1031.56	80.18759
1031.923	46.11896
1032.286	62.14522
1032.648	121.28534
1033.011	50.11472
1033.374	96.22353
1033.736	35.09222
1034.099	91.22
1034.461	4.01018
1034.823	40.09974
1035.185	60.15069
1035.548	45.10957
1035.91	72.17167
1036.272	46.10474
1036.634	114.27545
1036.995	76.17766
1037.357	48.11677
1037.719	56.13597
1038.08	90.21195
1038.442	27.06434
1038.803	66.15791
1039.165	23.05829
1039.526	73.17555
1039.887	106.2508
1040.248	52.12801
1040.609	64.15767
1040.97	59.14388
1041.331	54.13655
1041.692	66.15349
1042.053	115.25829
1042.413	69.16012
1042.774	71.17191
1043.134	85.20092
1043.495	88.21958
1043.855	65.15715
1044.215	57.14122
1044.576	29.06958
1044.936	63.144
1045.296	110.27139
1045.656	76.1855
1046.016	75.18009
1046.375	84.20235
1046.735	27.06146
1047.095	88.20434
1047.454	76.16005
1047.814	61.14625
1048.173	116.2735
1048.533	50.11449
1048.892	54.12944
1049.251	77.19224
1049.61	45.11084
1049.969	43.10144
1050.328	69.14892
1050.687	66.16001
1051.046	99.23871
1051.405	71.17585
1051.763	-6.01394
1052.122	53.13203
1052.48	68.1661
1052.839	66.15471
1053.197	67.15708
1053.555	85.19233
1053.914	86.20882
1054.272	113.26979
1054.63	19.0467
1054.988	21.05014
1055.345	79.16897
1055.703	60.14405
1056.061	57.14636
1056.419	66.17027
1056.776	97.233
1057.134	35.08122
1057.491	69.17208
1057.848	59.14655
1058.206	95.22133
1058.563	25.05537
1058.92	96.21912
1059.277	105.25624
1059.634	61.14313
1059.991	100.23715
1060.348	52.11739
1060.704	34.08122
1061.061	106.2434
1061.418	34.08265
1061.774	60.14776
1062.131	14.03722
1062.487	61.14223
1062.843	78.19336
1063.199	83.20504
1063.555	18.04194
1063.911	84.21074
1064.267	127.26021
1064.623	57.13817
1064.979	124.2894
1065.335	74.17596
1065.691	72.17174
1066.046	67.14671
1066.402	32.07292
1066.757	57.1436
1067.112	67.16381
1067.468	29.06871
1067.823	66.15809
1068.178	74.17806
1068.533	91.21876
1068.888	83.19695
1069.243	58.14283
1069.598	45.10937
1069.952	5.01135
1070.307	15.03734
1070.662	26.06197
1071.016	-1.00226
1071.371	9.02063
1071.725	76.18079
1072.079	98.23339
1072.434	23.05613
1072.788	77.18229
1073.142	57.13993
1073.496	40.09501
1073.85	72.16613
1074.203	56.13562
1074.557	68.18016
1074.911	62.14754
1075.265	81.187
1075.618	109.26302
1075.971	73.17275
1076.325	54.13704
1076.678	-15.03473
1077.031	45.10186
1077.385	76.16638
1077.738	30.06795
1078.091	13.02976
1078.444	87.20037
1078.796	37.09093
1079.149	69.17089
1079.502	-13.03106
1079.855	44.10265
1080.207	86.2103
1080.56	22.05709
1080.912	81.1959
1081.264	37.08925
1081.617	45.1097
1081.969	39.0985
1082.321	68.16536
1082.673	70.159
1083.025	86.20245
1083.377	107.22667
1083.728	80.18539
1084.08	74.18378
1084.432	42.10137
1084.783	72.16784
1085.135	28.0704
1085.486	81.18402
1085.838	36.08882
1086.189	49.11887
1086.54	97.22937
1086.891	48.12133
1087.242	47.1144
1087.593	96.23152
1087.944	90.20185
1088.295	92.20719
1088.646	70.16888
1088.996	15.03635
1089.347	50.12259
1089.698	15.03566
1090.048	42.10914
1090.398	85.19561
1090.749	60.14317
1091.099	44.11067
1091.449	63.15643
1091.799	70.17448
1092.149	-5.01231
1092.499	5.01229
1092.849	37.09418
1093.199	113.27976
1093.548	56.13429
1093.898	43.10763
1094.248	71.18161
1094.597	-12.03094
1094.947	60.15965
1095.296	37.0915
1095.645	78.20172
1095.994	62.14845
1096.343	51.1282
1096.692	27.07114
1097.041	4.0109
1097.39	90.22392
1097.739	23.06001
1098.088	78.20783
1098.437	-15.0398
1098.785	73.19589
1099.134	77.20335
1099.482	100.2726
1099.83	69.18057
1100.179	27.07063
1100.527	41.10901
1100.875	74.19467
1101.223	45.11948
1101.571	60.16539
1101.919	-1.00263
1102.267	48.13506
1102.615	-5.01609
1102.962	6.01933
1103.31	9.02891
1103.658	13.04186
