Data from N2 R13 sample 10_Subt2__5__12-12-05-766.txt Node

Date: Tue Sep 02 12:12:05 PDT 2025
User: uwsun
Spectrometer: HDX01956
Trigger mode: 0
Integration Time (sec): 5.000000E-1
Scans to average: 1
Nonlinearity correction enabled: true
Boxcar width: 0
Storing dark spectrum: false
XAxis mode: Wavelengths
Number of Pixels in Spectrum: 2068
>>>>>Begin Spectral Data<<<<<
194.03	86.23818
194.578	115.35849
195.127	98.30157
195.676	97.29946
196.225	130.33735
196.773	166.44301
197.321	201.52149
197.87	270.63482
198.418	274.63492
198.966	242.56789
199.513	191.4304
200.061	190.43575
200.609	243.58478
201.156	266.51232
201.704	198.45064
202.251	238.56787
202.798	229.53644
203.345	264.58599
203.892	232.52566
204.438	284.60438
204.985	253.53033
205.532	243.57457
206.078	251.55169
206.624	242.5309
207.17	286.58876
207.716	244.52852
208.262	272.47307
208.808	188.41574
209.354	244.52965
209.899	312.70316
210.445	215.47912
210.99	202.43736
211.535	300.62453
212.08	319.65329
212.625	297.66128
213.17	255.58047
213.715	185.36789
214.259	238.49767
214.804	273.60407
215.348	237.48646
215.892	292.62194
216.436	338.68985
216.98	268.52934
217.524	241.51031
218.068	242.54966
218.612	300.67419
219.155	271.56856
219.698	217.46733
220.242	273.61264
220.785	222.46915
221.328	236.53212
221.871	223.51543
222.414	271.60815
222.956	188.41088
223.499	177.36331
224.041	255.53641
224.583	270.52402
225.126	212.42286
225.668	241.5277
226.21	231.5252
226.751	206.40554
227.293	229.47344
227.835	185.41141
228.376	265.55057
228.918	295.66825
229.459	182.41238
230	249.53255
230.541	255.5279
231.082	237.51763
231.622	240.49852
232.163	254.55135
232.704	256.56894
233.244	196.44175
233.784	252.55796
234.324	184.36342
234.864	204.41807
235.404	224.4823
235.944	247.52713
236.484	291.64954
237.023	231.49021
237.563	240.49607
238.102	233.4951
238.641	211.48362
239.18	231.4825
239.719	226.51228
240.258	241.48551
240.797	210.45235
241.335	248.54544
241.874	266.44917
242.412	201.43585
242.95	180.38807
243.488	221.45301
244.026	237.48712
244.564	259.47161
245.102	253.50405
245.64	269.57931
246.177	258.51389
246.715	288.61422
247.252	230.47391
247.789	310.51068
248.326	234.4995
248.863	206.40363
249.4	248.5018
249.936	266.48104
250.473	256.52867
251.009	246.49889
251.546	274.53103
252.082	222.43354
252.618	263.51568
253.154	243.51814
253.69	268.53207
254.226	224.47691
254.761	245.4872
255.297	246.47493
255.832	200.42359
256.367	256.53365
256.903	230.44703
257.438	250.52137
257.972	248.48776
258.507	247.49714
259.042	279.52973
259.576	149.28676
260.111	286.5808
260.645	275.52162
261.179	229.47259
261.713	250.48845
262.247	260.52825
262.781	273.4966
263.315	270.58034
263.849	250.55215
264.382	303.6076
264.915	269.55015
265.449	198.42577
265.982	271.54067
266.515	227.48991
267.048	250.46135
267.58	336.63345
268.113	284.53015
268.646	252.54655
269.178	220.43127
269.71	302.57018
270.243	265.52968
270.775	259.57931
271.307	264.55938
271.838	264.55277
272.37	285.61139
272.902	261.51902
273.433	270.51176
273.965	238.50958
274.496	265.57927
275.027	262.56848
275.558	295.61973
276.089	218.46837
276.62	253.56753
277.15	305.65429
277.681	304.56833
278.211	308.65516
278.741	211.40511
279.272	225.44785
279.802	310.66975
280.332	259.52898
280.861	302.62646
281.391	243.47737
281.921	271.56806
282.45	300.64953
282.98	301.68046
283.509	284.54777
284.038	284.55515
284.567	284.57332
285.096	275.57415
285.625	281.54577
286.153	263.52983
286.682	260.5104
287.21	240.49963
287.739	309.62107
288.267	254.52901
288.795	273.6237
289.323	240.48071
289.851	283.56618
290.378	278.53079
290.906	222.46216
291.433	303.64383
291.961	302.57494
292.488	280.59613
293.015	262.52356
293.542	238.51707
294.069	302.62674
294.596	309.64942
295.122	289.58301
295.649	327.6012
296.175	328.66944
296.702	336.68421
297.228	358.72735
297.754	342.63463
298.28	312.5882
298.806	319.63909
299.332	318.57862
299.857	318.59303
300.383	325.69208
300.908	247.50264
301.433	292.59109
301.958	353.67318
302.483	295.61289
303.008	312.6446
303.533	334.72777
304.058	350.67995
304.582	281.54863
305.107	273.5955
305.631	331.6208
306.155	293.55984
306.679	299.5713
307.203	286.54474
307.727	297.57932
308.251	350.70558
308.775	288.55576
309.298	316.61155
309.822	339.69802
310.345	375.71063
310.868	330.6362
311.391	353.70296
311.914	320.64896
312.437	356.64942
312.96	348.65188
313.482	300.57169
314.005	290.59081
314.527	327.6921
315.049	367.7424
315.571	307.53381
316.093	359.70226
316.615	354.66902
317.137	397.65897
317.659	396.75208
318.18	422.78779
318.702	415.73542
319.223	371.57378
319.744	410.69128
320.265	344.64121
320.786	425.79084
321.307	347.66528
321.828	411.69277
322.348	396.69791
322.869	334.59355
323.389	148.18293
323.909	460.76886
324.43	454.81356
324.95	419.69588
325.47	456.81126
325.989	404.69006
326.509	376.58887
327.029	380.6097
327.548	418.65773
328.067	394.67696
328.587	440.78481
329.106	449.70552
329.625	517.97546
330.144	394.63325
330.662	392.62788
331.181	539.83972
331.7	479.75619
332.218	541.75108
332.736	477.74565
333.255	502.76538
333.773	493.76754
334.291	496.83317
334.808	466.665
335.326	505.72276
335.844	519.74936
336.361	450.73936
336.879	507.72973
337.396	506.75911
337.913	513.71536
338.43	538.71694
338.947	588.82987
339.464	515.63149
339.981	514.72205
340.497	571.84101
341.014	548.78513
341.53	554.69911
342.046	552.78344
342.562	685.96249
343.078	597.77906
343.594	542.73288
344.11	641.827
344.626	647.8974
345.141	649.76517
345.657	667.78415
346.172	579.75398
346.687	609.71891
347.202	605.68224
347.717	660.80203
348.232	652.85016
348.747	640.72324
349.261	600.60626
349.776	677.76843
350.29	576.71025
350.805	795.93951
351.319	691.75295
351.833	646.66059
352.347	743.78395
352.861	687.7193
353.374	722.74484
353.888	717.79001
354.401	696.69674
354.915	719.65256
355.428	709.7848
355.941	731.70292
356.454	795.71819
356.967	721.72222
357.48	802.73283
357.993	814.83011
358.505	738.7465
359.018	858.82503
359.53	821.75747
360.042	767.62645
360.554	825.77211
361.066	764.72248
361.578	829.60698
362.09	842.73175
362.602	825.59622
363.113	843.66622
363.625	883.62701
364.136	924.61037
364.647	778.56887
365.158	899.65124
365.669	927.70184
366.18	847.63639
366.691	867.54445
367.201	934.66715
367.712	813.53241
368.222	834.53644
368.733	932.46136
369.243	899.46396
369.753	948.54018
370.263	882.55371
370.773	943.60543
371.282	976.51815
371.792	897.37945
372.301	1018.47589
372.811	992.59051
373.32	990.22513
373.829	1119.32503
374.338	1094.21201
374.847	1066.21202
375.356	1110.20502
375.865	1247.94247
376.373	1211.99714
376.882	1316.14186
377.39	1299.01098
377.898	1275.91614
378.407	1276.75122
378.915	1461.58519
379.423	1522.58258
379.93	1546.47051
380.438	1512.44951
380.946	1639.29103
381.453	1644.24036
381.96	1834.072
382.468	1904.00422
382.975	2101.9247
383.482	2091.97049
383.989	2005.97155
384.495	2121.0539
385.002	2199.37312
385.509	2339.41519
386.015	2557.28291
386.521	2689.41285
387.028	2694.93451
387.534	2767.60807
388.04	2920.69542
388.546	2860.93278
389.051	3093.93154
389.557	3283.78849
390.063	3733.15892
390.568	3581.99073
391.073	3721.21954
391.578	4011.84147
392.084	3829.65231
392.589	4034.16908
393.093	4230.21805
393.598	4723.13482
394.103	5224.33614
394.607	5572.88971
395.112	6043.78413
395.616	6312.53994
396.12	6520.63115
396.624	7067.19417
397.128	7688.63443
397.632	8752.81804
398.136	9041.9626
398.639	9537.73256
399.143	10939.50316
399.646	11567.77011
400.15	11986.27091
400.653	13677.3587
401.156	12500.27467
401.659	4759.19891
402.162	1054.15589
402.664	0
403.167	0
403.67	0
404.172	0
404.674	0
405.176	0
405.678	0
406.18	0
406.682	0
407.184	0
407.686	0
408.187	0
408.688	0
409.19	0
409.691	0
410.192	0
410.693	0
411.194	435.30976
411.694	4082.94878
412.195	8864.71461
412.696	12089.80453
413.196	12760.96929
413.696	12863.67595
414.196	13703.56671
414.696	17261.84252
415.196	21764.24417
415.696	23411.08007
416.196	17159.12185
416.695	13510.67201
417.195	11715.76428
417.694	11893.77174
418.194	10978.8408
418.693	9780.18575
419.192	10170.88581
419.691	9666.02158
420.19	9750.06865
420.688	9614.24535
421.187	8830.03127
421.685	8320.45457
422.184	7331.93868
422.682	6338.08826
423.18	5218.71193
423.678	4700.38312
424.176	4301.03023
424.674	4235.98282
425.172	4125.90809
425.669	3659.28768
426.167	3472.27885
426.664	3130.56055
427.161	2757.25263
427.659	2709.51297
428.156	2495.48796
428.652	2332.96608
429.149	2282.94488
429.646	2069.97872
430.143	2019.95647
430.639	1792.08137
431.135	1794.15377
431.632	1622.25315
432.128	1528.41328
432.624	1476.54807
433.12	1364.48568
433.616	1446.46146
434.111	1219.66428
434.607	1268.72784
435.103	1289.68484
435.598	1285.71397
436.093	1145.98602
436.588	1125.01581
437.083	1022.10495
437.578	885.18908
438.073	853.27455
438.568	890.35788
439.062	813.20539
439.557	862.3755
440.051	798.3226
440.546	710.32308
441.04	765.41658
441.534	744.50936
442.028	805.49077
442.522	676.44555
443.015	701.37235
443.509	673.50331
444.002	634.48626
444.496	687.4028
444.989	694.54097
445.482	639.53352
445.975	532.37561
446.468	582.36918
446.961	554.36237
447.454	567.42846
447.947	494.41813
448.439	455.43433
448.931	488.38621
449.424	524.53628
449.916	474.46223
450.408	443.37536
450.9	472.45908
451.392	411.44856
451.884	431.40777
452.375	354.38733
452.867	495.46192
453.358	378.35863
453.849	394.33904
454.341	359.35153
454.832	339.31157
455.323	340.38722
455.814	399.41434
456.304	302.33012
456.795	405.42333
457.285	367.3873
457.776	438.47602
458.266	292.34594
458.756	276.34436
459.247	295.35425
459.737	205.25637
460.226	236.27115
460.716	253.32133
461.206	258.33533
461.695	269.37757
462.185	241.31354
462.674	280.35231
463.163	237.28809
463.653	319.3494
464.142	195.2721
464.63	216.31238
465.119	170.22923
465.608	220.29315
466.096	276.34242
466.585	257.35267
467.073	197.29139
467.561	166.25042
468.05	254.35936
468.538	210.32673
469.026	217.32668
469.513	186.23909
470.001	202.28595
470.489	199.29922
470.976	191.28355
471.463	155.25908
471.951	214.3582
472.438	131.20578
472.925	93.14693
473.412	193.32491
473.899	189.2931
474.385	100.17363
474.872	162.25825
475.359	98.16971
475.845	104.14805
476.331	174.2628
476.817	95.16868
477.303	99.16584
477.789	130.22704
478.275	70.12853
478.761	115.20429
479.247	124.20334
479.732	39.07321
480.218	38.07604
480.703	68.12863
481.188	73.1166
481.673	59.10247
482.158	-1.0016
482.643	88.17446
483.128	42.07331
483.612	34.06189
484.097	85.16296
484.581	56.10225
485.066	77.14619
485.55	19.0326
486.034	39.06587
486.518	59.10852
487.002	-27.05324
487.486	7.01376
487.969	-3.00592
488.453	32.06582
488.936	22.03989
489.42	48.08543
489.903	10.02084
490.386	-410.61237
490.869	79.13881
491.352	-4.00821
491.835	67.11205
492.318	-27.05056
492.8	18.03052
493.283	-59.12685
493.765	-60.12502
494.247	41.08016
494.73	-12.02222
495.212	30.06123
495.694	-54.10686
496.175	-98.19802
496.657	3.00603
497.139	-7.01029
497.62	-126.25775
498.102	-51.10842
498.583	7.01498
499.064	-94.18043
499.545	-13.02528
500.026	-39.07477
500.507	-39.07795
500.988	-43.09261
501.469	-72.15649
501.949	-64.1384
502.43	-103.21314
502.91	-75.13407
503.39	-61.13414
503.87	-39.07911
504.35	-54.11182
504.83	-92.17634
505.31	-108.23074
505.79	-120.25349
506.269	-40.08175
506.749	-156.31738
507.228	-82.16881
507.707	-76.14778
508.187	-57.12028
508.666	-97.21034
509.145	-114.23606
509.623	-108.22524
510.102	-108.23334
510.581	-14.02972
511.059	-114.25421
511.538	-62.14265
512.016	-97.20684
512.494	-101.21967
512.972	-82.17413
513.45	-164.34035
513.928	-70.15033
514.406	-95.20196
514.884	-149.34604
515.361	-96.20546
515.839	-71.1435
516.316	-78.16722
516.793	-128.29368
517.27	-90.19653
517.747	-107.24673
518.224	-96.19994
518.701	-54.10701
519.178	-110.24448
519.654	-69.14764
520.131	-105.23419
520.607	-23.05085
521.083	-82.16805
521.56	-124.26561
522.036	-105.2088
522.512	-88.19672
522.987	-124.26573
523.463	-90.19287
523.939	-107.23855
524.414	-44.09123
524.89	-90.1932
525.365	-84.1716
525.84	-143.30823
526.315	-160.35323
526.79	-56.11347
527.265	-84.17324
527.74	-121.26864
528.215	-131.28237
528.689	-98.19675
529.164	-94.18584
529.638	-133.31388
530.112	-121.25969
530.587	-71.13612
531.061	-137.30189
531.534	-79.17423
532.008	-88.19176
532.482	-48.09957
532.956	-143.33368
533.429	-67.14721
533.903	-43.08599
534.376	-54.10786
534.849	-80.16884
535.322	-73.15661
535.795	-57.12634
536.268	-86.1882
536.741	-87.19099
537.213	-64.13454
537.686	-121.26987
538.158	-108.22053
538.631	-31.06828
539.103	-109.22313
539.575	-9.01687
540.047	-64.12795
540.519	-87.19059
540.991	-59.1317
541.463	-18.03931
541.934	-101.2119
542.406	-71.15376
542.877	-49.10021
543.348	-38.08326
543.82	-14.03102
544.291	48.09988
544.762	-72.15503
545.233	-42.09505
545.703	-26.05159
546.174	-27.05655
546.645	-56.12011
547.115	21.04493
547.585	81.16333
548.056	25.05301
548.526	-1.00208
548.996	85.17865
549.466	96.2051
549.935	73.14964
550.405	100.18815
550.875	127.25762
551.344	121.24994
551.814	149.29201
552.283	194.35585
552.752	204.39612
553.221	151.27537
553.69	226.41601
554.159	216.44146
554.628	228.41927
555.096	261.54782
555.565	234.43204
556.033	293.57179
556.502	330.65945
556.97	326.59438
557.438	354.69264
557.906	368.72345
558.374	418.78303
558.842	363.72085
559.31	440.80187
559.777	461.90521
560.245	546.0278
560.712	599.0949
561.18	622.06526
561.647	698.19192
562.114	743.2802
562.581	804.50642
563.048	846.45235
563.514	890.61709
563.981	987.61817
564.448	975.56209
564.914	1106.79753
565.381	1126.77102
565.847	1283.00171
566.313	1359.05777
566.779	1450.04521
567.245	1481.17692
567.711	1535.29141
568.176	1488.05085
568.642	1639.52456
569.108	1766.55099
569.573	1870.47623
570.038	2013.11911
570.504	2048.33479
570.969	2122.8392
571.434	2249.29348
571.899	2264.64908
572.363	2457.49157
572.828	2559.53641
573.293	2599.53117
573.757	2704.53369
574.222	2746.37208
574.686	2760.38557
575.15	2804.67918
575.614	2897.49518
576.078	2981.59332
576.542	3057.43998
577.006	3131.36125
577.469	3175.89694
577.933	3043.33085
578.396	3144.65572
578.86	3197.59264
579.323	3155.64365
579.786	3127.15962
580.249	3043.43162
580.712	3014.84058
581.175	2912.88812
581.637	3099.52589
582.1	3010.30697
582.563	2914.23264
583.025	2863.79937
583.487	2841.94866
583.95	2752.21845
584.412	2865.13441
584.874	2770.82076
585.336	2777.69834
585.797	2631.28358
586.259	2642.7033
586.721	2518.64508
587.182	2575.67663
587.643	2480.51554
588.105	2498.70053
588.566	2402.2026
589.027	2372.73769
589.488	2345.51684
589.949	2412.80235
590.41	2357.88622
590.87	2438.55158
591.331	2395.3119
591.791	2257.53739
592.252	2331.50289
592.712	2347.7517
593.172	2349.45949
593.632	2429.37851
594.092	2375.43003
594.552	2470.28983
595.011	2418.53724
595.471	2511.45481
595.931	2594.43565
596.39	2585.75741
596.849	2759.63306
597.308	2853.30769
597.768	2794.08768
598.227	2926.80591
598.685	3037.56007
599.144	3109.61095
599.603	3258.65208
600.062	3334.98293
600.52	3512.21351
600.978	3622.53226
601.437	3909.20809
601.895	3960.74754
602.353	4150.90456
602.811	4353.77885
603.269	4502.14439
603.727	4774.98697
604.184	4976.48927
604.642	5136.92935
605.099	5353.48256
605.557	5673.63882
606.014	5974.83933
606.471	6055.59192
606.928	6312.74738
607.385	6588.31449
607.842	6977.10488
608.299	7268.29412
608.755	7509.53116
609.212	7594.3236
609.668	7873.5607
610.125	8283.23957
610.581	8330.28388
611.037	8672.74387
611.493	8776.95614
611.949	8873.13946
612.405	9156.83002
612.861	9332.10028
613.316	9493.4925
613.772	9569.73109
614.227	9739.16809
614.683	9805.5478
615.138	9898.65426
615.593	9894.65297
616.048	10052.17862
616.503	10141.29512
616.958	10026.90915
617.412	10051.09633
617.867	10097.44212
618.321	10111.67462
618.776	9992.05548
619.23	9910.66279
619.684	9754.25554
620.138	9783.28829
620.592	9615.77962
621.046	9653.90855
621.5	9356.14703
621.954	9213.83348
622.407	9010.38794
622.861	8928.27777
623.314	8964.29905
623.768	8651.75702
624.221	8479.34151
624.674	8228.14772
625.127	8253.21733
625.58	8083.97814
626.033	7961.77548
626.485	7614.73204
626.938	7455.64472
627.39	7371.51446
627.843	7122.41105
628.295	7000.38515
628.747	6778.50619
629.199	6811.29051
629.651	6459.29259
630.103	6299.36915
630.555	6147.01311
631.006	6049.59649
631.458	5834.71316
631.909	5890.56883
632.361	5631.75795
632.812	5530.73703
633.263	5361.43161
633.714	5271.4525
634.165	5115.32543
634.616	4991.26116
635.067	4963.85568
635.518	4741.44943
635.968	4736.42763
636.419	4628.92986
636.869	4429.62275
637.319	4372.45382
637.769	4293.28753
638.219	4293.75235
638.669	4154.79098
639.119	4210.94448
639.569	4095.91342
640.019	4091.65012
640.468	3972.48829
640.918	3942.00542
641.367	3853.5789
641.816	3809.58509
642.265	3871.76891
642.714	3792.80784
643.163	3770.78165
643.612	3664.07687
644.061	3569.36719
644.51	3627.77861
644.958	3591.58317
645.406	3517.12838
645.855	3531.30174
646.303	3474.01898
646.751	3412.85238
647.199	3513.83152
647.647	3375.93951
648.095	3451.89763
648.543	3555.25516
648.99	3333.18657
649.438	3499.06715
649.885	3418.4193
650.333	3431.03134
650.78	3431.24896
651.227	3408.3044
651.674	3389.90244
652.121	3347.32709
652.568	3314.31731
653.015	3360.60277
653.461	3330.18459
653.908	3324.06999
654.354	3363.22196
654.801	3284.11155
655.247	3298.74266
655.693	3302.83336
656.139	3287.26492
656.585	3218.2831
657.031	3231.08849
657.477	3295.64687
657.922	3271.02021
658.368	3285.47289
658.813	3268.11209
659.259	3249.28895
659.704	3335.09067
660.149	3342.09426
660.594	3212.23817
661.039	3170.99895
661.484	3291.2849
661.929	3254.15279
662.373	3276.63122
662.818	3308.52234
663.262	3229.33273
663.707	3292.67721
664.151	3309.43295
664.595	3203.35634
665.039	3310.56425
665.483	3293.71952
665.927	3320.20727
666.371	3214.09395
666.814	3239.31345
667.258	3275.2258
667.701	3294.71889
668.145	3317.58452
668.588	3282.48895
669.031	3255.20103
669.474	3261.36959
669.917	3268.87234
670.36	3269.56629
670.803	3374.37996
671.245	3367.57083
671.688	3236.47346
672.13	3298.9256
672.573	3277.74994
673.015	3235.37044
673.457	3233.78863
673.899	3291.42771
674.341	3292.3989
674.783	3255.35494
675.225	3277.52354
675.666	3219.36983
676.108	3291.77188
676.549	3312.28907
676.991	3310.85212
677.432	3341.29577
677.873	3327.13874
678.314	3346.33252
678.755	3231.46882
679.196	3280.08178
679.637	3300.50236
680.078	3391.20805
680.518	3321.2019
680.959	3289.36814
681.399	3340.58952
681.839	3336.46828
682.28	3376.54697
682.72	3281.08412
683.16	3270.62652
683.6	3284.07843
684.039	3246.57483
684.479	3263.53033
684.919	3224.12753
685.358	3326.76721
685.798	3263.99809
686.237	3224.45406
686.676	3240.19839
687.115	3203.26983
687.554	3301.3195
687.993	3288.89773
688.432	3186.10349
688.871	3246.04539
689.309	3220.36715
689.748	3227.60908
690.186	3242.37727
690.625	3228.24859
691.063	3267.38946
691.501	3228.59871
691.939	3357.63793
692.377	3203.50754
692.815	3220.37483
693.253	3295.4141
693.69	3275.86319
694.128	3260.45259
694.565	3187.3708
695.003	3200.77997
695.44	3271.26243
695.877	3248.22259
696.314	3314.74084
696.751	3233.10074
697.188	3283.1194
697.625	3288.13376
698.061	3216.40093
698.498	3311.45624
698.934	3226.43067
699.371	3261.27173
699.807	3218.31625
700.243	3235.41935
700.679	3212.05665
701.115	3286.28832
701.551	3151.30105
701.987	3300.00131
702.422	3219.33656
702.858	3255.35494
703.294	3254.05141
703.729	3185.53975
704.164	3262.42122
704.599	3262.94632
705.035	3190.9806
705.47	3246.48534
705.904	3129.22816
706.339	3201.22704
706.774	3186.25681
707.209	3103.16883
707.643	3221.41321
708.078	3167.50507
708.512	3200.67322
708.946	3177.40994
709.38	3100.34028
709.814	3223.11004
710.248	3148.51639
710.682	3131.3556
711.116	3160.36072
711.549	3187.90563
711.983	3141.17951
712.416	3119.32894
712.85	3086.6649
713.283	3109.32969
713.716	3088.72328
714.149	3104.38251
714.582	2999.03013
715.015	3030.69828
715.448	2963.73284
715.881	2980.89879
716.313	3003.27339
716.746	2939.29804
717.178	2925.42499
717.61	2913.76599
718.043	2942.65696
718.475	2860.47262
718.907	2883.75656
719.339	2748.07367
719.77	2780.32328
720.202	2718.70512
720.634	2832.48366
721.065	2765.32839
721.497	2738.52003
721.928	2663.50803
722.359	2605.38403
722.79	2680.36497
723.221	2620.65143
723.652	2589.79528
724.083	2503.01519
724.514	2599.13262
724.945	2446.20969
725.375	2452.13845
725.806	2374.50779
726.236	2387.65788
726.666	2328.20553
727.096	2375.41111
727.526	2287.54768
727.956	2271.98116
728.386	2275.3809
728.816	2201.47397
729.246	2145.23453
729.675	2115.27801
730.105	2120.2887
730.534	2115.0454
730.964	2126.42814
731.393	2124.342
731.822	1992.37463
732.251	1894.25975
732.68	1911.95267
733.109	1970.18555
733.537	1928.06177
733.966	1890.1561
734.395	1813.79278
734.823	1799.69736
735.251	1827.97289
735.68	1775.0957
736.108	1713.07355
736.536	1726.80615
736.964	1667.69062
737.392	1676.99037
737.82	1613.7656
738.247	1575.71999
738.675	1553.69162
739.102	1526.81583
739.53	1471.8193
739.957	1440.81827
740.384	1486.73092
740.811	1455.78724
741.238	1350.52453
741.665	1381.39949
742.092	1303.40123
742.519	1250.43317
742.945	1300.41054
743.372	1244.42831
743.798	1250.55345
744.225	1160.19803
744.651	1200.40609
745.077	1095.23093
745.503	1097.17758
745.929	1143.19877
746.355	1177.35072
746.781	1065.16874
747.207	960.87528
747.632	928.90931
748.058	986.05974
748.483	964.84405
748.908	933.96298
749.334	943.95365
749.759	875.75542
750.184	849.73217
750.609	832.76761
751.033	855.73102
751.458	901.69888
751.883	827.77563
752.307	783.60027
752.732	727.60493
753.156	707.5497
753.58	779.61149
754.005	755.69035
754.429	657.37825
754.853	644.43429
755.277	667.40725
755.7	665.47774
756.124	615.38009
756.548	653.3831
756.971	619.36518
757.394	605.41745
757.818	568.3382
758.241	557.29522
758.664	545.26379
759.087	511.0456
759.51	544.24279
759.933	523.15657
760.356	519.22948
760.778	461.0565
761.201	482.08857
761.623	507.13651
762.046	470.03723
762.468	494.09893
762.89	485.1116
763.312	481.09051
763.734	436.98416
764.156	426.98939
764.578	392.85268
765	438.00028
765.421	332.80723
765.843	394.97971
766.264	400.91359
766.686	394.93745
767.107	327.75936
767.528	279.6808
767.949	349.84776
768.37	343.80437
768.791	328.76063
769.212	275.66804
769.632	283.63638
770.053	312.79052
770.473	325.7577
770.894	339.81235
771.314	315.72311
771.734	242.54921
772.154	294.72847
772.575	292.65271
772.994	220.48853
773.414	309.7136
773.834	259.62847
774.254	233.55626
774.673	291.68378
775.093	261.62619
775.512	201.48555
775.931	236.58307
776.351	180.43999
776.77	173.41682
777.189	231.53582
777.607	183.45967
778.026	188.46023
778.445	145.35912
778.864	208.52256
779.282	173.41034
779.701	143.35714
780.119	150.37482
780.537	175.42992
780.955	226.56123
781.373	180.43803
781.791	144.3207
782.209	220.49523
782.627	142.37027
783.045	139.31719
783.462	162.40832
783.88	167.42566
784.297	130.3245
784.715	98.25089
785.132	153.36612
785.549	140.3468
785.966	161.39947
786.383	150.36475
786.8	150.34471
787.217	92.21809
787.633	76.18992
788.05	193.44999
788.466	152.35461
788.883	106.26909
789.299	84.20251
789.715	137.32996
790.131	116.28682
790.547	116.28808
790.963	126.3104
791.379	110.27666
791.795	105.23913
792.21	129.29936
792.626	111.26227
793.041	107.26297
793.457	137.33532
793.872	79.18608
794.287	83.19809
794.702	101.24813
795.117	76.18895
795.532	59.14837
795.947	124.29644
796.362	139.32881
796.776	145.33622
797.191	129.31304
797.605	33.07821
798.02	109.26392
798.434	65.14557
798.848	80.19701
799.262	81.20083
799.676	117.28371
800.09	93.22831
800.504	116.27975
800.918	72.16725
801.331	121.31481
801.745	113.25818
802.158	88.21958
802.572	79.19178
802.985	136.3255
803.398	113.26793
803.811	139.35354
804.224	91.22604
804.637	98.23267
805.05	121.27846
805.462	121.29506
805.875	46.11974
806.288	45.1092
806.7	89.22316
807.112	103.23789
807.525	93.2289
807.937	59.14629
808.349	86.21506
808.761	70.17245
809.173	71.1723
809.584	108.26547
809.996	52.12787
810.408	90.23146
810.819	144.33436
811.231	100.257
811.642	107.2535
812.053	108.25523
812.464	75.17838
812.875	84.21422
813.286	70.18022
813.697	117.27172
814.108	73.17848
814.519	115.25458
814.929	109.27626
815.34	78.18911
815.75	64.16282
816.16	78.19428
816.571	81.21002
816.981	84.19813
817.391	60.1453
817.801	71.17636
818.211	90.21401
818.62	55.13287
819.03	88.21511
819.44	143.36885
819.849	91.22851
820.259	123.31196
820.668	67.16491
821.077	73.1812
821.486	117.27955
821.895	89.2193
822.304	77.20369
822.713	72.17029
823.122	49.12278
823.531	57.13557
823.939	64.15616
824.348	97.23477
824.756	92.22956
825.164	102.25525
825.573	63.15826
825.981	107.26365
826.389	112.27926
826.797	66.1654
827.205	76.17431
827.612	70.17277
828.02	47.11088
828.428	84.21332
828.835	62.16327
829.243	119.28106
829.65	42.10492
830.057	91.22
830.464	37.0907
830.871	112.26612
831.278	68.16443
831.685	63.14092
832.092	72.1762
832.499	56.12296
832.905	79.19959
833.312	69.15752
833.718	110.27199
834.124	99.22501
834.531	69.17389
834.937	89.22749
835.343	80.19264
835.749	96.22318
836.155	52.13643
836.561	50.12336
836.966	77.18798
837.372	81.20559
837.777	59.14714
838.183	63.14034
838.588	69.17121
838.993	106.25622
839.399	75.18303
839.804	15.03689
840.209	-2.00515
840.613	23.05166
841.018	66.16707
841.423	83.21216
841.828	54.13679
842.232	120.29432
842.637	109.25505
843.041	20.05163
843.445	96.23937
843.849	69.17064
844.253	56.13337
844.657	79.1983
845.061	76.17214
845.465	73.17602
845.869	66.15337
846.272	58.14136
846.676	91.21901
847.079	13.03333
847.483	104.25753
847.886	95.22985
848.289	65.17327
848.692	41.10421
849.095	25.06049
849.498	112.28139
849.901	80.18296
850.304	60.1435
850.707	57.14544
851.109	61.15439
851.512	68.1669
851.914	8.02034
852.316	89.22397
852.718	20.05197
853.121	58.1422
853.523	62.14493
853.925	45.11764
854.326	49.12273
854.728	43.11088
855.13	38.09834
855.531	50.11972
855.933	71.17016
856.334	33.08266
856.736	53.11894
857.137	56.13034
857.538	78.19541
857.939	39.0967
858.34	96.2324
858.741	32.08401
859.142	39.09407
859.542	76.19987
859.943	55.13677
860.343	26.06476
860.744	67.16326
861.144	53.12944
861.544	-1.00243
861.945	56.14277
862.345	67.16363
862.745	41.10221
863.145	107.2535
863.544	59.14906
863.944	60.14174
864.344	85.21013
864.743	84.20747
865.143	93.23738
865.542	18.04209
865.941	92.22631
866.34	105.24934
866.74	101.26906
867.139	74.17664
867.537	75.1905
867.936	50.12054
868.335	45.11474
868.734	45.11523
869.132	61.14167
869.531	101.24234
869.929	78.1771
870.327	75.1792
870.726	119.29343
871.124	85.19764
871.522	68.17287
871.92	51.12594
872.318	68.16592
872.715	98.2408
873.113	55.13407
873.511	83.20579
873.908	-1.00255
874.306	61.15158
874.703	78.19442
875.1	80.20381
875.497	77.18391
875.894	38.09341
876.291	51.12529
876.688	55.14187
877.085	67.16045
877.482	123.30419
877.878	35.08459
878.275	89.22477
878.671	96.21212
879.068	59.14237
879.464	90.21615
879.86	30.07131
880.256	112.27358
880.652	63.16002
881.048	79.19494
881.444	45.10736
881.84	79.19994
882.236	106.26411
882.631	66.1617
883.027	55.13322
883.422	69.176
883.817	40.10079
884.213	85.21696
884.608	61.14942
885.003	51.12307
885.398	34.08542
885.793	77.19252
886.188	38.09475
886.582	100.25449
886.977	65.154
887.371	107.2681
887.766	32.07991
888.16	72.17914
888.554	83.20421
888.949	91.22703
889.343	80.19454
889.737	15.04023
890.131	57.14293
890.525	92.23371
890.918	73.18311
891.312	103.24422
891.706	88.22954
892.099	113.28457
892.492	103.22001
892.886	82.19963
893.279	43.10976
893.672	73.18522
894.065	67.1674
894.458	56.1408
894.851	97.23583
895.244	34.08714
895.637	47.11337
896.029	69.16826
896.422	79.19214
896.814	77.19064
897.206	64.15213
897.599	91.22356
897.991	57.13775
898.383	92.21582
898.775	63.14197
899.167	66.15355
899.559	88.22141
899.951	64.1506
900.342	92.23239
900.734	6.01502
901.125	80.20896
901.517	64.1568
901.908	126.298
902.299	23.05655
902.69	99.23156
903.082	92.2212
903.473	32.07694
903.863	38.09722
904.254	88.20288
904.645	88.21751
905.036	-1.00245
905.426	86.19566
905.817	86.20976
906.207	51.12158
906.597	56.13091
906.987	109.27979
907.378	46.11649
907.768	57.15059
908.158	75.18214
908.547	35.09069
908.937	62.15884
909.327	66.15989
909.717	124.31087
910.106	57.13682
910.495	64.15947
910.885	86.21654
911.274	72.17933
911.663	83.20954
912.052	110.26859
912.441	73.18496
912.83	60.13756
913.219	90.23404
913.608	76.18537
913.997	16.04037
914.385	97.22981
914.774	77.18665
915.162	47.11213
915.55	89.21387
915.939	38.09616
916.327	68.16925
916.715	69.17532
917.103	103.25117
917.491	97.23804
917.878	87.21255
918.266	77.19882
918.654	36.09223
919.041	32.08381
919.429	74.17393
919.816	61.15439
920.203	61.1477
920.591	69.17058
920.978	59.14431
921.365	73.19084
921.752	73.17335
922.139	72.15569
922.525	61.14625
922.912	88.21319
923.299	68.16851
923.685	24.0629
924.072	48.11079
924.458	68.16795
924.844	62.15313
925.231	20.04684
925.617	43.10953
926.003	41.10499
926.389	17.04315
926.774	66.16683
927.16	89.21954
927.546	55.14029
927.931	86.21327
928.317	68.15615
928.702	121.28246
929.088	24.05707
929.473	25.0639
929.858	0
930.243	36.08666
930.628	40.09753
931.013	74.18264
931.398	52.1196
931.783	87.22767
932.167	79.19214
932.552	42.10541
932.937	68.16826
933.321	40.10057
933.705	59.14853
934.09	109.27262
934.474	108.25375
934.858	46.11942
935.242	23.05361
935.626	85.21628
936.009	20.05347
936.393	70.17751
936.777	50.12805
937.16	83.21476
937.544	90.21047
937.927	8.02045
938.311	92.22288
938.694	62.16366
939.077	87.20684
939.46	115.27907
939.843	78.1618
940.226	68.17391
940.609	55.12617
940.991	38.09695
941.374	64.15604
941.757	52.12829
942.139	38.08558
942.522	55.1299
942.904	83.19831
943.286	73.18476
943.668	60.15517
944.05	31.07664
944.432	40.09891
944.814	57.14024
945.196	-5.01231
945.578	-3.0072
945.959	58.13574
946.341	102.24804
946.722	41.09642
947.104	84.19951
947.485	42.09791
947.866	54.13596
948.247	67.16855
948.628	33.08077
949.009	64.16351
949.39	99.2443
949.771	119.27309
950.152	105.25509
950.532	16.03961
950.913	59.1421
951.293	29.07861
951.674	67.16155
952.054	57.14107
952.434	74.18291
952.814	36.0859
953.194	36.09445
953.574	78.19117
953.954	65.15394
954.334	78.19343
954.714	52.12669
955.093	71.17391
955.473	46.11512
955.853	52.13457
956.232	86.23436
956.611	71.16964
956.99	59.14805
957.37	53.135
957.749	60.14289
958.128	64.16085
958.506	33.08586
958.885	64.16114
959.264	21.05174
959.643	89.20097
960.021	-4.01001
960.4	38.08635
960.778	129.31316
961.156	28.07048
961.535	69.16025
961.913	32.07516
962.291	31.0798
962.669	36.09142
963.047	83.21059
963.424	50.1276
963.802	27.06668
964.18	103.25817
964.557	75.17191
964.935	103.24157
965.312	57.14825
965.69	76.18943
966.067	95.22941
966.444	62.15246
966.821	68.17476
967.198	80.19301
967.575	68.16666
967.952	105.24482
968.329	33.08056
968.705	64.13685
969.082	36.09255
969.458	-12.02913
969.835	93.22458
970.211	74.18912
970.587	77.19078
970.963	70.17896
971.339	16.04202
971.715	45.11247
972.091	44.10848
972.467	65.16169
972.843	25.06233
973.219	121.28667
973.594	49.12819
973.97	96.22652
974.345	35.08401
974.721	81.19501
975.096	42.10179
975.471	61.14441
975.846	100.23797
976.221	43.10933
976.596	50.11986
976.971	64.15761
977.346	70.16235
977.72	47.1198
978.095	56.14457
978.469	91.21551
978.844	64.16051
979.218	12.02897
979.593	67.16002
979.967	87.21049
980.341	44.10144
980.715	110.27418
981.089	78.19428
981.463	68.15558
981.837	18.04425
982.21	118.27096
982.584	75.1803
982.957	15.03769
983.331	96.22494
983.704	79.19308
984.078	68.16703
984.451	117.28871
984.824	70.16984
985.197	100.24062
985.57	81.20201
985.943	106.25911
986.316	106.25776
986.688	78.18712
987.061	76.17724
987.434	63.1638
987.806	93.22374
988.179	28.06635
988.551	78.19689
988.923	76.18626
989.295	100.24762
989.667	19.04566
990.039	60.14798
990.411	58.13329
990.783	86.19661
991.155	15.03628
991.527	121.29407
991.898	41.10233
992.27	37.09174
992.641	79.19716
993.012	82.19176
993.384	57.13578
993.755	54.13757
994.126	73.17482
994.497	39.09592
994.868	65.14887
995.239	71.17139
995.61	21.05311
995.98	78.18847
996.351	56.13852
996.722	48.11137
997.092	10.02386
997.462	-12.02837
997.833	90.2117
998.203	55.13322
998.573	59.14666
998.943	49.11492
999.313	50.11981
999.683	50.11999
1000.053	32.07389
1000.423	67.16229
1000.792	71.18333
1001.162	56.13765
1001.531	62.15252
1001.901	54.1345
1002.27	74.1646
1002.639	31.07946
1003.009	61.14475
1003.378	69.17581
1003.747	78.18326
1004.116	63.15036
1004.485	82.19476
1004.853	75.18914
1005.222	58.14604
1005.591	79.18652
1005.959	-6.01367
1006.328	-8.01822
1006.696	52.12536
1007.064	51.12825
1007.433	82.20372
1007.801	105.25509
1008.169	77.19349
1008.537	85.18683
1008.905	40.09336
1009.273	49.12105
1009.64	47.11217
1010.008	77.18257
1010.375	132.31557
1010.743	106.24204
1011.11	47.11127
1011.478	49.12127
1011.845	76.1778
1012.212	26.05913
1012.579	54.13244
1012.946	104.24492
1013.313	70.16594
1013.68	81.18088
1014.047	-12.02893
1014.414	70.16466
1014.78	63.15615
1015.147	135.3212
1015.513	84.20105
1015.88	75.1909
1016.246	117.2852
1016.612	101.22881
1016.978	60.14672
1017.344	74.18203
1017.71	120.28874
1018.076	91.21285
1018.442	101.25744
1018.808	71.17675
1019.174	16.04037
1019.539	151.34054
1019.905	47.11088
1020.27	35.08659
1020.636	92.21877
1021.001	97.23008
1021.366	46.11052
1021.731	89.22725
1022.096	27.06836
1022.461	76.17891
1022.826	58.1376
1023.191	42.1103
1023.556	66.15416
1023.92	80.19556
1024.285	61.14853
1024.649	87.21168
1025.014	104.25498
1025.378	39.09821
1025.742	50.12413
1026.107	111.24788
1026.471	91.21067
1026.835	75.18501
1027.199	10.02424
1027.562	62.14374
1027.926	108.26115
1028.29	75.18887
1028.654	89.2031
1029.017	103.25061
1029.381	57.13593
1029.744	56.14261
1030.107	84.19736
1030.471	64.15277
1030.834	43.09793
1031.197	111.2642
1031.56	79.18529
1031.923	60.15479
1032.286	61.1429
1032.648	84.19951
1033.011	5.01158
1033.374	73.17075
1033.736	59.15482
1034.099	76.18426
1034.461	37.09365
1034.823	15.03757
1035.185	88.2199
1035.548	67.16247
1035.91	31.07449
1036.272	54.12276
1036.634	82.19933
1036.995	63.14764
1037.357	64.15522
1037.719	58.14078
1038.08	75.17714
1038.442	33.07855
1038.803	54.12949
1039.165	68.17097
1039.526	47.11359
1039.887	68.16207
1040.248	-5.01244
1040.609	95.2327
1040.97	52.12697
1041.331	69.17401
1041.692	40.0935
1042.053	65.14749
1042.413	67.15554
1042.774	60.14558
1043.134	57.13546
1043.495	121.30012
1043.855	30.07301
1044.215	64.15836
1044.576	12.02889
1044.936	22.0507
1045.296	106.26171
1045.656	82.19993
1046.016	47.11346
1046.375	46.11161
1046.735	36.0818
1047.095	103.23845
1047.454	61.12889
1047.814	68.16282
1048.173	99.23419
1048.533	8.01847
1048.892	12.029
1049.251	83.20699
1049.61	43.10595
1049.969	42.0991
1050.328	66.14254
1050.687	78.18868
1051.046	66.16013
1051.405	68.16851
1051.763	44.10124
1052.122	12.03012
1052.48	81.19738
1052.839	9.02133
1053.197	53.1246
1053.555	115.25861
1053.914	74.18008
1054.272	108.2581
1054.63	49.11976
1054.988	37.08807
1055.345	61.13098
1055.703	75.17954
1056.061	76.1945
1056.419	69.17792
1056.776	76.18329
1057.134	86.19756
1057.491	60.14988
1057.848	26.06497
1058.206	50.11752
1058.563	94.20518
1058.92	105.23922
1059.277	75.18405
1059.634	80.18701
1059.991	97.23017
1060.348	50.11293
1060.704	42.10018
1061.061	93.21411
1061.418	49.11878
1061.774	64.15749
1062.131	30.07954
1062.487	34.0797
1062.843	67.16643
1063.199	39.09712
1063.555	54.12494
1063.911	74.18599
1064.267	72.14936
1064.623	38.09244
1064.979	90.21146
1065.335	94.22266
1065.691	97.23026
1066.046	75.16395
1066.402	60.13595
1066.757	69.17345
1067.112	87.21192
1067.468	7.01666
1067.823	92.21927
1068.178	59.14237
1068.533	76.18322
1068.888	63.15007
1069.243	28.06934
1069.598	68.16455
1069.952	23.05204
1070.307	55.13592
1070.662	65.15376
1071.016	26.05851
1071.371	87.19629
1071.725	98.23214
1072.079	65.15578
1072.434	53.12862
1072.788	92.21717
1073.142	117.28403
1073.496	32.07612
1073.85	73.1684
1074.203	61.14759
1074.557	50.13287
1074.911	101.23855
1075.265	26.06068
1075.618	82.19888
1075.971	65.15406
1076.325	63.15962
1076.678	15.03452
1077.031	35.07939
1077.385	54.11877
1077.738	52.11725
1078.091	14.03204
1078.444	87.20037
1078.796	8.01977
1079.149	95.23417
1079.502	42.0993
1079.855	47.10959
1080.207	72.17653
1080.56	12.03119
1080.912	73.17682
1081.264	69.16543
1081.617	61.14825
1081.969	46.11603
1082.321	59.14371
1082.673	-1.0023
1083.025	68.16064
1083.377	111.23494
1083.728	27.06323
1084.08	49.12225
1084.432	51.12288
1084.783	125.28835
1085.135	35.08789
1085.486	58.13238
1085.838	39.09617
1086.189	76.18343
1086.54	26.06232
1086.891	15.03814
1087.242	26.06353
1087.593	101.24335
1087.944	72.16208
1088.295	81.18283
1088.646	46.11148
1088.996	36.08689
1089.347	64.15651
1089.698	-6.01432
1090.048	63.16312
1090.398	64.1479
1090.749	71.16906
1091.099	20.05052
1091.449	39.09726
1091.799	58.14488
1092.149	-19.04689
1092.499	31.07582
1092.849	52.13201
1093.199	91.2262
1093.548	41.0986
1093.898	39.09769
1094.248	99.25199
1094.597	33.08441
1094.947	53.14119
1095.296	49.12092
1095.645	68.17616
1095.994	45.1081
1096.343	71.17784
1096.692	10.02642
1097.041	40.10838
1097.39	61.15257
1097.739	42.10922
1098.088	91.24194
1098.437	4.01058
1098.785	39.10524
1099.134	47.12475
1099.482	39.10735
1099.83	34.08951
1100.179	10.02624
1100.527	96.25289
1100.875	55.14516
1101.223	54.14316
1101.571	44.1216
1101.919	36.09419
1102.267	41.11548
1102.615	3.00965
1102.962	13.04184
1103.31	3.00964
1103.658	9.02899
