Data from N2 R13 sample 2_Subt2__5__12-16-02-763.txt Node

Date: Tue Sep 02 12:16:02 PDT 2025
User: uwsun
Spectrometer: HDX01956
Trigger mode: 0
Integration Time (sec): 5.000000E-1
Scans to average: 1
Nonlinearity correction enabled: true
Boxcar width: 0
Storing dark spectrum: false
XAxis mode: Wavelengths
Number of Pixels in Spectrum: 2068
>>>>>Begin Spectral Data<<<<<
194.03	110.3035
194.578	114.35542
195.127	124.38028
195.676	105.32383
196.225	158.40803
196.773	178.47409
197.321	233.60117
197.87	329.76461
198.418	269.62396
198.966	274.63895
199.513	239.53326
200.061	217.49498
200.609	292.69615
201.156	255.49243
201.704	259.58218
202.251	259.61548
202.798	305.70381
203.345	332.72648
203.892	292.65352
204.438	320.67565
204.985	265.55401
205.532	296.69268
206.078	324.70119
206.624	298.64603
207.17	329.67072
207.716	280.60183
208.262	335.57294
208.808	252.54981
209.354	312.66743
209.899	381.84652
210.445	301.65879
210.99	317.66946
211.535	292.60896
212.08	372.75269
212.625	312.69252
213.17	310.6978
213.715	273.53175
214.259	345.7043
214.804	318.69702
215.348	306.6183
215.892	331.69903
216.436	340.69362
216.98	279.54964
217.524	296.61922
218.068	300.67336
218.612	332.74119
219.155	300.62537
219.698	273.58085
220.242	296.66111
220.785	252.52905
221.328	294.65501
221.871	293.66777
222.414	295.65874
222.956	277.59397
223.499	237.47987
224.041	330.6827
224.583	331.63307
225.126	264.52021
225.668	236.5173
226.21	253.57266
226.751	208.40928
227.293	308.62548
227.835	256.5609
228.376	340.69456
228.918	301.68101
229.459	285.6322
230	259.55274
230.541	303.62052
231.082	252.54864
231.622	286.58796
232.163	220.48101
232.704	288.6358
233.244	233.52116
233.784	280.61633
234.324	254.49344
234.864	270.54506
235.404	328.69041
235.944	294.62103
236.484	330.73064
237.023	269.56611
237.563	233.48236
238.102	289.60659
238.641	303.68163
239.18	236.4924
239.719	282.63192
240.258	315.62378
240.797	293.61987
241.335	309.67087
241.874	288.48341
242.412	268.57281
242.95	264.55889
243.488	279.56439
244.026	285.57943
244.564	331.59173
245.102	303.59664
245.64	299.63976
246.177	270.53629
246.715	299.63616
247.252	290.58947
247.789	336.54952
248.326	290.61151
248.863	258.4993
249.4	335.66432
249.936	304.54443
250.473	261.53839
251.009	242.49123
251.546	297.57244
252.082	304.58213
252.618	282.55045
253.154	283.59819
253.69	309.6076
254.226	250.52925
254.761	303.5944
255.297	245.47312
255.832	290.6021
256.367	282.58445
256.903	295.56448
257.438	299.61677
257.972	287.55928
258.507	245.49334
259.042	286.54209
259.576	305.56498
260.111	296.59974
260.645	317.59513
261.179	293.59597
261.713	335.64134
262.247	271.54921
262.781	285.51685
263.315	321.68237
263.849	279.61245
264.382	320.63917
264.915	355.71188
265.449	244.51949
265.982	333.65479
266.515	302.64128
267.048	304.55342
267.58	323.61088
268.113	334.61577
268.646	317.67798
269.178	287.55369
269.71	351.65474
270.243	322.6351
270.775	299.66325
271.307	344.71612
271.838	355.72833
272.37	299.63948
272.902	301.59298
273.433	261.49579
273.965	337.70608
274.496	262.57308
275.027	303.65168
275.558	294.61776
276.089	293.61933
276.62	323.7141
277.15	307.6583
277.681	382.70039
278.211	320.67891
278.741	263.49862
279.272	244.48352
279.802	323.69589
280.332	281.57104
280.861	352.72201
281.391	260.50871
281.921	320.6635
282.45	324.69789
282.98	385.85541
283.509	341.64872
284.038	326.6309
284.567	360.71406
285.096	326.67291
285.625	313.60328
286.153	272.54682
286.682	281.54889
287.21	317.64861
287.739	328.65636
288.267	364.73954
288.795	388.86583
289.323	311.61268
289.851	399.77681
290.378	353.66174
290.906	320.65163
291.433	307.65176
291.961	310.58902
292.488	371.77422
293.015	329.64723
293.542	349.74027
294.069	306.63447
294.596	317.66506
295.122	354.70347
295.649	356.64975
296.175	394.79209
296.702	397.7972
297.228	398.80124
297.754	366.67511
298.28	357.66561
298.806	355.70529
299.332	383.68541
299.857	369.67945
300.383	389.81682
300.908	320.64036
301.433	361.71922
301.958	416.78121
302.483	345.70877
303.008	408.82477
303.533	374.808
304.058	391.75218
304.582	337.64923
305.107	335.72112
305.631	385.71248
306.155	377.70569
306.679	365.68627
307.203	385.71568
307.727	339.65465
308.251	367.73696
308.775	345.65665
309.298	397.75342
309.822	387.78824
310.345	433.80893
310.868	379.72207
311.391	401.78962
311.914	385.76918
312.437	402.72481
312.96	402.74301
313.482	390.72696
314.005	393.78188
314.527	415.86142
315.049	484.95284
315.571	477.79227
316.093	480.91208
316.615	414.77094
317.137	486.78699
317.659	505.93367
318.18	486.89291
318.702	486.84539
319.223	480.71876
319.744	479.79252
320.265	428.78119
320.786	459.8469
321.307	447.83633
321.828	519.84924
322.348	471.81387
322.869	434.75131
323.389	344.39594
323.909	460.76886
324.43	528.92821
324.95	571.90886
325.47	486.85793
325.989	529.87337
326.509	461.70428
327.029	537.82343
327.548	547.82886
328.067	540.89179
328.587	544.94434
329.106	538.82374
329.625	629.15276
330.144	570.87073
330.662	519.80145
331.181	584.89797
331.7	590.90186
332.218	580.79522
332.736	601.9059
333.255	570.85164
333.773	554.84726
334.291	661.05944
334.808	521.73073
335.326	645.8831
335.844	626.87408
336.361	580.91871
336.879	630.87236
337.396	677.96396
337.913	689.90739
338.43	728.90984
338.947	642.89073
339.464	614.7267
339.981	730.95607
340.497	701.99193
341.014	647.89855
341.53	685.82565
342.046	703.95084
342.562	800.08257
343.078	732.91229
343.594	723.9204
344.11	735.9183
344.626	798.05298
345.141	798.89039
345.657	836.92304
346.172	821.98325
346.687	796.87655
347.202	794.83239
347.717	824.94369
348.232	854.03813
348.747	844.88162
349.261	746.70906
349.776	873.91919
350.29	833.93578
350.805	889.01443
351.319	870.8833
351.833	766.74545
352.347	853.86122
352.861	840.82649
353.374	950.89159
353.888	939.94811
354.401	843.79331
354.915	864.73421
355.428	965.96574
355.941	899.80356
356.454	1037.83794
356.967	888.8291
357.48	1001.83573
357.993	991.93918
358.505	938.87244
359.018	1016.91253
359.53	1014.85783
360.042	1003.72803
360.554	1024.87722
361.066	962.83349
361.578	947.65114
362.09	1022.81619
362.602	971.64843
363.113	1076.75489
363.625	1017.67124
364.136	1100.65593
364.647	910.61993
365.158	1074.70777
365.669	1137.77106
366.18	1094.72047
366.691	1084.59588
367.201	1077.71186
367.712	1086.60346
368.222	1029.58881
368.733	1072.47913
369.243	1107.49195
369.753	1216.57913
370.263	1151.6116
370.773	1145.65152
371.282	1230.54571
371.792	1188.38937
372.301	1237.48771
372.811	1256.631
373.32	1291.1806
373.829	1283.30855
374.338	1407.14891
374.847	1337.16282
375.356	1321.16507
375.865	1493.84802
376.373	1584.85893
376.882	1546.07394
377.39	1621.89084
377.898	1584.78939
378.407	1695.54503
378.915	1778.41443
379.423	1915.36879
379.93	1907.26816
380.438	2033.15573
380.946	2110.02836
381.453	2185.94713
381.96	2292.85405
382.468	2459.81717
382.975	2585.7914
383.482	2700.89798
383.989	2603.83245
384.495	2732.08233
385.002	2824.65603
385.509	3116.90072
386.015	3304.29258
386.521	3375.4043
387.028	3518.44586
387.534	3646.59639
388.04	3961.22363
388.546	3655.23575
389.051	3950.21372
389.557	4414.14121
390.063	4896.57631
390.568	4591.76446
391.073	4812.5728
391.578	5154.29091
392.084	5089.79815
392.589	5122.1698
393.093	5522.78283
393.598	6276.79137
394.103	6753.41765
394.607	7470.61406
395.112	7793.03105
395.616	8081.2139
396.12	8806.54475
396.624	9337.97133
397.128	10416.10005
397.632	11594.87526
398.136	11953.71771
398.639	12239.11863
399.143	13807.18884
399.646	15337.39689
400.15	16422.21267
400.653	17711.11149
401.156	13037.54179
401.659	5169.95759
402.162	1054.15589
402.664	0
403.167	0
403.67	0
404.172	0
404.674	0
405.176	0
405.678	0
406.18	0
406.682	0
407.184	0
407.686	0
408.187	0
408.688	0
409.19	0
409.691	0
410.192	0
410.693	0
411.194	435.30976
411.694	4082.94878
412.195	8864.71461
412.696	12089.80453
413.196	12760.96929
413.696	12863.67595
414.196	13703.56671
414.696	17261.84252
415.196	21764.24417
415.696	29583.19008
416.196	23379.03079
416.695	17610.27993
417.195	15996.32267
417.694	15355.09538
418.194	14323.53267
418.693	13179.58188
419.192	13058.05765
419.691	12708.3785
420.19	12664.41443
420.688	12492.11205
421.187	11664.73311
421.685	10975.29273
422.184	9916.15439
422.682	8402.30447
423.18	6967.83352
423.678	6279.88101
424.176	5585.9124
424.674	5511.80422
425.172	5319.73393
425.669	4931.67701
426.167	4541.78671
426.664	4113.88837
427.161	3765.79696
427.659	3643.40088
428.156	3250.05602
428.652	3119.07537
429.149	3060.99392
429.646	2933.93172
430.143	2783.72744
430.639	2597.7449
431.135	2246.9151
431.632	2267.90697
432.128	2028.13082
432.624	1840.34827
433.12	1812.234
433.616	1859.22897
434.111	1692.41587
434.607	1639.54387
435.103	1658.4961
435.598	1706.50102
436.093	1514.8518
436.588	1479.89491
437.083	1348.02254
437.578	1298.12394
438.073	1097.26916
438.568	1114.3664
439.062	1231.15918
439.557	1109.3922
440.051	1010.3377
440.546	953.35528
441.04	987.46052
441.534	974.58393
442.028	988.53712
442.522	926.52526
443.015	921.41816
443.509	947.61023
444.002	876.59094
444.496	917.46208
444.989	846.60995
445.482	808.62115
445.975	801.48464
446.468	790.44074
446.961	780.44498
447.454	782.52661
447.947	699.53515
448.439	733.6174
448.931	655.47577
449.424	705.66895
449.916	774.66074
450.408	620.48188
450.9	623.56748
451.392	545.56407
451.884	636.54885
452.375	502.51795
452.867	608.53948
453.358	535.47332
453.849	533.42906
454.341	586.51938
454.832	605.49126
455.323	507.54144
455.814	591.56664
456.304	569.55831
456.795	532.5279
457.285	560.54592
457.776	532.55712
458.266	473.52367
458.756	524.59766
459.247	410.47202
459.737	422.48805
460.226	410.44062
460.716	340.4189
461.206	372.4649
461.695	431.57397
462.185	388.47981
462.674	459.54187
463.163	412.46969
463.653	395.41993
464.142	348.46195
464.63	383.52535
465.119	340.43296
465.608	334.42826
466.096	388.4625
466.585	392.5145
467.073	318.45309
467.561	304.4397
468.05	374.50915
468.538	309.46691
469.026	315.4603
469.513	300.37064
470.001	292.40163
470.489	256.37834
470.976	300.43067
471.463	251.40852
471.951	316.5142
472.438	247.37499
472.925	176.27142
473.412	287.47081
473.899	290.43648
474.385	234.3919
474.872	178.28245
475.359	159.27088
475.845	209.28771
476.331	240.35534
476.817	190.32904
477.303	174.2855
477.789	227.38633
478.275	120.21756
478.761	181.31604
479.247	187.30126
479.732	109.20109
480.218	163.31673
480.703	169.31179
481.188	122.19214
481.673	111.19013
482.158	120.18549
482.643	128.25139
483.128	60.10423
483.612	108.19291
484.097	156.29395
484.581	107.19285
485.066	84.15921
485.55	97.16293
486.034	131.21572
486.518	78.14278
487.002	27.05256
487.486	72.1394
487.969	6.01182
488.453	63.12867
488.936	25.04529
489.42	83.14637
489.903	77.15805
490.386	-392.58228
490.869	82.14397
491.352	93.18666
491.835	85.14145
492.318	28.05172
492.8	38.06409
493.283	4.00848
493.765	-27.05585
494.247	55.10718
494.73	19.03491
495.212	25.05108
495.694	0
496.175	-49.0979
496.657	19.03805
497.139	30.0436
497.62	-71.14343
498.102	-25.05285
498.583	-7.01502
499.064	-29.05479
499.545	-19.03701
500.026	16.03027
500.507	-24.0478
500.988	12.02554
501.469	-47.10161
501.949	-53.11434
502.43	-101.20891
502.91	-87.156
503.39	12.02598
503.87	-85.17423
504.35	-18.03697
504.83	-54.10255
505.31	-52.10975
505.79	-79.16538
506.269	-25.05092
506.749	-104.20908
507.228	-105.21728
507.707	-18.03452
508.187	18.03736
508.666	-109.23696
509.145	-102.21064
509.623	-92.19119
510.102	-39.08302
510.581	-23.04892
511.059	-67.14795
511.538	-80.18473
512.016	-35.07363
512.494	-59.12717
512.972	-102.21754
513.45	-92.18786
513.928	-71.15251
514.406	-134.28728
514.884	-65.14845
515.361	-88.18801
515.839	-96.19513
516.316	-82.17595
516.793	-59.1335
517.27	-35.07554
517.747	-85.19514
518.224	-45.09266
518.701	-62.12309
519.178	-155.3477
519.654	-48.10224
520.131	-77.17074
520.607	-81.18126
521.083	-105.2163
521.56	-117.25024
522.036	-44.08625
522.512	-32.07071
522.987	-82.17413
523.463	-67.14287
523.939	-56.12353
524.414	-65.13541
524.89	-84.18009
525.365	-42.08498
525.84	-144.31045
526.315	-95.20688
526.79	-72.14642
527.265	-45.09199
527.74	-62.13596
528.215	-61.12951
528.689	-58.11536
529.164	-57.11171
529.638	-58.13489
530.112	-85.18101
530.587	-59.11278
531.061	-103.22535
531.534	-84.18545
532.008	-54.11682
532.482	-51.10587
532.956	-112.25975
533.429	-26.05663
533.903	-10.01984
534.376	-107.21635
534.849	-62.13034
535.322	-31.0659
535.795	-54.11962
536.268	-23.04966
536.741	-63.1376
537.213	-30.06259
537.686	-58.12767
538.158	-26.0521
538.631	-28.06164
539.103	-47.09486
539.575	33.06122
540.047	24.047
540.519	7.01503
540.991	41.08963
541.463	28.06055
541.934	-21.04328
542.406	4.00852
542.877	-5.01012
543.348	47.10113
543.82	58.1266
544.291	60.12452
544.762	54.11312
545.233	25.05581
545.703	100.1926
546.174	105.21348
546.645	-12.02549
547.115	154.32003
547.585	140.27847
548.056	115.23904
548.526	183.36493
548.996	208.4253
549.466	282.57817
549.935	211.419
550.405	279.50185
550.875	239.47239
551.344	312.61682
551.814	332.62252
552.283	327.57975
552.752	335.63017
553.221	372.64052
553.69	444.77271
554.159	363.71715
554.628	404.71015
555.096	454.91229
555.565	506.87089
556.033	493.91649
556.502	512.98
556.97	580.98981
557.438	599.10263
557.906	641.17775
558.374	596.06608
558.842	606.13371
559.31	698.18809
559.777	709.30949
560.245	829.45386
560.712	860.47015
561.18	896.42406
561.647	883.43423
562.114	948.54581
562.581	1049.84853
563.048	1066.72449
563.514	1103.8976
563.981	1177.82989
564.448	1280.87792
564.914	1336.03403
565.381	1415.04487
565.847	1542.23133
566.313	1514.19032
566.779	1543.11483
567.245	1632.29263
567.711	1767.4614
568.176	1716.19954
568.642	1810.65397
569.108	1885.62732
569.573	1959.52151
570.038	2007.11752
570.504	2151.36435
570.969	2245.89003
571.434	2308.3017
571.899	2345.66872
572.363	2404.48619
572.828	2533.53525
573.293	2540.52944
573.757	2631.53548
574.222	2676.37819
574.686	2757.3859
575.15	2765.68116
575.614	2816.50557
576.078	2857.61004
576.542	2912.46821
577.006	2875.41614
577.469	2867.93203
577.933	2884.36383
578.396	2852.70042
578.86	2913.64663
579.323	2871.68974
579.786	2857.2266
580.249	2761.47603
580.712	2741.85624
581.175	2719.8911
581.637	2710.57861
582.1	2633.36198
582.563	2664.27061
583.025	2624.79875
583.487	2491.0047
583.95	2442.23839
584.412	2491.17967
584.874	2395.78261
585.336	2338.66133
585.797	2262.27144
586.259	2271.64904
586.721	2196.58281
587.182	2229.61668
587.643	2157.45789
588.105	2098.60045
588.566	2067.15802
589.027	1948.5837
589.488	1969.40786
589.949	1954.6343
590.41	1912.84551
590.87	1933.41058
591.331	1880.19245
591.791	1885.40267
592.252	1784.30875
592.712	1857.55013
593.172	1809.28471
593.632	1886.24782
594.092	1836.27143
594.552	1869.16732
595.011	1758.31104
595.471	1777.25256
595.931	1833.26526
596.39	1836.51188
596.849	1862.43144
597.308	1936.23036
597.768	1858.76001
598.227	1997.63735
598.685	1964.45288
599.144	1953.49504
599.603	2048.59264
600.062	2085.13641
600.52	2158.37509
600.978	2210.65414
601.437	2349.54467
601.895	2297.21455
602.353	2353.4138
602.811	2478.41509
603.269	2501.75655
603.727	2527.75782
604.184	2681.46229
604.642	2715.88431
605.099	2883.60266
605.557	2868.86536
606.014	2951.21347
606.471	3018.94227
606.928	3142.11395
607.385	3170.7465
607.842	3406.37975
608.299	3414.4981
608.755	3430.66595
609.212	3516.175
609.668	3530.12503
610.125	3639.62687
610.581	3670.57267
611.037	3731.32335
611.493	3698.52973
611.949	3665.61132
612.405	3774.59222
612.861	3856.45998
613.316	3764.54364
613.772	3839.29679
614.227	3812.45894
614.683	3831.95204
615.138	3709.46247
615.593	3764.40706
616.048	3842.31627
616.503	3627.84485
616.958	3605.94844
617.412	3522.63711
617.867	3500.25041
618.321	3544.9463
618.776	3458.32112
619.23	3267.69885
619.684	3360.48903
620.138	3257.6867
620.592	3183.93979
621.046	3116.78394
621.5	3042.97552
621.954	3031.60077
622.407	2930.56018
622.861	2835.00846
623.314	2884.6885
623.768	2645.80011
624.221	2712.06423
624.674	2532.75007
625.127	2643.84317
625.58	2576.74398
626.033	2543.60168
626.485	2441.93094
626.938	2522.94338
627.39	2379.809
627.843	2373.79161
628.295	2253.76041
628.747	2373.92572
629.199	2301.71078
629.651	2207.68127
630.103	2254.73778
630.555	2191.41221
631.006	2115.80488
631.458	2130.83731
631.909	2142.75776
632.361	2094.79164
632.812	2025.71392
633.263	1990.4471
633.714	2026.44609
634.165	2038.9515
634.616	1982.83747
635.067	2003.59007
635.518	1924.82909
635.968	1910.20103
636.419	1850.44272
636.869	1845.77554
637.319	1832.65277
637.769	1776.49679
638.219	1827.79513
638.669	1828.77799
639.119	1774.83729
639.569	1746.76702
640.019	1823.67575
640.468	1752.50106
640.918	1789.81436
641.367	1714.49444
641.816	1698.47533
642.265	1667.56819
642.714	1642.55052
643.163	1674.55743
643.612	1557.59013
644.061	1579.21083
644.51	1581.44842
644.958	1576.33157
645.406	1591.6256
645.855	1540.66826
646.303	1567.53767
646.751	1566.43688
647.199	1548.42663
647.647	1498.41625
648.095	1488.39597
648.543	1498.08729
648.99	1467.50846
649.438	1488.49001
649.885	1478.64754
650.333	1487.93203
650.78	1431.51154
651.227	1437.54303
651.674	1450.35262
652.121	1391.49547
652.568	1453.55827
653.015	1453.70517
653.461	1422.45883
653.908	1410.38805
654.354	1410.46745
654.801	1363.35319
655.247	1415.22464
655.693	1391.73556
656.139	1368.43346
656.585	1355.42197
657.031	1293.25764
657.477	1342.10596
657.922	1322.26221
658.368	1301.4487
658.813	1351.33851
659.259	1324.38988
659.704	1329.30991
660.149	1350.33615
660.594	1336.37751
661.039	1316.23634
661.484	1313.37774
661.929	1310.30955
662.373	1310.53222
662.818	1261.41939
663.262	1320.40433
663.707	1317.56326
664.151	1267.388
664.595	1237.30865
665.039	1277.45952
665.483	1259.50206
665.927	1253.27098
666.371	1194.13911
666.814	1221.27088
667.258	1219.23256
667.701	1323.12185
668.145	1299.49842
668.588	1244.38043
669.031	1215.2152
669.474	1224.30057
669.917	1295.16224
670.36	1309.50093
670.803	1259.35905
671.245	1269.00717
671.688	1275.41246
672.13	1202.08327
672.573	1275.53742
673.015	1241.32182
673.457	1265.08662
673.899	1243.35289
674.341	1245.343
674.783	1221.28988
675.225	1278.44097
675.666	1183.24336
676.108	1260.08004
676.549	1230.27697
676.991	1265.12451
677.432	1282.88775
677.873	1211.18905
678.314	1217.28125
678.755	1271.40487
679.196	1276.23887
679.637	1280.43542
680.078	1288.32113
680.518	1268.28727
680.959	1273.36556
681.399	1255.44235
681.839	1290.43561
682.28	1308.49721
682.72	1214.16509
683.16	1257.45777
683.6	1335.30582
684.039	1310.03296
684.479	1274.43798
684.919	1214.17952
685.358	1351.65181
685.798	1312.70063
686.237	1315.45468
686.676	1302.32031
687.115	1344.40161
687.554	1309.3896
687.993	1314.19713
688.432	1352.32857
688.871	1241.17776
689.309	1299.39384
689.748	1359.09435
690.186	1363.47859
690.625	1306.34773
691.063	1339.45679
691.501	1342.55738
691.939	1387.64019
692.377	1359.53458
692.815	1382.49878
693.253	1404.54896
693.69	1369.23698
694.128	1371.52573
694.565	1381.49382
695.003	1414.73758
695.44	1362.42398
695.877	1365.40634
696.314	1386.19802
696.751	1432.41775
697.188	1399.39661
697.625	1401.40642
698.061	1423.5596
698.498	1409.5767
698.934	1406.55517
699.371	1407.47945
699.807	1458.55586
700.243	1389.52986
700.679	1388.3468
701.115	1433.51898
701.551	1367.44102
701.987	1426.36752
702.422	1394.49388
702.858	1425.54115
703.294	1447.40982
703.729	1471.68516
704.164	1384.5264
704.599	1438.34728
705.035	1322.23578
705.47	1440.62376
705.904	1444.48921
706.339	1457.50712
706.774	1413.47337
707.209	1417.42762
707.643	1425.56841
708.078	1416.60182
708.512	1338.58646
708.946	1404.54
709.38	1330.41411
709.814	1414.40256
710.248	1461.66018
710.682	1410.5175
711.116	1383.48988
711.549	1342.70104
711.983	1302.30488
712.416	1400.49191
712.85	1325.56431
713.283	1299.37128
713.716	1389.67701
714.149	1316.41745
714.582	1300.22319
715.015	1317.57049
715.448	1306.57469
715.881	1309.16676
716.313	1267.30224
716.746	1251.29365
717.178	1247.34906
717.61	1194.43236
718.043	1231.43504
718.475	1178.27977
718.907	1222.47155
719.339	1131.03877
719.77	1158.18786
720.202	1115.30244
720.634	1160.26082
721.065	1116.13288
721.497	1138.25233
721.928	1050.12223
722.359	1049.07344
722.79	1026.02365
723.221	1082.23968
723.652	1097.33266
724.083	1002.85605
724.514	1011.91132
724.945	965.89262
725.375	954.8451
725.806	963.02711
726.236	1001.15314
726.666	932.8583
727.096	945.95779
727.526	886.93208
727.956	909.73659
728.386	891.87539
728.816	839.8392
729.246	863.79734
729.675	862.82186
730.105	860.82158
730.534	821.65605
730.964	843.84797
731.393	846.81839
731.822	825.83501
732.251	822.81589
732.68	790.61933
733.109	754.63441
733.537	773.63113
733.966	769.67579
734.395	754.5211
734.823	717.42352
735.251	679.45826
735.68	709.58145
736.108	675.53157
736.536	728.51293
736.964	655.35772
737.392	639.44279
737.82	613.33049
738.247	626.35211
738.675	653.39996
739.102	551.26259
739.53	621.43227
739.957	549.29864
740.384	604.35399
740.811	582.34783
741.238	563.25603
741.665	495.06034
742.092	593.28593
742.519	524.19464
742.945	473.05626
743.372	511.16941
743.798	558.31716
744.225	461.02136
744.651	512.18834
745.077	469.09032
745.503	466.06007
745.929	503.11551
746.355	515.18518
746.781	458.06031
747.207	405.89572
747.632	395.91071
748.058	428.00364
748.483	420.90969
748.908	391.9212
749.334	383.89324
749.759	397.88499
750.184	354.80399
750.609	387.90256
751.033	437.97011
751.458	378.80475
751.883	403.94503
752.307	324.7317
752.732	286.6902
753.156	315.74824
753.58	356.8069
754.005	369.89263
754.429	298.67546
754.853	273.65547
755.277	296.6761
755.7	329.78299
756.124	301.71994
756.548	256.58993
756.971	299.7045
757.394	262.65583
757.818	242.60709
758.241	284.697
758.664	223.55086
759.087	169.37318
759.51	235.5711
759.933	239.56074
760.356	261.65014
760.778	213.51337
761.201	272.64176
761.623	278.65362
762.046	263.60666
762.468	285.66263
762.89	244.5873
763.312	235.56039
763.734	188.44583
764.156	186.45246
764.578	198.44845
765	156.37721
765.421	162.40642
765.843	186.48
766.264	217.5139
766.686	189.46739
767.107	166.39776
767.528	134.33581
767.949	199.49698
768.37	142.34608
768.791	218.51656
769.212	144.3584
769.632	121.28113
770.053	170.4416
770.473	157.37813
770.894	164.40609
771.314	185.43575
771.734	123.28589
772.154	178.45041
772.575	185.42267
772.994	152.34231
773.414	176.41721
773.834	133.33036
774.254	115.28075
774.673	167.4019
775.093	122.30044
775.512	106.26065
775.931	133.33481
776.351	119.29419
776.77	76.18647
777.189	129.30527
777.607	116.29489
778.026	129.31926
778.445	52.13098
778.864	150.38078
779.282	121.28988
779.701	129.32299
780.119	69.17495
780.537	99.24663
780.955	122.30871
781.373	119.29289
781.791	101.22694
782.209	136.31141
782.627	101.26521
783.045	107.24575
783.462	98.24984
783.88	89.22997
784.297	92.23123
784.715	75.19279
785.132	52.12683
785.549	55.13836
785.966	97.24349
786.383	30.07459
786.8	106.24574
787.217	88.20877
787.633	67.1677
788.05	161.37775
788.466	112.26335
788.883	65.16621
789.299	83.20013
789.715	81.19716
790.131	83.20647
790.547	93.23193
790.963	82.20365
791.379	41.1044
791.795	108.24581
792.21	120.27897
792.626	71.16906
793.041	120.29421
793.457	82.20276
793.872	86.20229
794.287	39.09386
794.702	92.2264
795.117	57.14221
795.532	63.15831
795.947	109.26133
796.362	127.30112
796.776	128.2978
797.191	68.1669
797.605	-20.04789
798.02	80.19476
798.434	87.19396
798.848	95.2333
799.262	43.10736
799.676	121.29319
800.09	82.20171
800.504	116.27975
800.918	52.12127
801.331	106.2765
801.745	48.1111
802.158	112.27825
802.572	79.19178
802.985	130.3115
803.398	92.21902
803.811	104.26616
804.224	88.21871
804.637	22.053
805.05	101.23336
805.462	98.24
805.875	47.12233
806.288	14.03417
806.7	77.19349
807.112	78.18104
807.525	123.30106
807.937	56.13892
808.349	99.24699
808.761	81.19914
809.173	95.2295
809.584	105.25824
809.996	7.01736
810.408	75.19339
810.819	120.27996
811.231	89.22917
811.642	80.19052
812.053	108.25523
812.464	81.19242
812.875	91.23179
813.286	88.22585
813.697	152.35056
814.108	76.18571
814.519	81.18059
814.929	88.22387
815.34	56.13633
815.75	66.16784
816.16	66.16475
816.571	74.1921
816.981	124.2902
817.391	79.19063
817.801	76.18861
818.211	87.207
818.62	66.15911
819.03	74.18136
819.44	108.28027
819.849	87.21862
820.259	88.22458
820.668	56.13811
821.077	41.10236
821.486	95.22794
821.895	111.27239
822.304	55.14603
822.713	88.20748
823.122	47.11781
823.531	81.19176
823.939	84.20419
824.348	70.17029
824.756	72.18031
825.164	84.21089
825.573	52.13088
825.981	68.16876
826.389	87.21791
826.797	46.1157
827.205	64.14714
827.612	94.23098
828.02	40.09449
828.428	89.22581
828.835	66.17369
829.243	83.1974
829.65	83.20579
830.057	98.23661
830.464	50.12227
830.871	119.28237
831.278	73.17635
831.685	96.21327
832.092	91.22191
832.499	94.20475
832.905	70.17713
833.312	59.13496
833.718	74.18418
834.124	73.16679
834.531	64.16143
834.937	100.25512
835.343	78.1879
835.749	89.20719
836.155	82.21404
836.561	51.1258
836.966	106.25738
837.372	56.14277
837.777	51.12737
838.183	69.15351
838.588	53.13189
838.993	84.20388
839.399	62.15167
839.804	35.08576
840.209	53.13514
840.613	75.16665
841.018	77.19453
841.423	85.21719
841.828	55.1393
842.232	117.28712
842.637	59.13941
843.041	39.10035
843.445	49.12322
843.849	56.13882
844.253	108.25464
844.657	49.12366
845.061	54.12286
845.465	65.15697
845.869	66.15337
846.272	8.01968
846.676	76.18343
847.079	34.08686
847.483	80.19897
847.886	109.26302
848.289	43.11505
848.692	46.11682
849.095	100.23852
849.498	102.25673
849.901	31.0716
850.304	76.18121
850.707	58.14797
851.109	90.22661
851.512	72.17659
851.914	34.08607
852.316	59.14927
852.718	47.12157
853.121	67.16399
853.523	32.07524
853.925	23.06035
854.326	90.22376
854.728	64.16442
855.13	59.15213
855.531	83.19748
855.933	92.21961
856.334	39.09758
856.736	57.12782
857.137	65.15102
857.538	35.08836
857.939	43.10654
858.34	102.24664
858.741	79.20575
859.142	75.17968
859.542	59.15561
859.943	90.22237
860.343	17.04241
860.744	85.20643
861.144	85.20635
861.544	35.08449
861.945	83.21059
862.345	83.2021
862.745	67.16624
863.145	123.29051
863.544	58.14656
863.944	68.16039
864.344	50.1244
864.743	110.27039
865.143	55.14133
865.542	41.09545
865.941	59.14602
866.34	53.12712
866.74	66.17684
867.139	39.09372
867.537	86.21801
867.936	42.10141
868.335	60.15259
868.734	42.1076
869.132	58.13478
869.531	123.29388
869.929	41.09379
870.327	60.14377
870.726	106.262
871.124	87.20221
871.522	63.1603
871.92	80.1965
872.318	50.12241
872.715	94.23115
873.113	95.22985
873.511	55.13707
873.908	-23.05887
874.306	33.08242
874.703	77.19196
875.1	106.2688
875.497	90.21442
875.894	-19.0472
876.291	65.15928
876.688	64.16483
877.085	92.21927
877.482	85.21167
877.878	26.06294
878.275	50.12715
878.671	94.20779
879.068	75.18043
879.464	75.18064
879.86	79.18601
880.256	82.20142
880.652	30.07664
881.048	71.17546
881.444	73.17322
881.84	65.16492
882.236	91.22736
882.631	71.17378
883.027	82.19761
883.422	35.08981
883.817	0
884.213	41.10546
884.608	33.08125
885.003	57.13739
885.398	64.15993
885.793	73.18265
886.188	20.05003
886.582	111.28193
886.977	92.21683
887.371	56.14161
887.766	8.02006
888.16	94.23294
888.554	79.19451
888.949	53.13314
889.343	109.26362
889.737	18.04825
890.131	16.04042
890.525	61.15581
890.918	67.16824
891.312	78.18583
891.706	62.16244
892.099	108.27222
892.492	99.21165
892.886	48.1176
893.279	71.18034
893.672	75.19023
894.065	76.18957
894.458	99.24699
894.851	78.19031
895.244	41.10495
895.637	67.161
896.029	42.10294
896.422	66.16092
896.814	104.25621
897.206	23.0551
897.599	112.27408
897.991	64.15447
898.383	40.09479
898.775	34.07707
899.167	23.05397
899.559	72.18168
899.951	86.20151
900.342	90.22742
900.734	6.01502
901.125	96.25007
901.517	78.1906
901.908	72.17206
902.299	92.2233
902.69	61.14374
903.082	95.22829
903.473	30.07216
903.863	74.18812
904.254	48.11154
904.645	71.17604
905.036	25.06085
905.426	100.22686
905.817	44.10816
906.207	104.2454
906.597	26.06114
906.987	61.15789
907.378	26.06607
907.768	51.13487
908.158	50.122
908.547	29.07522
908.937	74.18919
909.327	47.11427
909.717	103.2592
910.106	62.14868
910.495	77.1914
910.885	89.22397
911.274	18.04527
911.663	79.19959
912.052	61.15031
912.441	29.07405
912.83	67.15339
913.219	71.18523
913.608	38.09334
913.997	52.13037
914.385	49.11717
914.774	65.15792
915.162	49.11685
915.55	62.14975
915.939	21.0533
916.327	69.17171
916.715	56.14261
917.103	57.14019
917.491	103.25248
917.878	70.17156
918.266	54.13999
918.654	62.15812
919.041	25.06556
919.429	28.0664
919.816	52.13182
920.203	71.17159
920.591	78.19251
920.978	101.2451
921.365	56.14682
921.752	62.14754
922.139	78.16845
922.525	45.10822
922.912	33.08077
923.299	45.11198
923.685	26.06812
924.072	59.13589
924.458	37.09191
924.844	92.22598
925.231	88.20337
925.617	39.09941
926.003	61.15565
926.389	50.12616
926.774	85.21413
927.16	50.12422
927.546	20.05133
927.931	64.15935
928.317	78.17875
928.702	121.28246
929.088	65.15334
929.473	37.09438
929.858	24.05832
930.243	42.10099
930.628	72.1745
931.013	39.09687
931.398	93.21214
931.783	66.17334
932.167	64.1561
932.552	78.19449
932.937	59.14623
933.321	66.16517
933.705	60.15102
934.09	89.22341
934.474	79.18666
934.858	74.19118
935.242	55.12738
935.626	50.12801
936.009	29.07741
936.393	38.09691
936.777	62.15845
937.16	86.22241
937.544	64.15043
937.927	26.06626
938.311	96.2324
938.694	70.18452
939.077	77.18342
939.46	78.1906
939.843	72.14956
940.226	32.08236
940.609	72.1646
940.991	61.15499
941.374	56.13674
941.757	55.13562
942.139	58.13008
942.522	94.22034
942.904	67.16058
943.286	68.17226
943.668	57.14749
944.05	58.14268
944.432	75.18426
944.814	71.17424
945.196	-8.01971
945.578	18.04305
945.959	102.23666
946.341	126.30502
946.722	46.10808
947.104	87.20652
947.485	41.0956
947.866	65.16334
948.247	50.12616
948.628	46.11232
949.009	79.20129
949.39	87.21516
949.771	54.12554
950.152	31.07636
950.532	-21.05233
950.913	81.19428
951.293	37.10017
951.674	112.26776
952.054	51.12636
952.434	50.12413
952.814	27.06454
953.194	90.23396
953.574	76.18633
953.954	57.1352
954.334	87.21539
954.714	-11.02711
955.093	81.19804
955.473	36.09025
955.853	44.11403
956.232	18.04959
956.611	85.20255
956.99	46.1157
957.37	85.21528
957.749	76.18044
958.128	47.11849
958.506	49.12714
958.885	85.21321
959.264	32.07869
959.643	47.10704
960.021	54.13372
960.4	51.11558
960.778	116.28229
961.156	57.14272
961.535	57.13269
961.913	100.23174
962.291	19.04901
962.669	59.14922
963.047	52.13266
963.424	52.13266
963.802	73.17875
964.18	99.24833
964.557	116.26369
964.935	74.17454
965.312	38.09916
965.69	105.26034
966.067	75.1818
966.444	76.1864
966.821	79.20264
967.198	99.23799
967.575	110.26749
967.952	108.25167
968.329	113.27175
968.705	57.12207
969.082	88.22419
969.458	16.03863
969.835	63.153
970.211	63.16132
970.587	61.15158
970.963	56.14352
971.339	30.0786
971.715	75.18643
972.091	26.06431
972.467	77.19113
972.843	44.10931
973.219	99.23555
973.594	26.06828
973.97	87.20564
974.345	49.1173
974.721	71.17126
975.096	23.05594
975.471	92.21649
975.846	81.19346
976.221	53.13452
976.596	48.1151
976.971	78.19159
977.346	88.20337
977.72	29.07415
978.095	57.14713
978.469	59.14059
978.844	87.21728
979.218	-1.00242
979.593	70.16709
979.967	66.16032
980.341	27.06246
980.715	59.14842
981.089	74.18445
981.463	10.02315
981.837	39.09549
982.21	93.21462
982.584	41.0992
982.957	27.0677
983.331	91.21343
983.704	18.04449
984.078	62.15246
984.451	126.3104
984.824	22.05386
985.197	67.16223
985.57	46.11545
985.943	111.27108
986.316	108.26253
986.688	80.19184
987.061	102.23666
987.434	32.08364
987.806	36.08754
988.179	28.06635
988.551	94.23659
988.923	61.14992
989.295	42.10511
989.667	28.06717
990.039	82.20142
990.411	93.21223
990.783	57.13107
991.155	29.06995
991.527	110.26789
991.898	11.0276
992.27	35.08681
992.641	83.20699
993.012	111.2581
993.384	67.15929
993.755	31.0793
994.126	74.17718
994.497	4.0099
994.868	60.13756
995.239	58.14035
995.61	26.0657
995.98	45.10941
996.351	22.05476
996.722	42.09756
997.092	44.10431
997.462	11.02589
997.833	75.17694
998.203	76.18336
998.573	56.13928
998.943	84.19566
999.313	38.09126
999.683	53.12712
1000.053	92.2099
1000.423	55.13352
1000.792	59.15266
1001.162	52.12792
1001.531	45.11104
1001.901	49.12216
1002.27	28.06288
1002.639	10.02573
1003.009	42.10003
1003.378	55.14049
1003.747	83.19482
1004.116	0
1004.485	84.19944
1004.853	41.10403
1005.222	72.18083
1005.591	56.1328
1005.959	36.08134
1006.328	37.08348
1006.696	22.05334
1007.064	84.20998
1007.433	97.24033
1007.801	55.13487
1008.169	67.16867
1008.537	137.29783
1008.905	71.1647
1009.273	61.15036
1009.64	26.0623
1010.008	72.17088
1010.375	114.27347
1010.743	59.136
1011.11	21.04997
1011.478	57.14086
1011.845	65.15239
1012.212	44.0997
1012.579	93.22645
1012.946	65.15424
1013.313	84.19859
1013.68	109.242
1014.047	46.10968
1014.414	27.06404
1014.78	65.16105
1015.147	116.277
1015.513	70.16799
1015.88	101.2559
1016.246	102.24934
1016.612	138.31027
1016.978	50.1225
1017.344	55.13577
1017.71	106.25573
1018.076	116.26999
1018.442	67.1718
1018.808	91.22571
1019.174	61.15268
1019.539	155.34928
1019.905	17.04034
1020.27	41.10132
1020.636	71.16951
1021.001	67.15984
1021.366	48.11528
1021.731	72.1844
1022.096	36.091
1022.461	54.12767
1022.826	73.17269
1023.191	49.12854
1023.556	92.21379
1023.92	88.21479
1024.285	76.18454
1024.649	52.12735
1025.014	91.22365
1025.378	61.15301
1025.742	43.10689
1026.107	69.15542
1026.471	94.21749
1026.835	48.11899
1027.199	33.07966
1027.562	64.14831
1027.926	64.15604
1028.29	43.10891
1028.654	71.16261
1029.017	63.15443
1029.381	44.10519
1029.744	61.15521
1030.107	81.19042
1030.471	77.18335
1030.834	91.20523
1031.197	106.25254
1031.56	36.08514
1031.923	45.1164
1032.286	81.18901
1032.648	85.20185
1033.011	27.06224
1033.374	91.21209
1033.736	22.05809
1034.099	71.1723
1034.461	27.06846
1034.823	38.09479
1035.185	47.11832
1035.548	63.15288
1035.91	76.18107
1036.272	77.17422
1036.634	111.26835
1036.995	88.20522
1037.357	37.09019
1037.719	81.19575
1038.08	77.18179
1038.442	56.1327
1038.803	67.16027
1039.165	16.0406
1039.526	50.12077
1039.887	60.14322
1040.248	28.06923
1040.609	93.22789
1040.97	73.17755
1041.331	79.19887
1041.692	41.09582
1042.053	73.16538
1042.413	81.18752
1042.774	93.22424
1043.134	77.18229
1043.495	108.26851
1043.855	67.16192
1044.215	62.15347
1044.576	-21.05087
1044.936	101.22909
1045.296	83.20579
1045.656	82.19993
1046.016	81.19428
1046.375	31.07543
1046.735	74.16686
1047.095	83.19292
1047.454	114.23807
1047.814	77.18405
1048.173	157.36721
1048.533	80.18208
1048.892	2.00484
1049.251	93.23151
1049.61	47.11572
1049.969	50.1178
1050.328	106.22696
1050.687	57.13843
1051.046	40.09753
1051.405	86.21241
1051.763	90.20517
1052.122	53.13203
1052.48	59.14436
1052.839	50.11757
1053.197	35.08257
1053.555	118.2652
1053.914	99.23979
1054.272	59.14232
1054.63	26.06382
1054.988	74.17488
1055.345	69.1479
1055.703	82.19604
1056.061	64.16414
1056.419	58.14984
1056.776	80.19279
1057.134	41.09503
1057.491	63.15729
1057.848	78.19308
1058.206	57.13379
1058.563	64.14059
1058.92	55.12657
1059.277	55.13547
1059.634	89.20768
1059.991	89.21151
1060.348	44.0995
1060.704	28.06697
1061.061	92.21185
1061.418	59.14275
1061.774	101.24685
1062.131	12.03191
1062.487	52.12146
1062.843	62.15415
1063.199	25.06242
1063.555	35.08129
1063.911	51.12871
1064.267	102.21017
1064.623	9.02201
1064.979	109.25515
1065.335	116.2736
1065.691	85.20224
1066.046	70.15318
1066.402	52.11802
1066.757	108.26958
1067.112	82.19993
1067.468	19.0451
1067.823	51.12251
1068.178	70.16856
1068.533	84.2022
1068.888	88.20861
1069.243	66.1623
1069.598	27.06584
1069.952	7.01589
1070.307	51.12613
1070.662	39.09272
1071.016	48.10752
1071.371	25.05712
1071.725	84.19951
1072.079	59.14156
1072.434	29.07069
1072.788	37.08827
1073.142	111.26977
1073.496	15.0358
1073.85	94.21593
1074.203	70.16907
1074.557	57.15129
1074.911	116.27318
1075.265	71.16424
1075.618	108.26066
1075.971	83.19604
1076.325	52.13201
1076.678	40.09159
1077.031	35.07939
1077.385	72.15776
1077.738	41.09266
1078.091	29.06618
1078.444	48.11141
1078.796	66.16134
1079.149	72.17823
1079.502	56.13204
1079.855	45.10497
1080.207	84.20549
1080.56	22.05709
1080.912	74.17921
1081.264	55.13222
1081.617	48.11694
1081.969	59.14847
1082.321	58.14131
1082.673	22.05046
1083.025	62.14664
1083.377	92.19554
1083.728	65.15108
1084.08	16.04016
1084.432	70.16805
1084.783	92.21362
1085.135	74.18452
1085.486	30.06886
1085.838	69.1692
1086.189	7.01711
1086.54	47.11221
1086.891	53.13385
1087.242	63.15288
1087.593	59.14329
1087.944	37.08389
1088.295	52.11807
1088.646	49.11869
1088.996	14.03393
1089.347	62.15167
1089.698	-8.0191
1090.048	84.21671
1090.398	110.25188
1090.749	66.1573
1091.099	8.02025
1091.449	85.21021
1091.799	51.12756
1092.149	16.03923
1092.499	73.17715
1092.849	68.17213
1093.199	67.16727
1093.548	49.11766
1093.898	80.1989
1094.248	50.12837
1094.597	-53.13761
1094.947	25.06691
1095.296	74.18177
1095.645	53.13766
1095.994	55.13187
1096.343	31.07821
1096.692	21.05539
1097.041	-6.01638
1097.39	87.21658
1097.739	64.1658
1098.088	82.21834
1098.437	8.02115
1098.785	88.23556
1099.134	111.29147
1099.482	82.22418
1099.83	78.20381
1100.179	12.03147
1100.527	52.138
1100.875	25.06631
1101.223	89.23457
1101.571	31.08584
1101.919	7.01841
1102.267	37.10428
1102.615	0
1102.962	24.07715
1103.31	1.00321
1103.658	16.0515
