Data from N2 R13 sample 10_Subt2__1__12-12-01-769.txt Node

Date: Tue Sep 02 12:12:01 PDT 2025
User: uwsun
Spectrometer: HDX01956
Trigger mode: 0
Integration Time (sec): 5.000000E-1
Scans to average: 1
Nonlinearity correction enabled: true
Boxcar width: 0
Storing dark spectrum: false
XAxis mode: Wavelengths
Number of Pixels in Spectrum: 2068
>>>>>Begin Spectral Data<<<<<
194.03	85.23545
194.578	85.26598
195.127	101.31068
195.676	104.32078
196.225	152.39295
196.773	143.38309
197.321	169.44089
197.87	308.71878
198.418	234.54654
198.966	173.41144
199.513	186.41956
200.061	195.44677
200.609	245.58937
201.156	191.3745
201.704	237.53513
202.251	185.44589
202.798	239.55877
203.345	289.63814
203.892	275.61763
204.438	314.66386
204.985	265.55401
205.532	291.68165
206.078	291.63422
206.624	266.5806
207.17	276.56945
207.716	222.48313
208.262	278.48273
208.808	215.47276
209.354	236.51316
209.899	292.66079
210.445	220.48975
210.99	207.44771
211.535	300.62453
212.08	266.55129
212.625	227.51277
213.17	263.59771
213.715	187.37169
214.259	286.59168
214.804	283.62489
215.348	311.62768
215.892	243.52309
216.436	293.60412
216.98	279.54964
217.524	247.52233
218.068	263.5948
218.612	267.6041
219.155	204.43433
219.698	236.50617
220.242	208.47301
220.785	239.5032
221.328	222.50198
221.871	271.62038
222.414	282.6314
222.956	173.3793
223.499	227.46067
224.041	288.60142
224.583	239.46729
225.126	234.46435
225.668	187.41414
226.21	206.47074
226.751	234.45762
227.293	220.45575
227.835	224.49411
228.376	279.57784
228.918	194.44849
229.459	210.47311
230	259.55274
230.541	247.51226
231.082	168.37229
231.622	231.48079
232.163	165.36496
232.704	229.51179
233.244	231.5169
233.784	236.52428
234.324	186.3672
234.864	176.36297
235.404	277.58961
235.944	227.48655
236.484	268.60105
237.023	234.49625
237.563	219.4548
238.102	236.50114
238.641	203.46603
239.18	226.47258
239.719	249.56177
240.258	254.51017
240.797	255.54397
241.335	228.50356
241.874	210.36
242.412	255.54656
242.95	197.42316
243.488	267.5416
244.026	239.49101
244.564	237.43396
245.102	270.53579
245.64	235.50979
246.177	246.49136
246.715	222.48025
247.252	239.49145
247.789	285.47275
248.326	211.45265
248.863	209.40922
249.4	254.51323
249.936	223.40771
250.473	252.52087
251.009	229.46622
251.546	253.49279
252.082	241.46852
252.618	258.50648
253.154	236.50398
253.69	249.49654
254.226	228.485
254.761	279.55042
255.297	233.45124
255.832	193.40939
256.367	256.53365
256.903	195.38217
257.438	255.53121
257.972	211.41861
258.507	218.4417
259.042	272.51732
259.576	251.47121
260.111	320.64481
260.645	259.49319
261.179	268.54823
261.713	253.49396
262.247	224.45884
262.781	240.44023
263.315	246.53149
263.849	239.52907
264.382	280.56447
264.915	264.54053
265.449	203.43605
265.982	258.51629
266.515	275.58739
267.048	256.47171
267.58	298.56705
268.113	195.37204
268.646	256.55475
269.178	192.37887
269.71	274.52087
270.243	254.50899
270.775	237.53251
271.307	262.55538
271.838	302.62702
272.37	244.52807
272.902	251.5003
273.433	273.51707
273.965	261.55604
274.496	231.50859
275.027	272.58891
275.558	260.55042
276.089	161.35016
276.62	288.64138
277.15	331.70608
277.681	239.454
278.211	307.65318
278.741	208.39964
279.272	288.56484
279.802	274.59654
280.332	259.52898
280.861	239.50275
281.391	269.5252
281.921	269.56411
282.45	277.60268
282.98	247.56453
283.509	302.57998
284.038	304.59142
284.567	306.61461
285.096	264.55253
285.625	239.46884
286.153	252.50895
286.682	265.5196
287.21	261.54081
287.739	296.59672
288.267	264.54861
288.795	261.59773
289.323	303.59805
289.851	306.60893
290.378	289.55032
290.906	239.49566
291.433	278.59393
291.961	264.50724
292.488	330.69493
293.015	251.50286
293.542	255.55199
294.069	301.6248
294.596	329.68841
295.122	296.59617
295.649	282.52432
296.175	317.64861
296.702	318.65021
297.228	335.68419
297.754	300.56252
298.28	297.56198
298.806	279.56413
299.332	306.55848
299.857	249.4723
300.383	367.77437
300.908	256.51988
301.433	340.68069
301.958	353.67318
302.483	310.6419
303.008	345.70749
303.533	351.76205
304.058	325.63514
304.582	308.59749
305.107	243.53343
305.631	294.55644
306.155	261.50256
306.679	296.56598
307.203	329.6201
307.727	293.57206
308.251	328.66458
308.775	302.58082
309.298	280.54655
309.822	295.61344
310.345	334.63927
310.868	315.60947
311.391	362.71937
311.914	335.67705
312.437	373.67751
312.96	275.52443
313.482	320.60684
314.005	323.6531
314.527	346.72926
315.049	328.66944
315.571	298.51939
316.093	429.82529
316.615	360.67937
317.137	378.63071
317.659	440.82669
318.18	387.72871
318.702	358.64381
319.223	361.55994
319.744	363.61984
320.265	345.64291
320.786	393.7371
321.307	369.7037
321.828	436.72993
322.348	376.66612
322.869	400.69869
323.389	251.29898
323.909	427.72015
324.43	448.80405
324.95	422.70029
325.47	395.71382
325.989	431.73085
326.509	460.70296
327.029	434.68569
327.548	403.63687
328.067	429.73022
328.587	418.7498
329.106	406.64587
329.625	486.92393
330.144	462.72828
330.662	379.6093
331.181	487.77016
331.7	483.76163
332.218	465.66127
332.736	497.77242
333.255	456.70471
333.773	474.74203
334.291	525.87493
334.808	485.688
335.326	507.72517
335.844	472.69142
336.361	477.77785
336.879	541.77047
337.396	517.77305
337.913	562.7715
338.43	541.72022
338.947	521.75084
339.464	553.66901
339.981	475.67551
340.497	562.83002
341.014	576.81807
341.53	492.63418
342.046	495.71511
342.562	589.85271
343.078	535.71269
343.594	650.84812
344.11	573.7563
344.626	489.7126
345.141	603.72283
345.657	561.68508
346.172	583.75817
346.687	613.72258
347.202	644.71559
347.717	677.81774
348.232	646.84403
348.747	575.66569
349.261	526.54769
349.776	591.69247
350.29	578.71222
350.805	702.85756
351.319	660.72778
351.833	629.64764
352.347	679.73459
352.861	700.72913
353.374	704.73153
353.888	655.73884
354.401	674.68083
354.915	695.6375
355.428	683.76351
355.941	685.67158
356.454	722.6735
356.967	738.73408
357.48	757.70545
357.993	727.76759
358.505	747.75283
359.018	864.82869
359.53	711.68771
360.042	814.64988
360.554	790.75055
361.066	723.69578
361.578	840.61151
362.09	803.71032
362.602	788.58062
363.113	801.64613
363.625	819.60149
364.136	871.59257
364.647	816.58482
365.158	839.62698
365.669	893.68776
366.18	852.63851
366.691	856.54101
367.201	840.63006
367.712	865.54978
368.222	884.55229
368.733	820.43829
369.243	940.4716
369.753	941.53856
370.263	886.55492
370.773	915.59691
371.282	894.50069
371.792	864.37517
372.301	950.46639
372.811	846.54884
373.32	1002.22422
373.829	1044.32785
374.338	1119.20865
374.847	1131.2034
375.356	1092.20745
375.865	1163.96991
376.373	1184.0055
376.882	1290.14818
377.39	1181.04541
377.898	1199.94255
378.407	1289.74543
378.915	1498.566
379.423	1425.63192
379.93	1498.49661
380.438	1525.44233
380.946	1664.27683
381.453	1622.25281
381.96	1791.09464
382.468	1808.04686
382.975	1962.97925
383.482	2038.98511
383.989	1907.00845
384.495	2033.06684
385.002	2168.36638
385.509	2348.41816
386.015	2548.27398
386.521	2624.3425
387.028	2735.99308
387.534	2753.58328
388.04	2823.52136
388.546	2829.85798
389.051	2920.38032
389.557	3044.87447
390.063	3712.05959
390.568	3463.40434
391.073	3639.73649
391.578	3809.53216
392.084	3716.84919
392.589	3831.47637
393.093	4120.15535
393.598	4564.36537
394.103	5064.34088
394.607	5683.40027
395.112	5979.87585
395.616	6130.90551
396.12	6219.29136
396.624	6854.33429
397.128	7807.06717
397.632	8411.36103
398.136	9200.31706
398.639	9389.55304
399.143	10403.99879
399.646	11571.82797
400.15	12088.97449
400.653	13688.50978
401.156	12478.8906
401.659	4699.87312
402.162	1054.15589
402.664	0
403.167	0
403.67	0
404.172	0
404.674	0
405.176	0
405.678	0
406.18	0
406.682	0
407.184	0
407.686	0
408.187	0
408.688	0
409.19	0
409.691	0
410.192	0
410.693	0
411.194	435.30976
411.694	4082.94878
412.195	8864.71461
412.696	12089.80453
413.196	12760.96929
413.696	12863.67595
414.196	13703.56671
414.696	17261.84252
415.196	21764.24417
415.696	22772.4038
416.196	16866.50583
416.695	13187.09335
417.195	11647.187
417.694	11486.17969
418.194	10576.69448
418.693	9709.36213
419.192	9738.71064
419.691	9638.68326
420.19	9470.46886
420.688	9294.94731
421.187	8773.23416
421.685	8268.70231
422.184	7134.16831
422.682	6069.79787
423.18	4957.15836
423.678	4485.6643
424.176	4242.63472
424.674	3968.41761
425.172	3866.68331
425.669	3594.06819
426.167	3404.10275
426.664	3010.34988
427.161	2765.26097
427.659	2564.44078
428.156	2443.46561
428.652	2243.97651
429.149	2229.95378
429.646	2138.96111
430.143	1994.96744
430.639	1960.99639
431.135	1663.22725
431.632	1652.23617
432.128	1499.42942
432.624	1379.5984
433.12	1342.49766
433.616	1351.51319
434.111	1222.66283
434.607	1259.73192
435.103	1211.72114
435.598	1162.76876
436.093	1105.99759
436.588	1128.01499
437.083	1002.10848
437.578	908.18768
438.073	710.26189
438.568	882.35703
439.062	842.20512
439.557	792.36407
440.051	768.31828
440.546	712.32349
441.04	747.41161
441.534	680.48207
442.028	790.48598
442.522	576.40148
443.015	606.34272
443.509	701.51669
444.002	585.45988
444.496	553.35171
444.989	626.50464
445.482	580.4979
445.975	551.38501
446.468	531.34702
446.961	550.36058
447.454	595.44314
447.947	485.41226
448.439	539.49598
448.931	498.39216
449.424	533.54349
449.916	429.42634
450.408	387.33664
450.9	432.42733
451.392	369.40931
451.884	381.36832
452.375	358.3911
452.867	412.39852
453.358	367.34986
453.849	382.33056
454.341	353.34653
454.832	459.39946
455.323	370.41663
455.814	416.42903
456.304	288.31653
456.795	331.35632
457.285	337.35991
457.776	394.43556
458.266	315.37005
458.756	312.38438
459.247	272.32935
459.737	204.25521
460.226	263.29912
460.716	198.25627
461.206	235.30782
461.695	219.31229
462.185	230.30035
462.674	309.38488
463.163	199.2452
463.653	238.26892
464.142	179.25106
464.63	215.31103
465.119	224.29669
465.608	202.27077
466.096	231.29114
466.585	276.37641
467.073	250.36382
467.561	147.22302
468.05	191.27562
468.538	225.34853
469.026	198.29978
469.513	186.23909
470.001	186.26464
470.489	120.18473
470.976	162.24262
471.463	172.28616
471.951	172.29121
472.438	99.15695
472.925	111.17446
473.412	102.17598
473.899	194.30042
474.385	197.33327
474.872	83.13531
475.359	81.1409
475.845	125.17677
476.331	138.21068
476.817	114.20141
477.303	103.17235
477.789	50.08917
478.275	57.105
478.761	63.11343
479.247	109.17949
479.732	75.13955
480.218	83.16436
480.703	72.13607
481.188	54.08672
481.673	78.13479
482.158	-15.02411
482.643	82.1628
483.128	40.06986
483.612	15.02744
484.097	60.11572
484.581	109.19635
485.066	-11.02133
485.55	10.0172
486.034	-38.06553
486.518	-2.00374
487.002	-15.02949
487.486	-32.0635
487.969	-41.08168
488.453	9.01861
488.936	-6.01096
489.42	5.009
489.903	-20.04195
490.386	-457.69236
490.869	31.05516
491.352	34.06917
491.835	48.08069
492.318	-10.01865
492.8	19.03221
493.283	-45.09646
493.765	-102.21452
494.247	-15.02972
494.73	-36.06707
495.212	-5.01029
495.694	-90.1796
496.175	-86.17329
496.657	-18.03635
497.139	11.01608
497.62	-105.21377
498.102	-61.12996
498.583	-55.11926
499.064	-54.10265
499.545	-8.01554
500.026	-39.07477
500.507	-34.06788
500.988	-44.09478
501.469	-79.17196
501.949	-23.0493
502.43	-93.19201
502.91	-109.19656
503.39	-52.11413
503.87	-68.13885
504.35	-31.06386
504.83	-53.10063
505.31	-76.16125
505.79	-127.26869
506.269	-51.10449
506.749	-121.24421
507.228	-120.24915
507.707	-76.14778
508.187	-41.08621
508.666	-113.24587
509.145	-121.25095
509.623	-95.19755
510.102	-69.14783
510.581	-55.11779
511.059	-105.2337
511.538	-66.15198
512.016	-89.18945
512.494	-87.18865
512.972	-106.22627
513.45	-134.27623
513.928	-58.12424
514.406	-203.44169
514.884	-110.2535
515.361	-107.22955
515.839	-106.21595
516.316	-99.21321
516.793	-92.20956
517.27	-75.16326
517.747	-103.23732
518.224	-140.29444
518.701	-93.18597
519.178	-179.40352
519.654	-84.18032
520.131	-124.27765
520.607	-112.25223
521.083	-147.30569
521.56	-105.22399
522.036	-136.2724
522.512	-101.22638
522.987	-142.30548
523.463	-104.22354
523.939	-93.20674
524.414	-90.18853
524.89	-78.16701
525.365	-71.14462
525.84	-162.35061
526.315	-96.2091
526.79	-72.14642
527.265	-139.29021
527.74	-119.26409
528.215	-126.2713
528.689	-131.265
529.164	-49.09585
529.638	-70.16318
530.112	-143.30836
530.587	-91.17531
531.061	-121.26574
531.534	-138.30811
532.008	-93.20287
532.482	-32.06614
532.956	-150.3505
533.429	-90.1987
533.903	-62.12453
534.376	-120.24336
534.849	-119.25331
535.322	-57.12186
535.795	-112.25109
536.268	-114.25094
536.741	-58.12655
537.213	-92.1946
537.686	-145.32501
538.158	-83.16852
538.631	-63.1397
539.103	-116.23783
539.575	-47.08893
540.047	-71.14218
540.519	-41.08894
540.991	-57.12718
541.463	-22.04808
541.934	-39.0807
542.406	-64.1384
542.877	-64.13134
543.348	-55.12094
543.82	-33.07342
544.291	28.05852
544.762	-48.10282
545.233	-6.01348
545.703	7.01378
546.174	13.02699
546.645	-28.05969
547.115	23.04919
547.585	28.05715
548.056	7.0149
548.526	2.00416
548.996	52.11009
549.466	122.25918
549.935	84.17176
550.405	127.23736
550.875	122.24776
551.344	104.21564
551.814	152.29768
552.283	216.39401
552.752	230.44383
553.221	185.33446
553.69	254.46427
554.159	204.41807
554.628	209.38617
555.096	288.60089
555.565	278.50763
556.033	318.61689
556.502	318.63724
556.97	348.63096
557.438	362.70695
557.906	451.86928
558.374	438.81645
558.842	481.92889
559.31	521.93007
559.777	544.04563
560.245	606.12421
560.712	640.15792
561.18	677.14264
561.647	697.19053
562.114	722.25088
562.581	875.61111
563.048	931.56254
563.514	968.72449
563.981	1064.70773
564.448	1084.68405
564.914	1162.85949
565.381	1283.92888
565.847	1361.07669
566.313	1446.13459
566.779	1549.11909
567.245	1536.22118
567.711	1675.39907
568.176	1648.15938
568.642	1882.70157
569.108	1943.66061
569.573	2144.59734
570.038	2163.15137
570.504	2229.38207
570.969	2374.93204
571.434	2482.31376
571.899	2523.69718
572.363	2693.49571
572.828	2852.52356
573.293	2887.5123
573.757	3031.4918
574.222	2998.33005
574.686	3138.31051
575.15	3201.61576
575.614	3362.37811
576.078	3325.51008
576.542	3477.30886
577.006	3446.25699
577.469	3521.80544
577.933	3507.17628
578.396	3583.51934
578.86	3558.47544
579.323	3494.54265
579.786	3547.00087
580.249	3485.29339
580.712	3468.73512
581.175	3401.79684
581.637	3450.42066
582.1	3353.20264
582.563	3347.10263
583.025	3245.73893
583.487	3187.84121
583.95	3072.14869
584.412	3145.0585
584.874	3101.78907
585.336	3011.67418
585.797	2964.23262
586.259	2990.68212
586.721	2880.64135
587.182	2885.67025
587.643	2850.50604
588.105	2739.71272
588.566	2741.18221
589.027	2585.77011
589.488	2659.53938
589.949	2621.83286
590.41	2602.86138
590.87	2669.56258
591.331	2556.31563
591.791	2511.5768
592.252	2596.52696
592.712	2570.78984
593.172	2666.47566
593.632	2671.37853
594.092	2679.43912
594.552	2725.27681
595.011	2687.54933
595.471	2739.44988
595.931	2798.42231
596.39	2815.7613
596.849	2932.61679
597.308	2951.28885
597.768	3051.08096
598.227	3179.76644
598.685	3353.47657
599.144	3386.53488
599.603	3527.56619
600.062	3562.88535
600.52	3843.06286
600.978	3991.36587
601.437	4115.10224
601.895	4269.57728
602.353	4511.70249
602.811	4634.61958
603.269	4877.93148
603.727	5073.81965
604.184	5295.32437
604.642	5563.71047
605.099	5888.25896
605.557	6116.47561
606.014	6229.79671
606.471	6584.47888
606.928	6867.81208
607.385	7144.38052
607.842	7476.32854
608.299	7646.51581
608.755	7832.75815
609.212	8137.88483
609.668	8407.25818
610.125	8723.87871
610.581	8921.22443
611.037	9038.44722
611.493	9395.25237
611.949	9364.17194
612.405	9695.39801
612.861	9943.77174
613.316	9996.92296
613.772	10262.91538
614.227	10230.72344
614.683	10343.44113
615.138	10398.34761
615.593	10635.28446
616.048	10573.0745
616.503	10682.21744
616.958	10438.25889
617.412	10708.48523
617.867	10570.22755
618.321	10527.29957
618.776	10449.70427
619.23	10407.3324
619.684	10185.64352
620.138	10291.92468
620.592	10134.28283
621.046	9976.84823
621.5	9953.71798
621.954	9734.18792
622.407	9580.77067
622.861	9498.48182
623.314	9248.90989
623.768	9065.51145
624.221	8961.33009
624.674	8717.85552
625.127	8627.73176
625.58	8445.42842
626.033	8241.0979
626.485	7992.01215
626.938	7872.90785
627.39	7761.74601
627.843	7604.62539
628.295	7349.49228
628.747	7220.57117
629.199	7007.32011
629.651	6879.29595
630.103	6753.33172
630.555	6454.97772
631.006	6483.49277
631.458	6292.56346
631.909	6141.48621
632.361	5856.66136
632.812	5797.61839
633.263	5631.31002
633.714	5632.28688
634.165	5412.16329
634.616	5282.09992
635.067	5226.71287
635.518	5094.24963
635.968	5047.25908
636.419	4853.80245
636.869	4781.42676
637.319	4736.25068
637.769	4578.12926
638.219	4695.53377
638.669	4375.67766
639.119	4381.85777
639.569	4238.84379
640.019	4356.51337
640.468	4191.37771
640.918	4192.8897
641.367	4112.45426
641.816	4045.47427
642.265	4099.66294
642.714	4029.70237
643.163	3993.68336
643.612	3905.98419
644.061	3833.25022
644.51	3871.6789
644.958	3913.44392
645.406	3799.03306
645.855	3839.20214
646.303	3846.88669
646.751	3727.74263
647.199	3861.69691
647.647	3716.82747
648.095	3800.77195
648.543	3765.16171
648.99	3735.07093
649.438	3703.00052
649.885	3733.33534
650.333	3718.90118
650.78	3674.1801
651.227	3714.2191
651.674	3753.77778
652.121	3727.22577
652.568	3722.21083
653.015	3744.51517
653.461	3594.11607
653.908	3700.95778
654.354	3626.15199
654.801	3719.9861
655.247	3670.61718
655.693	3691.76951
656.139	3682.1637
656.585	3577.20502
657.031	3649.97613
657.477	3613.53842
657.922	3676.90181
658.368	3722.37255
658.813	3742.97475
659.259	3660.19018
659.704	3663.9955
660.149	3659.00266
660.594	3713.11181
661.039	3618.87997
661.484	3715.17449
661.929	3790.99749
662.373	3599.57527
662.818	3676.44273
663.262	3661.23379
663.707	3712.5957
664.151	3723.33302
664.595	3676.25102
665.039	3655.49352
665.483	3699.64481
665.927	3783.07242
666.371	3762.93702
666.814	3771.17688
667.258	3689.11743
667.701	3834.5206
668.145	3759.4849
668.588	3781.36992
669.031	3690.08698
669.474	3652.28067
669.917	3819.68544
670.36	3775.45415
670.803	3843.24584
671.245	3825.38976
671.688	3782.34696
672.13	3712.79412
672.573	3781.65256
673.015	3787.23261
673.457	3771.60693
673.899	3781.305
674.341	3815.26185
674.783	3814.2087
675.225	3852.38197
675.666	3756.24081
676.108	3809.58776
676.549	3890.1173
676.991	3817.67551
677.432	3823.09053
677.873	3856.97109
678.314	3870.17892
678.755	3859.31372
679.196	3900.88039
679.637	3856.3605
680.078	3784.08867
680.518	3964.99267
680.959	3838.21945
681.399	3885.45051
681.839	3826.34
682.28	3805.43844
682.72	3770.93663
683.16	3760.5244
683.6	3760.93506
684.039	3805.36492
684.479	3809.40288
684.919	3675.00785
685.358	3913.63267
685.798	3857.9012
686.237	3781.32472
686.676	3774.05093
687.115	3766.12588
687.554	3902.14357
687.993	3801.72553
688.432	3816.92105
688.871	3737.9004
689.309	3802.22155
689.748	3832.38388
690.186	3831.2249
690.625	3762.10795
691.063	3709.28462
691.501	3803.47624
691.939	3764.54596
692.377	3767.38595
692.815	3791.23397
693.253	3754.30026
693.69	3808.68208
694.128	3701.35407
694.565	3717.25138
695.003	3799.67594
695.44	3747.13556
695.877	3747.08858
696.314	3794.56769
696.751	3842.91593
697.188	3720.99391
697.625	3824.97023
698.061	3728.28388
698.498	3811.32833
698.934	3702.32586
699.371	3690.16375
699.807	3774.1758
700.243	3792.28422
700.679	3741.90429
701.115	3826.13683
701.551	3723.16896
701.987	3767.8533
702.422	3680.23041
702.858	3768.2254
703.294	3782.89088
703.729	3732.43121
704.164	3772.29688
704.599	3747.79367
705.035	3602.86967
705.47	3697.38884
705.904	3715.08913
706.339	3782.0728
706.774	3714.12796
707.209	3708.02322
707.643	3698.30766
708.078	3618.42596
708.512	3646.60248
708.946	3776.273
709.38	3707.21316
709.814	3643.99978
710.248	3704.41186
710.682	3645.25259
711.116	3558.28634
711.549	3622.8597
711.983	3552.0914
712.416	3633.22616
712.85	3586.60625
713.283	3549.25091
713.716	3644.65648
714.149	3585.29783
714.582	3477.93668
715.015	3557.65178
715.448	3460.71458
715.881	3480.79039
716.313	3444.21145
716.746	3439.23914
717.178	3330.40084
717.61	3395.76772
718.043	3356.64876
718.475	3276.46622
718.907	3350.76752
719.339	3305.02818
719.77	3218.3188
720.202	3228.75806
720.634	3110.49528
721.065	3229.32505
721.497	3068.55141
721.928	3066.55643
722.359	2991.43446
722.79	2974.39516
723.221	3030.72836
723.652	3008.89977
724.083	2849.05229
724.514	2839.15865
724.945	2809.28219
725.375	2820.2018
725.806	2722.63207
726.236	2709.78837
726.666	2647.30249
727.096	2673.51272
727.526	2656.71032
727.956	2662.07872
728.386	2582.508
728.816	2440.60363
729.246	2481.39237
729.675	2464.4564
730.105	2423.44843
730.534	2400.1717
730.964	2354.56599
731.393	2351.47193
731.822	2311.59581
732.251	2297.55137
732.68	2250.15155
733.109	2191.33421
733.537	2176.22391
733.966	2167.35813
734.395	2100.97702
734.823	2068.86383
735.251	2053.13854
735.68	2021.30603
736.108	2013.34488
736.536	1935.96968
736.964	1848.83674
737.392	1872.17614
737.82	1863.98878
738.247	1850.97016
738.675	1818.93774
739.102	1718.0212
739.53	1674.054
739.957	1695.12093
740.384	1624.88385
740.811	1628.99147
741.238	1594.80572
741.665	1542.56848
742.092	1478.60721
742.519	1406.63728
742.945	1438.57688
743.372	1401.63491
743.798	1395.75746
744.225	1271.34439
744.651	1315.56778
745.077	1285.50674
745.503	1299.45918
745.929	1249.34255
746.355	1241.44235
746.781	1225.40518
747.207	1014.95571
747.632	1096.16905
748.058	1126.28023
748.483	1114.05343
748.908	1066.17617
749.334	1054.12839
749.759	1021.98004
750.184	942.88173
750.609	995.03787
751.033	959.89585
751.458	976.80689
751.883	939.96783
752.307	879.75778
752.732	776.69569
753.156	837.78478
753.58	826.69091
754.005	822.81514
754.429	762.56187
754.853	736.60823
755.277	739.53479
755.7	730.60049
756.124	661.46945
756.548	719.50117
756.971	672.46581
757.394	659.52781
757.818	649.50521
758.241	641.46612
758.664	604.38446
759.087	589.18427
759.51	548.25094
759.933	572.25219
760.356	535.26354
760.778	539.21628
761.201	567.25871
761.623	538.19845
762.046	549.19191
762.468	528.16643
762.89	527.19786
763.312	446.01818
763.734	450.01081
764.156	479.0987
764.578	443.95315
765	476.07893
765.421	397.95346
765.843	450.10522
766.264	414.94289
766.686	400.95062
767.107	383.87953
767.528	322.7794
767.949	345.83867
768.37	365.85227
768.791	391.89538
769.212	319.76851
769.632	327.72867
770.053	313.79291
770.473	301.70507
770.894	337.80787
771.314	361.82105
771.734	288.64749
772.154	333.81919
772.575	301.67158
772.994	229.50757
773.414	312.7201
773.834	269.65151
774.254	246.58583
774.673	278.6549
775.093	215.52035
775.512	229.55026
775.931	218.54038
776.351	207.50344
776.77	231.55043
777.189	268.61708
777.607	216.53934
778.026	252.60954
778.445	155.38318
778.864	240.59947
779.282	241.5641
779.701	199.49194
780.119	165.41118
780.537	174.42754
780.955	219.54455
781.373	172.41919
781.791	158.35086
782.209	187.42379
782.627	158.41086
783.045	187.42259
783.462	136.34438
783.88	156.39839
784.297	178.44043
784.715	163.41253
785.132	124.29837
785.549	129.32019
785.966	156.38742
786.383	113.27669
786.8	173.39573
787.217	140.3288
787.633	99.24636
788.05	161.37775
788.466	164.3817
788.883	110.27904
789.299	142.33857
789.715	128.30881
790.131	150.36857
790.547	159.39177
790.963	135.33202
791.379	117.2939
791.795	158.35596
792.21	173.39796
792.626	127.29914
793.041	81.20003
793.457	127.31143
793.872	122.28496
794.287	48.11532
794.702	129.31527
795.117	81.2012
795.532	141.34934
795.947	123.29411
796.362	139.32881
796.776	195.44767
797.191	107.26073
797.605	17.04042
798.02	66.1611
798.434	127.28079
798.848	88.21639
799.262	78.1935
799.676	106.25757
800.09	92.22589
800.504	100.2419
800.918	101.23327
801.331	145.37569
801.745	115.26264
802.158	95.23675
802.572	122.29378
802.985	99.23862
803.398	123.29107
803.811	123.31373
804.224	147.3614
804.637	64.15295
805.05	93.21522
805.462	84.20625
805.875	85.21978
806.288	70.16907
806.7	70.17612
807.112	93.21522
807.525	82.20223
807.937	65.16099
808.349	96.23963
808.761	79.1943
809.173	82.19858
809.584	113.27751
809.996	78.19088
810.408	98.25169
810.819	171.39493
811.231	119.30481
811.642	79.18818
812.053	110.25986
812.464	87.20644
812.875	84.21422
813.286	107.27369
813.697	180.41282
814.108	92.22414
814.519	68.15201
814.929	118.29859
815.34	103.24854
815.75	76.19293
816.16	114.28208
816.571	92.23809
816.981	80.18884
817.391	73.17635
817.801	76.18861
818.211	87.207
818.62	86.20654
819.03	67.16442
819.44	96.24964
819.849	110.27527
820.259	91.23212
820.668	84.2061
821.077	56.13943
821.486	69.16638
821.895	101.24831
822.304	87.22976
822.713	94.22137
823.122	33.08293
823.531	91.21501
823.939	78.18982
824.348	61.14864
824.756	85.21237
825.164	72.18116
825.573	50.12589
825.981	99.2443
826.389	101.25234
826.797	87.21721
827.205	73.16753
827.612	60.14836
828.02	44.10386
828.428	83.21081
828.835	77.20226
829.243	102.24171
829.65	50.12472
830.057	64.15552
830.464	44.10772
830.871	75.17947
831.278	59.14291
831.685	65.14533
832.092	70.17137
832.499	91.19834
832.905	79.19959
833.312	114.25789
833.718	90.22335
834.124	28.06455
834.531	67.16891
834.937	59.15161
835.343	112.26806
835.749	81.18886
836.155	58.15202
836.561	51.1258
836.966	86.2096
837.372	78.19808
837.777	67.16685
838.183	86.19066
838.588	70.17366
838.993	82.1991
839.399	58.14199
839.804	-14.03462
840.209	39.09969
840.613	62.13814
841.018	35.08909
841.423	67.17174
841.828	67.16933
842.232	59.14634
842.637	78.18362
843.041	-2.00518
843.445	72.18031
843.849	48.11917
844.253	66.15688
844.657	69.17351
845.061	124.27811
845.465	73.17602
845.869	54.12578
846.272	25.06131
846.676	60.14525
847.079	47.1198
847.483	73.18179
847.886	145.34751
848.289	42.11239
848.692	66.16701
849.095	78.18683
849.498	125.31332
849.901	65.14911
850.304	53.12693
850.707	87.22082
851.109	60.15188
851.512	63.15478
851.914	41.10366
852.316	88.22149
852.718	43.1113
853.121	63.15432
853.523	69.16107
853.925	47.12283
854.326	31.0779
854.728	40.1032
855.13	14.03638
855.531	71.16932
855.933	107.25468
856.334	49.12238
856.736	33.07436
857.137	39.09108
857.538	57.14334
857.939	55.13597
858.34	117.28211
858.741	44.11528
859.142	86.2056
859.542	50.13207
859.943	46.11458
860.343	17.04241
860.744	58.14157
861.144	95.23019
861.544	4.00971
861.945	49.12507
862.345	89.21647
862.745	98.24178
863.145	71.16938
863.544	78.19639
863.944	59.13941
864.344	96.23685
864.743	57.14148
865.143	66.16927
865.542	39.09083
865.941	76.18751
866.34	106.25167
866.74	54.14498
867.139	58.13887
867.537	54.13767
867.936	80.19177
868.335	55.13999
868.734	79.20108
869.132	47.10946
869.531	91.21876
869.929	40.09152
870.327	44.10575
870.726	114.28136
871.124	73.17014
871.522	103.26022
871.92	97.23751
872.318	115.27813
872.715	106.26008
873.113	57.1389
873.511	30.0751
873.908	17.04321
874.306	46.11462
874.703	77.19196
875.1	59.15086
875.497	86.20505
875.894	35.08608
876.291	78.19067
876.688	40.10345
877.085	92.21927
877.482	47.11785
877.878	58.13956
878.275	69.17488
878.671	94.20779
879.068	75.18043
879.464	70.16876
879.86	34.08076
880.256	117.28552
880.652	48.12224
881.048	63.15592
881.444	60.14273
881.84	63.1599
882.236	69.17308
882.631	55.13502
883.027	66.15953
883.422	36.09236
883.817	32.08075
884.213	32.08244
884.608	4.0099
885.003	33.0799
885.398	40.10039
885.793	51.12811
886.188	53.13179
886.582	74.18919
886.977	101.23762
887.371	62.15661
887.766	10.02507
888.16	79.1963
888.554	68.16777
888.949	95.23683
889.343	95.23037
889.737	-14.03772
890.131	43.10809
890.525	76.19362
890.918	48.12094
891.312	106.25118
891.706	67.1754
892.099	122.30673
892.492	83.17806
892.886	55.13457
893.279	41.10469
893.672	52.13243
894.065	69.17233
894.458	71.17803
894.851	104.25252
895.244	44.11257
895.637	58.13961
896.029	59.14414
896.422	76.18495
896.814	49.12194
897.206	29.0694
897.599	70.17264
897.991	29.07046
898.383	37.08773
898.775	66.14864
899.167	34.0796
899.559	82.20654
899.951	60.1413
900.342	86.21747
900.734	21.05241
901.125	67.1754
901.517	76.18578
901.908	107.25399
902.299	59.14409
902.69	26.06168
903.082	60.14514
903.473	39.09365
903.863	32.08195
904.254	9.02108
904.645	102.25147
905.036	22.05358
905.426	87.19789
905.817	61.14947
906.207	29.06942
906.597	48.11238
906.987	85.2191
907.378	101.25325
907.768	45.11912
908.158	62.15094
908.547	34.08811
908.937	72.18414
909.327	91.21942
909.717	70.1772
910.106	27.06518
910.495	98.24267
910.885	58.14677
911.274	60.14977
911.663	70.17713
912.052	101.24703
912.441	48.12216
912.83	63.14435
913.219	87.22635
913.608	76.18537
913.997	62.15516
914.385	77.18313
914.774	82.19858
915.162	44.10503
915.55	43.10423
915.939	52.13126
916.327	90.22311
916.715	40.10216
917.103	79.19351
917.491	116.28366
917.878	74.18123
918.266	72.18607
918.654	35.08968
919.041	53.13832
919.429	25.05932
919.816	59.14938
920.203	42.10206
920.591	55.13632
920.978	67.16363
921.365	74.19342
921.752	53.12634
922.139	42.09141
922.525	55.13202
922.912	64.15575
923.299	40.09963
923.685	38.09936
924.072	105.23961
924.458	46.11408
924.844	42.10412
925.231	29.0678
925.617	31.07913
926.003	43.11007
926.389	59.14863
926.774	27.06872
927.16	83.20496
927.546	11.02828
927.931	54.1347
928.317	82.18777
928.702	74.17434
929.088	19.04522
929.473	27.06899
929.858	-3.00733
930.243	54.12954
930.628	46.11203
931.013	42.10427
931.398	100.22778
931.783	69.18112
932.167	69.16814
932.552	76.18957
932.937	96.23633
933.321	27.06804
933.705	55.13856
934.09	114.28487
934.474	104.24454
934.858	41.10653
935.242	25.05825
935.626	51.13055
936.009	51.13564
936.393	57.14488
936.777	49.12551
937.16	79.20455
937.544	74.17359
937.927	69.17451
938.311	72.17509
938.694	64.16888
939.077	18.04336
939.46	108.26243
939.843	107.22052
940.226	3.00776
940.609	40.09203
940.991	47.11972
941.374	40.09796
941.757	60.14781
942.139	61.13673
942.522	76.17877
942.904	70.16767
943.286	87.21964
943.668	69.17817
944.05	110.26799
944.432	60.14781
944.814	81.19841
945.196	30.07339
945.578	-39.09429
945.959	54.12648
946.341	112.27184
946.722	48.11273
947.104	68.16201
947.485	91.21009
947.866	16.04056
948.247	47.11866
948.628	68.16536
949.009	51.13059
949.39	87.21516
949.771	94.2168
950.152	45.11055
950.532	3.00744
950.913	89.21314
951.293	22.0597
951.674	40.09694
952.054	40.0993
952.434	65.16093
952.814	97.22875
953.194	92.23908
953.574	99.24169
953.954	72.17029
954.334	51.1271
954.714	39.09525
955.093	100.24363
955.473	48.12008
955.853	79.20349
956.232	92.25047
956.611	60.14366
956.99	86.21475
957.37	84.21279
957.749	68.1617
958.128	45.11349
958.506	54.13999
958.885	48.1212
959.264	-9.0223
959.643	34.07764
960.021	44.10916
960.4	43.09761
960.778	93.22729
961.156	38.09547
961.535	80.18539
961.913	116.26796
962.291	43.11045
962.669	48.12164
963.047	15.03852
963.424	32.08193
963.802	35.0863
964.18	77.19391
964.557	64.14702
964.935	84.19774
965.312	66.17139
965.69	91.2262
966.067	70.16984
966.444	82.20089
966.821	72.18491
967.198	62.15009
967.575	67.16424
967.952	47.11084
968.329	69.16732
968.705	40.08598
969.082	102.25921
969.458	24.05786
969.835	93.22458
970.211	31.07982
970.587	71.1761
970.963	82.2092
971.339	66.17187
971.715	65.16187
972.091	71.17417
972.467	82.20335
972.843	32.07968
973.219	105.24953
973.594	27.0709
973.97	107.25194
974.345	34.08163
974.721	60.14503
975.096	39.09457
975.471	77.18172
975.846	56.13439
976.221	24.06123
976.596	44.10559
976.971	83.20368
977.346	71.16463
977.72	82.20772
978.095	62.1599
978.469	111.26186
978.844	126.31246
979.218	31.07458
979.593	60.1435
979.967	52.12664
980.341	49.11286
980.715	54.13596
981.089	67.16721
981.463	76.17361
981.837	33.08089
982.21	64.14855
982.584	47.11359
982.957	38.0951
983.331	97.22724
983.704	66.1617
984.078	34.08404
984.451	84.20854
984.824	31.07577
985.197	75.18132
985.57	66.16505
985.943	95.2327
986.316	76.18585
986.688	100.23889
987.061	54.12648
987.434	40.10441
987.806	69.16675
988.179	31.07342
988.551	59.14943
988.923	26.06431
989.295	92.22815
989.667	14.03367
990.039	66.1626
990.411	65.14917
990.783	52.11969
991.155	43.10345
991.527	114.27742
991.898	16.04011
992.27	61.15058
992.641	96.23885
993.012	68.15946
993.384	94.22232
993.755	31.0793
994.126	47.11311
994.497	54.13244
994.868	64.14661
995.239	59.14275
995.61	31.07826
995.98	60.14547
996.351	69.17027
996.722	46.10677
997.092	42.0996
997.462	18.04231
997.833	62.14664
998.203	79.19049
998.573	60.14912
998.943	36.08465
999.313	29.06977
999.683	47.11286
1000.053	55.12642
1000.423	80.1933
1000.792	58.1501
1001.162	74.1813
1001.531	63.15495
1001.901	59.14682
1002.27	58.12944
1002.639	36.0922
1003.009	31.07398
1003.378	78.19843
1003.747	34.08057
1004.116	20.04812
1004.485	20.04807
1004.853	60.15172
1005.222	59.14853
1005.591	77.18187
1005.959	34.07685
1006.328	60.13474
1006.696	45.10863
1007.064	70.17543
1007.433	101.25005
1007.801	61.14942
1008.169	73.18357
1008.537	69.15217
1008.905	50.11647
1009.273	105.25672
1009.64	45.10744
1010.008	83.19657
1010.375	114.27347
1010.743	114.25988
1011.11	76.17891
1011.478	56.13842
1011.845	35.08254
1012.212	69.15555
1012.579	56.1373
1012.946	83.19626
1013.313	102.2403
1013.68	102.22679
1014.047	-13.03135
1014.414	12.02855
1014.78	92.22681
1015.147	98.23482
1015.513	38.09175
1015.88	115.29064
1016.246	38.09399
1016.612	54.1235
1016.978	44.10792
1017.344	47.11619
1017.71	94.2273
1018.076	93.21744
1018.442	69.17687
1018.808	61.15213
1019.174	10.02526
1019.539	117.2657
1019.905	30.07101
1020.27	39.09642
1020.636	46.11035
1021.001	48.11493
1021.366	33.07948
1021.731	71.18187
1022.096	31.07843
1022.461	77.18123
1022.826	96.22608
1023.191	56.14672
1023.556	79.18405
1023.92	66.16176
1024.285	74.17975
1024.649	48.11764
1025.014	69.17027
1025.378	86.21475
1025.742	49.12167
1026.107	85.19084
1026.471	97.2243
1026.835	50.1239
1027.199	27.06525
1027.562	62.14374
1027.926	64.15604
1028.29	37.09381
1028.654	70.16035
1029.017	73.17861
1029.381	42.10045
1029.744	25.06402
1030.107	56.13229
1030.471	64.15277
1030.834	33.07531
1031.197	104.24787
1031.56	54.12727
1031.923	50.12922
1032.286	68.15908
1032.648	101.2391
1033.011	27.06224
1033.374	73.17075
1033.736	28.07386
1034.099	26.06363
1034.461	19.04824
1034.823	87.21508
1035.185	55.13826
1035.548	69.16726
1035.91	71.16932
1036.272	117.26257
1036.634	87.21128
1036.995	39.09183
1037.357	36.08777
1037.719	35.08532
1038.08	99.23274
1038.442	65.15376
1038.803	67.16027
1039.165	73.18338
1039.526	114.27202
1039.887	91.21593
1040.248	37.09134
1040.609	93.22789
1040.97	56.13664
1041.331	69.17401
1041.692	64.1489
1042.053	85.19209
1042.413	78.18069
1042.774	74.17907
1043.134	91.21485
1043.495	80.19991
1043.855	93.22365
1044.215	102.25063
1044.576	26.06242
1044.936	109.24683
1045.296	108.26655
1045.656	60.14689
1046.016	96.22959
1046.375	46.11161
1046.735	34.07729
1047.095	82.19063
1047.454	47.09961
1047.814	74.17698
1048.173	107.25272
1048.533	44.10087
1048.892	44.10567
1049.251	94.23396
1049.61	31.07655
1049.969	68.15964
1050.328	69.14892
1050.687	96.23143
1051.046	93.2245
1051.405	55.13662
1051.763	29.06693
1052.122	66.16403
1052.48	93.22611
1052.839	33.07785
1053.197	69.16171
1053.555	75.17004
1053.914	79.19207
1054.272	119.28378
1054.63	40.09793
1054.988	51.12106
1055.345	63.13521
1055.703	92.21952
1056.061	37.09534
1056.419	76.19573
1056.776	81.19516
1057.134	14.03262
1057.491	33.08284
1057.848	97.23927
1058.206	40.0942
1058.563	54.11887
1058.92	63.14475
1059.277	76.18647
1059.634	66.15471
1059.991	43.1031
1060.348	31.07029
1060.704	35.0836
1061.061	129.29485
1061.418	51.12358
1061.774	56.13801
1062.131	31.08217
1062.487	67.15604
1062.843	25.06257
1063.199	98.24143
1063.555	32.07436
1063.911	94.2354
1064.267	104.21419
1064.623	29.07067
1064.979	91.21376
1065.335	89.21102
1065.691	80.19052
1066.046	3.00666
1066.402	12.02746
1066.757	71.17842
1067.112	98.23822
1067.468	42.09926
1067.823	37.08912
1068.178	114.27223
1068.533	77.1856
1068.888	70.16652
1069.243	54.13308
1069.598	74.17887
1069.952	32.07227
1070.307	32.07941
1070.662	45.10686
1071.016	10.02258
1071.371	61.13836
1071.725	95.22516
1072.079	69.16524
1072.434	56.13582
1072.788	91.21485
1073.142	88.21479
1073.496	43.10207
1073.85	88.20239
1074.203	73.17622
1074.557	42.11176
1074.911	99.23392
1075.265	47.10924
1075.618	84.20365
1075.971	74.17508
1076.325	15.03833
1076.678	27.06199
1077.031	24.05456
1077.385	56.12312
1077.738	27.06119
1078.091	37.0843
1078.444	115.26338
1078.796	31.07627
1079.149	76.18799
1079.502	22.05221
1079.855	17.03987
1080.207	98.23911
1080.56	62.15979
1080.912	57.13848
1081.264	21.05081
1081.617	57.13864
1081.969	8.02032
1082.321	53.12924
1082.673	10.02299
1083.025	55.13026
1083.377	78.16629
1083.728	76.17626
1084.08	61.15185
1084.432	16.03881
1084.783	100.23183
1085.135	51.1277
1085.486	39.08936
1085.838	38.09372
1086.189	56.13567
1086.54	96.22705
1086.891	35.08868
1087.242	54.13127
1087.593	90.2173
1087.944	43.09737
1088.295	63.14272
1088.646	59.14264
1088.996	60.14415
1089.347	39.09581
1089.698	43.10168
1090.048	95.24462
1090.398	44.10209
1090.749	76.18079
1091.099	29.07314
1091.449	72.17849
1091.799	48.12012
1092.149	25.06119
1092.499	-6.01478
1092.849	82.20706
1093.199	62.15493
1093.548	86.20505
1093.898	87.21602
1094.248	62.15884
1094.597	14.03593
1094.947	64.17018
1095.296	78.19145
1095.645	72.1864
1095.994	47.11286
1096.343	87.21728
1096.692	14.03697
1097.041	43.11645
1097.39	88.21903
1097.739	83.21432
1098.088	86.22884
1098.437	23.06064
1098.785	82.21971
1099.134	93.24495
1099.482	60.16461
1099.83	90.23468
1100.179	47.12254
1100.527	77.20349
1100.875	59.15561
1101.223	29.07721
1101.571	33.09135
1101.919	-3.0079
1102.267	40.11269
1102.615	0
1102.962	19.06111
1103.31	0
1103.658	14.04508
