Data from N2 R13 sample 4_Subt2__4__12-17-33-764.txt Node

Date: Tue Sep 02 12:17:33 PDT 2025
User: uwsun
Spectrometer: HDX01956
Trigger mode: 0
Integration Time (sec): 5.000000E-1
Scans to average: 1
Nonlinearity correction enabled: true
Boxcar width: 0
Storing dark spectrum: false
XAxis mode: Wavelengths
Number of Pixels in Spectrum: 2068
>>>>>Begin Spectral Data<<<<<
194.03	5.01402
194.578	21.06624
195.127	10.03112
195.676	4.0125
196.225	79.20681
196.773	29.07914
197.321	92.24317
197.87	102.24766
198.418	126.30053
198.966	54.13136
199.513	5.01169
200.061	-3.00715
200.609	90.22286
201.156	30.06106
201.704	27.06357
202.251	66.16266
202.798	97.23309
203.345	100.22953
203.892	114.2645
204.438	109.24079
204.985	62.13545
205.532	86.20952
206.078	125.28202
206.624	79.17926
207.17	131.27909
207.716	107.23855
208.262	94.1712
208.808	51.11601
209.354	50.11302
209.899	146.34021
210.445	51.11751
210.99	26.05841
211.535	126.27246
212.08	108.23174
212.625	80.18613
213.17	79.18623
213.715	23.04747
214.259	88.19013
214.804	68.1569
215.348	94.19918
215.892	101.22405
216.436	145.30892
216.98	158.32013
217.524	60.13208
218.068	102.23825
218.612	107.24997
219.155	69.15122
219.698	76.16863
220.242	93.21641
220.785	91.19783
221.328	92.21354
221.871	86.20418
222.414	69.16126
222.956	48.10801
223.499	84.17604
224.041	70.15325
224.583	109.21969
225.126	68.14018
225.668	30.06861
226.21	77.18052
226.751	86.17409
227.293	111.23556
227.835	52.11883
228.376	145.30932
228.918	132.30892
229.459	86.19866
230	86.19042
230.541	73.15728
231.082	87.19605
231.622	72.15516
232.163	43.09753
232.704	52.12046
233.244	56.12983
233.784	79.18122
234.324	6.01235
234.864	77.16233
235.404	93.20588
235.944	74.16385
236.484	118.2728
237.023	88.19257
237.563	78.16708
238.102	105.22934
238.641	95.22281
239.18	-12.02642
239.719	79.18442
240.258	79.16509
240.797	84.18584
241.335	92.20897
241.874	73.12975
242.412	82.18232
242.95	12.0268
243.488	55.11697
244.026	41.088
244.564	123.23171
245.102	129.26443
245.64	106.23627
246.177	53.11061
246.715	96.21327
247.252	134.28207
247.789	125.21652
248.326	77.16996
248.863	82.16538
249.4	98.20511
249.936	84.15898
250.473	80.17173
251.009	57.12059
251.546	42.08592
252.082	118.23613
252.618	65.13342
253.154	98.21554
253.69	82.16987
254.226	88.1929
254.761	98.20156
255.297	72.14481
255.832	74.16105
256.367	76.16477
256.903	94.18863
257.438	122.26167
257.972	42.08662
258.507	65.13631
259.042	102.20203
259.576	83.16228
260.111	72.15336
260.645	114.22474
261.179	38.08179
261.713	97.1964
262.247	110.23114
262.781	88.16761
263.315	79.17678
263.849	76.17396
264.382	69.14585
264.915	71.15172
265.449	23.05132
265.982	105.21757
266.515	104.23037
267.048	103.19709
267.58	169.33168
268.113	32.06347
268.646	71.15993
269.178	60.12207
269.71	132.25962
270.243	104.21564
270.775	87.20149
271.307	108.23664
271.838	149.31992
272.37	97.21652
272.902	104.21439
273.433	75.14893
273.965	73.16187
274.496	87.19733
275.027	71.16032
275.558	114.24905
276.089	52.11572
276.62	93.21548
277.15	86.1932
277.681	79.15593
278.211	88.19615
278.741	76.15067
279.272	53.10972
279.802	70.159
280.332	80.17003
280.861	88.19127
281.391	64.13104
281.921	117.2536
282.45	104.2346
282.98	81.19131
283.509	102.20534
284.038	87.17801
284.567	88.18565
285.096	91.19775
285.625	74.15083
286.153	82.17208
286.682	56.11523
287.21	94.20205
287.739	66.14009
288.267	89.19217
288.795	113.26648
289.323	10.0211
289.851	126.26126
290.378	96.19139
290.906	75.16124
291.433	105.23273
291.961	83.16644
292.488	84.18646
293.015	82.17071
293.542	82.18406
294.069	62.13556
294.596	72.15922
295.122	97.20432
295.649	93.18106
296.175	94.20205
296.702	69.14905
297.228	109.23404
297.754	121.23691
298.28	95.18865
298.806	36.07685
299.332	61.11825
299.857	118.23099
300.383	97.21679
300.908	53.11262
301.433	80.16981
301.958	134.26914
302.483	77.16775
303.008	125.26909
303.533	82.18822
304.058	154.31317
304.582	55.11315
305.107	56.12777
305.631	115.22719
306.155	107.21367
306.679	50.10131
307.203	69.13836
307.727	153.30865
308.251	106.22568
308.775	45.09191
309.298	73.1495
309.822	83.18075
310.345	101.20422
310.868	85.17352
311.391	151.31484
311.914	116.24622
312.437	108.20941
312.96	119.23554
313.482	58.11703
314.005	94.20005
314.527	70.15648
315.049	125.26689
315.571	46.08552
316.093	108.22383
316.615	70.14151
317.137	104.18663
317.659	97.19766
318.18	117.23494
318.702	116.22158
319.223	58.09798
319.744	58.10719
320.265	108.21311
320.786	78.15768
321.307	133.26818
321.828	132.23944
322.348	111.21023
322.869	93.17562
323.389	70.08892
323.909	104.19086
324.43	148.28614
324.95	116.2088
325.47	109.2114
325.989	103.19021
326.509	49.08406
327.029	62.10851
327.548	94.16183
328.067	98.18175
328.587	150.28764
329.106	94.16296
329.625	170.34807
330.144	44.07778
330.662	99.17185
331.181	74.13101
331.7	100.1752
332.218	131.20601
332.736	108.18703
333.255	108.18404
333.773	110.19049
334.291	147.27052
334.808	64.10296
335.326	121.19415
335.844	100.16334
336.361	48.08773
336.879	100.16233
337.396	117.19621
337.913	136.2127
338.43	152.22875
338.947	108.17581
339.464	113.15858
339.981	47.07593
340.497	96.16209
341.014	75.1235
341.53	103.15057
342.046	117.18902
342.562	118.19599
343.078	101.15415
343.594	97.15051
344.11	174.2606
344.626	102.16651
345.141	130.18285
345.657	215.29521
346.172	123.18516
346.687	142.19667
347.202	146.19375
347.717	107.15613
348.232	170.25815
348.747	43.0598
349.261	77.095
349.776	114.15738
350.29	71.10341
350.805	177.25717
351.319	166.21852
351.833	65.08265
352.347	71.09551
352.861	136.17457
353.374	166.21073
353.888	159.21362
354.401	140.17329
354.915	99.11557
355.428	88.12117
355.941	117.14291
356.454	232.26394
356.967	147.18318
357.48	117.14056
357.993	175.22626
358.505	63.08195
359.018	212.26168
359.53	107.13089
360.042	158.16846
360.554	138.16911
361.066	83.1024
361.578	196.19321
362.09	147.17021
362.602	114.11496
363.113	167.17799
363.625	186.18382
364.136	165.15842
364.647	102.10234
365.158	248.24409
365.669	166.17685
366.18	190.19306
366.691	164.14799
367.201	163.16679
367.712	87.08192
368.222	117.10823
368.733	115.09227
369.243	176.13875
369.753	163.14206
370.263	149.13624
370.773	126.12144
371.282	134.11409
371.792	49.03602
372.301	104.08415
372.811	154.14177
373.32	42.02306
373.829	177.10921
374.338	171.08526
374.847	126.06443
375.356	124.06332
375.865	152.04034
376.373	149.04619
376.882	175.08215
377.39	188.06337
377.898	31.00896
378.407	192.01344
378.915	176.99942
379.423	144.00494
379.93	267.97431
380.438	95.99108
380.946	192.9593
381.453	84.97923
381.96	185.9339
382.468	117.94694
382.975	173.92066
383.482	117.93954
383.989	54.97387
384.495	67.96271
385.002	82.95321
385.509	95.94594
386.015	138.93493
386.521	228.89512
387.028	67.97316
387.534	47.98585
388.04	264.92417
388.546	-25.99785
389.051	-61.01161
389.557	136.06964
390.063	468.34319
390.568	-21.01768
391.073	-69.09215
391.578	46.0716
392.084	-174.36327
392.589	-416.16949
393.093	-408.54113
393.598	-258.27452
394.103	-230.4072
394.607	-223.72171
395.112	-261.27472
395.616	-346.43868
396.12	-722.48914
396.624	-783.41936
397.128	-629.86955
397.632	-653.49966
398.136	-1300.60215
398.639	-2246.71354
399.143	-2432.13753
399.646	-2630.76699
400.15	-3505.19305
400.653	-4366.64677
401.156	-5407.61776
401.659	-7760.83298
402.162	-1008.52508
402.664	-577.43369
403.167	0
403.67	0
404.172	0
404.674	0
405.176	0
405.678	0
406.18	0
406.682	0
407.184	0
407.686	0
408.187	0
408.688	0
409.19	0
409.691	0
410.192	0
410.693	0
411.194	435.30976
411.694	3970.16379
412.195	5581.3282
412.696	4512.21693
413.196	3023.6316
413.696	3399.65602
414.196	5492.72279
414.696	6607.73912
415.196	7905.12374
415.696	8923.86804
416.196	5730.25997
416.695	3071.33223
417.195	2338.61762
417.694	2468.76931
418.194	2121.42161
418.693	1667.31021
419.192	2292.571
419.691	1979.79475
420.19	2028.49613
420.688	2253.09244
421.187	2123.25865
421.685	2194.32938
422.184	2001.83096
422.682	1391.58617
423.18	970.49403
423.678	910.28648
424.176	722.27134
424.674	610.73506
425.172	729.4591
425.669	788.13308
426.167	915.9472
426.664	596.81488
427.161	521.76215
427.659	543.70236
428.156	359.80174
428.652	333.81799
429.149	421.77168
429.646	348.81449
430.143	350.84409
430.639	296.88248
431.135	272.92202
431.632	164.95699
432.128	115.98522
432.624	85.99934
433.12	38.99498
433.616	38.9959
434.111	-13.00006
434.607	26.00235
435.103	234.9989
435.598	84.00561
436.093	93.02756
436.588	75.02462
437.083	70.02826
437.578	46.02277
438.073	-92.06068
438.568	51.03612
439.062	67.03394
439.557	-6.00455
440.051	-20.01408
440.546	-76.05693
441.04	-58.04999
441.534	1.00098
442.028	-14.01304
442.522	-33.03105
443.015	24.01893
443.509	8.00814
444.002	-66.06952
444.496	-73.06445
444.989	-35.03775
445.482	-27.03
445.975	-47.0441
446.468	-66.05873
446.961	-28.02475
447.454	-62.06273
447.947	-98.10708
448.439	-111.13267
448.931	-109.11301
449.424	-50.06351
449.916	-40.04776
450.408	-84.08955
450.9	-168.20943
451.392	-138.18362
451.884	-97.11349
452.375	-135.17645
452.867	27.03051
453.358	-161.18964
453.849	-105.11217
454.341	-96.11261
454.832	-117.13001
455.323	-192.26353
455.814	-138.17531
456.304	-160.20708
456.795	-135.17263
457.285	-159.20402
457.776	-36.04652
458.266	-94.12733
458.756	-121.17231
459.247	-227.32513
459.737	-193.27555
460.226	-142.18667
460.716	-190.27889
461.206	-139.20534
461.695	-150.23898
462.185	-198.29655
462.674	-172.25107
463.163	-124.17052
463.653	-136.17589
464.142	-129.19887
464.63	-108.17206
465.119	-188.28378
465.608	-105.15521
466.096	-137.1951
466.585	-109.16754
467.073	-111.17973
467.561	-135.22218
468.05	-136.21642
468.538	-145.24917
469.026	-109.18029
469.513	-176.25468
470.001	-144.22639
470.489	-170.28423
470.976	-93.15008
471.463	-141.25491
471.951	-99.17999
472.438	-194.33364
472.925	-172.29264
473.412	-149.27434
473.899	-138.23466
474.385	-163.30283
474.872	-102.17495
475.359	-187.34846
475.845	-128.19565
476.331	-96.15681
476.817	-113.21151
477.303	-118.20946
477.789	-174.32835
478.275	-182.35542
478.761	-159.30262
479.247	-132.232
479.732	-206.41013
480.218	-175.36748
480.703	-181.36329
481.188	-150.25493
481.673	-133.24279
482.158	-234.39964
482.643	-158.33127
483.128	-194.3598
483.612	-116.21922
484.097	-148.29973
484.581	-143.27429
485.066	-192.38849
485.55	-150.26904
486.034	-215.38831
486.518	-168.32668
487.002	-172.35073
487.486	-183.37596
487.969	-184.37879
488.453	-163.34998
488.936	-169.32134
489.42	-125.23246
489.903	-148.31921
490.386	-611.96871
490.869	-156.29106
491.352	-83.17337
491.835	-121.21283
492.318	-142.27349
492.8	-203.36495
493.283	-167.36738
493.765	-165.35183
494.247	-143.2918
494.73	-173.33327
495.212	-134.28368
495.694	-218.44797
496.175	-248.51835
496.657	-105.2163
497.139	-130.19835
497.62	-210.43776
498.102	-185.40475
498.583	-171.37997
499.064	-222.4393
499.545	-199.40422
500.026	-161.31777
500.507	-183.378
500.988	-155.34184
501.469	-222.49789
501.949	-153.33714
502.43	-244.52084
502.91	-237.44142
503.39	-178.40102
503.87	-213.44925
504.35	-151.31946
504.83	-176.3442
505.31	-214.4677
505.79	-256.55688
506.269	-204.43244
506.749	-207.42604
507.228	-213.45142
507.707	-201.4025
508.187	-155.3341
508.666	-208.4617
509.145	-235.49978
509.623	-226.48368
510.102	-224.49597
510.581	-115.24948
511.059	-197.44682
511.538	-165.38743
512.016	-202.44054
512.494	-139.30475
512.972	-161.34777
513.45	-217.45567
513.928	-174.38205
514.406	-239.52399
514.884	-183.42785
515.361	-223.49035
515.839	-186.38584
516.316	-152.33108
516.793	-176.40769
517.27	-132.29081
517.747	-191.44778
518.224	-177.37529
518.701	-183.37359
519.178	-218.49535
519.654	-172.37623
520.131	-195.443
520.607	-149.33809
521.083	-208.43841
521.56	-174.37674
522.036	-193.39167
522.512	-161.36532
522.987	-172.37241
523.463	-206.4525
523.939	-123.27513
524.414	-167.35579
524.89	-168.3667
525.365	-114.23447
525.84	-181.39332
526.315	-167.36923
526.79	-125.25727
527.265	-173.36392
527.74	-214.48429
528.215	-167.36274
528.689	-149.30266
529.164	-137.27358
529.638	-181.43113
530.112	-231.50752
530.587	-198.39126
531.061	-210.46982
531.534	-161.36116
532.008	-212.4741
532.482	-122.25726
532.956	-234.55576
533.429	-145.3238
533.903	-132.26941
534.376	-137.27892
534.849	-114.2424
535.322	-140.30468
535.795	-132.29715
536.268	-140.30986
536.741	-148.32907
537.213	-141.30144
537.686	-155.34813
538.158	-152.31347
538.631	-135.30384
539.103	-169.35065
539.575	-64.1216
540.047	-118.23887
540.519	-98.21518
540.991	-53.11816
541.463	-70.15454
541.934	-117.24634
542.406	-114.24915
542.877	-81.16686
543.348	-15.03271
543.82	-20.04438
544.291	-34.07204
544.762	-64.13757
545.233	9.02016
545.703	-37.07361
546.174	22.04558
546.645	-36.07688
547.115	40.08524
547.585	75.15144
548.056	48.10126
548.526	109.2211
548.996	107.2238
549.466	150.31672
549.935	155.31183
550.405	131.24459
550.875	152.30657
551.344	201.40772
551.814	270.51401
552.283	299.53396
552.752	342.64223
553.221	315.55062
553.69	410.71994
554.159	372.73338
554.628	468.8089
555.096	477.95342
555.565	507.87238
556.033	575.04564
556.502	645.19344
556.97	688.13892
557.438	721.28722
557.906	802.41486
558.374	891.47487
558.842	926.59772
559.31	976.53935
559.777	1079.81187
560.245	1188.89164
560.712	1294.96122
561.18	1378.89815
561.647	1437.98357
562.114	1503.08307
562.581	1699.50316
563.048	1778.32552
563.514	1875.59012
563.981	1986.40131
564.448	2137.36967
564.914	2334.58266
565.381	2438.50375
565.847	2595.64626
566.313	2724.61706
566.779	2933.43548
567.245	3038.60412
567.711	3175.69935
568.176	3373.27226
568.642	3526.86381
569.108	3679.68732
569.573	3936.34224
570.038	4106.6058
570.504	4245.83666
570.969	4440.4564
571.434	4622.49429
571.899	4723.93601
572.363	4917.56347
572.828	5210.45727
573.293	5305.40181
573.757	5429.34771
574.222	5433.15947
574.686	5599.10694
575.15	5684.41331
575.614	5883.146
576.078	5935.24868
576.542	5920.10832
577.006	5952.03795
577.469	6044.57212
577.933	5992.97422
578.396	5911.35585
578.86	6046.26215
579.323	5937.33715
579.786	5673.91963
580.249	5607.20701
580.712	5564.67475
581.175	5466.76538
581.637	5434.39947
582.1	5220.23684
582.563	5317.08397
583.025	4994.90468
583.487	5024.88802
583.95	4809.29337
584.412	4775.23704
584.874	4693.09748
585.336	4602.9965
585.797	4539.50801
586.259	4392.12074
586.721	4284.11524
587.182	4335.12238
587.643	4154.02063
588.105	4003.33846
588.566	3994.7044
589.027	3815.50523
589.488	3850.2006
589.949	3698.62952
590.41	3606.5029
590.87	3483.38844
591.331	3486.0925
591.791	3405.43924
592.252	3402.37627
592.712	3276.72613
593.172	3177.3907
593.632	3137.29456
594.092	3081.37655
594.552	2998.22674
595.011	2937.52508
595.471	2900.42991
595.931	2758.42664
596.39	2726.76334
596.849	2758.63311
597.308	2657.33142
597.768	2536.05592
598.227	2597.80727
598.685	2534.59489
599.144	2458.64449
599.603	2486.71337
600.062	2419.17422
600.52	2297.40377
600.978	2368.69525
601.437	2274.52993
601.895	2333.21776
602.353	2303.40663
602.811	2229.38391
603.269	2275.70949
603.727	2133.6608
604.184	2106.39472
604.642	2113.74745
605.099	2030.49438
605.557	2132.74082
606.014	2076.21691
606.471	2025.75967
606.928	1999.1603
607.385	1929.58723
607.842	1978.40483
608.299	1988.49227
608.755	1920.57571
609.212	2019.30813
609.668	1882.22687
610.125	1930.60456
610.581	1889.55541
611.037	1845.39193
611.493	1815.4929
611.949	1723.47345
612.405	1751.90997
612.861	1721.43258
613.316	1741.47052
613.772	1721.33431
614.227	1709.41233
614.683	1682.10989
615.138	1572.28925
615.593	1630.31568
616.048	1612.27265
616.503	1653.5449
616.958	1537.49422
617.412	1524.30405
617.867	1439.02759
618.321	1506.92492
618.776	1435.05242
619.23	1443.22367
619.684	1475.15488
620.138	1425.19952
620.592	1371.26756
621.046	1340.15113
621.5	1379.28337
621.954	1342.05167
622.407	1307.98987
622.861	1302.21124
623.314	1246.99128
623.768	1257.05626
624.221	1194.61592
624.674	1219.99482
625.127	1194.00845
625.58	1288.06127
626.033	1235.93176
626.485	1143.00718
626.938	1162.02848
627.39	1178.99436
627.843	1175.9823
628.295	1165.97173
628.747	1172.04922
629.199	1141.90913
629.651	1081.83692
630.103	1084.86232
630.555	1108.72553
631.006	1130.98396
631.458	1065.91485
631.909	1146.97027
632.361	1076.91349
632.812	1088.90402
633.263	1104.77823
633.714	1119.78577
634.165	1079.01989
634.616	1064.95551
635.067	1058.80301
635.518	1107.0278
635.968	1118.66367
636.419	1138.85494
636.869	1097.01445
637.319	1012.83372
637.769	1054.81735
638.219	1046.96559
638.669	1044.95223
639.119	1128.13
639.569	1074.0248
640.019	1089.95313
640.468	1021.78783
640.918	1074.03269
641.367	1087.88388
641.816	1058.84265
642.265	1070.93417
642.714	1073.94009
643.163	1077.93254
643.612	1050.9876
644.061	1019.67826
644.51	1006.81728
644.958	1036.78149
645.406	1056.998
645.855	1040.03698
646.303	1020.90352
646.751	1012.82629
647.199	1079.91834
647.647	1004.84316
648.095	1008.84126
648.543	1069.69108
648.99	1034.97152
649.438	1037.94722
649.885	978.97533
650.333	969.477
650.78	977.91708
651.227	986.94793
651.674	1018.85022
652.121	971.92854
652.568	980.93696
653.015	989.05011
653.461	939.83032
653.908	920.76314
654.354	987.91764
654.801	913.76359
655.247	965.7125
655.693	1007.15683
656.139	940.85608
656.585	948.87102
657.031	919.76165
657.477	930.6319
657.922	977.82537
658.368	986.99877
658.813	989.87512
659.259	858.73195
659.704	888.72218
660.149	945.80983
660.594	901.78272
661.039	865.64761
661.484	976.91826
661.929	926.79513
662.373	859.83884
662.818	893.8648
663.262	931.86188
663.707	865.86362
664.151	930.89715
664.595	881.78858
665.039	888.86948
665.483	891.92211
665.927	884.7519
666.371	827.62087
666.814	922.84174
667.258	858.71376
667.701	934.66206
668.145	913.91836
668.588	887.84328
669.031	839.6746
669.474	895.81786
669.917	953.73926
670.36	895.88052
670.803	851.75429
671.245	874.5382
671.688	868.80496
672.13	878.6518
672.573	853.86363
673.015	844.73324
673.457	879.60393
673.899	898.84257
674.341	862.77421
674.783	860.75582
675.225	827.75126
675.666	820.69222
676.108	858.57303
676.549	862.74163
676.991	884.63788
677.432	842.40466
677.873	899.7539
678.314	833.70871
678.755	873.81175
679.196	867.68339
679.637	889.85153
680.078	858.71534
680.518	909.78935
680.959	843.73313
681.399	814.74957
681.839	919.89205
682.28	835.77591
682.72	826.62005
683.16	857.83376
683.6	862.67486
684.039	865.51557
684.479	852.796
684.919	842.65536
685.358	934.01102
685.798	858.94576
686.237	904.85823
686.676	866.71618
687.115	899.78953
687.554	897.80704
687.993	896.6684
688.432	914.75668
688.871	840.62818
689.309	913.84435
689.748	922.60177
690.186	917.85498
690.625	915.80877
691.063	927.87608
691.501	981.0308
691.939	949.99753
692.377	930.91771
692.815	902.82918
693.253	905.84986
693.69	909.67467
694.128	916.87869
694.565	926.86509
695.003	966.06759
695.44	971.90172
695.877	957.86545
696.314	1004.76487
696.751	955.81934
697.188	950.8216
697.625	1048.96839
698.061	949.91277
698.498	1012.0332
698.934	976.9659
699.371	922.82899
699.807	992.94975
700.243	986.97789
700.679	1072.96631
701.115	995.94786
701.551	980.92343
701.987	1060.93549
702.422	1014.99024
702.858	1021.00766
703.294	1021.89741
703.729	1041.10353
704.164	1039.05937
704.599	1049.89659
705.035	966.79012
705.47	1057.10969
705.904	998.92297
706.339	1054.00538
706.774	1061.02605
707.209	993.89276
707.643	1039.05459
708.078	1002.02966
708.512	987.06591
708.946	1040.05323
709.38	1064.05965
709.814	1006.89584
710.248	1015.0537
710.682	1027.01193
711.116	945.89078
711.549	984.14136
711.983	959.84816
712.416	1027.00155
712.85	1008.0965
713.283	957.89718
713.716	1010.12108
714.149	951.9063
714.582	960.79045
715.015	1011.11436
715.448	981.07947
715.881	986.77654
716.313	970.89484
716.746	924.83296
717.178	905.84736
717.61	1002.1291
718.043	975.04255
718.475	886.83426
718.907	957.05138
719.339	837.62197
719.77	816.67042
720.202	888.92747
720.634	842.76482
721.065	862.74878
721.497	842.78189
721.928	772.65996
722.359	783.64431
722.79	766.60329
723.221	804.76799
723.652	805.82078
724.083	783.52874
724.514	798.58641
724.945	742.5311
725.375	747.51558
725.806	804.75247
726.236	771.74103
726.666	674.42359
727.096	681.49329
727.526	723.63061
727.956	675.36184
728.386	680.49704
728.816	636.45321
729.246	643.40397
729.675	634.40617
730.105	701.53589
730.534	602.27467
730.964	669.51979
731.393	695.5419
731.822	634.46547
732.251	610.4066
732.68	601.28391
733.109	556.25545
733.537	622.35549
733.966	592.33793
734.395	583.22174
734.823	575.17892
735.251	594.29877
735.68	550.26659
736.108	535.24791
736.536	538.16477
736.964	498.06793
737.392	519.2001
737.82	525.16051
738.247	567.23992
738.675	545.19526
739.102	444.0388
739.53	436.04191
739.957	444.07115
740.384	521.18755
740.811	474.12079
741.238	453.03315
741.665	432.93967
742.092	501.10738
742.519	403.94282
742.945	413.93549
743.372	410.959
743.798	418.01286
744.225	399.89717
744.651	421.99647
745.077	408.9618
745.503	404.93238
745.929	420.94921
746.355	438.02313
746.781	382.89948
747.207	374.83252
747.632	306.71804
748.058	360.85724
748.483	398.86609
748.908	318.75987
749.334	318.75115
749.759	330.74585
750.184	302.69314
750.609	361.84624
751.033	367.82659
751.458	315.67982
751.883	307.73345
752.307	312.70632
752.732	255.619
753.156	287.68541
753.58	305.69848
754.005	253.62541
754.429	293.6648
754.853	275.66002
755.277	301.68683
755.7	284.68175
756.124	216.52503
756.548	263.60521
756.971	324.75968
757.394	270.67488
757.818	276.68812
758.241	247.61036
758.664	186.46259
759.087	242.5262
759.51	239.58039
759.933	249.58305
760.356	236.59055
760.778	257.61425
761.201	240.56978
761.623	190.45439
762.046	206.48058
762.468	268.6252
762.89	224.54121
763.312	230.54899
763.734	216.50945
764.156	187.4548
764.578	206.46581
765	175.42163
765.421	120.30333
765.843	202.51984
766.264	186.44313
766.686	156.38812
767.107	178.42553
767.528	144.36022
767.949	136.34353
768.37	115.28169
768.791	178.42504
769.212	138.34384
769.632	124.28792
770.053	148.38591
770.473	134.32414
770.894	180.4444
771.314	177.41756
771.734	180.41365
772.154	158.40123
772.575	136.31379
772.994	117.26538
773.414	164.38967
773.834	114.28415
774.254	126.30697
774.673	158.38089
775.093	67.16667
775.512	137.33495
775.931	98.24825
776.351	127.3135
776.77	112.27296
777.189	101.24031
777.607	89.22733
778.026	74.18498
778.445	68.17078
778.864	96.24603
779.282	107.25702
779.701	111.27883
780.119	67.16993
780.537	61.15301
780.955	145.36541
781.373	95.23486
781.791	94.21152
782.209	122.28014
782.627	95.24971
783.045	96.22097
783.462	114.28981
783.88	30.07831
784.297	83.20894
784.715	75.19279
785.132	64.15575
785.549	56.14085
785.966	111.27793
786.383	44.10912
786.8	87.20245
787.217	91.21576
787.633	45.11308
788.05	114.26993
788.466	115.27025
788.883	42.10783
789.299	67.16204
789.715	99.24016
790.131	94.23336
790.547	95.23683
790.963	43.10755
791.379	105.26433
791.795	63.14469
792.21	113.26306
792.626	89.21119
793.041	66.16343
793.457	84.20762
793.872	58.13718
794.287	59.14146
794.702	87.21429
795.117	60.14961
795.532	45.11345
795.947	55.13322
796.362	101.24067
796.776	118.27508
797.191	67.16448
797.605	47.1111
798.02	33.08104
798.434	112.2484
798.848	63.15563
799.262	72.17881
799.676	103.25042
800.09	63.15552
800.504	101.24427
800.918	57.1328
801.331	103.26881
801.745	66.15222
802.158	53.13309
802.572	87.21089
802.985	70.16965
803.398	119.28182
803.811	74.19038
804.224	84.20892
804.637	39.09365
805.05	102.23562
805.462	109.2664
805.875	45.11716
806.288	41.09957
806.7	75.18853
807.112	70.16273
807.525	91.22406
807.937	61.15119
808.349	66.16564
808.761	83.20399
809.173	52.12664
809.584	95.23408
809.996	54.13274
810.408	8.02087
810.819	83.19505
811.231	48.12448
811.642	30.07213
812.053	77.18306
812.464	91.21576
812.875	72.18401
813.286	59.15219
813.697	97.22617
814.108	123.29792
814.519	71.15862
814.929	86.21886
815.34	79.1915
815.75	56.14267
816.16	88.21879
816.571	55.14325
816.981	113.26503
817.391	105.25212
817.801	44.10983
818.211	35.08411
818.62	59.14243
819.03	71.17411
819.44	80.20861
819.849	86.21615
820.259	84.21452
820.668	43.1063
821.077	71.1763
821.486	97.23265
821.895	111.27239
822.304	85.22456
822.713	63.14926
823.122	39.0979
823.531	80.18943
823.939	53.12958
824.348	93.22526
824.756	67.16794
825.164	97.24296
825.573	48.1209
825.981	93.22974
826.389	72.18083
826.797	43.10821
827.205	92.21032
827.612	84.20679
828.02	31.07336
828.428	66.16814
828.835	69.18149
829.243	103.24403
829.65	54.1346
830.057	54.13146
830.464	60.14645
830.871	48.11546
831.278	70.1692
831.685	71.15855
832.092	93.2267
832.499	93.20261
832.905	79.19959
833.312	73.16652
833.718	68.16943
834.124	103.23391
834.531	95.23829
834.937	54.13888
835.343	110.26338
835.749	123.28442
836.155	53.13903
836.561	50.12336
836.966	70.17111
837.372	71.18053
837.777	40.1001
838.183	117.25771
838.588	69.17121
838.993	72.17515
839.399	57.13957
839.804	42.10278
840.209	40.10223
840.613	80.17758
841.018	67.16957
841.423	50.12855
841.828	39.09906
842.232	56.13898
842.637	24.05709
843.041	45.11567
843.445	41.10325
843.849	34.08462
844.253	52.12394
844.657	44.11114
845.061	72.16321
845.465	41.09946
845.869	89.20588
846.272	24.05886
846.676	73.17629
847.079	45.11474
847.483	94.23319
847.886	93.22509
848.289	40.10707
848.692	32.08147
849.095	90.21508
849.498	101.25426
849.901	61.14004
850.304	66.15767
850.707	63.16058
851.109	111.27843
851.512	83.20316
851.914	17.04316
852.316	58.14677
852.718	54.13951
853.121	69.16883
853.523	78.18176
853.925	12.03155
854.326	19.04785
854.728	32.08267
855.13	34.08805
855.531	27.06493
855.933	45.10838
856.334	59.14709
856.736	34.0766
857.137	31.07251
857.538	78.19541
857.939	38.09424
858.34	60.14623
858.741	75.19547
859.142	65.15602
859.542	55.14516
859.943	85.21021
860.343	21.05235
860.744	73.17768
861.144	69.16801
861.544	10.02425
861.945	55.14024
862.345	55.13462
862.745	36.08983
863.145	92.2186
863.544	54.13655
863.944	45.10661
864.344	42.10465
864.743	88.21719
865.143	78.19962
865.542	78.18026
865.941	59.14602
866.34	62.14845
866.74	58.15561
867.139	47.11277
867.537	58.14776
867.936	41.09901
868.335	95.24009
868.734	22.05656
869.132	61.14167
869.531	75.18084
869.929	20.04594
870.327	52.12479
870.726	79.19623
871.124	85.19764
871.522	48.12246
871.92	93.22789
872.318	49.11998
872.715	98.2408
873.113	53.12924
873.511	48.11977
873.908	34.08616
874.306	19.04757
874.703	64.15993
875.1	99.25136
875.497	56.13429
875.894	20.04933
876.291	33.08134
876.688	73.18771
877.085	62.14862
877.482	77.19203
877.878	25.06053
878.275	47.11959
878.671	99.21861
879.068	102.24413
879.464	59.14253
879.86	25.05948
880.256	64.15773
880.652	35.08934
881.048	79.19494
881.444	81.19191
881.84	53.13476
882.236	50.12585
882.631	72.1762
883.027	70.16907
883.422	31.0796
883.817	45.11328
884.213	51.13096
884.608	32.07881
885.003	35.08471
885.398	62.15499
885.793	33.08316
886.188	5.01254
886.582	67.1715
886.977	102.23993
887.371	67.16909
887.766	28.06997
888.16	80.19875
888.554	61.15069
888.949	92.22948
889.343	60.14645
889.737	-1.00269
890.131	71.17758
890.525	80.20366
890.918	69.1732
891.312	69.16467
891.706	49.12867
892.099	83.21014
892.492	67.14423
892.886	50.12245
893.279	31.0793
893.672	54.13747
894.065	78.19449
894.458	77.19287
894.851	43.1056
895.244	61.15559
895.637	79.18941
896.029	80.19469
896.422	77.18735
896.814	47.117
897.206	2.00481
897.599	97.23804
897.991	32.0777
898.383	42.09949
898.775	39.08832
899.167	15.03525
899.559	79.19909
899.951	61.14363
900.342	99.24976
900.734	9.02251
901.125	73.19091
901.517	50.12282
901.908	103.24469
902.299	9.02218
902.69	22.05223
903.082	98.23536
903.473	29.06977
903.863	94.23812
904.254	40.0931
904.645	110.27079
905.036	35.08503
905.426	106.24018
905.817	79.19293
906.207	39.09318
906.597	45.10542
906.987	67.17324
907.378	24.06101
907.768	53.14011
908.158	50.122
908.547	53.1369
908.937	69.17656
909.327	85.20519
909.717	103.2592
910.106	39.09393
910.495	88.21831
910.885	71.17925
911.274	59.1473
911.663	79.19959
912.052	124.30198
912.441	80.20244
912.83	86.19613
913.219	114.29522
913.608	75.18296
913.997	40.1005
914.385	107.25301
914.774	54.13146
915.162	63.14984
915.55	93.22331
915.939	31.07854
916.327	102.2523
916.715	68.17281
917.103	105.25595
917.491	90.22115
917.878	47.11568
918.266	54.13999
918.654	81.20588
919.041	31.08121
919.429	65.15305
919.816	71.17938
920.203	30.07306
920.591	83.20466
920.978	100.24272
921.365	36.09471
921.752	67.15929
922.139	83.17906
922.525	36.08672
922.912	74.17975
923.299	78.19294
923.685	60.15629
924.072	56.12905
924.458	81.19958
924.844	53.13112
925.231	41.09564
925.617	40.10194
926.003	63.1607
926.389	47.11866
926.774	55.1393
927.16	59.14634
927.546	7.01801
927.931	74.18391
928.317	88.20126
928.702	77.1813
929.088	41.09718
929.473	25.0639
929.858	48.11611
930.243	24.0579
930.628	41.09994
931.013	59.14602
931.398	118.26781
931.783	60.15774
932.167	83.20172
932.552	69.17233
932.937	47.11675
933.321	61.15279
933.705	64.16097
934.09	82.20609
934.474	78.18433
934.858	38.09878
935.242	46.10673
935.626	46.11785
936.009	80.21174
936.393	56.14236
936.777	54.1382
937.16	94.24276
937.544	53.12484
937.927	17.04339
938.311	74.17988
938.694	86.22609
939.077	73.17402
939.46	84.20503
939.843	51.10643
940.226	27.06955
940.609	83.18933
940.991	48.12224
941.374	51.12465
941.757	45.11117
942.139	29.06543
942.522	50.11821
942.904	41.09875
943.286	94.23702
943.668	96.24672
944.05	62.1524
944.432	52.12829
944.814	79.19358
945.196	9.0221
945.578	36.0858
945.959	35.08228
946.341	107.25995
946.722	86.20048
947.104	58.13845
947.485	75.1737
947.866	69.17327
948.247	37.09358
948.628	66.16056
949.009	23.05918
949.39	72.17855
949.771	105.24164
950.152	42.10324
950.532	-17.04234
950.913	54.13018
951.293	33.0894
951.674	38.09213
952.054	61.15086
952.434	80.19752
952.814	55.13076
953.194	99.25696
953.574	77.18875
953.954	90.21212
954.334	56.13943
954.714	16.03924
955.093	101.24602
955.473	16.04026
955.853	28.07276
956.232	108.29327
956.611	63.15076
956.99	35.0882
957.37	38.09705
957.749	89.21078
958.128	84.21036
958.506	50.12971
958.885	34.08607
959.264	37.0909
959.643	81.1832
960.021	63.15575
960.4	57.12902
960.778	88.21527
961.156	8.02021
961.535	67.15567
961.913	89.2067
962.291	42.1079
962.669	69.1742
963.047	23.05898
963.424	49.12507
963.802	47.11564
964.18	98.24586
964.557	113.25703
964.935	95.22316
965.312	70.18166
965.69	96.23842
966.067	57.13864
966.444	90.22017
966.821	92.23545
967.198	111.26623
967.575	72.17633
967.952	74.17359
968.329	76.18405
968.705	84.17884
969.082	92.23421
969.458	19.04585
969.835	66.16019
970.211	93.23688
970.587	84.20785
970.963	73.18653
971.339	44.11501
971.715	69.17171
972.091	55.13532
972.467	86.21311
972.843	42.10438
973.219	114.27045
973.594	50.13078
973.97	106.24963
974.345	51.12204
974.721	82.19738
975.096	48.1162
975.471	73.17242
975.846	83.19816
976.221	58.14708
976.596	44.10559
976.971	79.19401
977.346	76.17605
977.72	74.18772
978.095	63.16245
978.469	52.12408
978.844	110.27358
979.218	29.06979
979.593	79.18825
979.967	99.23898
980.341	58.13334
980.715	70.17574
981.089	92.22856
981.463	50.11481
981.837	22.05404
982.21	115.26423
982.584	52.12555
982.957	41.10255
983.331	81.19035
983.704	53.13016
984.078	79.19365
984.451	112.27663
984.824	24.05873
985.197	110.26418
985.57	81.20201
985.943	52.12839
986.316	82.2003
986.688	83.19892
987.061	55.1288
987.434	74.19204
987.806	81.19531
988.179	30.07106
988.551	87.21925
988.923	41.10114
989.295	86.2135
989.667	-15.03628
990.039	73.17961
990.411	26.06013
990.783	72.16507
991.155	22.05314
991.527	125.30357
991.898	33.08248
992.27	53.13103
992.641	91.22662
993.012	106.24671
993.384	58.13813
993.755	67.1703
994.126	57.13692
994.497	36.08859
994.868	38.0875
995.239	83.19991
995.61	51.1283
995.98	47.11423
996.351	18.04483
996.722	42.09756
997.092	39.09254
997.462	-12.02837
997.833	90.2117
998.203	95.22837
998.573	31.07745
998.943	29.06828
999.313	41.09841
999.683	53.12712
1000.053	56.12869
1000.423	76.18377
1000.792	44.11415
1001.162	64.15709
1001.531	57.14035
1001.901	53.13203
1002.27	94.20822
1002.639	64.1631
1003.009	50.1189
1003.378	45.11515
1003.747	85.19944
1004.116	38.09112
1004.485	55.13131
1004.853	88.22141
1005.222	87.21791
1005.591	93.21897
1005.959	3.00682
1006.328	28.06329
1006.696	37.08945
1007.064	65.16304
1007.433	43.10759
1007.801	73.17841
1008.169	54.13626
1008.537	98.21482
1008.905	42.09799
1009.273	98.23991
1009.64	49.1169
1010.008	52.12389
1010.375	146.3481
1010.743	149.33727
1011.11	49.11596
1011.478	68.16771
1011.845	79.18471
1012.212	72.16221
1012.579	64.15668
1012.946	90.21253
1013.313	104.24492
1013.68	90.20061
1014.047	47.11204
1014.414	39.09229
1014.78	59.14634
1015.147	105.25126
1015.513	85.2034
1015.88	86.21847
1016.246	117.2852
1016.612	105.23767
1016.978	64.15639
1017.344	65.16016
1017.71	96.23205
1018.076	41.09684
1018.442	73.18699
1018.808	51.12742
1019.174	50.1254
1019.539	131.29665
1019.905	51.12022
1020.27	40.09887
1020.636	82.19536
1021.001	49.1173
1021.366	59.1414
1021.731	76.1945
1022.096	14.03553
1022.461	87.20437
1022.826	73.17269
1023.191	68.1778
1023.556	60.14031
1023.92	119.28878
1024.285	25.06128
1024.649	67.16363
1025.014	102.25017
1025.378	35.0882
1025.742	87.21453
1026.107	60.1354
1026.471	84.19474
1026.835	71.17527
1027.199	8.0194
1027.562	79.18253
1027.926	46.11253
1028.29	40.10136
1028.654	93.21205
1029.017	52.12773
1029.381	10.02406
1029.744	94.23778
1030.107	101.23651
1030.471	47.11256
1030.834	99.22291
1031.197	65.15608
1031.56	44.1039
1031.923	35.09069
1032.286	64.14984
1032.648	83.19718
1033.011	60.13739
1033.374	86.20064
1033.736	21.05546
1034.099	70.1699
1034.461	24.06088
1034.823	29.07246
1035.185	68.17054
1035.548	66.16007
1035.91	96.22784
1036.272	72.16308
1036.634	62.15128
1036.995	72.16844
1037.357	33.0805
1037.719	62.15037
1038.08	88.20732
1038.442	24.05722
1038.803	61.14608
1039.165	43.1086
1039.526	71.17081
1039.887	38.09109
1040.248	61.14992
1040.609	87.21342
1040.97	59.14388
1041.331	37.09385
1041.692	35.0819
1042.053	65.14749
1042.413	65.15096
1042.774	54.13117
1043.134	71.16828
1043.495	84.20975
1043.855	39.09475
1044.215	67.1657
1044.576	4.00964
1044.936	129.29093
1045.296	92.22773
1045.656	108.26204
1046.016	93.22255
1046.375	38.09234
1046.735	32.07277
1047.095	65.15162
1047.454	80.16833
1047.814	55.13202
1048.173	70.16652
1048.533	69.15739
1048.892	29.06985
1049.251	79.19716
1049.61	61.14981
1049.969	76.17815
1050.328	65.14041
1050.687	47.11436
1051.046	66.16013
1051.405	68.16851
1051.763	23.05314
1052.122	71.1763
1052.48	42.10309
1052.839	29.06847
1053.197	41.09661
1053.555	103.2322
1053.914	68.16567
1054.272	73.17562
1054.63	36.0882
1054.988	17.04062
1055.345	24.05194
1055.703	47.11311
1056.061	58.14891
1056.419	28.07271
1056.776	74.17853
1057.134	73.16813
1057.491	91.22604
1057.848	80.19796
1058.206	48.11287
1058.563	39.08612
1058.92	115.26147
1059.277	102.24906
1059.634	28.06612
1059.991	110.26036
1060.348	43.09725
1060.704	52.12379
1061.061	145.33035
1061.418	53.12838
1061.774	55.13557
1062.131	14.03722
1062.487	59.13762
1062.843	47.11717
1063.199	43.10701
1063.555	41.09511
1063.911	80.20085
1064.267	104.21419
1064.623	34.08277
1064.979	92.21607
1065.335	83.19702
1065.691	99.23491
1066.046	62.13591
1066.402	67.1516
1066.757	35.08852
1067.112	47.11534
1067.468	60.1413
1067.823	67.16045
1068.178	111.26521
1068.533	69.16656
1068.888	78.18526
1069.243	58.14283
1069.598	100.24053
1069.952	32.07227
1070.307	41.10158
1070.662	54.12801
1071.016	12.02708
1071.371	55.1249
1071.725	69.16436
1072.079	77.18412
1072.434	55.13342
1072.788	109.25645
1073.142	77.18833
1073.496	31.07376
1073.85	10.02336
1074.203	55.13322
1074.557	95.25055
1074.911	124.29156
1075.265	74.17108
1075.618	101.24409
1075.971	82.19371
1076.325	41.10429
1076.678	52.11878
1077.031	17.0387
1077.385	94.20501
1077.738	44.09937
1078.091	16.03661
1078.444	40.09299
1078.796	23.05667
1079.149	70.17334
1079.502	-10.02388
1079.855	38.08876
1080.207	96.23432
1080.56	57.14703
1080.912	41.09991
1081.264	111.264
1081.617	33.08062
1081.969	40.101
1082.321	113.27247
1082.673	50.11403
1083.025	55.13026
1083.377	112.237
1083.728	67.15567
1084.08	51.12719
1084.432	102.24338
1084.783	75.17473
1085.135	71.17713
1085.486	3.00692
1085.838	52.12792
1086.189	88.21191
1086.54	96.22705
1086.891	28.07103
1087.242	63.15288
1087.593	119.28574
1087.944	64.14431
1088.295	95.21381
1088.646	54.13068
1088.996	43.10364
1089.347	62.15167
1089.698	32.07583
1090.048	56.14518
1090.398	70.16158
1090.749	50.11954
1091.099	56.14055
1091.449	88.21751
1091.799	71.17694
1092.149	47.11457
1092.499	68.16517
1092.849	19.04852
1093.199	88.21887
1093.548	57.13666
1093.898	52.12994
1094.248	64.16391
1094.597	23.05894
1094.947	43.11474
1095.296	50.12336
1095.645	63.16335
1095.994	55.13187
1096.343	29.07319
1096.692	33.08686
1097.041	26.0706
1097.39	27.06795
1097.739	60.15554
1098.088	95.2524
1098.437	8.02115
1098.785	61.16401
1099.134	48.12738
1099.482	56.15373
1099.83	95.24751
1100.179	-14.03688
1100.527	64.1695
1100.875	-1.00266
1101.223	79.20856
1101.571	24.06653
1101.919	28.07336
1102.267	39.10989
1102.615	9.02892
1102.962	19.06111
1103.31	2.00643
1103.658	16.0515
