Data from N2 R13 sample 12_Subt2__3__12-04-25-779.txt Node

Date: Tue Sep 02 12:04:25 PDT 2025
User: uwsun
Spectrometer: HDX01956
Trigger mode: 0
Integration Time (sec): 5.000000E-1
Scans to average: 1
Nonlinearity correction enabled: true
Boxcar width: 0
Storing dark spectrum: false
XAxis mode: Wavelengths
Number of Pixels in Spectrum: 2068
>>>>>Begin Spectral Data<<<<<
194.03	-112.31973
194.578	-110.35249
195.127	-108.34111
195.676	-105.33249
196.225	-59.15806
196.773	-76.21088
197.321	-140.38432
197.87	-119.30086
198.418	-154.38691
198.966	-215.54914
199.513	-244.59841
200.061	-229.56899
200.609	-123.31638
201.156	-237.51171
201.704	-189.46362
202.251	-243.63261
202.798	-195.49438
203.345	-215.52446
203.892	-217.53623
204.438	-198.46537
204.985	-276.64589
205.532	-173.44172
206.078	-190.45613
206.624	-222.53436
207.17	-161.36473
207.716	-218.51856
208.262	-181.35271
208.808	-270.65381
209.354	-227.54193
209.899	-149.36726
210.445	-251.61295
210.99	-268.63821
211.535	-199.46014
212.08	-182.41489
212.625	-190.46547
213.17	-173.42767
213.715	-298.65925
214.259	-182.4159
214.804	-186.45076
215.348	-191.42987
215.892	-177.41529
216.436	-164.37281
216.98	-165.35901
217.524	-202.46903
218.068	-196.48444
218.612	-180.44408
219.155	-147.3368
219.698	-177.41334
220.242	-179.43877
220.785	-157.35928
221.328	-135.32736
221.871	-130.32144
222.414	-169.41334
222.956	-190.44831
223.499	-178.39462
224.041	-145.33182
224.583	-146.31152
225.126	-134.28877
225.668	-206.4934
226.21	-202.49926
226.751	-201.43362
227.293	-145.32487
227.835	-182.43543
228.376	-83.18581
228.918	-174.43148
229.459	-174.42263
230	-168.39163
230.541	-163.36896
231.082	-169.4007
231.622	-171.38769
232.163	-181.42915
232.704	-191.46366
233.244	-175.42419
233.784	-179.43176
234.324	-160.34154
234.864	-168.37322
235.404	-156.36323
235.944	-163.3787
236.484	-132.32026
237.023	-195.45215
237.563	-187.42345
238.102	-156.3595
238.641	-182.44984
239.18	-222.51016
239.719	-172.42122
240.258	-108.23504
240.797	-160.37195
241.335	-159.37946
241.874	-221.42288
242.412	-191.44866
242.95	-196.45654
243.488	-186.4163
244.026	-182.40936
244.564	-157.31614
245.102	-177.3879
245.64	-122.28474
246.177	-175.38368
246.715	-161.37671
247.252	-144.32163
247.789	-122.22525
248.326	-222.52055
248.863	-220.4745
249.4	-184.40911
249.936	-202.4091
250.473	-202.45993
251.009	-193.43063
251.546	-207.44733
252.082	-185.39619
252.618	-188.40792
253.154	-199.46489
253.69	-187.41068
254.226	-209.48672
254.761	-182.39793
255.297	-206.44087
255.832	-211.48692
256.367	-151.34319
256.903	-196.41966
257.438	-171.3899
257.972	-209.45532
258.507	-249.55832
259.042	-171.36035
259.576	-234.49191
260.111	-181.40669
260.645	-196.41457
261.179	-211.47838
261.713	-180.38757
262.247	-178.39774
262.781	-230.47199
263.315	-205.48548
263.849	-213.5157
264.382	-161.35745
264.915	-229.52108
265.449	-315.75169
265.982	-173.38073
266.515	-188.4417
267.048	-203.41724
267.58	-168.35597
268.113	-244.51519
268.646	-213.50754
269.178	-244.53078
269.71	-200.42414
270.243	-174.38318
270.775	-219.5378
271.307	-169.39186
271.838	-140.31928
272.37	-211.50085
272.902	-189.41525
273.433	-243.51837
273.965	-219.51502
274.496	-210.5049
275.027	-233.5586
275.558	-235.55114
276.089	-270.64075
276.62	-203.49777
277.15	-202.4805
277.681	-215.45366
278.211	-197.46491
278.741	-250.53342
279.272	-241.53171
279.802	-218.52393
280.332	-244.5551
280.861	-221.51182
281.391	-236.51599
281.921	-202.46754
282.45	-167.39748
282.98	-242.60709
283.509	-189.40598
284.038	-192.41767
284.567	-186.41596
285.096	-249.58009
285.625	-218.47382
286.153	-232.52053
286.682	-227.49684
287.21	-248.57218
287.739	-207.46549
288.267	-284.662
288.795	-211.52866
289.323	-268.59981
289.851	-196.4356
290.378	-272.58866
290.906	-313.72887
291.433	-275.65751
291.961	-246.5308
292.488	-243.57591
293.015	-283.6369
293.542	-247.5917
294.069	-259.60457
294.596	-245.57751
295.122	-229.51686
295.649	-245.51537
296.175	-260.60129
296.702	-256.59134
297.228	-255.59032
297.754	-267.5708
298.28	-248.53191
298.806	-321.73807
299.332	-280.58705
299.857	-262.55902
300.383	-234.55854
300.908	-341.78655
301.433	-269.61432
301.958	-240.52363
302.483	-318.75056
303.008	-239.5546
303.533	-280.68896
304.058	-266.59264
304.582	-320.71381
305.107	-342.84241
305.631	-259.55658
306.155	-294.64171
306.679	-327.71962
307.203	-271.58612
307.727	-296.65865
308.251	-277.6387
308.775	-377.84355
309.298	-336.75167
309.822	-327.77375
310.345	-287.63187
310.868	-313.69661
311.391	-249.56521
311.914	-354.82805
312.437	-299.63616
312.96	-301.65434
313.482	-303.66205
314.005	-343.79903
314.527	-331.80073
315.049	-263.60859
315.571	-364.74595
316.093	-364.83373
316.615	-335.74
317.137	-335.66928
317.659	-293.64994
318.18	-301.66269
318.702	-356.75792
319.223	-375.70854
319.744	-327.6627
320.265	-390.8595
320.786	-404.90674
321.307	-362.81283
321.828	-381.78167
322.348	-359.75816
322.869	-426.90693
323.389	-580.90657
323.909	-392.8095
324.43	-357.77375
324.95	-441.90762
325.47	-405.88189
325.989	-440.92329
326.509	-463.90399
327.029	-470.93834
327.548	-483.9605
328.067	-462.97671
328.587	-447.98075
329.106	-445.88245
329.625	-430.99946
330.144	-494.99633
330.662	-490.98418
331.181	-496.00683
331.7	-481.97211
332.218	-482.89403
332.736	-469.93743
333.255	-534.06634
333.773	-563.14804
334.291	-482.02511
334.808	-548.0341
335.326	-530.0074
335.844	-561.08537
336.361	-566.19311
336.879	-589.14128
337.396	-583.16411
337.913	-586.1092
338.43	-569.04258
338.947	-628.23352
339.464	-644.12431
339.981	-649.25475
340.497	-637.28918
341.014	-622.22229
341.53	-690.25748
342.046	-670.32358
342.562	-635.2734
343.078	-667.25145
343.594	-644.21683
344.11	-623.15897
344.626	-676.34419
345.141	-683.21233
345.657	-664.17578
346.172	-683.279
346.687	-725.28905
347.202	-716.22864
347.717	-680.23546
348.232	-723.39274
348.747	-761.33573
349.261	-826.35377
349.776	-753.33549
350.29	-851.59738
350.805	-767.44439
351.319	-748.2933
351.833	-810.3489
352.347	-769.32653
352.861	-794.35194
353.374	-759.27934
353.888	-790.4009
354.401	-879.49107
354.915	-871.39408
355.428	-812.4497
355.941	-899.50867
356.454	-802.28145
356.967	-893.53122
357.48	-862.41375
357.993	-870.53593
358.505	-927.6211
359.018	-878.51467
359.53	-906.52086
360.042	-895.37099
360.554	-901.5252
361.066	-977.67213
361.578	-963.43917
362.09	-935.53517
362.602	-933.3698
363.113	-975.53291
363.625	-987.48411
364.136	-982.43552
364.647	-1100.6872
365.158	-1032.59727
365.669	-981.54416
366.18	-1026.5935
366.691	-1002.41116
367.201	-1049.63556
367.712	-1050.51014
368.222	-1009.42783
368.733	-1125.50037
369.243	-1127.51699
369.753	-1087.53606
370.263	-1132.66839
370.773	-1153.76014
371.282	-1197.7098
371.792	-1277.65917
372.301	-1272.78449
372.811	-1268.95915
373.32	-1328.47441
373.829	-1349.69264
374.338	-1346.50048
374.847	-1459.6931
375.356	-1491.74885
375.865	-1535.39826
376.373	-1591.57252
376.882	-1577.86808
377.39	-1667.78486
377.898	-1775.76396
378.407	-1797.41596
378.915	-1796.2267
379.423	-1929.49795
379.93	-1976.30289
380.438	-2163.46249
380.946	-2237.25564
381.453	-2332.18149
381.96	-2475.99295
382.468	-2756.78777
382.975	-2702.72453
383.482	-2883.46794
383.989	-2907.75103
384.495	-2976.13259
385.002	-3225.59799
385.509	-3391.73208
386.015	-3607.10517
386.521	-3682.15848
387.028	-3910.97754
387.534	-4132.83787
388.04	-4147.92759
388.546	-4437.65123
389.051	-4786.63343
389.557	-5113.74275
390.063	-5051.755
390.568	-5499.0307
391.073	-5775.60618
391.578	-6009.84853
392.084	-6330.96567
392.589	-6728.97262
393.093	-7414.7067
393.598	-7898.46909
394.103	-8543.33151
394.607	-9325.63724
395.112	-9842.24684
395.616	-10481.98115
396.12	-11710.59515
396.624	-13062.6891
397.128	-14071.24094
397.632	-15385.53827
398.136	-16932.56793
398.639	-18921.50896
399.143	-21673.85411
399.646	-24082.17041
400.15	-26732.29642
400.653	-30007.66028
401.156	-34374.37666
401.659	-40782.26842
402.162	-39362.41917
402.664	-26393.50086
403.167	-3215.46355
403.67	0
404.172	0
404.674	0
405.176	0
405.678	0
406.18	0
406.682	0
407.184	0
407.686	0
408.187	0
408.688	-20184.87838
409.19	-30039.04531
409.691	-35363.83713
410.192	-38871.56377
410.693	-41003.07561
411.194	-41686.0213
411.694	-39378.64104
412.195	-36301.32621
412.696	-34118.63208
413.196	-33173.02613
413.696	-33171.59694
414.196	-32247.6465
414.696	-29703.72994
415.196	-26777.41262
415.696	-22095.15758
416.196	-17904.64623
416.695	-15620.64108
417.195	-14657.58801
417.694	-13895.33546
418.194	-12846.06082
418.693	-12527.71798
419.192	-12014.39174
419.691	-11861.77122
420.19	-11324.6788
420.688	-10748.62752
421.187	-10182.40388
421.685	-9420.0769
422.184	-8278.8513
422.682	-7313.37035
423.18	-6709.78153
423.678	-6106.61431
424.176	-5723.63081
424.674	-5344.06411
425.172	-4967.6831
425.669	-4609.72601
426.167	-4145.80256
426.664	-3945.03709
427.161	-3724.37095
427.659	-3378.81573
428.156	-3257.60011
428.652	-3063.47718
429.149	-2931.44033
429.646	-2710.26631
430.143	-2627.84632
430.639	-2501.91638
431.135	-2377.2345
431.632	-2200.00338
432.128	-2163.36865
432.624	-2165.72122
433.12	-2132.25793
433.616	-2026.17938
434.111	-2056.49819
434.607	-1934.56199
435.103	-1789.25236
435.598	-1752.26723
436.093	-1637.58569
436.588	-1578.53776
437.083	-1493.53129
437.578	-1431.56734
438.073	-1541.96036
438.568	-1380.81709
439.062	-1316.40395
439.557	-1277.66029
440.051	-1312.64046
440.546	-1327.7017
441.04	-1223.67122
441.534	-1221.85694
442.028	-1147.63579
442.522	-1185.71261
443.015	-1143.4713
443.509	-1098.65346
444.002	-1148.76022
444.496	-1087.43585
444.989	-1093.69267
445.482	-1093.73418
445.975	-1159.65097
446.468	-1088.44917
446.961	-1094.47173
447.454	-1054.5263
447.947	-1190.87977
448.439	-1029.65364
448.931	-1045.51458
449.424	-1013.72746
449.916	-1003.63082
450.408	-1074.61615
450.9	-1083.79691
451.392	-1074.88534
451.884	-948.46925
452.375	-1027.75704
452.867	-979.54543
453.358	-1009.57108
453.849	-990.44461
454.341	-994.56516
454.832	-965.43523
455.323	-977.68911
455.814	-896.4436
456.304	-917.49967
456.795	-936.53469
457.285	-866.38644
457.776	-819.34711
458.266	-933.6188
458.756	-860.5135
459.247	-927.6228
459.737	-915.60677
460.226	-853.39466
460.716	-882.57255
461.206	-877.5906
461.695	-824.56674
462.185	-842.50803
462.674	-780.35377
463.163	-794.33233
463.653	-749.17439
464.142	-806.49161
464.63	-743.39912
465.119	-766.35754
465.608	-778.38815
466.096	-751.2782
466.585	-705.27481
467.073	-719.36379
467.561	-718.37282
468.05	-680.25049
468.538	-684.3437
469.026	-658.25305
469.513	-691.16064
470.001	-724.32957
470.489	-666.26401
470.976	-634.17918
471.463	-633.28634
471.951	-642.3263
472.438	-624.1951
472.925	-682.31898
473.412	-585.19297
473.899	-607.16164
474.385	-588.20589
474.872	-621.212
475.359	-621.2797
475.845	-567.9809
476.331	-547.00521
476.817	-545.12688
477.303	-518.01327
477.789	-546.12214
478.275	-568.20834
478.761	-534.10681
479.247	-461.88045
479.732	-548.17534
480.218	-531.19966
480.703	-531.14935
481.188	-507.94533
481.673	-531.06501
482.158	-566.05142
482.643	-492.10487
483.128	-508.01386
483.612	-491.01095
484.097	-424.91286
484.581	-478.99107
485.066	-480.0328
485.55	-473.91914
486.034	-502.97341
486.518	-474.98892
487.002	-486.05918
487.486	-496.08832
487.969	-444.9674
488.453	-462.05308
488.936	-430.86964
489.42	-393.7797
489.903	-463.06321
490.386	-880.50202
490.869	-368.72276
491.352	-351.77664
491.835	-396.74694
492.318	-425.8743
492.8	-382.71841
493.283	-406.93774
493.765	-456.03101
494.247	-328.6974
494.73	-396.80382
495.212	-353.78302
495.694	-419.89997
496.175	-454.99212
496.657	-370.80757
497.139	-323.52131
497.62	-447.98075
498.102	-401.91717
498.583	-392.91081
499.064	-404.83353
499.545	-373.78772
500.026	-400.8338
500.507	-381.82189
500.988	-347.79592
501.469	-409.95235
501.949	-351.80541
502.43	-395.87069
502.91	-376.72454
503.39	-336.78134
503.87	-387.84735
504.35	-343.75609
504.83	-352.71712
505.31	-357.80374
505.79	-371.8267
506.269	-284.61253
506.749	-324.6844
507.228	-381.83703
507.707	-314.64523
508.187	-300.66672
508.666	-370.84883
509.145	-322.69775
509.623	-319.69642
510.102	-272.60826
510.581	-254.56731
511.059	-332.77356
511.538	-258.61676
512.016	-268.59264
512.494	-267.60114
512.972	-210.45837
513.45	-317.68032
513.928	-313.70729
514.406	-336.75167
514.884	-259.61453
515.361	-261.57849
515.839	-246.51714
516.316	-240.5325
516.793	-193.44857
517.27	-165.36602
517.747	-220.51868
518.224	-199.42396
518.701	-185.37784
519.178	-200.45279
519.654	-141.3064
520.131	-184.41708
520.607	-143.32408
521.083	-201.42301
521.56	-191.41505
522.036	-183.37053
522.512	-163.37001
522.987	-210.45837
523.463	-189.41367
523.939	-144.32349
524.414	-119.25088
524.89	-221.48779
525.365	-214.45007
525.84	-277.6142
526.315	-249.55993
526.79	-212.44488
527.265	-241.51455
527.74	-241.54838
528.215	-239.52708
528.689	-259.5393
529.164	-197.39888
529.638	-201.4806
530.112	-276.61211
530.587	-230.45791
531.061	-248.55917
531.534	-266.60955
532.008	-264.5967
532.482	-247.53513
532.956	-287.68856
533.429	-250.57036
533.903	-215.44709
534.376	-258.53973
534.849	-281.61918
535.322	-259.57788
535.795	-252.58117
536.268	-251.56836
536.741	-246.55806
537.213	-276.60727
537.686	-317.73557
538.158	-281.5963
538.631	-218.49896
539.103	-251.53032
539.575	-261.51975
540.047	-237.49284
540.519	-228.51429
540.991	-225.51943
541.463	-258.59193
541.934	-272.59218
542.406	-252.56679
542.877	-272.58438
543.348	-215.48863
543.82	-242.56167
544.291	-194.42542
544.762	-205.454
545.233	-237.55757
545.703	-244.50886
546.174	-226.49413
546.645	-281.63188
547.115	-254.57574
547.585	-173.36921
548.056	-230.51477
548.526	-215.46839
548.996	-175.38885
549.466	-176.39814
549.935	-194.42166
550.405	-160.32033
550.875	-144.31019
551.344	-112.24343
551.814	-53.10884
552.283	-97.191
552.752	-100.20827
553.221	-125.24393
553.69	-77.15255
554.159	-88.19225
554.628	-4.00779
555.096	15.03319
555.565	46.08894
556.033	104.21207
556.502	164.34035
556.97	131.25066
557.438	212.42876
557.906	285.57124
558.374	330.63161
558.842	345.68798
559.31	505.90522
559.777	520.00517
560.245	642.18048
560.712	614.11814
561.18	787.2893
561.647	842.38314
562.114	901.48819
562.581	1012.8003
563.048	1147.81408
563.514	1277.09612
563.981	1379.02054
564.448	1520.07148
564.914	1701.3216
565.381	1820.31702
565.847	1961.49034
566.313	2176.54731
566.779	2413.45769
567.245	2571.63663
567.711	2650.75081
568.176	2849.40902
568.642	3099.96581
569.108	3428.77595
569.573	3713.44514
570.038	4007.66012
570.504	4180.87257
570.969	4452.44982
571.434	4699.4509
571.899	5041.75785
572.363	5435.29901
572.828	5763.21121
573.293	6035.11903
573.757	6428.0581
574.222	6716.91771
574.686	6989.99339
575.15	7412.40081
575.614	7718.49868
576.078	8000.82372
576.542	8300.13667
577.006	8631.64674
577.469	8902.21504
577.933	9056.49748
578.396	9133.65157
578.86	9419.32567
579.323	9482.48004
579.786	9762.45259
580.249	9672.06523
580.712	9718.07573
581.175	9738.12277
581.637	9714.15004
582.1	9818.57049
582.563	9813.60635
583.025	9592.74777
583.487	9575.0268
583.95	9419.44686
584.412	9345.26744
584.874	9238.88282
585.336	9054.48291
585.797	8864.08785
586.259	8748.89711
586.721	8419.35789
587.182	8387.32206
587.643	8096.88464
588.105	7932.80496
588.566	7681.29165
589.027	7380.45694
589.488	7321.24532
589.949	7061.39784
590.41	6953.57706
590.87	6692.08581
591.331	6472.83456
591.791	6264.12631
592.252	6079.10346
592.712	5884.47225
593.172	5657.17968
593.632	5422.16436
594.092	5345.27239
594.552	5089.2098
595.011	5006.58084
595.471	4925.50661
595.931	4687.61314
596.39	4548.10743
596.849	4339.06333
597.308	4280.71624
597.768	4163.71843
598.227	4097.41537
598.685	4001.19862
599.144	3972.28732
599.603	3880.4169
600.062	3780.77968
600.52	3685.13827
600.978	3572.55183
601.437	3640.33254
601.895	3584.93538
602.353	3521.21227
602.811	3415.24208
603.269	3440.64748
603.727	3347.67407
604.184	3417.29734
604.642	3317.81263
605.099	3361.49362
605.557	3378.77563
606.014	3304.10695
606.471	3333.88414
606.928	3359.03667
607.385	3359.69805
607.842	3392.38474
608.299	3420.49603
608.755	3433.66497
609.212	3459.1982
609.668	3545.11862
610.125	3613.63697
610.581	3715.55403
611.037	3754.31295
611.493	3692.53224
611.949	3727.58585
612.405	3685.63787
612.861	3834.47009
613.316	3893.48545
613.772	3827.30247
614.227	3854.43967
614.683	3886.92413
615.138	3855.39687
615.593	3851.36711
616.048	3792.33961
616.503	3783.78442
616.958	3722.90616
617.412	3800.52519
617.867	3725.15255
618.321	3633.90532
618.776	3649.24252
619.23	3542.61189
619.684	3547.42143
620.138	3522.6038
620.592	3354.90157
621.046	3391.71614
621.5	3230.94555
621.954	3203.56221
622.407	3069.53487
622.861	2979.0031
623.314	2930.68339
623.768	2887.7977
624.221	2818.04439
624.674	2695.76084
625.127	2651.84372
625.58	2676.74955
626.033	2579.60364
626.485	2432.92883
626.938	2496.93852
627.39	2363.80512
627.843	2342.78398
628.295	2263.76355
628.747	2198.8662
629.199	2159.66672
629.651	2046.61994
630.103	2068.66853
630.555	2009.35743
631.006	1930.70908
631.458	1923.72857
631.909	1968.67589
632.361	1839.64929
632.812	1767.56104
633.263	1774.34024
633.714	1801.3414
634.165	1760.75956
634.616	1727.66174
635.067	1666.39115
635.518	1615.59141
635.968	1609.05344
636.419	1573.26213
636.869	1551.5325
637.319	1517.40416
637.769	1431.22557
638.219	1460.46929
638.669	1426.41919
639.119	1376.44399
639.569	1374.40414
640.019	1396.30981
640.468	1324.13722
640.918	1315.34538
641.367	1273.09874
641.816	1328.15093
642.265	1237.14139
642.714	1272.18432
643.163	1285.18397
643.612	1213.20489
644.061	1167.84482
644.51	1196.05647
644.958	1198.9728
645.406	1196.18537
645.855	1228.30024
646.303	1178.11249
646.751	1149.00097
647.199	1160.01863
647.647	1162.04864
648.095	1137.00907
648.543	1165.79326
648.99	1128.10103
649.438	1171.12614
649.885	1068.11157
650.333	1108.62088
650.78	1072.05547
651.227	1084.09148
651.674	1086.94027
652.121	1036.02532
652.568	1060.05481
653.015	1117.25018
653.461	1063.01035
653.908	1002.88276
654.354	1068.03405
654.801	952.82194
655.247	978.7298
655.693	987.123
656.139	874.7522
656.585	955.88178
657.031	833.62958
657.477	849.52098
657.922	837.61734
658.368	887.83837
658.813	907.75365
659.259	814.65956
659.704	806.59341
660.149	822.62054
660.594	783.5916
661.039	748.46479
661.484	824.67693
661.929	770.54773
662.373	752.64668
662.818	742.60087
663.262	701.47584
663.707	688.53805
664.151	713.52544
664.595	685.45222
665.039	665.46796
665.483	623.42035
665.927	693.43404
666.371	592.22395
666.814	645.3703
667.258	609.28586
667.701	682.29191
668.145	628.4015
668.588	603.33152
669.031	552.17425
669.474	557.21751
669.917	550.10496
670.36	531.20405
670.803	533.17626
671.245	573.08693
671.688	538.19993
672.13	472.97732
672.573	525.22551
673.015	482.06953
673.457	494.98992
673.899	464.04402
674.341	430.97181
674.783	406.91496
675.225	450.03021
675.666	416.93711
676.108	424.86301
676.549	505.10275
676.991	411.85197
677.432	357.67552
677.873	382.83728
678.314	388.87655
678.755	402.92259
679.196	398.85984
679.637	418.96237
680.078	340.76187
680.518	384.84982
680.959	380.86338
681.399	368.86753
681.839	321.75015
682.28	348.81912
682.72	350.76424
683.16	309.73992
683.6	362.78777
684.039	322.64525
684.479	284.67371
684.919	271.6049
685.358	313.7646
685.798	284.71934
686.237	284.66565
686.676	306.68626
687.115	246.5644
687.554	284.65314
687.993	268.57728
688.432	241.53861
688.871	213.47505
689.309	262.60856
689.748	286.58107
690.186	279.64715
690.625	253.57801
691.063	252.58904
691.501	238.57503
691.939	219.53501
692.377	233.55583
692.815	195.45948
693.253	233.54901
693.69	186.40513
694.128	192.4583
694.565	203.47703
695.003	179.4485
695.44	225.5186
695.877	176.40688
696.314	212.45038
696.751	205.46194
697.188	194.4401
697.625	244.54925
698.061	185.43846
698.498	232.55037
698.934	142.3409
699.371	141.33082
699.807	196.45761
700.243	178.42374
700.679	219.48823
701.115	191.44515
701.551	200.46493
701.987	171.38265
702.422	128.30378
702.858	159.37641
703.294	135.30633
703.729	182.44041
704.164	131.31491
704.599	170.37657
705.035	155.34556
705.47	123.29882
705.904	110.25724
706.339	158.36643
706.774	149.34768
707.209	112.25924
707.643	149.35628
708.078	151.3656
708.512	64.16132
708.946	142.3396
709.38	120.28491
709.814	153.34886
710.248	156.37792
710.682	123.29265
711.116	87.20867
711.549	151.38678
711.983	117.27119
712.416	137.3237
712.85	123.3063
713.283	121.28678
713.716	169.42085
714.149	139.33097
714.582	135.30346
715.015	187.46262
715.448	138.34646
715.881	156.34109
716.313	88.20789
716.746	76.18065
717.178	100.24144
717.61	110.27914
718.043	114.28435
718.475	102.24822
718.907	141.35558
719.339	60.13794
719.77	77.18405
720.202	94.23846
720.634	96.23441
721.065	85.20309
721.497	54.13396
721.928	63.15615
722.359	51.12441
722.79	51.12367
723.221	133.33373
723.652	139.35704
724.083	93.21145
724.514	122.28093
724.945	103.24318
725.375	54.12697
725.806	109.27262
726.236	113.28945
726.666	116.2752
727.096	99.24385
727.526	101.2568
727.956	84.19265
728.386	120.29541
728.816	26.06673
729.246	62.15212
729.675	58.14415
730.105	91.22513
730.534	68.16095
730.964	96.24353
731.393	136.33701
731.822	99.25332
732.251	42.10787
732.68	116.27414
733.109	59.14687
733.537	64.1561
733.966	58.14546
734.395	65.15197
734.823	91.20724
735.251	45.1099
735.68	90.22653
736.108	56.14307
736.536	71.16925
736.964	58.13638
737.392	51.12903
737.82	91.21967
738.247	50.12141
738.675	92.22129
739.102	41.10366
739.53	47.12086
739.957	62.16062
740.384	91.22571
740.811	68.17366
741.238	39.09652
741.665	64.15008
742.092	130.31007
742.519	13.03273
742.945	58.14083
743.372	81.20164
743.798	65.16825
744.225	52.12522
744.651	68.17189
745.077	65.1634
745.503	86.21101
745.929	34.08287
746.355	87.2176
746.781	57.14267
747.207	36.08574
747.632	53.1305
748.058	60.15107
748.483	76.17668
748.908	59.14794
749.334	83.20496
749.759	78.18533
750.184	46.11098
750.609	71.17585
751.033	83.19778
751.458	80.18134
751.883	56.14019
752.307	36.08607
752.732	22.05573
753.156	50.12481
753.58	78.18676
754.005	92.23413
754.429	20.04789
754.853	54.13504
755.277	82.19536
755.7	69.17239
756.124	15.03783
756.548	33.07942
756.971	102.24952
757.394	92.23735
757.818	54.14004
758.241	19.04891
758.664	45.11478
759.087	-3.00686
759.51	76.19019
759.933	30.07325
760.356	95.24377
760.778	77.19036
761.201	82.2006
761.623	107.25995
762.046	86.20536
762.468	130.3115
762.89	81.20098
763.312	115.28054
763.734	20.04896
764.156	71.17643
764.578	83.19238
765	81.19863
765.421	30.07705
765.843	44.11634
766.264	98.23742
766.686	66.16689
767.107	38.09327
767.528	25.06388
767.949	40.10277
768.37	49.12149
768.791	83.2018
769.212	20.0509
769.632	45.10612
770.053	42.1115
770.473	38.09358
770.894	107.26772
771.314	54.13043
771.734	43.10152
772.154	33.08565
772.575	97.22554
772.994	21.04856
773.414	80.19315
773.834	10.0254
774.254	55.13577
774.673	71.17398
775.093	17.04267
775.512	-13.03267
775.931	61.15554
776.351	77.19182
776.77	-5.01245
777.189	66.15809
777.607	47.12094
778.026	67.1677
778.445	5.0127
778.864	104.26616
779.282	81.19553
779.701	35.08912
780.119	25.06388
780.537	44.11071
780.955	61.15603
781.373	36.08996
781.791	7.01603
782.209	73.16927
782.627	27.07178
783.045	49.11385
783.462	50.12855
783.88	31.0809
784.297	-2.00511
784.715	23.05966
785.132	71.17256
785.549	18.04558
785.966	78.19646
786.383	49.1214
786.8	71.16574
787.217	52.12422
787.633	13.03286
788.05	100.23742
788.466	111.26105
788.883	-1.00259
789.299	54.13092
789.715	41.10054
790.131	60.14988
790.547	31.07818
790.963	64.15947
791.379	22.05621
791.795	68.15602
792.21	79.18514
792.626	32.07677
793.041	31.07726
793.457	44.10955
793.872	93.21846
794.287	23.05552
794.702	53.13136
795.117	54.13479
795.532	66.16576
795.947	71.17146
796.362	67.1607
796.776	109.25455
797.191	68.1669
797.605	27.06407
798.02	97.23539
798.434	95.21145
798.848	16.03987
799.262	37.09248
799.676	66.16158
800.09	86.2114
800.504	38.09299
800.918	63.1466
801.331	54.14211
801.745	56.12941
802.158	16.04044
802.572	101.24418
802.985	102.24571
803.398	48.11524
803.811	90.2309
804.224	64.15976
804.637	28.06737
805.05	55.12824
805.462	78.19173
805.875	17.04447
806.288	20.04876
806.7	58.14625
807.112	48.11207
807.525	89.21922
807.937	45.11186
808.349	82.20521
808.761	59.14564
809.173	83.20097
809.584	111.2727
809.996	19.04701
810.408	34.08829
810.819	65.15328
811.231	-8.02095
811.642	-42.10236
812.053	29.06958
812.464	-19.046
812.875	20.05158
813.286	56.14452
813.697	127.29437
814.108	60.14705
814.519	22.04965
814.929	88.22387
815.34	77.18672
815.75	23.05894
816.16	67.16721
816.571	67.17414
816.981	64.15154
817.391	40.09723
817.801	24.06013
818.211	56.13403
818.62	54.13048
819.03	77.18861
819.44	75.19574
819.849	63.15899
820.259	81.20697
820.668	42.10385
821.077	28.07007
821.486	71.17113
821.895	91.22414
822.304	39.10383
822.713	53.12581
823.122	61.15252
823.531	42.10018
823.939	49.11989
824.348	88.21335
824.756	69.17289
825.164	95.23804
825.573	69.17314
825.981	60.14912
826.389	47.11857
826.797	30.07567
827.205	42.09698
827.612	35.08694
828.02	38.0898
828.428	30.07691
828.835	43.1136
829.243	100.23706
829.65	-19.04799
830.057	75.18187
830.464	41.10043
830.871	80.19126
831.278	65.15726
831.685	18.04064
832.092	76.18585
832.499	86.18764
832.905	45.11438
833.312	73.16652
833.718	47.11755
834.124	90.20492
834.531	72.18135
834.937	70.17953
835.343	55.13307
835.749	67.15665
836.155	28.07376
836.561	50.12336
836.966	44.10808
837.372	55.14024
837.777	23.05773
838.183	63.14034
838.588	27.06751
838.993	66.16074
839.399	-5.01238
839.804	8.0197
840.209	31.07935
840.613	-6.01356
841.018	64.16207
841.423	43.11069
841.828	35.08896
842.232	101.24859
842.637	33.07837
843.041	17.04391
843.445	22.05559
843.849	36.08957
844.253	-1.00241
844.657	51.12866
845.061	46.10482
845.465	22.05356
845.869	63.14649
846.272	12.0295
846.676	68.16437
847.079	51.1299
847.483	91.22587
847.886	149.35682
848.289	47.12567
848.692	34.08653
849.095	34.08212
849.498	98.24684
849.901	39.08993
850.304	73.17415
850.707	58.14797
851.109	110.27597
851.512	51.12557
851.914	38.09612
852.316	56.14176
852.718	-25.06547
853.121	59.14463
853.523	59.138
853.925	-5.01318
854.326	30.0754
854.728	60.15426
855.13	16.04156
855.531	30.07211
855.933	88.21022
856.334	59.14709
856.736	3.0068
857.137	14.03285
857.538	28.07078
857.939	15.03735
858.34	60.14623
858.741	35.09184
859.142	68.16313
859.542	47.12421
859.943	16.04007
860.343	8.01999
860.744	36.08823
861.144	66.1608
861.544	31.07489
861.945	65.16545
862.345	60.14672
862.745	19.04756
863.145	93.22093
863.544	23.05848
863.944	25.05946
864.344	59.14655
864.743	104.25593
865.143	66.16927
865.542	46.10698
865.941	79.1948
866.34	51.12237
866.74	37.09961
867.139	39.09372
867.537	52.13262
867.936	16.03882
868.335	43.10968
868.734	62.15828
869.132	83.19192
869.531	71.17133
869.929	27.06194
870.327	65.1556
870.726	99.24501
871.124	80.1862
871.522	44.11233
871.92	92.22548
872.318	60.14661
872.715	85.20936
873.113	47.11474
873.511	79.19602
873.908	-3.00765
874.306	32.07994
874.703	64.15993
875.1	100.25386
875.497	71.16977
875.894	8.01977
876.291	65.15928
876.688	59.15208
877.085	60.14388
877.482	47.11785
877.878	25.06053
878.275	41.10443
878.671	77.17081
879.068	93.22297
879.464	64.15447
879.86	30.07131
880.256	16.03978
880.652	79.20009
881.048	77.19008
881.444	64.15213
881.84	49.12468
882.236	62.15572
882.631	30.07399
883.027	103.24723
883.422	40.10255
883.817	1.00254
884.213	38.0978
884.608	36.08859
885.003	28.06786
885.398	33.08293
885.793	58.14551
886.188	26.06497
886.582	86.2194
886.977	45.10703
887.371	54.1366
887.766	8.02006
888.16	56.13974
888.554	74.18237
888.949	55.13811
889.343	78.18975
889.737	15.04023
890.131	55.13796
890.525	44.11273
890.918	51.12843
891.312	45.10789
891.706	50.13127
892.099	108.27222
892.492	68.14635
892.886	52.1273
893.279	32.08184
893.672	1.00257
894.065	43.1079
894.458	69.17308
894.851	67.16381
895.244	40.10241
895.637	57.13723
896.029	61.14898
896.422	38.09313
896.814	36.0898
897.206	17.04077
897.599	70.17264
897.991	65.15685
898.383	11.02621
898.775	0
899.167	8.01883
899.559	66.16671
899.951	88.20611
900.342	70.17751
900.734	11.0275
901.125	58.15207
901.517	29.07151
901.908	83.19793
902.299	-10.02474
902.69	6.01429
903.082	59.14275
903.473	44.10555
903.863	73.18561
904.254	41.09541
904.645	99.24421
905.036	32.07779
905.426	120.27113
905.817	56.13735
906.207	27.06466
906.597	21.04943
906.987	59.15277
907.378	46.11649
907.768	62.16366
908.158	43.10505
908.547	20.05196
908.937	48.12328
909.327	78.18854
909.717	69.1747
910.106	38.09154
910.495	63.157
910.885	58.14677
911.274	76.18916
911.663	77.1946
912.052	49.121
912.441	49.12468
912.83	71.16241
913.219	95.24683
913.608	70.17092
913.997	16.04037
914.385	60.14317
914.774	45.10974
915.162	29.06942
915.55	55.13302
915.939	17.04318
916.327	66.16433
916.715	40.10216
917.103	101.24639
917.491	89.21873
917.878	33.08143
918.266	53.13742
918.654	78.19836
919.041	42.10982
919.429	-10.02389
919.816	73.18436
920.203	43.10447
920.591	38.09448
920.978	100.24272
921.365	39.10255
921.752	55.13106
922.139	65.14077
922.525	49.11775
922.912	43.10505
923.299	13.03254
923.685	54.14081
924.072	47.10851
924.458	58.14352
924.844	6.01497
925.231	46.10719
925.617	13.03329
926.003	53.13543
926.389	37.09358
926.774	65.16434
927.16	77.19036
927.546	1.00257
927.931	48.11986
928.317	52.11979
928.702	60.14174
929.088	53.12533
929.473	47.11967
929.858	3.00732
930.243	-2.00485
930.628	48.11686
931.013	23.0573
931.398	55.12642
931.783	78.20443
932.167	74.18015
932.552	22.05541
932.937	54.13396
933.321	34.08558
933.705	35.08849
934.09	89.22341
934.474	58.1376
934.858	46.11942
935.242	10.02337
935.626	44.11277
936.009	39.10393
936.393	10.02563
936.777	20.05149
937.16	43.11203
937.544	77.18052
937.927	40.10169
938.311	78.18946
938.694	78.20534
939.077	60.14339
939.46	79.19301
939.843	53.11056
940.226	52.13336
940.609	81.18484
940.991	55.13989
941.374	47.11496
941.757	54.13318
942.139	33.07439
942.522	46.10884
942.904	43.10353
943.286	40.10183
943.668	54.1398
944.05	33.08155
944.432	47.11607
944.814	60.14754
945.196	5.01229
945.578	9.02156
945.959	39.09161
946.341	98.23849
946.722	70.1637
947.104	37.08868
947.485	46.10715
947.866	40.10097
948.247	-14.03573
948.628	53.12924
949.009	14.03608
949.39	82.20298
949.771	85.19639
950.152	39.09592
950.532	-7.0174
950.913	59.1421
951.293	7.01904
951.674	60.14487
952.054	37.09191
952.434	35.08713
952.814	35.08353
953.194	91.23652
953.574	81.19841
953.954	36.08574
954.334	41.10236
954.714	10.02455
955.093	75.18357
955.473	48.12008
955.853	49.12688
956.232	77.21014
956.611	83.19786
956.99	55.13811
957.37	53.135
957.749	69.16404
958.128	-10.02547
958.506	68.17586
958.885	61.15367
959.264	6.01483
959.643	105.23632
960.021	33.08203
960.4	45.10211
960.778	63.15483
961.156	21.05292
961.535	56.13039
961.913	27.06347
962.291	23.05929
962.669	33.08385
963.047	48.12254
963.424	27.06919
963.802	33.0814
964.18	73.18397
964.557	68.15608
964.935	37.0879
965.312	45.11728
965.69	69.17221
966.067	16.03921
966.444	73.17914
966.821	66.16968
967.198	66.15965
967.575	51.12539
967.952	73.17128
968.329	73.17689
968.705	115.24319
969.082	57.14601
969.458	14.03382
969.835	54.13136
970.211	15.03873
970.587	91.22488
970.963	58.14859
971.339	13.03416
971.715	38.0951
972.091	45.11092
972.467	73.18133
972.843	26.06481
973.219	103.24488
973.594	43.11261
973.97	61.14491
974.345	40.09592
974.721	63.1522
975.096	89.21379
975.471	62.14675
975.846	55.13202
976.221	50.12697
976.596	44.10559
976.971	75.18432
977.346	90.2079
977.72	21.05377
978.095	21.05454
978.469	81.1922
978.844	105.26138
979.218	14.03379
979.593	43.10317
979.967	84.20335
980.341	34.07854
980.715	53.13347
981.089	55.13756
981.463	37.08518
981.837	42.10278
982.21	87.20101
982.584	62.14941
982.957	61.15202
983.331	67.15788
983.704	52.12773
984.078	46.11345
984.451	75.1865
984.824	50.12177
985.197	84.20274
985.57	56.14029
985.943	41.10143
986.316	133.32178
986.688	58.13967
987.061	71.16574
987.434	46.11995
987.806	68.16437
988.179	23.05456
988.551	91.22917
988.923	54.13289
989.295	99.24519
989.667	1.00241
990.039	50.12354
990.411	75.17177
990.783	75.17184
991.155	-11.02673
991.527	116.28219
991.898	35.08745
992.27	38.0942
992.641	76.18978
993.012	83.19406
993.384	28.06707
993.755	54.13757
994.126	53.12741
994.497	60.147
994.868	40.09207
995.239	44.10676
995.61	44.11083
995.98	49.11904
996.351	22.05476
996.722	51.11826
997.092	31.07367
997.462	-13.03074
997.833	41.09736
998.203	53.12842
998.573	35.08738
998.943	72.16811
999.313	81.19294
999.683	42.10095
1000.053	62.14231
1000.423	58.14072
1000.792	54.13985
1001.162	58.14252
1001.531	53.13059
1001.901	71.1763
1002.27	40.0896
1002.639	75.19077
1003.009	57.13536
1003.378	64.16322
1003.747	61.1438
1004.116	54.1291
1004.485	49.11712
1004.853	83.20902
1005.222	46.11607
1005.591	47.11165
1005.959	40.0903
1006.328	45.10136
1006.696	29.07022
1007.064	81.20259
1007.433	45.11255
1007.801	45.11055
1008.169	53.13376
1008.537	50.11071
1008.905	20.04686
1009.273	41.10143
1009.64	67.15929
1010.008	77.18257
1010.375	102.24525
1010.743	124.28211
1011.11	54.12767
1011.478	29.07204
1011.845	45.10591
1012.212	95.21302
1012.579	45.11055
1012.946	87.20556
1013.313	84.19859
1013.68	38.08561
1014.047	20.04792
1014.414	29.06876
1014.78	37.09214
1015.147	90.21598
1015.513	59.14189
1015.88	75.1909
1016.246	127.309
1016.612	48.10991
1016.978	39.09574
1017.344	30.0744
1017.71	73.17722
1018.076	85.19905
1018.442	61.15658
1018.808	45.11255
1019.174	43.10798
1019.539	152.34273
1019.905	26.06159
1020.27	39.09642
1020.636	61.14592
1021.001	39.09354
1021.366	35.08427
1021.731	56.14382
1022.096	-18.04594
1022.461	15.03573
1022.826	72.17035
1023.191	20.05272
1023.556	32.07524
1023.92	74.18109
1024.285	70.17016
1024.649	46.11278
1025.014	87.21397
1025.378	32.08069
1025.742	32.0797
1026.107	64.14431
1026.471	75.17418
1026.835	34.0845
1027.199	31.07486
1027.562	19.04442
1027.926	93.22552
1028.29	68.17146
1028.654	48.11044
1029.017	63.15443
1029.381	9.02166
1029.744	58.14766
1030.107	86.20198
1030.471	67.15984
1030.834	77.17415
1031.197	99.23618
1031.56	89.20833
1031.923	24.0623
1032.286	107.2484
1032.648	94.22283
1033.011	14.03235
1033.374	76.17766
1033.736	48.12619
1034.099	24.05876
1034.461	30.07602
1034.823	46.11458
1035.185	56.14075
1035.548	62.15049
1035.91	31.07449
1036.272	58.13174
1036.634	61.14886
1036.995	45.10583
1037.357	64.15522
1037.719	35.08532
1038.08	94.2212
1038.442	36.08564
1038.803	36.08662
1039.165	31.07846
1039.526	50.12077
1039.887	38.09109
1040.248	-1.00249
1040.609	44.1088
1040.97	49.11971
1041.331	68.17152
1041.692	26.06094
1042.053	44.10027
1042.413	82.1898
1042.774	81.19575
1043.134	90.21253
1043.495	30.07564
1043.855	39.09475
1044.215	56.13877
1044.576	48.11475
1044.936	48.11004
1045.296	46.11482
1045.656	68.16623
1046.016	106.25303
1046.375	38.09234
1046.735	7.016
1047.095	34.07979
1047.454	55.11636
1047.814	14.03387
1048.173	93.22025
1048.533	30.06897
1048.892	13.03141
1049.251	69.17252
1049.61	40.09862
1049.969	39.09208
1050.328	49.10621
1050.687	28.06837
1051.046	8.01962
1051.405	31.07734
1051.763	0
1052.122	27.06758
1052.48	49.12011
1052.839	23.05437
1053.197	47.11062
1053.555	105.23661
1053.914	60.1464
1054.272	77.1851
1054.63	22.05404
1054.988	14.03347
1055.345	81.17317
1055.703	66.15827
1056.061	32.08253
1056.419	51.13192
1056.776	84.20228
1057.134	35.08122
1057.491	29.07285
1057.848	55.13672
1058.206	34.08016
1058.563	36.07955
1058.92	75.17191
1059.277	47.11594
1059.634	63.14776
1059.991	74.17637
1060.348	8.01822
1060.704	42.10018
1061.061	76.17556
1061.418	45.10916
1061.774	48.11847
1062.131	48.12687
1062.487	50.11683
1062.843	75.18603
1063.199	32.07979
1063.555	17.03962
1063.911	48.1212
1064.267	50.10423
1064.623	7.01713
1064.979	61.14413
1065.335	40.09574
1065.691	57.13635
1066.046	42.09245
1066.402	28.06386
1066.757	72.1809
1067.112	62.15173
1067.468	31.07342
1067.823	29.06995
1068.178	46.11127
1068.533	62.14986
1068.888	47.1123
1069.243	45.11109
1069.598	49.119
1069.952	10.02269
1070.307	51.12613
1070.662	38.09036
1071.016	31.06969
1071.371	25.05712
1071.725	70.16671
1072.079	33.07957
1072.434	50.12141
1072.788	52.1237
1073.142	40.09851
1073.496	13.03104
1073.85	63.14562
1074.203	73.17622
1074.557	31.08264
1074.911	96.22696
1075.265	60.1391
1075.618	48.11716
1075.971	49.1165
1076.325	21.0536
1076.678	-9.02081
1077.031	26.05908
1077.385	54.11877
1077.738	41.09266
1078.091	24.05482
1078.444	59.13665
1078.796	25.06158
1079.149	42.10454
1079.502	35.08286
1079.855	21.04922
1080.207	96.23432
1080.56	29.07517
1080.912	41.09991
1081.264	50.12031
1081.617	66.16026
1081.969	-3.00763
1082.321	26.06372
1082.673	4.00921
1083.025	48.11383
1083.377	112.237
1083.728	43.10038
1084.08	56.13953
1084.432	43.10376
1084.783	95.22046
1085.135	47.11777
1085.486	45.10298
1085.838	14.03468
1086.189	60.14525
1086.54	56.13347
1086.891	58.14635
1087.242	22.0538
1087.593	66.16007
1087.944	33.07488
1088.295	52.11807
1088.646	29.07051
1088.996	53.12751
1089.347	50.12259
1089.698	-31.07435
1090.048	75.19379
1090.398	52.12046
1090.749	56.13373
1091.099	45.11316
1091.449	70.17359
1091.799	55.13746
1092.149	27.06606
1092.499	75.18194
1092.849	52.13201
1093.199	42.10533
1093.548	23.0555
1093.898	72.17927
1094.248	74.18919
1094.597	-8.02061
1094.947	62.16492
1095.296	26.06443
1095.645	82.21192
1095.994	80.19089
1096.343	75.18772
1096.692	47.12342
1097.041	15.04081
1097.39	62.15504
1097.739	55.14271
1098.088	51.13649
1098.437	-7.01855
1098.785	69.18528
1099.134	84.22158
1099.482	24.06622
1099.83	43.11303
1100.179	-9.02369
1100.527	86.22693
1100.875	46.12159
1101.223	84.22158
1101.571	30.08309
1101.919	-16.04223
1102.267	31.08745
1102.615	-5.01609
1102.962	16.05148
1103.31	-11.03541
1103.658	8.02578
