Data from N1 R2 sample 4_Subt2__2__13-53-29-670.txt Node

Date: Wed Sep 17 13:53:29 PDT 2025
User: uwsun
Spectrometer: HDX01956
Trigger mode: 0
Integration Time (sec): 5.000000E-1
Scans to average: 1
Nonlinearity correction enabled: true
Boxcar width: 0
Storing dark spectrum: false
XAxis mode: Wavelengths
Number of Pixels in Spectrum: 2068
>>>>>Begin Spectral Data<<<<<
194.03	-6.01743
194.578	2.0065
195.127	1.00321
195.676	-8.02576
196.225	-5.01336
196.773	-11.03079
197.321	-11.03085
197.87	34.08857
198.418	60.15672
198.966	81.2155
199.513	63.16245
200.061	55.14192
200.609	46.12321
201.156	36.08068
201.704	57.14565
202.251	68.18286
202.798	28.07396
203.345	83.20797
203.892	26.0671
204.438	18.04374
204.985	26.06323
205.532	9.02418
206.078	56.13898
206.624	121.30526
207.17	99.23464
207.716	50.12495
208.262	63.12762
208.808	81.2061
209.354	96.23989
209.899	37.09488
210.445	36.09191
210.99	46.11449
211.535	97.23114
212.08	48.11366
212.625	37.09418
213.17	85.21895
213.715	75.17418
214.259	54.12851
214.804	57.1419
215.348	97.22679
215.892	113.27628
216.436	26.06073
216.98	77.17138
217.524	76.18426
218.068	56.14352
218.612	93.23864
219.155	91.21735
219.698	87.20906
220.242	44.11027
220.785	30.072
221.328	89.22147
221.871	119.30396
222.414	50.12531
222.956	-2.0049
223.499	24.05462
224.041	47.10898
224.583	29.06237
225.126	51.11356
225.668	58.14252
226.21	62.15862
226.751	104.23287
227.293	48.11009
227.835	37.09207
228.376	40.09233
228.918	38.09585
229.459	50.12625
230	96.2317
230.541	17.03987
231.082	79.1938
231.622	45.10319
232.163	16.03929
232.704	90.22644
233.244	19.04795
233.784	26.06398
234.324	72.16387
234.864	54.1235
235.404	71.16841
235.944	54.12856
236.484	114.28446
237.023	62.14754
237.563	70.16434
238.102	71.16932
238.641	39.0992
239.18	22.05262
239.719	57.14406
240.258	60.13634
240.797	65.15679
241.335	46.11316
241.874	95.18662
242.412	78.19102
242.95	60.14667
243.488	26.05942
244.026	83.19459
244.564	87.18059
245.102	101.23002
245.64	44.10636
246.177	57.12813
246.715	54.13127
247.252	17.03933
247.789	124.22986
248.326	40.09785
248.863	93.20605
249.4	31.07151
249.936	149.31095
250.473	116.27467
251.009	53.1229
251.546	94.21143
252.082	10.02209
252.618	64.1449
253.154	72.17482
253.69	78.17638
254.226	64.15487
254.761	61.13858
255.297	39.08662
255.832	72.17285
256.367	85.20099
256.903	56.12637
257.438	107.25125
257.972	56.12637
258.507	79.1826
259.042	51.11267
259.576	107.23806
260.111	58.13473
260.645	59.12919
261.179	73.17269
261.713	135.30172
262.247	57.1317
262.781	75.15999
263.315	27.06653
263.849	100.25115
264.382	48.11181
264.915	92.2191
265.449	47.11624
265.982	67.15388
266.515	81.2001
267.048	76.16294
267.58	49.1073
268.113	86.18756
268.646	36.08934
269.178	35.07961
269.71	89.19858
270.243	139.32141
270.775	103.26513
271.307	21.05081
271.838	81.19257
272.37	39.09691
272.902	52.11941
273.433	100.22317
273.965	48.11812
274.496	89.22156
275.027	96.24007
275.558	83.20414
276.089	75.18901
276.62	48.12237
277.15	43.10712
277.681	34.07456
278.211	50.12341
278.741	79.17737
279.272	50.11624
279.802	53.13333
280.332	72.1718
280.861	47.11389
281.391	65.14959
281.921	48.11624
282.45	45.113
282.98	56.14742
283.509	112.25594
284.038	100.23027
284.567	92.21582
285.096	83.203
285.625	77.17493
286.153	82.19783
286.682	130.29887
287.21	29.07024
287.739	64.15301
288.267	64.15773
288.795	72.18941
289.323	58.13818
289.851	119.28074
290.378	50.11325
290.906	104.25574
291.433	84.21089
291.961	94.21663
292.488	67.16782
293.015	33.07945
293.542	121.31156
294.069	97.24191
294.596	49.12136
295.122	93.22484
295.649	81.17916
296.175	73.17742
296.702	113.2774
297.228	100.2419
297.754	96.21779
298.28	131.30207
298.806	39.09564
299.332	87.19701
299.857	82.18859
300.383	103.26003
300.908	82.20365
301.433	110.27099
301.958	107.24673
302.483	66.1654
303.008	118.29444
303.533	85.2207
304.058	79.18608
304.582	83.19824
305.107	45.11872
305.631	113.25755
306.155	84.1979
306.679	92.21851
307.203	107.25017
307.727	76.18232
308.251	118.29209
308.775	187.4514
309.298	131.31647
309.822	65.16521
310.345	115.27645
310.868	115.27886
311.391	146.35901
311.914	95.23984
312.437	121.27812
312.96	123.29107
313.482	82.19491
314.005	85.21398
314.527	83.21743
315.049	135.34191
315.571	106.24106
316.093	134.3323
316.615	120.28907
317.137	147.32107
317.659	124.30142
318.18	76.18336
318.702	176.4106
319.223	131.26877
319.744	175.39257
320.265	86.21202
320.786	158.3941
321.307	86.21467
321.828	147.33233
322.348	120.28425
322.869	156.37166
323.389	475.86677
323.909	125.28732
324.43	145.34671
324.95	162.37065
325.47	131.3261
325.989	181.42749
326.509	129.29129
327.029	179.40781
327.548	134.30548
328.067	169.40934
328.587	174.43479
329.106	106.24155
329.625	194.5003
330.144	156.36351
330.662	150.35338
331.181	203.47554
331.7	138.3222
332.218	171.37143
332.736	181.42251
333.255	160.37738
333.773	169.39853
334.291	160.4001
334.808	179.40319
335.326	183.41018
335.844	198.46355
336.361	209.53344
336.879	224.52216
337.396	216.52149
337.913	231.52797
338.43	181.40803
338.947	165.39468
339.464	234.49971
339.981	192.45338
340.497	174.42691
341.014	217.524
341.53	137.31175
342.046	266.65283
342.562	225.55437
343.078	190.44605
343.594	212.50021
344.11	298.69709
344.626	225.56191
345.141	248.56008
345.657	270.60055
346.172	266.63077
346.687	218.49655
347.202	302.67423
347.717	255.59897
348.232	230.56637
348.747	291.65812
349.261	206.45155
349.776	282.6576
350.29	242.59833
350.805	290.70064
351.319	262.59942
351.833	257.58384
352.347	276.64007
352.861	269.62099
353.374	299.66436
353.888	278.6671
354.401	242.54475
354.915	330.72546
355.428	328.79422
355.941	326.73801
356.454	268.5867
356.967	250.57518
357.48	275.6123
357.993	302.72467
358.505	257.61495
359.018	295.70667
359.53	340.80496
360.042	278.61218
360.554	359.84911
361.066	322.76148
361.578	336.72156
362.09	332.76686
362.602	383.82159
363.113	359.81683
363.625	373.81635
364.136	308.66087
364.647	345.79292
365.158	367.82388
365.669	301.70204
366.18	355.80741
366.691	314.67112
367.201	404.92644
367.712	373.82324
368.222	394.87085
368.733	340.71788
369.243	357.77243
369.753	434.95123
370.263	400.92572
370.773	324.76591
371.282	386.88588
371.792	440.96925
372.301	361.84095
372.811	452.12239
373.32	442.90906
373.829	408.91909
374.338	455.95708
374.847	444.97274
375.356	452.007
375.865	577.13771
376.373	529.11915
376.882	552.29694
377.39	496.12116
377.898	550.25299
378.407	586.22235
378.915	661.30486
379.423	606.28874
379.93	719.49188
380.438	656.42725
380.946	719.49255
381.453	711.52771
381.96	772.62867
382.468	801.65113
382.975	925.94018
383.482	921.74937
383.989	920.03399
384.495	1029.99557
385.002	1002.73475
385.509	1129.19043
386.015	1117.82005
386.521	1239.21042
387.028	1283.25647
387.534	1321.13653
388.04	1361.51719
388.546	1353.25353
389.051	1445.33727
389.557	1586.62658
390.063	1688.62881
390.568	1713.8734
391.073	1773.63108
391.578	1884.07849
392.084	1976.85301
392.589	2053.692
393.093	2181.17891
393.598	2320.0543
394.103	2589.30525
394.607	2839.41367
395.112	2955.54797
395.616	3194.47489
396.12	3519.04806
396.624	3807.16083
397.128	4194.16021
397.632	4557.82878
398.136	5089.39005
398.639	5265.44915
399.143	5930.4949
399.646	6698.94653
400.15	7399.90437
400.653	8267.41832
401.156	9349.13736
401.659	10783.25811
402.162	13145.29017
402.664	17293.11992
403.167	24509.7567
403.67	45444.6623
404.172	61505.51322
404.674	63858.43483
405.176	63738.15102
405.678	63977.72923
406.18	64011.81569
406.682	63863.44694
407.184	63926.60148
407.686	63841.39382
408.187	64025.8516
408.688	45264.94344
409.19	31282.23964
409.691	25226.85004
410.192	21293.64075
410.693	18432.54003
411.194	16514.927
411.694	15730.50218
412.195	14607.89736
412.696	13088.76455
413.196	12161.7918
413.696	11746.56442
414.196	11917.00805
414.696	11755.41291
415.196	11203.13556
415.696	10028.90416
416.196	8200.42797
416.695	6343.97271
417.195	5508.45821
417.694	5200.71842
418.194	4898.94458
418.693	4518.641
419.192	4485.86172
419.691	4215.90147
420.19	4233.12103
420.688	4095.32282
421.187	3900.24911
421.685	3688.09862
422.184	3396.26738
422.682	2896.86836
423.18	2477.09722
423.678	2215.97593
424.176	1977.84493
424.674	1917.70644
425.172	1773.81109
425.669	1746.95045
426.167	1601.61483
426.664	1471.41682
427.161	1343.32092
427.659	1236.3447
428.156	1186.94863
428.652	1121.29016
429.149	1084.13629
429.646	1054.89551
430.143	964.92661
430.639	912.8209
431.135	855.83735
431.632	849.65231
432.128	807.67542
432.624	731.66875
433.12	702.41023
433.616	724.38565
434.111	674.42235
434.607	632.35693
435.103	605.13212
435.598	623.15265
436.093	567.19758
436.588	551.12658
437.083	542.10489
437.578	507.07814
438.073	471.09455
438.568	467.06685
439.062	488.96027
439.557	396.87089
440.051	403.84957
440.546	378.81
441.04	392.88667
441.534	370.88206
442.028	438.98423
442.522	358.8144
443.015	315.64422
443.509	369.8484
444.002	371.85777
444.496	306.63419
444.989	311.72108
445.482	349.81972
445.975	364.79515
446.468	321.66185
446.961	284.59228
447.454	280.60312
447.947	295.67477
448.439	372.86128
448.931	301.66102
449.424	329.79739
449.916	348.80477
450.408	338.73305
450.9	285.66394
451.392	248.60844
451.884	276.60905
452.375	244.58374
452.867	248.5381
453.358	309.67487
453.849	253.52165
454.341	284.61437
454.832	231.48336
455.323	337.79678
455.814	227.50313
456.304	247.55156
456.795	260.57135
457.285	215.45964
457.776	248.54498
458.266	205.47326
458.756	183.42214
459.247	195.45447
459.737	267.62079
460.226	300.65231
460.716	230.53192
461.206	223.51666
461.695	165.3992
462.185	222.51057
462.674	217.48097
463.163	220.47837
463.653	233.47933
464.142	202.47588
464.63	203.47777
465.119	206.46524
465.608	262.58952
466.096	177.37529
466.585	190.42262
467.073	143.33145
467.561	199.4638
468.05	167.37601
468.538	178.42407
469.026	153.35561
469.513	175.36066
470.001	180.40337
470.489	200.46181
470.976	198.44973
471.463	153.37309
471.951	149.3628
472.438	167.38324
472.925	159.36649
473.412	127.30321
473.899	131.2958
474.385	133.32008
474.872	187.42431
475.359	178.42667
475.845	127.2595
476.331	98.20702
476.817	130.31114
477.303	162.36826
477.789	96.22634
478.275	145.35279
478.761	51.12092
479.247	130.28544
479.732	117.28776
480.218	132.33995
480.703	70.17143
481.188	134.28554
481.673	98.22323
482.158	106.22696
482.643	128.32159
483.128	140.32083
483.612	156.36409
484.097	116.27573
484.581	140.31812
485.066	140.33674
485.55	135.29386
486.034	63.1365
486.518	138.32473
487.002	64.15487
487.486	41.0995
487.969	68.16437
488.453	51.12654
488.936	59.13268
489.42	106.23206
489.903	82.20231
490.386	3.00628
490.869	116.25116
491.352	68.16275
491.835	48.0985
492.318	54.12131
492.8	110.22543
493.283	99.24985
493.765	38.0932
494.247	84.19412
494.73	80.17618
495.212	25.05946
495.694	82.19206
496.175	97.23088
496.657	86.20206
497.139	73.12517
497.62	96.22872
498.102	81.20017
498.583	10.02468
499.064	64.14242
499.545	94.21239
500.026	77.17344
500.507	37.08539
500.988	120.29562
501.469	-5.01256
501.949	100.24417
502.43	91.21751
502.91	90.18987
503.39	67.16521
503.87	102.23871
504.35	29.06807
504.83	78.16975
505.31	81.19383
505.79	0
506.269	39.08968
506.749	62.14134
507.228	47.11071
507.707	122.26855
508.187	120.28282
508.666	93.22839
509.145	75.17453
509.623	87.20221
510.102	78.18754
510.581	105.25059
511.059	126.31246
511.538	148.37423
512.016	119.28139
512.494	99.23555
512.972	127.29961
513.45	102.23562
513.928	119.28552
514.406	178.42602
514.884	175.44084
515.361	192.44704
515.839	227.50502
516.316	236.55359
516.793	210.51427
517.27	242.56056
517.747	196.48958
518.224	216.48145
518.701	207.44311
519.178	249.60036
519.654	235.53668
520.131	243.58035
520.607	232.54719
521.083	253.55
521.56	240.54489
522.036	188.398
522.512	259.61477
522.987	315.72109
523.463	224.51331
523.939	310.73282
524.414	227.50146
524.89	267.61098
525.365	245.53216
525.84	186.4358
526.315	199.46872
526.79	214.4673
527.265	205.45986
527.74	152.36185
528.215	184.4181
528.689	184.3926
529.164	178.37188
529.638	123.30741
530.112	171.39289
530.587	124.26182
531.061	153.36332
531.534	126.29938
532.008	199.47073
532.482	142.32083
532.956	141.35367
533.429	132.31834
533.903	134.28902
534.376	101.22135
534.849	87.19877
535.322	141.32707
535.795	89.21338
536.268	138.32878
536.741	84.19821
537.213	129.29224
537.686	102.24729
538.158	124.27845
538.631	73.17615
539.103	127.28302
539.575	118.23996
540.047	46.10062
540.519	76.18086
540.991	132.31714
541.463	77.1844
541.934	13.02965
542.406	106.25235
542.877	56.12653
543.348	86.20654
543.82	56.13613
544.291	120.27687
544.762	102.24086
545.233	92.23164
545.703	101.22312
546.174	62.14379
546.645	67.16192
547.115	54.13053
547.585	64.1472
548.056	74.18163
548.526	89.21037
548.996	70.16709
549.466	25.06117
549.935	88.20942
550.405	88.19274
550.875	62.14737
551.344	24.05766
551.814	48.11049
552.283	79.17233
552.752	87.20333
553.221	103.2263
553.69	133.29725
554.159	109.26927
554.628	102.23018
555.096	88.22292
555.565	62.13751
556.033	95.2256
556.502	63.15214
556.97	119.26255
557.438	58.13649
557.906	36.08551
558.374	48.1119
558.842	40.09636
559.31	68.15251
559.777	54.13235
560.245	-4.00931
560.712	37.08532
561.18	57.12671
561.647	-16.03615
562.114	7.01626
562.581	61.15019
563.048	25.05781
563.514	73.18291
563.981	64.14684
564.448	50.11357
564.914	15.03521
565.381	62.14203
565.847	46.10761
566.313	29.0678
566.779	21.04777
567.245	9.02108
567.711	-6.01456
568.176	37.08365
568.642	17.04313
569.108	22.05448
569.573	-1.00235
570.038	26.055
570.504	35.07971
570.969	32.07968
571.434	35.07839
571.899	11.02635
572.363	44.10148
572.828	80.18363
573.293	27.06243
573.757	45.10501
574.222	7.01591
574.686	78.17925
575.15	45.10879
575.614	102.23946
576.078	52.12246
576.542	29.06669
577.006	16.03659
577.469	69.16945
577.933	105.23787
578.396	24.05738
578.86	33.07821
579.323	92.2207
579.786	74.16077
580.249	92.21599
580.712	57.13874
581.175	49.12105
581.637	-3.00695
582.1	-17.03779
582.563	19.0409
583.025	10.02458
583.487	83.17098
583.95	-11.02404
584.412	55.11626
584.874	84.20411
585.336	35.08356
585.797	33.0725
586.259	42.0988
586.721	2.00475
587.182	44.10197
587.643	41.09379
588.105	11.02627
588.566	34.07166
589.027	75.18337
589.488	34.07867
589.949	63.15306
590.41	41.08214
590.87	91.20766
591.331	61.13391
591.791	53.12324
592.252	96.22265
592.712	49.11779
593.172	42.09621
593.632	110.24305
594.092	87.19348
594.552	55.11982
595.011	2.00465
595.471	87.19685
595.931	72.16275
596.39	31.07495
596.849	54.12618
597.308	31.06673
597.768	80.2056
598.227	21.05089
598.685	44.10087
599.144	38.09015
599.603	35.08238
600.062	14.02995
600.52	12.02747
600.978	25.05955
601.437	37.08474
601.895	41.08864
602.353	17.03781
602.811	50.11339
603.269	39.09322
603.727	24.05806
604.184	66.15064
604.642	56.13776
605.099	67.15659
605.557	49.1194
606.014	20.04362
606.471	36.09068
606.928	52.1162
607.385	61.15274
607.842	30.06936
608.299	57.13348
608.755	54.13097
609.212	41.09209
609.668	28.06375
610.125	40.09676
610.581	17.04021
611.037	23.05202
611.493	74.1723
611.949	113.27257
612.405	66.13489
612.861	33.07634
613.316	58.13898
613.772	45.10348
614.227	77.18447
614.683	52.11066
615.138	46.10816
615.593	7.01642
616.048	43.09876
616.503	12.02936
616.958	75.18698
617.412	39.09293
617.867	72.16089
618.321	51.10568
618.776	40.08853
619.23	30.07062
619.684	46.10292
620.138	30.069
620.592	75.18105
621.046	81.19042
621.5	23.05563
621.954	14.03123
622.407	33.07333
622.861	46.11169
623.314	28.0637
623.768	49.11578
624.221	30.0595
624.674	4.00933
625.127	18.04211
625.58	52.11672
626.033	91.19733
626.485	17.04088
626.938	67.15892
627.39	61.14229
627.843	40.09237
628.295	56.1289
628.747	58.13797
629.199	41.09349
629.651	11.02541
630.103	41.09417
630.555	14.02974
631.006	32.07457
631.458	8.01895
631.909	-4.00905
632.361	-9.02098
632.812	33.07655
633.263	28.06104
633.714	28.05954
634.165	-14.03389
634.616	14.03325
635.067	10.02218
635.518	38.09008
635.968	12.02378
636.419	73.15857
636.869	23.05462
637.319	27.06283
637.769	17.03843
638.219	8.01898
638.669	-8.01918
639.119	-38.09216
639.569	22.0529
640.019	33.07634
640.468	56.12519
640.918	-10.02392
641.367	11.02478
641.816	29.06463
642.265	79.18289
642.714	-6.01388
643.163	53.12221
643.612	49.1198
644.061	14.03016
644.51	47.10764
644.958	-5.01116
645.406	9.02162
645.855	9.02195
646.303	20.04639
646.751	47.10864
647.199	66.14882
647.647	46.10669
648.095	-5.0115
648.543	69.13926
648.99	6.0145
649.438	-6.01399
649.885	46.11441
650.333	67.12957
650.78	39.09418
651.227	-4.00986
651.674	80.18112
652.121	47.11504
652.568	37.0906
653.015	11.0273
653.461	26.06192
653.908	1.00231
654.354	31.07384
654.801	-5.01182
655.247	20.04349
655.693	15.03907
656.139	22.0526
656.585	45.10719
657.031	35.08228
657.477	31.06791
657.922	-8.01834
658.368	29.07125
658.813	17.03878
659.259	69.16612
659.704	84.19728
660.149	-11.02559
660.594	27.06414
661.039	68.15395
661.484	39.09222
661.929	29.0678
662.373	-37.09388
662.818	16.03963
663.262	-5.01217
663.707	66.16666
664.151	14.03421
664.595	23.05569
665.039	45.11125
665.483	35.08884
665.927	32.07504
666.371	42.09864
666.814	21.04995
667.258	64.15324
667.701	70.14813
668.145	39.09677
668.588	69.16958
669.031	11.02596
669.474	2.00482
669.917	-11.02432
670.36	37.09211
670.803	70.16773
671.245	-34.07062
671.688	38.0922
672.13	20.04535
672.573	24.06054
673.015	44.10571
673.457	12.02623
673.899	68.16306
674.341	45.10793
674.783	15.036
675.225	34.08348
675.666	100.24126
676.108	4.00869
676.549	6.01402
676.991	40.08757
677.432	18.03585
677.873	1.00229
678.314	13.03098
678.755	62.15167
679.196	29.0662
679.637	14.03352
680.078	51.1184
680.518	-3.00692
680.959	15.03572
681.399	33.08137
681.839	36.08702
682.28	62.15274
682.72	10.02291
683.16	47.11653
683.6	67.15092
684.039	-4.00831
684.479	45.11047
684.919	63.14695
685.358	12.02985
685.798	-22.05752
686.237	-3.00717
686.676	-31.07077
687.115	52.1216
687.554	81.19131
687.993	47.10331
688.432	43.09753
688.871	70.15874
689.309	45.10723
689.748	30.06223
690.186	30.06985
690.625	9.02115
691.063	49.11596
691.501	30.07385
691.939	117.28871
692.377	-2.00485
692.815	130.31067
693.253	49.1156
693.69	69.14918
694.128	17.04118
694.565	8.01894
695.003	27.06868
695.44	60.14064
695.877	66.15349
696.314	10.02104
696.751	21.04742
697.188	59.13534
697.625	32.07115
698.061	3.00718
698.498	-6.01419
698.934	21.04997
699.371	28.06556
699.807	44.10294
700.243	64.15248
700.679	2.00446
701.115	51.1177
701.551	44.10124
701.987	-3.00655
702.422	42.09941
702.858	44.10402
703.294	80.18053
703.729	42.10118
704.164	26.06166
704.599	81.17789
705.035	37.08235
705.47	18.04348
705.904	27.06211
706.339	48.10898
706.774	3.00701
707.209	45.10373
707.643	51.1206
708.078	27.06518
708.512	-6.01503
708.946	9.02122
709.38	71.16607
709.814	52.1162
710.248	64.15435
710.682	51.12111
711.116	92.21986
711.549	10.02539
711.983	32.07327
712.416	55.1289
712.85	32.07849
713.283	28.06556
713.716	48.11742
714.149	42.0961
714.582	89.19587
715.015	24.05834
715.448	48.11943
715.881	38.08062
716.313	32.07401
716.746	46.10757
717.178	11.0263
717.61	76.18992
718.043	22.05384
718.475	58.13866
718.907	72.17646
719.339	25.05622
719.77	49.11587
720.202	-31.07765
720.634	49.11873
721.065	60.13904
721.497	74.17779
721.928	-6.0146
722.359	5.01212
722.79	10.02379
723.221	39.09553
723.652	51.12761
724.083	36.07994
724.514	53.11987
724.945	20.04639
725.375	40.09237
725.806	22.05364
726.236	47.11832
726.666	11.02572
727.096	32.07729
727.526	75.18968
727.956	22.04983
728.386	55.13252
728.816	42.10613
729.246	70.16965
729.675	-64.15685
730.105	65.15584
730.534	68.15521
730.964	48.11773
731.393	106.25244
731.822	54.13572
732.251	58.14462
732.68	3.00688
733.109	41.09968
733.537	45.10851
733.966	37.0912
734.395	76.17186
734.823	6.01314
735.251	16.03802
735.68	43.10423
736.108	0
736.536	21.04854
736.964	11.02522
737.392	18.04444
737.82	28.06586
738.247	73.16987
738.675	17.03942
739.102	29.07133
739.53	65.16416
739.957	118.297
740.384	5.01191
740.811	26.06372
741.238	88.21078
741.665	25.05811
742.092	-7.01594
742.519	50.12209
742.945	84.19959
743.372	59.14393
743.798	49.12318
744.225	60.13888
744.651	-4.00992
745.077	40.09807
745.503	8.01908
745.929	82.19409
746.355	58.13802
746.781	29.07011
747.207	39.09126
747.632	53.12944
748.058	116.28408
748.483	7.01592
748.908	38.0932
749.334	72.17371
749.759	66.1541
750.184	68.16058
750.609	22.05312
751.033	96.21717
751.458	59.12843
751.883	30.0726
752.307	37.08563
752.732	32.08077
753.156	48.11589
753.58	46.10622
754.005	11.02723
754.429	28.0655
754.853	11.0271
755.277	72.16712
755.7	45.10965
756.124	11.02703
756.548	10.02332
756.971	70.16677
757.394	8.02019
757.818	57.14421
758.241	81.20098
758.664	36.08941
759.087	75.16513
759.51	-5.0122
759.933	64.1516
760.356	56.14186
760.778	69.16562
761.201	72.16943
761.623	34.07929
762.046	5.01151
762.468	65.15168
762.89	39.09322
763.312	68.16269
763.734	5.01192
764.156	28.06804
764.578	50.11122
765	25.05994
765.421	5.01263
765.843	42.10787
766.264	11.02562
766.686	35.0851
767.107	55.13031
767.528	51.12866
767.949	20.04994
768.37	80.19345
768.791	57.13322
769.212	-1.0025
769.632	32.07372
770.053	-14.03621
770.473	45.106
770.894	-23.05596
771.314	45.10356
771.734	24.05489
772.154	32.08005
772.575	45.10116
772.994	20.04441
773.414	39.09054
773.834	40.09745
774.254	29.06934
774.673	98.23259
775.093	48.11707
775.512	42.10164
775.931	30.07472
776.351	55.13417
776.77	29.06998
777.189	42.09756
777.607	23.05769
778.026	37.09029
778.445	7.01754
778.864	13.03234
779.282	-11.02583
779.701	-15.03716
780.119	0
780.537	-10.02454
780.955	19.04708
781.373	7.01699
781.791	50.1109
782.209	32.07032
782.627	36.09294
783.045	41.09073
783.462	34.08499
783.88	25.06359
784.297	53.13006
784.715	26.06584
785.132	44.10314
785.549	44.10724
785.966	27.06653
786.383	31.07506
786.8	55.12394
787.217	58.1351
787.633	42.10351
788.05	30.06792
788.466	40.09045
788.883	47.11815
789.299	-19.04442
789.715	64.15172
790.131	69.1665
790.547	58.14041
790.963	29.07016
791.379	10.02483
791.795	19.0418
792.21	7.0159
792.626	31.071
793.041	-6.01451
793.457	39.09318
793.872	15.03412
794.287	71.16691
794.702	-24.05722
795.117	36.08771
795.532	29.07164
795.947	43.09892
796.362	0
796.776	2.00448
797.191	26.06225
797.605	15.03491
798.02	27.06394
798.434	36.07771
798.848	49.11904
799.262	29.07019
799.676	62.14635
800.09	28.06707
800.504	28.06579
800.918	-6.01346
801.331	-43.10868
801.745	-1.00223
802.158	40.09625
802.572	32.07545
802.985	29.06743
803.398	5.0116
803.811	-18.04446
804.224	-23.05546
804.637	15.03502
805.05	52.11538
805.462	-2.00478
805.875	4.0102
806.288	41.09673
806.7	5.01215
807.112	64.14147
807.525	-20.04759
807.937	-9.02187
808.349	-5.01217
808.761	31.07447
809.173	20.04743
809.584	-5.01201
809.996	-9.02155
810.408	-2.00512
810.819	-20.0462
811.231	64.16637
811.642	53.12789
812.053	41.09725
812.464	33.07579
812.875	43.10736
813.286	74.18592
813.697	40.0879
814.108	6.01421
814.519	81.17459
814.929	44.10844
815.34	-12.02815
815.75	5.01254
816.16	-13.03128
816.571	2.00506
816.981	-15.03416
817.391	-11.02569
817.801	3.00731
818.211	-4.00927
818.62	14.033
819.03	-28.06709
819.44	-18.04526
819.849	-8.01948
820.259	1.00247
820.668	-6.01449
821.077	38.09248
821.486	28.06442
821.895	10.02366
822.304	26.06694
822.713	-15.03448
823.122	32.07726
823.531	-22.05019
823.939	46.10888
824.348	23.05386
824.756	6.01455
825.164	6.01463
825.573	23.05613
825.981	19.04547
826.389	32.07776
826.797	45.11117
827.205	22.04932
827.612	17.04049
828.02	-31.07086
828.428	9.0223
828.835	32.08253
829.243	-11.02536
829.65	16.03902
830.057	6.01408
830.464	68.16151
830.871	61.14111
831.278	22.05159
831.685	10.02149
832.092	29.06799
832.499	62.13057
832.905	26.06339
833.312	-30.06546
833.718	67.16192
834.124	27.05977
834.531	17.04118
834.937	34.08493
835.343	-10.02329
835.749	-16.03583
836.155	14.03572
836.561	67.15868
836.966	-1.00237
837.372	15.03691
837.777	12.02918
838.183	2.00428
838.588	22.05338
838.993	46.10808
839.399	2.00478
839.804	-16.03818
840.209	11.02761
840.613	49.1043
841.018	17.04156
841.423	45.11178
841.828	36.08866
842.232	0
842.637	84.19165
843.041	4.01005
843.445	0
843.849	60.14366
844.253	85.19217
844.657	1.00247
845.061	88.19387
845.465	-18.04246
845.869	24.05385
846.272	-4.00954
846.676	-19.04397
847.079	2.005
847.483	45.10797
847.886	-11.0258
848.289	30.07892
848.692	-27.06643
849.095	17.03934
849.498	38.09161
849.901	23.05041
850.304	39.08968
850.707	34.08358
851.109	49.11887
851.512	13.0311
851.914	-8.01983
852.316	15.0373
852.718	37.09514
853.121	22.05225
853.523	-17.03839
853.925	-12.03096
854.326	19.04644
854.728	27.06763
855.13	-5.01273
855.531	2.00466
855.933	15.03448
856.334	3.00734
856.736	39.08486
857.137	40.09041
857.538	37.0907
857.939	53.12813
858.34	16.03733
858.741	45.11337
859.142	37.08515
859.542	32.08259
859.943	29.06966
860.343	-1.00243
860.744	49.11501
861.144	32.07615
861.544	24.05665
861.945	6.01485
862.345	38.08914
862.745	42.10156
863.145	7.01588
863.544	14.03448
863.944	19.04336
864.344	-5.01191
864.743	49.11685
865.143	51.1277
865.542	-45.10066
865.941	50.11972
866.34	47.10669
866.74	8.02097
867.139	40.09369
867.537	-52.12867
867.936	30.07005
868.335	16.0394
868.734	-7.01748
869.132	-26.05805
869.531	16.03695
869.929	41.09027
870.327	3.00698
870.726	-10.02401
871.124	21.04693
871.522	-39.09702
871.92	51.12106
872.318	-3.00707
872.715	5.01182
873.113	32.07477
873.511	38.09102
873.908	27.06721
874.306	15.03651
874.703	-19.04588
875.1	-33.08137
875.497	-14.03251
875.894	29.07006
876.291	15.03574
876.688	26.06511
877.085	57.13013
877.482	-3.0073
877.878	46.10812
878.275	8.01981
878.671	-32.067
879.068	59.13648
879.464	12.02806
879.86	-28.06455
880.256	-23.05441
880.652	28.0689
881.048	25.05918
881.444	2.00454
881.84	-3.00741
882.236	17.04136
882.631	51.12111
883.027	15.03496
883.422	-22.05458
883.817	24.05891
884.213	31.07703
884.608	52.1256
885.003	-4.00928
885.398	-17.04155
885.793	-15.03652
886.188	-31.07517
886.582	14.03449
886.977	8.01823
887.371	1.00244
887.766	-3.0073
888.16	-5.01191
888.554	2.00476
888.949	33.07996
889.343	-6.01415
889.737	18.04715
890.131	5.01218
890.525	35.08719
890.918	-12.02939
891.312	36.08194
891.706	8.02037
892.099	15.03688
892.492	15.03087
892.886	11.02599
893.279	-16.03965
893.672	-5.01249
894.065	-6.01463
894.458	-20.04853
894.851	27.06335
895.244	-10.02487
895.637	60.13904
896.029	34.08072
896.422	-8.01874
896.814	9.02161
897.206	68.15727
897.599	46.1093
897.991	6.01416
898.383	25.0571
898.775	71.15468
899.167	30.06847
899.559	-8.01952
899.951	1.00226
900.342	-1.00245
900.734	41.10065
901.125	-1.00254
901.517	22.05231
901.908	26.0591
902.299	7.01665
902.69	54.12335
903.082	50.11628
903.473	15.03533
903.863	0
904.254	-7.01596
904.645	4.00952
905.036	37.0882
905.426	37.07989
905.817	-5.01183
906.207	-42.0966
906.597	19.04336
906.987	24.05971
907.378	-2.00495
907.768	30.07718
908.158	17.03997
908.547	32.08124
908.937	-32.07924
909.327	42.09783
909.717	0
910.106	-25.05818
910.495	1.00239
910.885	49.11989
911.274	2.00484
911.663	-11.02691
912.052	5.0118
912.441	42.10393
912.83	30.06562
913.219	59.1481
913.608	67.15788
913.997	9.02212
914.385	23.05299
914.774	73.16947
915.162	52.12036
915.55	20.04631
915.939	17.04193
916.327	-2.00481
916.715	34.08515
917.103	3.00702
917.491	47.11135
917.878	79.185
918.266	-12.0302
918.654	19.04745
919.041	43.11003
919.429	40.09064
919.816	17.04167
920.203	30.0709
920.591	40.09577
920.978	37.08722
921.365	5.01282
921.752	-50.11463
922.139	59.12192
922.525	-9.02108
922.912	36.08415
923.299	7.0169
923.685	-19.04793
924.072	-36.07868
924.458	-10.02422
924.844	9.02159
925.231	-19.0425
925.617	52.12891
926.003	18.04441
926.389	-23.05657
926.774	1.00245
927.16	17.04074
927.546	-8.02024
927.931	11.02639
928.317	-19.04211
928.702	40.09034
929.088	56.12998
929.473	68.16758
929.858	26.06187
930.243	34.07948
930.628	64.1509
931.013	19.04562
931.398	-3.00654
931.783	20.05048
932.167	76.17968
932.552	28.0675
932.937	62.14652
933.321	38.09282
933.705	9.02173
934.09	43.10231
934.474	50.11251
934.858	25.06298
935.242	-25.05611
935.626	22.05486
936.009	75.19406
936.393	67.16618
936.777	9.02253
937.16	36.09139
937.544	5.01118
937.927	25.06176
938.311	58.13457
938.694	51.13064
939.077	12.02775
939.46	-13.03028
939.843	14.02724
940.226	20.0494
940.609	49.10911
940.991	3.00736
941.374	18.04282
941.757	5.0119
942.139	68.14604
942.522	40.09005
942.904	30.06947
943.286	42.10244
943.668	80.20107
944.05	65.15352
944.432	-12.02866
944.814	0
945.196	16.03805
945.578	22.05139
945.959	-23.05177
946.341	1.00233
946.722	30.06723
947.104	49.11236
947.485	30.06712
947.866	32.07857
948.247	12.02966
948.628	8.01847
949.009	-6.01496
949.39	-14.03365
949.771	-9.01974
950.152	19.04512
950.532	55.13392
950.913	33.07643
951.293	42.11098
951.674	20.04668
952.054	89.21484
952.434	47.11243
952.814	6.01362
953.194	-3.00753
953.574	43.10125
953.954	-39.08925
954.334	53.12823
954.714	14.03318
955.093	32.07574
955.473	55.13377
955.853	20.05021
956.232	-9.02406
956.611	-29.06671
956.99	53.12867
957.37	-6.01476
957.749	24.05416
958.128	31.07593
958.506	-3.00759
958.885	55.13282
959.264	30.07191
959.643	44.09653
960.021	37.08905
960.4	49.10589
960.778	3.00704
961.156	8.01934
961.535	2.00445
961.913	49.11046
962.291	25.06296
962.669	12.02964
963.047	2.00499
963.424	82.20335
963.802	6.01433
964.18	16.03847
964.557	30.0659
964.935	41.09303
965.312	15.03815
965.69	51.12139
966.067	5.01163
966.444	-25.05875
966.821	71.17591
967.198	18.04156
967.575	24.05645
967.952	38.08558
968.329	43.10125
968.705	59.1211
969.082	92.22906
969.458	34.0797
969.835	37.08658
970.211	23.05782
970.587	53.12702
970.963	-29.07196
971.339	58.14666
971.715	47.11311
972.091	36.08521
972.467	-1.00238
972.843	26.06311
973.219	83.18742
973.594	-10.02551
973.97	12.02675
974.345	35.08093
974.721	-19.04395
975.096	42.09853
975.471	28.06355
975.846	8.01841
976.221	2.00494
976.596	75.17473
976.971	47.11238
977.346	28.062
977.72	22.0539
978.095	12.03005
978.469	36.08207
978.844	21.05066
979.218	23.05405
979.593	37.08464
979.967	-22.05104
980.341	61.13464
980.715	32.07802
981.089	35.08433
981.463	31.06828
981.837	18.04305
982.21	-13.02842
982.584	27.06313
982.957	16.03892
983.331	-5.01124
983.704	59.14086
984.078	36.08521
984.451	-5.01185
984.824	2.00475
985.197	-20.0464
985.57	-26.06244
985.943	18.04204
986.316	1.00234
986.688	78.17875
987.061	50.11256
987.434	75.19029
987.806	14.03224
988.179	42.09451
988.551	26.06337
988.923	-2.00474
989.295	16.0384
989.667	34.07942
990.039	52.12565
990.411	-37.0814
990.783	26.05656
991.155	14.03265
991.527	-9.02103
991.898	35.08449
992.27	47.11294
992.641	-1.00241
993.012	-8.01769
993.384	4.00916
993.755	11.02735
994.126	37.08634
994.497	12.02848
994.868	19.04138
995.239	28.06507
995.61	21.05113
995.98	8.01874
996.351	-10.02424
996.722	64.14336
997.092	7.0161
997.462	16.0365
997.833	3.0068
998.203	-30.06961
998.573	0
998.943	55.12399
999.313	13.03026
999.683	8.01862
1000.053	0
1000.423	25.05799
1000.792	3.00746
1001.162	-30.07136
1001.531	24.05718
1001.901	31.07401
1002.27	7.0147
1002.639	-25.06176
1003.009	29.06607
1003.378	21.05205
1003.747	16.03612
1004.116	-28.06499
1004.485	35.08022
1004.853	-20.04858
1005.222	-94.22927
1005.591	-8.0183
1005.959	37.08016
1006.328	6.01306
1006.696	-12.02792
1007.064	-2.00483
1007.433	-9.02164
1007.801	-19.04444
1008.169	-28.06811
1008.537	32.0676
1008.905	22.04967
1009.273	5.01184
1009.64	40.09288
1010.008	45.10244
1010.375	1.0023
1010.743	4.00859
1011.11	24.05579
1011.478	19.04574
1011.845	-6.01355
1012.212	47.10287
1012.579	-10.02386
1012.946	-15.03413
1013.313	64.14372
1013.68	61.12939
1014.047	-15.03463
1014.414	-10.02281
1014.78	6.0145
1015.147	26.05963
1015.513	13.0302
1015.88	21.05146
1016.246	32.07489
1016.612	-22.04827
1016.978	11.02622
1017.344	13.03111
1017.71	34.07901
1018.076	16.03586
1018.442	34.08469
1018.808	33.08029
1019.174	-43.10466
1019.539	-17.03608
1019.905	28.06381
1020.27	-4.00954
1020.636	-15.03431
1021.001	30.06925
1021.366	-23.05392
1021.731	100.24889
1022.096	14.03453
1022.461	36.08194
1022.826	58.13281
1023.191	-3.00766
1023.556	54.11997
1023.92	5.01175
1024.285	-27.06328
1024.649	6.0141
1025.014	-15.03559
1025.378	6.01471
1025.742	21.04979
1026.107	59.1263
1026.471	17.03784
1026.835	-8.01923
1027.199	1.00233
1027.562	9.01989
1027.926	3.00704
1028.29	15.03674
1028.654	15.03297
1029.017	67.15782
1029.381	14.03235
1029.744	-2.00495
1030.107	14.03186
1030.471	26.0602
1030.834	-42.09113
1031.197	34.07845
1031.56	15.03383
1031.923	18.04514
1032.286	54.12091
1032.648	13.02946
1033.011	26.05815
1033.374	28.06231
1033.736	-2.00512
1034.099	33.07737
1034.461	8.01974
1034.823	-21.05111
1035.185	1.00241
1035.548	44.10322
1035.91	-8.01849
1036.272	42.09183
1036.634	54.12628
1036.995	28.06254
1037.357	40.09394
1037.719	16.03758
1038.08	79.17991
1038.442	-11.0252
1038.803	39.0881
1039.165	15.03637
1039.526	28.06509
1039.887	10.02303
1040.248	6.01456
1040.609	-12.0284
1040.97	38.08879
1041.331	42.10309
1041.692	55.125
1042.053	16.03469
1042.413	42.0928
1042.774	15.03525
1043.134	-10.02268
1043.495	21.0509
1043.855	69.16158
1044.215	22.05227
1044.576	29.06714
1044.936	7.01532
1045.296	34.08156
1045.656	12.02806
1046.016	16.03693
1046.375	19.04437
1046.735	63.13853
1047.095	46.10292
1047.454	3.006
1047.814	6.01393
1048.173	12.02715
1048.533	44.09616
1048.892	-7.01634
1049.251	47.11226
1049.61	1.00238
1049.969	29.0653
1050.328	29.05993
1050.687	11.02562
1051.046	12.02804
1051.405	18.04272
1051.763	56.1242
1052.122	11.02645
1052.48	18.04269
1052.839	44.10083
1053.197	37.08324
1053.555	3.00641
1053.914	23.05392
1054.272	-2.00456
1054.63	-6.01425
1054.988	-24.0559
1055.345	4.00812
1055.703	39.09015
1056.061	21.05288
1056.419	69.17432
1056.776	-29.06703
1057.134	17.03702
1057.491	41.09871
1057.848	15.03579
1058.206	27.0598
1058.563	19.03992
1058.92	60.13075
1059.277	12.02856
1059.634	-12.02685
1059.991	51.11709
1060.348	31.06731
1060.704	41.09597
1061.061	88.18907
1061.418	14.03278
1061.774	-18.04315
1062.131	37.0961
1062.487	-40.09027
1062.843	-26.06299
1063.199	7.01684
1063.555	17.03823
1063.911	14.03392
1064.267	33.06412
1064.623	15.03557
1064.979	-32.07065
1065.335	-3.00685
1065.691	-11.02507
1066.046	0
1066.402	9.01948
1066.757	14.03417
1067.112	24.05637
1067.468	-5.01158
1067.823	-42.09606
1068.178	13.03005
1068.533	8.01869
1068.888	54.12236
1069.243	4.00954
1069.598	23.05333
1069.952	27.05962
1070.307	3.00723
1070.662	51.11737
1071.016	58.12553
1071.371	36.07871
1071.725	10.02279
1072.079	4.00931
1072.434	11.02589
1072.788	6.01356
1073.142	62.1459
1073.496	11.02504
1073.85	22.04877
1074.203	9.02108
1074.557	46.11962
1074.911	34.07707
1075.265	22.04898
1075.618	23.05409
1075.971	30.06831
1076.325	25.06185
1076.678	-29.06431
1077.031	-74.15981
1077.385	-24.05074
1077.738	-18.03909
1078.091	30.06596
1078.444	12.02638
1078.796	-2.00478
1079.149	78.18541
1079.502	29.06626
1079.855	27.06044
1080.207	-32.07636
1080.56	23.05788
1080.912	15.03508
1081.264	45.10422
1081.617	28.06589
1081.969	-19.04694
1082.321	1.00235
1082.673	48.10633
1083.025	-27.06166
1083.377	286.60943
1083.728	-30.0674
1084.08	-9.02162
1084.432	16.03696
1084.783	5.01102
1085.135	38.09206
1085.486	10.02214
1085.838	10.02387
1086.189	14.03307
1086.54	14.03199
1086.891	30.07467
1087.242	19.04541
1087.593	24.0552
1087.944	75.16242
1088.295	50.10775
1088.646	52.12313
1088.996	19.04437
1089.347	17.0399
1089.698	8.01845
1090.048	22.05486
1090.398	23.0507
1090.749	16.03643
1091.099	38.09324
1091.449	59.14135
1091.799	26.06268
1092.149	23.05489
1092.499	35.08199
1092.849	17.04184
1093.199	-14.03371
1093.548	9.02111
1093.898	6.01445
1094.248	15.03687
1094.597	-9.02265
1094.947	14.03634
1095.296	34.08122
1095.645	56.13928
1095.994	54.12385
1096.343	24.05849
1096.692	31.08019
1097.041	55.14628
1097.39	9.02168
1097.739	12.03019
1098.088	52.13327
1098.437	31.08005
1098.785	4.0104
1099.134	-25.06368
1099.482	17.04566
1099.83	37.09394
1100.179	44.113
1100.527	-17.04352
1100.875	19.04913
1101.223	40.10345
1101.571	-47.1272
1101.919	32.08284
1102.267	39.10769
1102.615	-4.01286
1102.962	-11.03534
1103.31	5.01606
1103.658	0
