Data from N1 R2 sample 6_Subt2__3__13-56-31-673.txt Node

Date: Wed Sep 17 13:56:31 PDT 2025
User: uwsun
Spectrometer: HDX01956
Trigger mode: 0
Integration Time (sec): 5.000000E-1
Scans to average: 1
Nonlinearity correction enabled: true
Boxcar width: 0
Storing dark spectrum: false
XAxis mode: Wavelengths
Number of Pixels in Spectrum: 2068
>>>>>Begin Spectral Data<<<<<
194.03	593.56583
194.578	619.85779
195.127	630.85696
195.676	625.85125
196.225	644.53031
196.773	704.74434
197.321	1046.43289
197.87	1396.76263
198.418	1505.93267
198.966	1524.04559
199.513	1399.74748
200.061	1396.74094
200.609	1421.9115
201.156	1424.28314
201.704	1393.70256
202.251	1450.98219
202.798	1450.88423
203.345	1416.67807
203.892	1499.85396
204.438	1412.52365
204.985	1450.57472
205.532	1483.98447
206.078	1501.72648
206.624	1588.935
207.17	1539.62817
207.716	1518.76785
208.262	1523.07898
208.808	1505.84346
209.354	1543.82836
209.899	1503.84104
210.445	1475.78931
210.99	1518.74989
211.535	1532.63904
212.08	1536.58618
212.625	1516.82769
213.17	1538.93472
213.715	1546.54588
214.259	1532.60435
214.804	1528.76947
215.348	1548.58693
215.892	1510.72023
216.436	1528.51463
216.98	1509.36832
217.524	1560.71726
218.068	1570.93161
218.612	1532.91765
219.155	1455.56049
219.698	1471.59681
220.242	1402.63616
220.785	1345.41138
221.328	1359.58551
221.871	1365.70307
222.414	1338.55831
222.956	1304.40725
223.499	1292.18477
224.041	1305.268
224.583	1274.01111
225.126	1313.16034
225.668	1377.54562
226.21	1277.55193
226.751	1388.28769
227.293	1299.22915
227.835	1329.51492
228.376	1322.26942
228.918	1327.55847
229.459	1338.58401
230	1335.45797
230.541	1340.32486
231.082	1304.46092
231.622	1333.26478
232.163	1295.41486
232.704	1360.62535
233.244	1306.52088
233.784	1344.48994
234.324	1367.29558
234.864	1299.22442
235.404	1315.36337
235.944	1295.3403
236.484	1389.64908
237.023	1369.43213
237.563	1391.41822
238.102	1369.4446
238.641	1316.57275
239.18	1376.43146
239.719	1368.63082
240.258	1375.29165
240.797	1398.51254
241.335	1327.47957
241.874	1439.95337
242.412	1452.63646
242.95	1436.59944
243.488	1361.27311
244.026	1385.4153
244.564	1470.12592
245.102	1444.3963
245.64	1384.48979
246.177	1323.20207
246.715	1423.5609
247.252	1343.28552
247.789	1451.82891
248.326	1393.53844
248.863	1416.2766
249.4	1468.4165
249.936	1443.15909
250.473	1473.5669
251.009	1403.38058
251.546	1531.4348
252.082	1451.24653
252.618	1568.46954
253.154	1415.55934
253.69	1462.37619
254.226	1446.57812
254.761	1478.39573
255.297	1403.2372
255.832	1412.51723
256.367	1466.53401
256.903	1494.38553
257.438	1509.56978
257.972	1463.35606
258.507	1469.45601
259.042	1484.30409
259.576	1502.38085
260.111	1473.46275
260.645	1536.3265
261.179	1523.58688
261.713	1533.44352
262.247	1475.4461
262.781	1504.22786
263.315	1479.65539
263.849	1517.82058
264.382	1574.56398
264.915	1585.68717
265.449	1570.78319
265.982	1596.54702
266.515	1603.83837
267.048	1507.24646
267.58	1563.34205
268.113	1538.33369
268.646	1489.69917
269.178	1537.43752
269.71	1554.42498
270.243	1515.54441
270.775	1595.01139
271.307	1501.60915
271.838	1560.64803
272.37	1589.81633
272.902	1578.51945
273.433	1566.44389
273.965	1576.77101
274.496	1551.81769
275.027	1603.89801
275.558	1596.81505
276.089	1594.90411
276.62	1528.85571
277.15	1630.8724
277.681	1612.37547
278.211	1629.83891
278.741	1641.51302
279.272	1588.57126
279.802	1587.87328
280.332	1643.73581
280.861	1647.78115
281.391	1643.59402
281.921	1563.69631
282.45	1644.92105
282.98	1654.14197
283.509	1663.61996
284.038	1742.70457
284.567	1710.7446
285.096	1679.87652
285.625	1703.60456
286.153	1762.89531
286.682	1676.66694
287.21	1690.80635
287.739	1655.7485
288.267	1670.88438
288.795	1728.23445
289.323	1676.74972
289.851	1774.84205
290.378	1776.62694
290.906	1794.02166
291.433	1750.05574
291.961	1777.73027
292.488	1834.10944
293.015	1804.88258
293.542	1861.30889
294.069	1812.09462
294.596	1819.03066
295.122	1784.93181
295.649	1791.57109
296.175	1863.00297
296.702	1844.06529
297.228	1889.02515
297.754	1878.74041
298.28	2015.92549
298.806	1893.03839
299.332	1910.74587
299.857	1962.83931
300.383	1942.26995
300.908	1950.17891
301.433	1920.14143
301.958	1955.86773
302.483	1861.13474
303.008	2067.32155
303.533	1917.3712
304.058	1970.94663
304.582	1968.01082
305.107	1967.46335
305.631	1987.84216
306.155	2031.99027
306.679	2087.06826
307.203	2135.03381
307.727	2045.07553
308.251	2070.28323
308.775	2212.30946
309.298	2131.213
309.822	2149.4248
310.345	2217.22099
310.868	2221.26773
311.391	2238.38063
311.914	2213.45806
312.437	2251.01954
312.96	2230.15574
313.482	2247.14625
314.005	2284.47367
314.527	2240.67239
315.049	2358.59904
315.571	2426.01113
316.093	2455.52087
316.615	2413.32532
317.137	2498.86803
317.659	2493.40936
318.18	2472.30857
318.702	2476.2316
319.223	2512.5585
319.744	2569.04509
320.265	2576.4775
320.786	2604.63726
321.307	2662.57797
321.828	2655.06902
322.348	2662.30092
322.869	2759.39209
323.389	2995.36235
323.909	2766.14756
324.43	2841.41151
324.95	2862.16869
325.47	2941.66421
325.989	2914.3836
326.509	3050.04472
327.029	3053.15865
327.548	3021.11013
328.067	3047.53387
328.587	3032.75108
329.106	3056.07077
329.625	3167.01251
330.144	3142.2618
330.662	3159.32293
331.181	3332.32981
331.7	3249.23776
332.218	3383.79954
332.736	3391.26582
333.255	3438.29777
333.773	3416.31327
334.291	3448.71653
334.808	3528.99208
335.326	3590.94552
335.844	3711.22011
336.361	3805.86918
336.879	3787.199
337.396	3844.42492
337.913	3891.02967
338.43	3953.83765
338.947	3953.23992
339.464	3996.53646
339.981	4068.13322
340.497	4049.41006
341.014	4152.30357
341.53	4124.76031
342.046	4210.48104
342.562	4320.39996
343.078	4321.96507
343.594	4432.97893
344.11	4442.03697
344.626	4426.4621
345.141	4534.65265
345.657	4549.56868
346.172	4610.00487
346.687	4558.657
347.202	4715.54888
347.717	4834.78897
348.232	4851.12467
348.747	4864.54123
349.261	4844.20931
349.776	4987.68709
350.29	5081.04825
350.805	5087.92523
351.319	5116.43999
351.833	5170.35054
352.347	5242.49189
352.861	5290.4204
353.374	5240.2152
353.888	5236.76635
354.401	5335.17236
354.915	5417.09139
355.428	5494.77509
355.941	5590.20238
356.454	5676.84743
356.967	5529.23931
357.48	5616.99914
357.993	5666.56958
358.505	5758.43249
359.018	5930.4169
359.53	6017.35467
360.042	6002.76406
360.554	5924.41665
361.066	5899.37151
361.578	6079.65735
362.09	6112.12215
362.602	6045.72452
363.113	6151.04015
363.625	6394.73422
364.136	6462.52261
364.647	6432.00339
365.158	6539.85488
365.669	6601.00645
366.18	6693.89831
366.691	6512.50096
367.201	6527.04566
367.712	6729.73462
368.222	6792.76526
368.733	6933.46295
369.243	7100.62773
369.753	7255.80878
370.263	7298.07638
370.773	7369.12796
371.282	7413.04096
371.792	7485.91238
372.301	7751.22806
372.811	7990.80848
373.32	7967.95485
373.829	8205.45205
374.338	8547.68277
374.847	8645.90491
375.356	9064.61042
375.865	9389.2277
376.373	9789.2101
376.882	9961.62243
377.39	10056.90208
377.898	10465.12754
378.407	10952.18594
378.915	11447.62795
379.423	11809.08768
379.93	12169.06397
380.438	12764.40634
380.946	13298.41909
381.453	13925.83843
381.96	14570.37835
382.468	15512.63688
382.975	16476.06959
383.482	16967.70761
383.989	17247.83203
384.495	17829.28993
385.002	18699.19454
385.509	19723.86302
386.015	21043.73348
386.521	21940.90282
387.028	22948.62611
387.534	23731.59814
388.04	24748.79482
388.546	25019.99541
389.051	26445.40846
389.557	28539.50246
390.063	30527.14292
390.568	31488.74343
391.073	32443.138
391.578	34001.43638
392.084	34919.07069
392.589	36093.15717
393.093	39209.09538
393.598	42623.34516
394.103	46532.52334
394.607	51055.16539
395.112	54414.47904
395.616	58058.55418
396.12	62188.23647
396.624	63075.60362
397.128	63856.00391
397.632	63870.46393
398.136	63823.35069
398.639	63876.47853
399.143	64005.80036
399.646	63896.52744
400.15	63853.42274
400.653	63812.32447
401.156	63789.27002
401.659	63966.70148
402.162	63853.42274
402.664	62441.93235
403.167	63977.72923
403.67	63769.22307
404.172	63919.58413
404.674	63858.43483
405.176	63738.15102
405.678	63977.72923
406.18	64011.81569
406.682	63863.44694
407.184	63926.60148
407.686	63841.39382
408.187	64025.8516
408.688	63892.51763
409.19	63833.37461
409.691	63977.72923
410.192	63945.6488
410.693	63713.09355
411.194	63812.32447
411.694	63919.58413
412.195	64038.8851
412.696	63881.49072
413.196	63630.90911
413.696	63920.58661
414.196	63735.14409
414.696	63998.78251
415.196	63858.43483
415.696	63774.23477
416.196	63867.45664
416.695	63878.48341
417.195	63923.59404
417.694	63607.85849
418.194	63629.9069
418.693	63799.29364
419.192	63868.45907
419.691	63834.37701
420.19	63912.56683
420.688	63959.68387
421.187	63540.71383
421.685	63824.35308
422.184	60063.25814
422.682	52269.68853
423.18	44825.3597
423.678	39707.11905
424.176	36807.20595
424.674	34747.04831
425.172	33310.14559
425.669	31077.40617
426.167	29152.80345
426.664	26639.51018
427.161	24637.89547
427.659	22881.09069
428.156	21411.45097
428.652	20032.92577
429.149	19440.84019
429.646	18484.23268
430.143	17339.92863
430.639	16315.28839
431.135	15691.51639
431.632	14672.23221
432.128	13852.42262
432.624	13135.22762
433.12	12800.30538
433.616	12410.15352
434.111	11848.24794
434.607	11481.35984
435.103	11091.27943
435.598	10878.35177
436.093	10395.04843
436.588	9955.71496
437.083	9472.41962
437.578	9089.60988
438.073	8715.1799
438.568	8377.72437
439.062	8061.95582
439.557	7772.00872
440.051	7568.72324
440.546	7486.72705
441.04	7271.93284
441.534	7057.20121
442.028	7048.91766
442.522	6737.89853
443.015	6632.26415
443.509	6692.98626
444.002	6542.05315
444.496	6335.35036
444.989	6269.06422
445.482	6197.2362
445.975	6332.72553
446.468	6096.39592
446.961	6086.41628
447.454	5904.66403
447.947	5899.08612
448.439	5849.30873
448.931	5802.85776
449.424	5731.65896
449.916	5525.4252
450.408	5481.97812
450.9	5448.42714
451.392	5297.8688
451.884	5187.16322
452.375	5134.747
452.867	5077.06952
453.358	5104.18615
453.849	4961.81566
454.341	4895.20324
454.832	4816.95764
455.323	4865.9487
455.814	4772.35646
456.304	4719.46769
456.795	4660.4083
457.285	4589.20114
457.776	4496.48265
458.266	4528.75277
458.756	4303.83396
459.247	4379.88819
459.737	4308.01337
460.226	4204.64121
460.716	4117.01262
461.206	3958.08636
461.695	4030.29491
462.185	3978.02382
462.674	3953.77377
463.163	3854.69727
463.653	3836.38465
464.142	3774.24846
464.63	3728.2588
465.119	3564.03427
465.608	3635.06226
466.096	3477.635
466.585	3413.96022
467.073	3444.15598
467.561	3412.27444
468.05	3318.03039
468.538	3324.4123
469.026	3250.22738
469.513	3108.5804
470.001	3199.04141
470.489	3019.26799
470.976	3136.15524
471.463	2923.55292
471.951	2935.5393
472.438	2814.18988
472.925	2764.20214
473.412	2705.36279
473.899	2711.05059
474.385	2639.40338
474.872	2653.13271
475.359	2543.40404
475.845	2529.53708
476.331	2454.65205
476.817	2436.30881
477.303	2348.04222
477.789	2392.17714
478.275	2367.38697
478.761	2228.09474
479.247	2273.82065
479.732	2220.34313
480.218	2251.62988
480.703	2185.25574
481.188	2114.63721
481.673	2089.8818
482.158	2036.59975
482.643	2035.34192
483.128	2053.92777
483.612	2030.0105
484.097	1883.95741
484.581	1898.79691
485.066	1876.02334
485.55	1762.53423
486.034	1756.45738
486.518	1793.8624
487.002	1657.79816
487.486	1649.78455
487.969	1593.73397
488.453	1624.85589
488.936	1617.48452
489.42	1588.40189
489.903	1494.71439
490.386	1423.05909
490.869	1539.33178
491.352	1413.50551
491.835	1516.10201
492.318	1402.2805
492.8	1483.11401
493.283	1494.81103
493.765	1432.59217
494.247	1376.36012
494.73	1363.19754
495.212	1345.3795
495.694	1341.36139
496.175	1286.35393
496.657	1355.38986
497.139	1227.47482
497.62	1293.36502
498.102	1221.37381
498.583	1154.23745
499.064	1212.05432
499.545	1222.12366
500.026	1192.07021
500.507	1177.09509
500.988	1195.34946
501.469	1117.22556
501.949	1179.28982
502.43	1074.07708
502.91	1156.87184
503.39	1088.16818
503.87	1121.09361
504.35	1081.00976
504.83	1109.88569
505.31	1051.04167
505.79	1056.00047
506.269	1036.90393
506.749	1013.86297
507.228	1031.95868
507.707	1098.92158
508.187	1036.00056
508.666	1043.10183
509.145	959.83845
509.623	976.86615
510.102	1006.98656
510.581	959.9091
511.059	952.99727
511.538	1024.17401
512.016	1000.95628
512.494	972.91934
512.972	989.93792
513.45	972.85312
513.928	980.96042
514.406	985.98903
514.884	1030.18676
515.361	1026.99211
515.839	1022.89693
516.316	975.95266
516.793	935.97579
517.27	962.90666
517.747	934.01273
518.224	922.75255
518.701	931.68021
519.178	940.96517
519.654	883.75032
520.131	905.88321
520.607	933.89683
521.083	889.66966
521.56	900.76705
522.036	881.58168
522.512	944.94051
522.987	935.87075
523.463	903.78418
523.939	988.02305
524.414	888.68863
524.89	908.80705
525.365	852.60986
525.84	874.76831
526.315	905.83485
526.79	897.67398
527.265	888.70991
527.74	855.75624
528.215	842.65536
528.689	849.54908
529.164	824.4742
529.638	791.73249
530.112	785.57901
530.587	843.49859
531.061	797.6539
531.534	830.70063
532.008	872.78999
532.482	822.59703
532.956	803.76837
533.429	834.73959
533.903	842.53899
534.376	874.60162
534.849	760.49815
535.322	804.6169
535.795	801.65556
536.268	836.72065
536.741	737.51499
537.213	850.64054
537.686	800.68041
538.158	815.568
538.631	755.58268
539.103	797.52744
539.575	783.35074
540.047	756.40378
540.519	752.55315
540.991	757.59874
541.463	727.52124
541.934	693.36109
542.406	778.60906
542.877	800.53062
543.348	777.61666
543.82	745.57269
544.291	797.58773
544.762	805.63785
545.233	895.92169
545.703	861.59795
546.174	885.71431
546.645	835.72051
547.115	881.79183
547.585	935.77257
548.056	953.95156
548.526	946.8601
548.996	965.90328
549.466	1033.0446
549.935	1104.10685
550.405	1029.80565
550.875	1046.00838
551.344	1013.97009
551.814	1088.98075
552.283	1086.86379
552.752	1106.06196
553.221	1150.97088
553.69	1262.16247
554.159	1205.36584
554.628	1211.11164
555.096	1154.35501
555.565	1090.89956
556.033	1076.06514
556.502	994.97199
556.97	1037.84727
557.438	853.69235
557.906	904.78325
558.374	816.61095
558.842	807.65681
559.31	823.55687
559.777	761.61561
560.245	667.34444
560.712	710.41452
561.18	715.37004
561.647	733.40053
562.114	720.43315
562.581	716.54539
563.048	729.44671
563.514	723.5941
563.981	720.43182
564.448	674.33461
564.914	643.32094
565.381	677.3565
565.847	671.37421
566.313	653.33669
566.779	669.31944
567.245	661.3476
567.711	673.42055
568.176	642.26996
568.642	661.48038
569.108	694.50234
569.573	688.39287
570.038	697.25647
570.504	735.43421
570.969	674.47762
571.434	723.3874
571.899	691.43691
572.363	717.42882
572.828	746.48084
573.293	741.46714
573.757	777.54856
574.222	704.37135
574.686	774.52792
575.15	728.52905
575.614	756.54468
576.078	717.46655
576.542	671.34198
577.006	695.36951
577.469	781.66026
577.933	792.54085
578.396	692.43931
578.86	736.50376
579.323	673.43234
579.786	766.41744
580.249	813.63615
580.712	686.4692
581.175	695.50866
581.637	640.29024
582.1	718.3503
582.563	682.25732
583.025	679.45826
583.487	699.23951
583.95	673.2559
584.412	696.26331
584.874	656.41939
585.336	759.55677
585.797	707.33121
586.259	720.46638
586.721	668.3807
587.182	667.35184
587.643	699.38451
588.105	661.37872
588.566	686.23754
589.027	692.49354
589.488	715.42747
589.949	700.49341
590.41	712.20481
590.87	723.43679
591.331	719.35782
591.791	671.36677
592.252	670.37432
592.712	673.42241
593.172	662.32487
593.632	728.39869
594.092	645.26607
594.552	724.35159
595.011	645.3048
595.471	737.44424
595.931	690.3606
596.39	685.4478
596.849	699.42324
597.308	674.24876
597.768	700.59891
598.227	705.48427
598.685	709.40565
599.144	697.43975
599.603	687.40829
600.062	636.17587
600.52	702.38106
600.978	703.45281
601.437	729.4346
601.895	671.2534
602.353	664.27614
602.811	700.37518
603.269	663.39207
603.727	713.49652
604.184	697.38569
604.642	686.4869
605.099	698.42603
605.557	663.42631
606.014	685.28149
606.471	670.49101
606.928	773.46783
607.385	863.84105
607.842	919.74557
608.299	964.85204
608.755	876.79094
609.212	822.54778
609.668	875.64816
610.125	825.69532
610.581	818.63075
611.037	800.52029
611.493	707.43759
611.949	672.446
612.405	684.20122
612.861	601.23065
613.316	594.27469
613.772	606.23447
614.227	672.4237
614.683	664.22346
615.138	648.3417
615.593	639.31035
616.048	609.23749
616.503	582.26929
616.958	618.38484
617.412	600.27264
617.867	613.21448
618.321	658.17724
618.776	567.11481
619.23	535.13285
619.684	596.17992
620.138	563.15428
620.592	529.1645
621.046	547.16638
621.5	493.08377
621.954	551.09042
622.407	559.10422
622.861	535.17674
623.314	537.09344
623.768	614.28878
624.221	432.77652
624.674	479.01009
625.127	481.02053
625.58	464.95302
626.033	508.00165
626.485	443.97852
626.938	485.05498
627.39	460.98823
627.843	417.89028
628.295	428.91158
628.747	464.01499
629.199	395.836
629.651	384.82072
630.103	458.9636
630.555	381.74459
631.006	384.83244
631.458	382.83905
631.909	310.65626
632.361	346.74975
632.812	333.72636
633.263	330.67322
633.714	324.64445
634.165	339.76572
634.616	297.66676
635.067	323.66957
635.518	314.70449
635.968	342.62546
636.419	327.6718
636.869	277.62544
637.319	299.65828
637.769	289.61703
638.219	286.64194
638.669	181.41819
639.119	202.46773
639.569	212.49127
640.019	226.50269
640.468	220.47511
640.918	219.50075
641.367	210.45371
641.816	207.44426
642.265	261.58234
642.714	204.45225
643.163	243.53904
643.612	253.59497
644.061	188.38981
644.51	254.55746
644.958	214.45582
645.406	230.52917
645.855	170.40206
646.303	205.45797
646.751	203.45463
647.199	218.47624
647.647	235.52455
648.095	185.40936
648.543	221.43046
648.99	237.54756
649.438	181.40653
649.885	210.50662
650.333	234.43442
650.78	175.41172
651.227	183.43539
651.674	181.40135
652.121	233.5505
652.568	183.4359
653.015	167.40267
653.461	208.47799
653.908	173.38633
654.354	174.40306
654.801	179.40797
655.247	148.31305
655.693	160.4063
656.139	187.43291
656.585	181.41985
657.031	150.34471
657.477	181.38394
657.922	141.31357
658.368	179.42751
658.813	182.4013
659.259	204.47854
659.704	188.43255
660.149	144.32469
660.594	178.41052
661.039	165.36618
661.484	190.4361
661.929	195.44103
662.373	160.39169
662.818	164.39521
663.262	179.42063
663.707	151.37548
664.151	194.4581
664.595	189.44327
665.039	157.38013
665.483	135.33655
665.927	201.45571
666.371	127.29332
666.814	135.31402
667.258	199.46416
667.701	156.32389
668.145	182.43974
668.588	208.498
669.031	171.391
669.474	132.31025
669.917	211.44483
670.36	213.51318
670.803	206.48077
671.245	88.17781
671.688	202.47496
672.13	135.29898
672.573	160.39372
673.015	163.38274
673.457	157.33259
673.899	176.41334
674.341	136.32053
674.783	149.3485
675.225	145.3487
675.666	197.46654
676.108	165.34633
676.549	142.32293
676.991	167.35579
677.432	169.32479
677.873	101.22694
678.314	142.32998
678.755	215.51093
679.196	143.31894
679.637	138.32258
680.078	172.38972
680.518	138.30925
680.959	118.2754
681.399	123.29826
681.839	194.4549
682.28	138.3352
682.72	131.29278
683.16	147.35779
683.6	158.34926
684.039	151.3028
684.479	154.37041
684.919	186.42333
685.358	104.25432
685.798	113.28863
686.237	110.25734
686.676	127.28067
687.115	194.441
687.554	188.4348
687.993	169.36193
688.432	140.31128
688.871	172.38195
689.309	158.36832
689.748	171.34354
690.186	137.31225
690.625	159.36268
691.063	136.31641
691.501	175.41924
691.939	169.41303
692.377	134.31692
692.815	200.47154
693.253	134.3109
693.69	104.22316
694.128	135.31972
694.565	116.26882
695.003	149.37078
695.44	190.434
695.877	120.2761
696.314	113.23236
696.751	154.33828
697.188	169.37911
697.625	132.28739
698.061	146.33981
698.498	88.20434
698.934	92.2159
699.371	115.26465
699.807	135.31018
700.243	143.33552
700.679	94.20544
701.115	126.28643
701.551	45.10352
701.987	44.09515
702.422	156.36108
702.858	144.33383
703.294	136.30339
703.729	122.28943
704.164	84.19697
704.599	116.25288
705.035	143.31128
705.47	75.1792
705.904	114.25768
706.339	154.34212
706.774	154.34922
707.209	148.33412
707.643	155.35912
708.078	112.26602
708.512	115.28169
708.946	122.28138
709.38	127.29378
709.814	133.29221
710.248	134.31888
710.682	149.34713
711.116	155.36594
711.549	83.20797
711.983	156.34829
712.416	162.37169
712.85	99.23979
713.283	137.31389
713.716	119.28726
714.149	93.2106
714.582	136.29635
715.015	81.19479
715.448	177.43
715.881	139.28841
716.313	90.20575
716.746	142.3258
717.178	134.31287
717.61	89.22188
718.043	99.2388
718.475	127.29961
718.907	126.30571
719.339	105.23225
719.77	133.30937
720.202	81.19878
720.634	126.30088
721.065	133.30375
721.497	129.30669
721.928	76.18211
722.359	140.3306
722.79	131.30436
723.221	46.11253
723.652	139.34224
724.083	136.29572
724.514	139.30886
724.945	114.25946
725.375	108.24601
725.806	96.23082
726.236	140.34654
726.666	134.30572
727.096	126.29892
727.526	139.34753
727.956	101.22508
728.386	159.37553
728.816	151.37411
729.246	141.33715
729.675	80.19082
730.105	119.28237
730.534	116.2622
730.964	110.26669
731.393	88.2103
731.822	109.27124
732.251	109.26927
732.68	104.23373
733.109	103.24751
733.537	156.36823
733.966	134.32438
734.395	117.26236
734.823	94.20196
735.251	52.1227
735.68	119.28433
736.108	67.16393
736.536	119.26969
736.964	86.19423
737.392	113.27412
737.82	80.18627
738.247	149.34152
738.675	108.24591
739.102	102.24748
739.53	115.28784
739.957	117.29453
740.384	78.18312
740.811	54.13166
741.238	132.31352
741.665	111.25361
742.092	46.10364
742.519	82.19903
742.945	138.32448
743.372	109.26342
743.798	72.18025
744.225	76.17535
744.651	89.21687
745.077	127.30634
745.503	70.16498
745.929	113.26586
746.355	122.28675
746.781	94.22447
747.207	107.24703
747.632	135.32465
748.058	171.41449
748.483	95.21215
748.908	98.23769
749.334	136.32414
749.759	129.29746
750.184	73.17222
750.609	120.28436
751.033	132.29642
751.458	137.29327
751.883	111.2645
752.307	136.30853
752.732	133.32964
753.156	94.22498
753.58	92.21049
754.005	61.14964
754.429	113.25994
754.853	130.31328
755.277	138.31612
755.7	108.26007
756.124	132.31714
756.548	34.07892
756.971	88.20893
757.394	96.2385
757.818	84.2115
758.241	149.3651
758.664	64.15813
759.087	69.15211
759.51	79.1897
759.933	77.18194
760.356	134.33472
760.778	122.28988
761.201	102.23862
761.623	109.25044
762.046	79.17919
762.468	110.25441
762.89	99.23392
763.312	120.28425
763.734	64.15084
764.156	106.2538
764.578	87.19203
765	113.26637
765.421	83.20677
765.843	79.20158
766.264	79.18151
766.686	48.11642
767.107	61.14435
767.528	115.2868
767.949	90.22188
768.37	125.29969
768.791	69.16088
769.212	50.12363
769.632	61.13971
770.053	44.11265
770.473	86.20095
770.894	40.09618
771.314	56.12859
771.734	41.09345
772.154	67.16655
772.575	85.1895
772.994	56.12343
773.414	85.19553
773.834	59.14323
774.254	66.1567
774.673	145.34101
775.093	100.24153
775.512	70.1685
775.931	88.21687
776.351	111.26795
776.77	45.10826
777.189	100.22963
777.607	56.13963
778.026	71.17217
778.445	65.16116
778.864	45.11129
779.282	50.11601
779.701	63.15386
780.119	60.14847
780.537	66.15971
780.955	39.09627
781.373	60.14421
781.791	106.23235
782.209	32.07032
782.627	38.09807
783.045	32.07094
783.462	69.17139
783.88	55.13915
784.297	109.26471
784.715	37.09351
785.132	45.10546
785.549	67.16259
785.966	77.18798
786.383	85.20371
786.8	111.24726
787.217	119.27385
787.633	80.19578
788.05	64.1439
788.466	51.11507
788.883	124.30739
789.299	44.1016
789.715	96.22617
790.131	55.13307
790.547	61.14759
790.963	66.15857
791.379	51.12567
791.795	53.11576
792.21	65.14593
792.626	49.11182
793.041	63.15041
793.457	86.20363
793.872	30.06803
794.287	51.12036
794.702	28.06609
795.117	53.12871
795.532	98.23902
795.947	67.15339
796.362	11.02507
796.776	57.12629
797.191	50.11917
797.605	53.12241
798.02	47.11088
798.434	109.23162
798.848	92.22171
799.262	72.17285
799.676	106.24808
800.09	92.21767
800.504	43.10073
800.918	6.01343
801.331	-5.01255
801.745	29.06428
802.158	34.08191
802.572	48.11282
802.985	58.13409
803.398	92.20982
803.811	3.00738
804.224	47.11183
804.637	46.10673
805.05	62.13728
805.462	61.14391
805.875	79.1988
806.288	28.06622
806.7	29.07014
807.112	74.16324
807.525	35.08241
807.937	37.08915
808.349	33.07972
808.761	101.23938
809.173	72.16903
809.584	103.24233
809.996	48.11366
810.408	60.15199
810.819	107.24092
811.231	260.65294
811.642	326.74581
812.053	354.78866
812.464	355.76252
812.875	315.74737
813.286	171.42211
813.697	115.24873
814.108	104.24168
814.519	175.36959
814.929	96.23432
815.34	22.05127
815.75	94.23191
816.16	49.1165
816.571	35.08805
816.981	50.11237
817.391	32.0741
817.801	77.18503
818.211	87.19805
818.62	76.17696
819.03	54.12737
819.44	51.12664
819.849	20.04845
820.259	79.19236
820.668	57.13604
821.077	80.19315
821.486	55.12586
821.895	78.18212
822.304	43.11038
822.713	50.11343
823.122	38.09165
823.531	39.08788
823.939	78.18348
824.348	50.11647
824.756	64.15353
825.164	61.1472
825.573	87.20978
825.981	93.2194
826.389	93.2234
826.797	122.29711
827.205	81.17939
827.612	76.17898
828.02	59.13241
828.428	77.1884
828.835	107.27235
829.243	87.19661
829.65	70.16901
830.057	65.15078
830.464	101.23836
830.871	130.2966
831.278	78.1809
831.685	89.18805
832.092	62.14442
832.499	127.26362
832.905	62.15015
833.312	-27.05887
833.718	126.30111
834.124	62.13625
834.531	3.00729
834.937	66.16391
835.343	46.10597
835.749	91.19926
836.155	78.19674
836.561	45.10703
836.966	106.24594
837.372	35.0858
837.777	84.20151
838.183	50.1059
838.588	122.29044
838.993	82.19131
839.399	38.09026
839.804	24.05683
840.209	67.16649
840.613	99.20844
841.018	16.03913
841.423	66.16331
841.828	32.07886
842.232	47.11015
842.637	120.27179
843.041	37.09241
843.445	49.11761
843.849	93.22127
844.253	67.15203
844.657	84.20442
845.061	135.29449
845.465	49.11407
845.869	60.13363
846.272	39.09226
846.676	37.08467
847.079	55.13617
847.483	80.19067
847.886	95.21819
848.289	71.18549
848.692	56.13567
849.095	73.16706
849.498	44.10595
849.901	65.14119
850.304	53.12153
850.707	40.09822
851.109	92.22137
851.512	69.16329
851.914	58.14204
852.316	109.2664
852.718	52.13336
853.121	82.19251
853.523	50.11136
853.925	74.18806
854.326	51.1239
854.728	90.22286
855.13	46.11603
855.531	51.11756
855.933	51.11638
856.334	28.06822
856.736	104.22316
857.137	72.16168
857.538	87.21128
857.939	57.1377
858.34	15.035
858.741	54.13582
859.142	68.15552
859.542	47.12098
859.943	29.06966
860.343	48.1155
860.744	87.20269
861.144	112.26243
861.544	56.13137
861.945	28.06903
862.345	47.11006
862.745	63.15174
863.145	58.13019
863.544	60.14651
863.944	52.11787
864.344	24.05687
864.743	58.13808
865.143	70.17467
865.542	2.00443
865.941	57.1363
866.34	70.15816
866.74	60.15587
867.139	108.24958
867.537	-3.00736
867.936	61.14156
868.335	19.04676
868.734	5.01246
869.132	17.03762
869.531	67.15314
869.929	34.07497
870.327	68.15608
870.726	39.09276
871.124	44.09787
871.522	40.09807
871.92	54.12811
872.318	55.12814
872.715	73.17028
873.113	47.1095
873.511	46.11001
873.908	12.02995
874.306	66.15911
874.703	63.14978
875.1	22.0537
875.497	26.05989
875.894	87.20787
876.291	60.14174
876.688	52.12961
877.085	60.13689
877.482	39.09415
877.878	82.19138
878.275	48.11799
878.671	-10.02084
879.068	100.22944
879.464	68.15727
879.86	12.02744
880.256	11.02585
880.652	14.03454
881.048	0
881.444	46.10347
881.84	29.07119
882.236	19.04621
882.631	79.18659
883.027	42.09737
883.422	20.04924
883.817	73.17755
884.213	46.11399
884.608	113.26979
885.003	1.00232
885.398	47.1135
885.793	38.09161
886.188	17.04085
886.582	70.17067
886.977	30.06806
887.371	31.0752
887.766	15.0364
888.16	35.08273
888.554	50.11793
888.949	65.15655
889.343	50.11665
889.737	-9.02368
890.131	60.1447
890.525	65.16105
890.918	40.09702
891.312	29.0661
891.706	12.03053
892.099	65.15833
892.492	41.08389
892.886	28.06594
893.279	-1.00247
893.672	22.05468
894.065	53.12784
894.458	8.01931
894.851	30.07035
895.244	9.02231
895.637	59.13675
896.029	88.20676
896.422	19.04427
896.814	14.03359
897.206	84.19366
897.599	74.17488
897.991	92.21345
898.383	19.04345
898.775	63.13749
899.167	51.11591
899.559	46.11111
899.951	1.00226
900.342	30.07298
900.734	41.10065
901.125	35.0882
901.517	78.18348
901.908	33.07491
902.299	68.15983
902.69	41.0939
903.082	65.15072
903.473	81.18834
903.863	57.13905
904.254	49.11046
904.645	71.16672
905.036	61.14475
905.426	90.19212
905.817	41.09612
906.207	-37.08501
906.597	61.13802
906.987	25.06219
907.378	88.21415
907.768	40.10273
908.158	24.05634
908.547	58.14656
908.937	-4.00985
909.327	27.06308
909.717	23.0555
910.106	50.11463
910.495	28.06666
910.885	52.12716
911.274	65.15554
911.663	27.0656
912.052	48.11238
912.441	45.11129
912.83	20.04384
913.219	56.14065
913.608	62.14624
913.997	61.14848
914.385	93.21128
914.774	63.14655
915.162	85.19546
915.55	40.09226
915.939	29.07138
916.327	54.12836
916.715	28.0702
917.103	50.11596
917.491	68.16045
917.878	48.11309
918.266	17.04257
918.654	73.18054
919.041	45.11511
919.429	22.05003
919.816	19.04656
920.203	56.13168
920.591	39.0934
920.978	90.20997
921.365	27.06897
921.752	-42.09613
922.139	114.23267
922.525	27.06281
922.912	49.11425
923.299	44.10547
923.685	-3.00755
924.072	16.03458
924.458	71.16932
924.844	10.02399
925.231	6.01335
925.617	67.16564
926.003	36.08853
926.389	24.05852
926.774	34.08283
927.16	63.14966
927.546	57.14251
927.931	83.19642
928.317	48.10491
928.702	65.14605
929.088	114.26156
929.473	65.16028
929.858	72.16983
930.243	69.16019
930.628	64.1509
931.013	-5.01206
931.398	65.13975
931.783	26.06556
932.167	66.15634
932.552	54.12954
932.937	5.01195
933.321	42.10252
933.705	31.07452
934.09	33.07867
934.474	56.12586
934.858	26.06549
935.242	-10.02237
935.626	31.07717
936.009	52.13508
936.393	86.21257
936.777	48.1193
937.16	68.17164
937.544	33.07336
937.927	14.03466
938.311	34.07926
938.694	82.2089
939.077	26.05997
939.46	14.03243
939.843	59.11355
940.226	42.10332
940.609	102.22462
940.991	22.05382
941.374	48.11352
941.757	34.08044
942.139	56.12058
942.522	60.13451
942.904	52.11988
943.286	55.13382
943.668	56.14135
944.05	53.12547
944.432	67.15757
944.814	29.0681
945.196	57.13447
945.578	39.09079
945.959	0
946.341	50.11532
946.722	40.08946
947.104	31.07134
947.485	26.05822
947.866	63.1538
948.247	70.17118
948.628	19.04378
949.009	28.06936
949.39	51.12106
949.771	-10.02194
950.152	14.03328
950.532	65.15797
950.913	58.13366
951.293	26.06888
951.674	29.06756
952.054	81.19583
952.434	53.12664
952.814	1.00227
953.194	27.06743
953.574	66.15471
953.954	-5.01136
954.334	72.17358
954.714	21.0497
955.093	64.15055
955.473	13.03187
955.853	46.11495
956.232	13.03463
956.611	63.14226
956.99	52.12626
957.37	1.00246
957.749	10.02263
958.128	36.0881
958.506	-4.01013
958.885	27.06555
959.264	32.07668
959.643	66.14412
960.021	37.08905
960.4	19.04132
960.778	33.07697
961.156	-5.01212
961.535	31.06857
961.913	111.24706
962.291	27.06797
962.669	5.01237
963.047	46.11383
963.424	102.25202
963.802	6.01433
964.18	38.09099
964.557	67.14603
964.935	63.14232
965.312	60.1514
965.69	33.07882
966.067	11.02556
966.444	-5.0117
966.821	67.16612
967.198	23.05306
967.575	58.13553
967.952	20.04521
968.329	69.16164
968.705	82.16744
969.082	95.2364
969.458	11.0259
969.835	45.10513
970.211	57.14241
970.587	63.1507
970.963	47.115
971.339	9.02296
971.715	25.06042
972.091	19.04512
972.467	2.00476
972.843	44.10644
973.219	64.14508
973.594	10.02542
973.97	10.0223
974.345	62.1426
974.721	40.09145
975.096	31.07288
975.471	48.1085
975.846	-10.0231
976.221	18.04433
976.596	76.17703
976.971	59.14076
977.346	35.07738
977.72	14.03435
978.095	32.07985
978.469	22.0503
978.844	66.15785
979.218	-6.01418
979.593	1.0023
979.967	-2.00462
980.341	26.05781
980.715	15.03669
981.089	5.01212
981.463	48.10535
981.837	77.18208
982.21	5.01089
982.584	43.10022
982.957	-3.00732
983.331	37.08249
983.704	76.18086
984.078	21.04985
984.451	43.10093
984.824	-6.01428
985.197	2.00462
985.57	1.00239
985.943	32.07454
986.316	64.14761
986.688	54.12435
987.061	77.17238
987.434	72.18278
987.806	24.05515
988.179	27.06094
988.551	25.06094
988.923	-11.02612
989.295	51.12158
989.667	27.06315
990.039	77.18517
990.411	-5.01093
990.783	68.1466
991.155	20.04659
991.527	-8.01869
991.898	13.03151
992.27	24.05792
992.641	26.06247
993.012	-2.00442
993.384	14.03201
993.755	49.121
994.126	93.21462
994.497	30.07095
994.868	14.03052
995.239	7.01633
995.61	42.10187
995.98	21.04908
996.351	14.03379
996.722	86.19177
997.092	38.08687
997.462	19.04332
997.833	16.03615
998.203	8.01842
998.573	39.0939
998.943	46.10389
999.313	32.07422
999.683	33.07643
1000.053	7.01511
1000.423	27.06261
1000.792	-9.02242
1001.162	12.02832
1001.531	43.10207
1001.901	46.10951
1002.27	34.07097
1002.639	-9.02217
1003.009	19.04338
1003.378	56.13791
1003.747	49.10988
1004.116	38.08705
1004.485	41.09386
1004.853	-24.05834
1005.222	13.03107
1005.591	27.06134
1005.959	29.06294
1006.328	52.11206
1006.696	-4.00929
1007.064	-7.01691
1007.433	42.09999
1007.801	8.01861
1008.169	-2.00484
1008.537	81.16927
1008.905	18.04067
1009.273	32.07539
1009.64	59.13648
1010.008	3.00689
1010.375	47.10712
1010.743	11.02359
1011.11	86.19748
1011.478	77.18335
1011.845	34.07613
1012.212	88.19094
1012.579	53.12494
1012.946	-5.01135
1013.313	56.12596
1013.68	29.06195
1014.047	-26.06016
1014.414	19.04308
1014.78	5.01208
1015.147	43.09828
1015.513	52.11988
1015.88	28.06852
1016.246	21.04925
1016.612	35.07586
1016.978	52.12299
1017.344	34.08104
1017.71	56.12957
1018.076	45.10024
1018.442	52.1291
1018.808	50.12127
1019.174	11.0265
1019.539	22.04629
1019.905	48.10894
1020.27	-23.05506
1020.636	21.04769
1021.001	70.16029
1021.366	17.03954
1021.731	109.27085
1022.096	-2.00495
1022.461	50.11348
1022.826	62.14185
1023.191	29.07363
1023.556	58.12875
1023.92	22.05155
1024.285	45.10397
1024.649	-12.0283
1025.014	47.11019
1025.378	25.06108
1025.742	-9.02146
1026.107	64.13685
1026.471	54.11927
1026.835	26.06209
1027.199	8.01863
1027.562	38.08347
1027.926	34.07929
1028.29	41.09994
1028.654	28.06138
1029.017	42.09941
1029.381	61.13965
1029.744	1.00248
1030.107	87.19509
1030.471	17.03944
1030.834	-8.01723
1031.197	33.07616
1031.56	38.0853
1031.923	9.02261
1032.286	85.18911
1032.648	26.05877
1033.011	70.15512
1033.374	2.00447
1033.736	-4.01025
1034.099	47.10989
1034.461	31.07619
1034.823	23.05552
1035.185	0
1035.548	35.08225
1035.91	59.13453
1036.272	73.15857
1036.634	39.09147
1036.995	1.00225
1037.357	22.05185
1037.719	33.07725
1038.08	72.1642
1038.442	49.11092
1038.803	-30.06872
1039.165	-6.01461
1039.526	26.06047
1039.887	39.08929
1040.248	36.08689
1040.609	1.00236
1040.97	3.00706
1041.331	46.11282
1041.692	71.16084
1042.053	28.06055
1042.413	55.1212
1042.774	29.06796
1043.134	64.14295
1043.495	19.04607
1043.855	76.17773
1044.215	37.08766
1044.576	46.10614
1044.936	30.06534
1045.296	43.10298
1045.656	17.03972
1046.016	58.13276
1046.375	33.07685
1046.735	68.14937
1047.095	32.0718
1047.454	19.03787
1047.814	47.10825
1048.173	3.0068
1048.533	21.04612
1048.892	17.0395
1049.251	25.05996
1049.61	9.02143
1049.969	61.13645
1050.328	66.13526
1050.687	14.03259
1051.046	21.04898
1051.405	18.04272
1051.763	25.05581
1052.122	15.03605
1052.48	37.08742
1052.839	81.18424
1053.197	37.08324
1053.555	43.09113
1053.914	-8.01887
1054.272	-12.02741
1054.63	-11.02614
1054.988	30.06914
1055.345	-9.01831
1055.703	34.07867
1056.061	56.14014
1056.419	81.2042
1056.776	1.0023
1057.134	25.05435
1057.491	62.14868
1057.848	15.03579
1058.206	-20.04473
1058.563	16.03364
1058.92	24.0527
1059.277	40.09468
1059.634	13.02893
1059.991	81.18484
1060.348	29.06299
1060.704	72.16751
1061.061	67.1446
1061.418	42.09779
1061.774	40.09482
1062.131	67.17312
1062.487	-27.06077
1062.843	27.06476
1063.199	26.06232
1063.555	17.03823
1063.911	20.0484
1064.267	70.13482
1064.623	41.09673
1064.979	-26.05733
1065.335	-8.01829
1065.691	4.00909
1066.046	0
1066.402	9.01948
1066.757	55.13322
1067.112	22.05169
1067.468	62.14168
1067.823	-15.03412
1068.178	0
1068.533	37.08597
1068.888	10.02286
1069.243	37.08773
1069.598	40.09244
1069.952	43.09464
1070.307	-21.05081
1070.662	87.19877
1071.016	54.11697
1071.371	30.06568
1071.725	45.10182
1072.079	70.16074
1072.434	-9.02127
1072.788	-9.0204
1073.142	68.15983
1073.496	-5.01142
1073.85	34.07519
1074.203	43.10006
1074.557	52.13508
1074.911	28.06355
1075.265	20.04454
1075.618	17.04003
1075.971	61.13802
1076.325	35.08643
1076.678	10.02199
1077.031	-5.01064
1077.385	10.02099
1077.738	24.05165
1078.091	15.03308
1078.444	-9.01987
1078.796	35.08308
1079.149	59.14076
1079.502	31.0708
1079.855	26.05822
1080.207	18.04254
1080.56	64.15987
1080.912	30.06996
1081.264	64.14767
1081.617	54.12643
1081.969	38.09289
1082.321	-14.03298
1082.673	37.08215
1083.025	-12.02732
1083.377	261.55918
1083.728	73.16052
1084.08	-25.06024
1084.432	39.08968
1084.783	38.08319
1085.135	7.01706
1085.486	-20.04456
1085.838	4.00956
1086.189	25.05893
1086.54	19.04338
1086.891	63.15586
1087.242	99.23301
1087.593	15.03456
1087.944	39.08511
1088.295	65.13963
1088.646	60.14185
1088.996	-32.07548
1089.347	3.00706
1089.698	52.11888
1090.048	23.05734
1090.398	80.17425
1090.749	28.0636
1091.099	51.12483
1091.449	63.15082
1091.799	34.08184
1092.149	2.00479
1092.499	20.04699
1092.849	-6.01483
1093.199	37.08824
1093.548	30.07007
1093.898	27.06476
1094.248	33.08083
1094.597	6.01506
1094.947	16.04152
1095.296	40.09545
1095.645	42.10473
1095.994	2.00463
1096.343	44.10684
1096.692	74.18998
1097.041	20.0535
1097.39	44.10527
1097.739	58.14473
1098.088	5.01292
1098.437	65.16685
1098.785	18.04668
1099.134	-21.05345
1099.482	19.05102
1099.83	65.16422
1100.179	53.1359
1100.527	11.02802
1100.875	51.13114
1101.223	52.1342
1101.571	-8.02151
1101.919	7.0182
1102.267	9.02497
1102.615	17.05451
1102.962	14.04484
1103.31	17.05451
1103.658	4.01282
