Data from N1 R2 sample 4_Subt2__4__13-53-31-678.txt Node

Date: Wed Sep 17 13:53:31 PDT 2025
User: uwsun
Spectrometer: HDX01956
Trigger mode: 0
Integration Time (sec): 5.000000E-1
Scans to average: 1
Nonlinearity correction enabled: true
Boxcar width: 0
Storing dark spectrum: false
XAxis mode: Wavelengths
Number of Pixels in Spectrum: 2068
>>>>>Begin Spectral Data<<<<<
194.03	-7.02034
194.578	5.01625
195.127	-7.02246
195.676	0
196.225	-15.04016
196.773	-31.08705
197.321	5.01399
197.87	3.00786
198.418	64.16706
198.966	44.11778
199.513	87.2234
200.061	6.01561
200.609	44.1179
201.156	55.12277
201.704	46.11777
202.251	56.15089
202.798	19.05026
203.345	72.18077
203.892	74.18939
204.438	49.11837
204.985	11.02682
205.532	16.04294
206.078	2.00501
206.624	71.18072
207.17	110.26016
207.716	100.24762
208.262	75.15151
208.808	71.18097
209.354	82.20543
209.899	61.15576
210.445	53.1349
210.99	41.10214
211.535	81.19361
212.08	66.15573
212.625	57.14457
213.17	87.22402
213.715	79.18333
214.259	103.2428
214.804	41.10236
215.348	32.07577
215.892	68.16765
216.436	25.05841
216.98	53.11855
217.524	64.15552
218.068	82.2092
218.612	119.30396
219.155	88.2103
219.698	65.15685
220.242	54.13509
220.785	84.19951
221.328	46.11537
221.871	119.30396
222.414	59.14762
222.956	18.04392
223.499	20.04556
224.041	39.09058
224.583	20.0431
225.126	44.09812
225.668	57.14009
226.21	88.22411
226.751	77.17337
227.293	23.05302
227.835	75.18535
228.376	40.09233
228.918	10.02535
229.459	52.13126
230	72.17456
230.541	39.09108
231.082	97.23716
231.622	19.0438
232.163	40.09778
232.704	105.26347
233.244	62.15527
233.784	70.17086
234.324	132.29678
234.864	72.16407
235.404	23.05506
235.944	48.1144
236.484	76.19095
237.023	35.08372
237.563	68.15971
238.102	52.12446
238.641	23.05867
239.18	37.08824
239.719	56.14156
240.258	86.19439
240.797	60.14487
241.335	31.07647
241.874	108.21151
242.412	82.20067
242.95	70.1708
243.488	16.03664
244.026	61.14363
244.564	77.16019
245.102	84.19196
245.64	54.13028
246.177	6.01363
246.715	71.17204
247.252	46.1058
247.789	120.22266
248.326	28.06865
248.863	79.17554
249.4	43.09896
249.936	112.23566
250.473	82.19544
251.009	71.16405
251.546	82.18489
252.082	28.06161
252.618	77.17387
253.154	73.17722
253.69	65.14737
254.226	78.18825
254.761	62.14083
255.297	40.08883
255.832	89.21298
256.367	69.16367
256.903	78.17523
257.438	52.12341
257.972	78.17523
258.507	59.13692
259.042	94.20579
259.576	107.23806
260.111	39.09093
260.645	85.1851
261.179	99.23301
261.713	83.18749
262.247	60.13855
262.781	109.23081
263.315	29.07143
263.849	27.0687
264.382	47.1095
264.915	83.19801
265.449	19.04723
265.982	66.15161
266.515	112.2751
267.048	70.15027
267.58	53.11596
268.113	24.05303
268.646	21.05226
269.178	28.06378
269.71	129.28545
270.243	95.22159
270.775	105.27018
271.307	63.15122
271.838	63.1503
272.37	62.15342
272.902	40.09207
273.433	106.23627
273.965	91.22216
274.496	40.10046
275.027	78.19569
275.558	77.18959
276.089	82.20639
276.62	31.07927
277.15	77.19064
277.681	17.03741
278.211	59.14538
278.741	40.09052
279.272	96.22115
279.802	32.0808
280.332	44.10555
280.861	51.12349
281.391	60.13822
281.921	80.19257
282.45	65.16263
282.98	101.26386
283.509	120.27378
284.038	51.11859
284.567	88.2066
285.096	94.22944
285.625	25.0574
286.153	130.31079
286.682	122.28093
287.21	24.05819
287.739	62.14828
288.267	81.199
288.795	64.1686
289.323	100.23633
289.851	98.23214
290.378	47.10652
290.906	89.21946
291.433	81.20347
291.961	67.15524
292.488	69.17277
293.015	91.21668
293.542	132.33924
294.069	122.30287
294.596	64.15807
295.122	132.31677
295.649	22.04926
296.175	105.25366
296.702	95.23399
297.228	79.19186
297.754	70.15964
298.28	154.35348
298.806	73.17788
299.332	89.20146
299.857	90.20666
300.383	88.22276
300.908	89.22075
301.433	101.24923
301.958	78.1809
302.483	5.01267
303.008	161.39859
303.533	80.20789
304.058	77.18144
304.582	69.16524
305.107	61.1605
305.631	81.18581
306.155	78.18398
306.679	94.22318
307.203	118.27529
307.727	58.13961
308.251	116.28724
308.775	142.34569
309.298	95.23106
309.822	67.17024
310.345	112.26939
310.868	119.28834
311.391	131.32302
311.914	92.23239
312.437	112.2579
312.96	103.24469
313.482	69.16442
314.005	38.09647
314.527	81.21226
315.049	124.31467
315.571	118.2677
316.093	107.26665
316.615	81.19657
317.137	80.17721
317.659	71.1743
318.18	81.19524
318.702	131.30832
319.223	60.12508
319.744	117.26559
320.265	108.26518
320.786	124.3112
321.307	125.30981
321.828	147.33233
322.348	124.2935
322.869	109.26203
323.389	448.82308
323.909	82.1901
324.43	137.32808
324.95	116.26786
325.47	163.4034
325.989	162.38403
326.509	138.31103
327.029	180.41
327.548	162.36722
328.067	119.29094
328.587	194.48301
329.106	102.23262
329.625	156.40496
330.144	154.35899
330.662	198.4621
331.181	189.44396
331.7	173.40114
332.218	229.49126
332.736	139.32715
333.255	154.36365
333.773	155.36651
334.291	188.46773
334.808	191.42916
335.326	128.29015
335.844	201.4703
336.361	203.51868
336.879	219.51101
337.396	194.47033
337.913	167.38661
338.43	182.4102
338.947	163.39005
339.464	175.3785
339.981	174.41231
340.497	206.50241
341.014	241.57931
341.53	176.39733
342.046	274.67147
342.562	220.54255
343.078	227.52905
343.594	173.41129
344.11	245.57908
344.626	228.56909
345.141	214.48666
345.657	254.56684
346.172	243.57879
346.687	189.43302
347.202	261.58764
347.717	231.54514
348.232	237.58285
348.747	267.6068
349.261	262.56751
349.776	268.62668
350.29	265.65242
350.805	296.71433
351.319	283.64472
351.833	295.66499
352.347	266.6181
352.861	314.71836
353.374	281.6267
353.888	312.74382
354.401	307.68185
354.915	293.64913
355.428	295.71876
355.941	312.70834
356.454	322.69686
356.967	234.5401
357.48	284.63116
357.993	297.71336
358.505	249.59672
359.018	357.84504
359.53	300.71577
360.042	293.64318
360.554	348.82485
361.066	319.75482
361.578	336.72156
362.09	318.73657
362.602	349.75416
363.113	372.84418
363.625	373.81635
364.136	295.63475
364.647	345.79292
365.158	302.68703
365.669	347.80198
366.18	359.81584
366.691	339.72063
367.201	366.84571
367.712	374.82528
368.222	362.80548
368.733	372.77992
369.243	410.87704
369.753	402.88705
370.263	402.92998
370.773	374.87551
371.282	435.98851
371.792	416.921
372.301	418.96276
372.811	440.09492
373.32	463.94775
373.829	462.02719
374.338	463.97219
374.847	451.98661
375.356	467.03726
375.865	486.98019
376.373	559.17498
376.882	534.25898
377.39	572.27324
377.898	504.15868
378.407	615.2747
378.915	641.27123
379.423	622.31822
379.93	716.48664
380.438	622.36293
380.946	731.51344
381.453	717.53863
381.96	788.65664
382.468	825.69152
382.975	913.92004
383.482	895.71062
383.989	938.06609
384.495	991.93911
385.002	1011.74622
385.509	1085.1268
386.015	1213.92453
386.521	1193.15313
387.028	1230.19262
387.534	1265.07745
388.04	1339.48982
388.546	1376.27775
389.051	1422.31456
389.557	1557.59857
390.063	1638.58678
390.568	1683.84544
391.073	1745.61062
391.578	1853.053
392.084	1971.84999
392.589	1949.64012
393.093	2123.14654
393.598	2305.04872
394.103	2515.28567
394.607	2824.41208
395.112	2963.54846
395.616	3158.4776
396.12	3422.07501
396.624	3762.17735
397.128	4172.17049
397.632	4557.82878
398.136	4985.44885
398.639	5387.38233
399.143	5891.5131
399.646	6734.94223
400.15	7264.86728
400.653	8143.29391
401.156	9090.60813
401.659	10680.88451
402.162	13018.40348
402.664	17263.73044
403.167	24017.7301
403.67	44823.52508
404.172	61423.29235
404.674	63858.43483
405.176	63738.15102
405.678	63977.72923
406.18	64011.81569
406.682	63863.44694
407.184	63926.60148
407.686	63841.39382
408.187	64025.8516
408.688	44832.35852
409.19	30983.23887
409.691	25092.98105
410.192	20975.06019
410.693	17984.71814
411.194	16233.77751
411.694	15456.71315
412.195	14306.30409
412.696	13057.54798
413.196	12003.85751
413.696	11597.82731
414.196	11925.05269
414.696	11608.69943
415.196	10978.17752
415.696	9922.59123
416.196	8118.3531
416.695	6350.97074
417.195	5388.52284
417.694	5162.73863
418.194	4781.0113
418.693	4425.69147
419.192	4258.97907
419.691	4244.88705
420.19	4150.16012
420.688	4066.33528
421.187	3809.29272
421.685	3638.11549
422.184	3340.27874
422.682	2825.87157
423.18	2446.08888
423.678	2138.94091
424.176	1979.84612
424.674	1883.68563
425.172	1796.82952
425.669	1718.92444
426.167	1633.64404
426.664	1453.39886
427.161	1373.35432
427.659	1264.38176
428.156	1204.96852
428.652	1027.1422
429.149	1044.0765
429.646	1037.87294
430.143	908.83801
430.639	911.81932
431.135	827.7878
431.632	822.60992
432.128	764.60121
432.624	747.69982
433.12	718.43711
433.616	715.37136
434.111	651.38066
434.607	644.37916
435.103	674.24006
435.598	624.15422
436.093	538.14343
436.588	579.17644
437.083	527.07791
437.578	554.16624
438.073	508.17207
438.568	540.21581
439.062	452.89696
439.557	417.91302
440.051	431.90301
440.546	400.85306
441.04	414.93223
441.534	396.93931
442.028	399.90378
442.522	372.84384
443.015	291.59838
443.509	334.77332
444.002	327.76266
444.496	297.61677
444.989	362.83082
445.482	309.73145
445.975	362.79111
446.468	309.63883
446.961	332.68499
447.454	237.51522
447.947	366.82518
448.439	330.77042
448.931	343.74658
449.424	327.79284
449.916	298.696
450.408	294.64361
450.9	278.64853
451.392	283.68979
451.884	280.61736
452.375	269.64047
452.867	240.52163
453.358	279.61322
453.849	233.48257
454.341	261.56739
454.832	257.53466
455.323	289.68966
455.814	254.55981
456.304	268.59586
456.795	229.50651
457.285	212.45352
457.776	259.56783
458.266	207.47769
458.756	214.49059
459.247	209.48576
459.737	203.47796
460.226	267.58463
460.716	233.53854
461.206	183.42735
461.695	208.49914
462.185	247.56522
462.674	230.5084
463.163	221.48044
463.653	264.53931
464.142	209.4917
464.63	184.43466
465.119	205.46307
465.608	267.60016
466.096	184.38953
466.585	191.42476
467.073	134.31114
467.561	198.46156
468.05	159.35858
468.538	150.35928
469.026	196.45168
469.513	138.28678
470.001	167.37524
470.489	201.46403
470.976	214.48449
471.463	198.47876
471.951	146.35569
472.438	168.38545
472.925	152.35084
473.412	150.35654
473.899	169.37864
474.385	173.41318
474.872	129.29616
475.359	140.33801
475.845	131.26743
476.331	121.25431
476.817	160.38075
477.303	147.33518
477.789	76.17989
478.275	97.23813
478.761	120.28073
479.247	104.2296
479.732	92.22731
480.218	147.37759
480.703	123.29826
481.188	146.3103
481.673	152.34245
482.158	87.18704
482.643	100.25251
483.128	169.38503
483.612	122.28664
484.097	83.19854
484.581	69.15904
485.066	169.40425
485.55	121.26417
486.034	111.23802
486.518	134.31557
487.002	61.1477
487.486	66.15941
487.969	32.07787
488.453	88.21687
488.936	99.22081
489.42	114.24915
489.903	24.05984
490.386	21.04381
490.869	126.27223
491.352	48.11532
491.835	103.20874
492.318	80.17876
492.8	103.21142
493.283	66.16755
493.765	75.18269
494.247	64.14849
494.73	62.13705
495.212	40.09486
495.694	99.2311
496.175	71.16984
496.657	86.20206
497.139	56.09646
497.62	107.25439
498.102	110.27039
498.583	26.06398
499.064	33.07391
499.545	91.20573
500.026	75.16901
500.507	30.06933
500.988	104.25696
501.469	16.04003
501.949	89.21776
502.43	76.18218
502.91	111.23309
503.39	67.16521
503.87	60.14158
504.35	102.236
504.83	44.09645
505.31	39.09407
505.79	77.18088
506.269	56.12833
506.749	58.13233
507.228	99.23083
507.707	96.21247
508.187	122.28742
508.666	112.27408
509.145	47.10998
509.623	105.24318
510.102	98.23474
510.581	120.28557
511.059	94.23447
511.538	99.25252
512.016	156.36623
512.494	153.36024
512.972	114.26962
513.45	100.2311
513.928	182.43143
514.406	161.38658
514.884	167.4213
515.361	217.50276
515.839	201.44959
516.316	212.49963
516.793	187.4599
517.27	165.38804
517.747	222.55191
518.224	220.48996
518.701	204.43697
519.178	237.57272
519.654	232.53015
520.131	222.53233
520.607	213.50423
521.083	213.46699
521.56	211.48187
522.036	208.43841
522.512	261.61928
522.987	281.64766
523.463	192.44281
523.939	320.75499
524.414	233.51406
524.89	257.58928
525.365	212.46372
525.84	225.52315
526.315	221.51831
526.79	216.47147
527.265	252.55982
527.74	184.43533
528.215	148.33875
528.689	166.35558
529.164	169.35378
529.638	96.24111
530.112	128.29662
530.587	158.33112
531.061	143.34023
531.534	124.29474
532.008	198.46845
532.482	135.30545
532.956	128.32182
533.429	235.55566
533.903	151.3245
534.376	139.30218
534.849	101.23011
535.322	142.32933
535.795	138.32777
536.268	142.33805
536.741	90.21212
537.213	146.3296
537.686	104.25205
538.158	126.28283
538.631	107.25654
539.103	42.09524
539.575	72.14795
540.047	98.21201
540.519	125.29466
540.991	110.26538
541.463	87.20795
541.934	31.07046
542.406	81.19376
542.877	89.19973
543.348	112.26765
543.82	67.16253
544.291	116.26786
544.762	97.22928
545.233	88.22173
545.703	46.10279
546.174	81.18715
546.645	115.2754
547.115	54.13053
547.585	83.19017
548.056	106.25863
548.526	76.18009
548.996	37.08888
549.466	63.15306
549.935	74.17657
550.405	41.09069
550.875	51.12148
551.344	65.15495
551.814	42.09679
552.283	69.15084
552.752	96.22397
553.221	82.18096
553.69	126.28201
554.159	72.17907
554.628	90.2036
555.096	80.20294
555.565	46.10236
556.033	80.19052
556.502	55.13302
556.97	78.17357
557.438	17.04032
557.906	40.09493
558.374	67.1556
558.842	76.18183
559.31	36.08127
559.777	42.10316
560.245	6.01394
560.712	31.07157
561.18	71.15737
561.647	25.05601
562.114	26.06016
562.581	63.15506
563.048	73.16719
563.514	87.21744
563.981	21.0486
564.448	37.08426
564.914	45.10501
565.381	115.26063
565.847	46.10761
566.313	41.09564
566.779	39.08839
567.245	23.05373
567.711	39.09383
568.176	14.0318
568.642	30.07594
569.108	27.0668
569.573	-12.02821
570.038	24.05079
570.504	45.10228
570.969	-5.01253
571.434	65.14467
571.899	16.0383
572.363	56.12885
572.828	104.23757
573.293	82.18754
573.757	113.26015
574.222	24.05436
574.686	62.14294
575.15	69.16606
575.614	134.31262
576.078	53.12479
576.542	28.0644
577.006	54.12256
577.469	75.18398
577.933	99.22455
578.396	30.07164
578.86	47.1111
579.323	99.23718
579.786	55.11998
580.249	69.16272
580.712	42.10252
581.175	7.01743
581.637	36.08273
582.1	40.08787
582.563	26.05589
583.025	5.0123
583.487	64.13241
583.95	6.01306
584.412	30.06376
584.874	72.17535
585.336	-6.01444
585.797	92.19962
586.259	0
586.721	32.07562
587.182	31.07202
587.643	53.12095
588.105	45.10678
588.566	74.1546
589.027	97.23619
589.488	22.05102
589.949	81.19612
590.41	61.12164
590.87	59.13551
591.331	97.21133
591.791	63.1462
592.252	73.17008
592.712	55.13207
593.172	77.17515
593.632	83.18443
594.092	50.11205
594.552	67.1456
595.011	-1.00232
595.471	103.23229
595.931	65.14713
596.39	47.11329
596.849	61.14234
597.308	57.12202
597.768	35.09066
598.227	46.11094
598.685	58.1326
599.144	86.20214
599.603	34.08004
600.062	42.08931
600.52	37.08426
600.978	16.03818
601.437	56.12777
601.895	68.14616
602.353	12.02671
602.811	81.18253
603.269	26.0623
603.727	27.06528
604.184	45.10315
604.642	96.23441
605.099	51.11957
605.557	45.10974
606.014	15.03275
606.471	49.12313
606.928	82.1821
607.385	57.14282
607.842	25.05785
608.299	52.12189
608.755	47.11414
609.212	51.11431
609.668	59.1335
610.125	76.1826
610.581	48.11287
611.037	31.07
611.493	-1.00236
611.949	45.10994
612.405	7.0145
612.861	21.04869
613.316	38.0914
613.772	40.09207
614.227	72.17266
614.683	50.10645
615.138	41.0965
615.593	-12.02825
616.048	58.13281
616.503	32.07799
616.958	29.0729
617.412	31.07398
617.867	37.08327
618.321	35.07278
618.776	49.10825
619.23	1.00237
619.684	27.06064
620.138	42.09637
620.592	67.16198
621.046	33.07831
621.5	-10.02434
621.954	7.01564
622.407	41.09095
622.861	79.19063
623.314	61.13785
623.768	68.16008
624.221	66.12981
624.674	29.0673
625.127	27.06305
625.58	30.06764
626.033	76.16533
626.485	-13.03144
626.938	68.16126
627.39	91.21101
627.843	33.07631
628.295	16.03712
628.747	100.23596
629.199	53.12056
629.651	34.07817
630.103	21.04842
630.555	26.05509
631.006	2.00469
631.458	39.09183
631.909	0
632.361	6.01394
632.812	11.02563
633.263	55.11921
633.714	4.00855
634.165	31.07441
634.616	-10.02386
635.067	38.08379
635.518	19.04521
635.968	42.08264
636.419	6.01322
636.869	21.04989
637.319	39.09054
637.769	40.09001
638.219	-3.00713
638.669	7.01673
639.119	5.01203
639.569	42.1006
640.019	14.03251
640.468	41.09194
640.918	3.00716
641.367	29.06508
641.816	31.06906
642.265	54.12564
642.714	-4.00925
643.163	28.06489
643.612	35.0858
644.061	60.12797
644.51	47.10764
644.958	18.03997
645.406	29.0694
645.855	9.02195
646.303	22.051
646.751	34.07879
647.199	48.10863
647.647	73.1684
648.095	22.05034
648.543	2.0041
648.99	41.09841
649.438	5.01164
649.885	37.09218
650.333	80.15423
650.78	24.05812
651.227	21.05152
651.674	25.05723
652.121	66.16098
652.568	6.01478
653.015	8.01987
653.461	58.13728
653.908	-11.0255
654.354	22.0525
654.801	30.07043
655.247	5.01091
655.693	31.08052
656.139	11.02635
656.585	20.04787
657.031	0
657.477	25.05484
657.922	-47.10859
658.368	26.06391
658.813	-12.02753
659.259	4.00975
659.704	46.10884
660.149	4.00928
660.594	18.04284
661.039	1.00229
661.484	30.07106
661.929	43.10026
662.373	-6.01514
662.818	7.01737
663.262	25.06051
663.707	28.07118
664.151	21.05125
664.595	14.03396
665.039	33.08176
665.483	33.08379
665.927	24.05637
666.371	22.05187
666.814	36.08537
667.258	28.0675
667.701	47.09996
668.145	30.07456
668.588	51.12576
669.031	7.01653
669.474	49.11703
669.917	47.10266
670.36	48.11925
670.803	69.16537
671.245	-9.01859
671.688	58.1402
672.13	41.09258
672.573	5.01265
673.015	57.13661
673.457	36.07828
673.899	55.13222
674.341	33.07933
674.783	10.02403
675.225	19.04678
675.666	89.21517
676.108	65.13944
676.549	19.04428
676.991	24.05272
677.432	29.05762
677.873	45.10228
678.314	35.08305
678.755	71.1734
679.196	31.07074
679.637	0
680.078	17.03973
680.518	20.04591
680.959	18.04284
681.399	33.08137
681.839	32.07741
682.28	53.13079
682.72	-3.00689
683.16	27.06719
683.6	56.12642
684.039	31.06389
684.479	40.09829
684.919	87.20197
685.358	-11.02747
685.798	31.08032
686.237	37.0878
686.676	22.04969
687.115	58.13547
687.554	77.18201
687.993	21.04641
688.432	39.08853
688.871	63.14307
689.309	50.11903
689.748	41.08484
690.186	10.02338
690.625	-4.00942
691.063	36.08541
691.501	106.25728
691.939	101.24996
692.377	26.06278
692.815	95.22855
693.253	14.03325
693.69	24.05239
694.128	36.08689
694.565	31.07305
695.003	44.11158
695.44	55.12905
695.877	26.06094
696.314	-3.00633
696.751	39.08774
697.188	34.07839
697.625	4.00895
698.061	21.05008
698.498	19.04472
698.934	41.09718
699.371	65.15108
699.807	42.0983
700.243	45.1076
700.679	-5.01116
701.115	42.0971
701.551	0
701.987	23.04996
702.422	57.13452
702.858	50.11807
703.294	70.15829
703.729	39.094
704.164	12.02854
704.599	75.16492
705.035	23.05134
705.47	12.02902
705.904	41.09405
706.339	38.08645
706.774	66.15234
707.209	28.06476
707.643	51.1206
708.078	44.10587
708.512	24.05978
708.946	19.04472
709.38	64.1499
709.814	27.06064
710.248	41.09931
710.682	30.07153
711.116	44.10612
711.549	19.04816
711.983	17.03904
712.416	50.11729
712.85	56.13674
713.283	89.20588
713.716	42.10286
714.149	-18.04168
714.582	61.13504
715.015	-10.02446
715.448	12.03005
715.881	36.07641
716.313	36.0832
716.746	65.15144
717.178	23.05487
717.61	50.12553
718.043	42.1024
718.475	35.08404
718.907	63.15466
719.339	64.14277
719.77	48.11352
720.202	1.00249
720.634	56.13552
721.065	34.0792
721.497	66.15881
721.928	-9.02191
722.359	22.05314
722.79	20.04749
723.221	-2.00494
723.652	34.08533
724.083	26.05786
724.514	36.0817
724.945	30.06944
725.375	25.0579
725.806	16.03905
726.236	14.03545
726.666	39.09068
727.096	43.10364
727.526	81.20464
727.956	38.08579
728.386	41.09905
728.816	49.12366
729.246	63.15288
729.675	3.00726
730.105	-14.03407
730.534	13.03
730.964	34.08361
731.393	33.07969
731.822	52.13074
732.251	53.13227
732.68	4.00917
733.109	58.14057
733.537	47.11329
733.966	60.14727
734.395	42.09563
734.823	21.04583
735.251	33.07815
735.68	41.09942
736.108	-18.04474
736.536	52.11945
736.964	59.13399
737.392	33.08125
737.82	43.10085
738.247	56.13075
738.675	0
739.102	27.06643
739.53	26.06612
739.957	87.22019
740.384	1.00238
740.811	14.03439
741.238	46.11106
741.665	74.17033
742.092	-29.06634
742.519	37.09056
742.945	68.16207
743.372	76.18481
743.798	11.02784
744.225	19.04434
744.651	33.08125
745.077	21.05167
745.503	32.07598
745.929	62.14732
746.355	15.03599
746.781	30.07252
747.207	42.09822
747.632	79.192
748.058	83.20451
748.483	36.08137
748.908	88.21383
749.334	34.08262
749.759	41.0962
750.184	87.20469
750.609	94.22387
751.033	23.0528
751.458	48.10473
751.883	26.06297
752.307	7.0163
752.732	79.19773
753.156	13.0316
753.58	48.11079
754.005	42.10339
754.429	84.19435
754.853	31.0761
755.277	82.18995
755.7	54.13136
756.124	16.03929
756.548	43.09963
756.971	40.09585
757.394	6.01515
757.818	41.10403
758.241	42.10495
758.664	17.04237
759.087	59.13034
759.51	26.06306
759.933	53.12581
760.356	60.15188
760.778	29.07014
761.201	45.10645
761.623	33.07697
762.046	35.0801
762.468	71.16548
762.89	15.03602
763.312	55.13192
763.734	34.0806
764.156	46.1114
764.578	44.09799
765	51.12167
765.421	43.1079
765.843	57.14601
766.264	47.10868
766.686	59.1428
767.107	41.0974
767.528	88.22054
767.949	39.09705
768.37	94.2267
768.791	21.04943
769.212	48.11873
769.632	29.06685
770.053	-13.03361
770.473	70.16408
770.894	8.01935
771.314	14.03242
771.734	44.10023
772.154	26.06511
772.575	24.05418
772.994	-13.02907
773.414	54.12499
773.834	-8.01967
774.254	28.06697
774.673	70.16703
775.093	56.13638
775.512	33.07999
775.931	47.1167
776.351	75.18228
776.77	12.02905
777.189	12.02804
777.607	41.10251
778.026	38.09272
778.445	59.14645
778.864	-19.04754
779.282	-20.04705
779.701	-1.00247
780.119	4.01
780.537	-8.01963
780.955	16.03966
781.373	-15.03657
781.791	62.13717
782.209	19.04187
782.627	41.10576
783.045	-1.00223
783.462	19.04763
783.88	38.09643
784.297	14.0346
784.715	21.05323
785.132	-20.04747
785.549	14.03431
785.966	-2.00495
786.383	46.11106
786.8	31.0702
787.217	50.11665
787.633	69.1692
788.05	35.07916
788.466	37.08372
788.883	24.06058
789.299	4.00931
789.715	59.14
790.131	37.08982
790.547	48.11642
790.963	44.10616
791.379	8.01987
791.795	32.0702
792.21	23.05208
792.626	12.02759
793.041	-18.04364
793.457	49.11685
793.872	-1.00228
794.287	46.10867
794.702	-16.03809
795.117	-3.00736
795.532	34.08392
795.947	6.0139
796.362	-3.00686
796.776	65.14377
797.191	32.07653
797.605	30.06961
798.02	28.0663
798.434	52.11187
798.848	61.14786
799.262	5.01216
799.676	77.18123
800.09	18.0432
800.504	47.11002
800.918	13.02905
801.331	-32.08072
801.745	25.05546
802.158	24.05792
802.572	60.1407
802.985	23.05354
803.398	24.05549
803.811	54.13161
804.224	34.0811
804.637	13.03036
805.05	20.04467
805.462	13.03095
805.875	32.08121
806.288	61.14335
806.7	-40.098
807.112	28.06236
807.525	-7.01662
807.937	36.08676
808.349	-29.07088
808.761	49.1173
809.173	40.09449
809.584	26.06209
809.996	10.02385
810.408	38.09664
810.819	-16.03693
811.231	55.1432
811.642	52.1255
812.053	39.09254
812.464	-2.00463
812.875	28.0701
813.286	83.2082
813.697	36.07918
814.108	-6.01425
814.519	60.12991
814.929	40.09865
815.34	-32.07536
815.75	41.10214
816.16	-3.0072
816.571	30.07554
816.981	8.01813
817.391	11.02558
817.801	5.01218
818.211	42.09648
818.62	11.02594
819.03	17.04039
819.44	-15.03769
819.849	-6.01461
820.259	-10.02475
820.668	-11.02659
821.077	43.10455
821.486	43.09864
821.895	18.04252
822.304	22.05668
822.713	58.13137
823.122	46.11077
823.531	20.04524
823.939	72.16956
824.348	54.12569
824.756	-10.02433
825.164	10.02436
825.573	-2.0049
825.981	47.11187
826.389	8.01953
826.797	84.20602
827.205	-5.01127
827.612	21.04998
828.02	-34.07776
828.428	15.03712
828.835	-31.08082
829.243	51.1161
829.65	14.03416
830.057	7.01642
830.464	34.08128
830.871	50.11592
831.278	-7.01651
831.685	46.09811
832.092	-25.05923
832.499	40.08464
832.905	-24.05906
833.312	-33.07205
833.718	44.1068
834.124	51.11234
834.531	18.04359
834.937	38.09486
835.343	5.01161
835.749	19.04224
836.155	-18.04618
836.561	31.07393
836.966	10.02364
837.372	-5.01235
837.777	18.04372
838.183	53.11218
838.588	38.09192
838.993	43.10109
839.399	12.02864
839.804	27.06389
840.209	41.10236
840.613	-11.02372
841.018	0
841.423	-9.02258
841.828	30.07396
842.232	10.02361
842.637	90.20509
843.041	-3.00755
843.445	-7.01698
843.849	7.01693
844.253	32.07313
844.657	20.04925
845.061	95.20899
845.465	37.08634
845.869	11.02475
846.272	-14.03346
846.676	-39.09061
847.079	-3.00751
847.483	24.05782
847.886	33.07673
848.289	67.17516
848.692	17.04149
849.095	26.06006
849.498	7.01697
849.901	17.0373
850.304	21.04846
850.707	-11.02726
851.109	32.07787
851.512	55.13051
851.914	-38.09472
852.316	38.0941
852.718	43.11045
853.121	17.04042
853.523	-36.08161
853.925	26.06663
854.326	30.07317
854.728	18.04516
855.13	13.03298
855.531	17.03945
855.933	23.05278
856.334	39.09482
856.736	8.01752
857.137	50.11279
857.538	-4.00988
857.939	39.09454
858.34	-2.00468
858.741	7.01775
859.142	-16.03721
859.542	35.09028
859.943	17.04093
860.343	15.03632
860.744	15.03544
861.144	32.07615
861.544	53.1244
861.945	14.0346
862.345	23.05411
862.745	-1.00244
863.145	13.02945
863.544	-4.00988
863.944	44.0999
864.344	35.08276
864.743	28.06704
865.143	57.14257
865.542	-28.06241
865.941	63.15047
866.34	5.01145
866.74	-26.06854
867.139	26.06106
867.537	-30.07393
867.936	-2.0047
868.335	0
868.734	21.05218
869.132	13.02879
869.531	2.00463
869.929	0
870.327	10.02322
870.726	3.00718
871.124	40.08905
871.522	9.02219
871.92	31.07387
872.318	25.05859
872.715	30.07057
873.113	-6.01412
873.511	28.0672
873.908	0
874.306	3.00732
874.703	7.01682
875.1	5.01224
875.497	13.03002
875.894	26.06285
876.291	31.07364
876.688	15.03764
877.085	9.02075
877.482	-10.02436
877.878	10.02367
878.275	22.05434
878.671	-11.02293
879.068	44.10209
879.464	18.04204
879.86	4.00916
880.256	-2.00471
880.652	23.05665
881.048	12.02848
881.444	9.0204
881.84	12.02955
882.236	16.03894
882.631	87.20517
883.027	36.08356
883.422	-5.01237
883.817	27.06623
884.213	20.0498
884.608	41.09924
885.003	-13.0302
885.398	6.0146
885.793	10.02424
886.188	21.05043
886.582	47.11508
886.977	14.03186
887.371	-21.05144
887.766	6.01459
888.16	5.01189
888.554	15.03562
888.949	25.06067
889.343	5.01177
889.737	28.07321
890.131	38.09203
890.525	57.14143
890.918	34.08256
891.312	17.03884
891.706	19.04828
892.099	30.07355
892.492	29.0595
892.886	-6.01422
893.279	8.01974
893.672	27.06704
894.065	37.08952
894.458	13.03135
894.851	71.16516
895.244	19.04701
895.637	21.04904
896.029	16.03812
896.422	-15.03518
896.814	-7.01686
897.206	-8.01878
897.599	65.15388
897.991	-1.00236
898.383	12.02748
898.775	35.07683
899.167	11.0252
899.559	24.05821
899.951	-15.034
900.342	26.0633
900.734	54.13225
901.125	11.02784
901.517	42.09949
901.908	-17.03898
902.299	23.05453
902.69	50.11431
903.082	17.03979
903.473	68.15852
903.863	-3.0074
904.254	64.14384
904.645	30.07101
905.036	51.12125
905.426	14.03038
905.817	16.0377
906.207	-49.11286
906.597	68.15364
906.987	6.01498
907.378	35.08602
907.768	-3.00776
908.158	-9.02127
908.547	45.11397
908.937	6.01475
909.327	38.08859
909.717	-8.01942
910.106	1.00232
910.495	39.09265
910.885	55.13442
911.274	-10.02427
911.663	14.0341
912.052	26.06114
912.441	8.01992
912.83	50.10891
913.219	29.07319
913.608	72.1695
913.997	-2.00493
914.385	46.1055
914.774	11.02585
915.162	50.11578
915.55	6.01393
915.939	30.07383
916.327	-6.01443
916.715	42.10503
917.103	6.01404
917.491	18.04288
917.878	30.07093
918.266	-8.02012
918.654	44.10939
919.041	-11.02841
919.429	-2.00457
919.816	14.03434
920.203	89.20792
920.591	-7.01691
920.978	77.1801
921.365	23.05879
921.752	-33.0754
922.139	67.13821
922.525	21.04891
922.912	-11.02595
923.299	45.10785
923.685	-34.08601
924.072	4.00867
924.458	70.16697
924.844	1.0024
925.231	-5.01115
925.617	49.12154
926.003	40.09829
926.389	23.05609
926.774	22.05372
927.16	-7.01685
927.546	72.17953
927.931	46.10964
928.317	63.13725
928.702	0
929.088	70.16203
929.473	54.13342
929.858	-3.00718
930.243	66.15331
930.628	40.09475
931.013	59.14059
931.398	2.00436
931.783	-16.04065
932.167	55.13056
932.552	-5.01213
932.937	12.02863
933.321	19.04658
933.705	-36.08764
934.09	-37.08939
934.474	-14.03192
934.858	56.14029
935.242	5.01115
935.626	33.08212
936.009	50.12993
936.393	35.08732
936.777	19.04747
937.16	23.05852
937.544	-5.0112
937.927	6.01487
938.311	58.13457
938.694	34.08735
939.077	28.06455
939.46	-13.03028
939.843	29.05622
940.226	-1.00248
940.609	58.12891
940.991	2.00491
941.374	46.10884
941.757	-3.00715
942.139	28.06065
942.522	25.05645
942.904	38.08785
943.286	44.10728
943.668	60.15134
944.05	26.06187
944.432	-5.01192
944.814	30.07043
945.196	-6.01433
945.578	19.04441
945.959	-30.06762
946.341	41.09473
946.722	23.05162
947.104	45.10327
947.485	15.03366
947.866	32.07857
948.247	44.10812
948.628	-10.02317
949.009	-15.03745
949.39	-16.03847
949.771	18.03926
950.152	41.09695
950.532	7.0172
950.913	28.06491
951.293	11.02922
951.674	28.06525
952.054	44.10712
952.434	-6.0145
952.814	21.04752
953.194	-6.01507
953.574	38.08956
953.954	-24.05476
954.334	45.10904
954.714	-11.02619
955.093	23.05453
955.473	23.05628
955.853	38.0951
956.232	41.10872
956.611	-10.02292
956.99	14.03424
957.37	-25.06171
957.749	-30.06845
958.128	-4.00986
958.506	7.01769
958.885	-34.08348
959.264	28.06714
959.643	69.15058
960.021	24.0579
960.4	13.02831
960.778	17.03978
961.156	4.00968
961.535	13.02886
961.913	28.06339
962.291	31.07798
962.669	45.11047
963.047	45.11137
963.424	54.1346
963.802	-25.06005
964.18	27.06478
964.557	80.17388
964.935	64.14454
965.312	31.07863
965.69	15.03595
966.067	-16.03737
966.444	-7.01639
966.821	47.11696
967.198	32.07369
967.575	13.03065
967.952	39.08781
968.329	46.10825
968.705	62.12718
969.082	37.09304
969.458	42.0983
969.835	28.06563
970.211	43.10771
970.587	53.12702
970.963	25.06142
971.339	8.02041
971.715	34.08203
972.091	12.02854
972.467	-20.04778
972.843	26.06311
973.219	59.13388
973.594	14.03557
973.97	-1.00223
974.345	13.03019
974.721	1.0023
975.096	53.12406
975.471	22.04999
975.846	-1.00231
976.221	-9.02227
976.596	44.10314
976.971	53.12659
977.346	-16.03575
977.72	-17.04195
978.095	19.04752
978.469	61.13836
978.844	43.10329
979.218	9.02121
979.593	-1.00231
979.967	-4.00925
980.341	20.04452
980.715	21.05131
981.089	-2.00485
981.463	43.09448
981.837	2.0048
982.21	44.09502
982.584	27.06313
982.957	-3.00732
983.331	-17.03832
983.704	37.08871
984.078	9.02141
984.451	9.02127
984.824	1.00238
985.197	-2.00462
985.57	-38.09147
985.943	18.04204
986.316	-19.04455
986.688	20.04637
987.061	70.15693
987.434	11.02823
987.806	20.046
988.179	-3.00681
988.551	16.03907
988.923	-14.03327
989.295	36.08607
989.667	17.03984
990.039	55.13282
990.411	-25.05486
990.783	1.00219
991.155	43.09971
991.527	-14.03275
991.898	39.09407
992.27	19.0459
992.641	-4.00967
993.012	-13.02878
993.384	2.00458
993.755	42.10385
994.126	62.14396
994.497	0
994.868	33.07165
995.239	-4.00935
995.61	-11.02694
995.98	-5.01175
996.351	16.0386
996.722	57.12787
997.092	0
997.462	-9.02064
997.833	9.02036
998.203	2.00461
998.573	51.12251
998.943	18.04089
999.313	21.04881
999.683	-1.00233
1000.053	-59.12919
1000.423	-12.02804
1000.792	-8.01993
1001.162	-10.0237
1001.531	21.05006
1001.901	10.02397
1002.27	3.00631
1002.639	20.049
1003.009	8.0183
1003.378	21.05205
1003.747	-3.0068
1004.116	-14.03241
1004.485	15.03452
1004.853	16.0386
1005.222	-35.08443
1005.591	20.0455
1005.959	-11.02408
1006.328	26.05634
1006.696	-21.04895
1007.064	1.00241
1007.433	-5.01201
1007.801	-5.01166
1008.169	-20.04858
1008.537	69.14457
1008.905	19.04292
1009.273	6.01421
1009.64	35.08135
1010.008	17.03892
1010.375	2.0046
1010.743	7.01502
1011.11	67.15443
1011.478	110.26026
1011.845	-22.04983
1012.212	22.04841
1012.579	-8.01908
1012.946	25.05643
1013.313	10.0227
1013.68	49.10421
1014.047	-6.01383
1014.414	-5.01139
1014.78	33.07933
1015.147	13.02989
1015.513	22.05102
1015.88	2.00492
1016.246	39.09115
1016.612	7.01526
1016.978	44.10423
1017.344	32.0763
1017.71	23.05356
1018.076	24.0537
1018.442	61.15119
1018.808	49.11887
1019.174	13.03131
1019.539	-29.0617
1019.905	41.09318
1020.27	-15.03585
1020.636	-20.0458
1021.001	30.06925
1021.366	-7.01636
1021.731	69.1727
1022.096	-6.01485
1022.461	29.0661
1022.826	65.14863
1023.191	20.05086
1023.556	25.05587
1023.92	-21.04962
1024.285	19.04413
1024.649	12.02817
1025.014	-7.01658
1025.378	21.05134
1025.742	-6.0143
1026.107	12.02595
1026.471	35.07761
1026.835	22.05258
1027.199	-16.03745
1027.562	10.0221
1027.926	24.05608
1028.29	9.02207
1028.654	12.02639
1029.017	50.11816
1029.381	48.11018
1029.744	-1.00248
1030.107	61.13752
1030.471	31.07171
1030.834	7.01503
1031.197	88.20086
1031.56	3.00678
1031.923	28.0701
1032.286	76.1694
1032.648	-13.02962
1033.011	80.17691
1033.374	9.02011
1033.736	7.0179
1034.099	10.02355
1034.461	8.01974
1034.823	-17.04135
1035.185	7.01687
1035.548	26.06121
1035.91	49.11195
1036.272	4.00882
1036.634	9.02123
1036.995	7.0157
1037.357	17.04011
1037.719	4.00942
1038.08	65.14845
1038.442	-29.06669
1038.803	-40.09181
1039.165	32.07735
1039.526	35.08125
1039.887	45.1029
1040.248	33.07969
1040.609	25.05875
1040.97	-9.02122
1041.331	41.10065
1041.692	56.12725
1042.053	24.05194
1042.413	64.14076
1042.774	36.08425
1043.134	-2.00453
1043.495	54.13008
1043.855	53.1245
1044.215	-13.0311
1044.576	0
1044.936	13.02842
1045.296	48.11484
1045.656	5.01171
1046.016	72.16434
1046.375	38.08841
1046.735	31.06863
1047.095	57.12724
1047.454	-9.01806
1047.814	40.09226
1048.173	-3.00681
1048.533	29.06358
1048.892	-3.007
1049.251	5.01204
1049.61	15.03568
1049.969	11.02486
1050.328	33.06813
1050.687	-21.04922
1051.046	-8.01877
1051.405	-12.02864
1051.763	56.1242
1052.122	3.00723
1052.48	21.04977
1052.839	79.17977
1053.197	47.10552
1053.555	31.06587
1053.914	37.08651
1054.272	-24.05496
1054.63	-27.06436
1054.988	1.00232
1055.345	4.00812
1055.703	-6.01399
1056.061	34.08542
1056.419	68.17183
1056.776	-10.02303
1057.134	-29.06377
1057.491	40.09632
1057.848	19.04529
1058.206	-28.06272
1058.563	-19.04025
1058.92	-7.01547
1059.277	-18.04308
1059.634	24.0533
1059.991	84.19157
1060.348	17.03702
1060.704	24.05637
1061.061	43.09328
1061.418	20.04677
1061.774	23.0547
1062.131	20.0521
1062.487	-2.00448
1062.843	4.00964
1063.199	6.01444
1063.555	77.17103
1063.911	-4.00972
1064.267	-1.00196
1064.623	23.05445
1064.979	-68.15126
1065.335	22.04999
1065.691	2.00455
1066.046	43.08958
1066.402	-20.04356
1066.757	27.06574
1067.112	7.01649
1067.468	6.01387
1067.823	9.02037
1068.178	26.05994
1068.533	19.0443
1068.888	15.03426
1069.243	64.15096
1069.598	-19.04442
1069.952	22.04863
1070.307	-14.03383
1070.662	60.13783
1071.016	13.02841
1071.371	58.12623
1071.725	17.03868
1072.079	21.04869
1072.434	-11.026
1072.788	-20.04543
1073.142	47.11092
1073.496	-1.00228
1073.85	-6.01338
1074.203	31.07231
1074.557	52.13508
1074.911	32.07257
1075.265	26.05783
1075.618	27.06345
1075.971	0
1076.325	52.12801
1076.678	24.05263
1077.031	-38.08143
1077.385	47.09782
1077.738	15.03235
1078.091	9.01987
1078.444	-8.01766
1078.796	35.08308
1079.149	-5.01207
1079.502	6.01377
1079.855	22.0493
1080.207	41.09646
1080.56	10.02522
1080.912	45.10463
1081.264	46.10652
1081.617	-8.01896
1081.969	29.07101
1082.321	5.01174
1082.673	25.05564
1083.025	-7.01592
1083.377	261.55918
1083.728	29.06436
1084.08	-6.0144
1084.432	-48.11229
1084.783	-30.06662
1085.135	28.06796
1085.486	5.01108
1085.838	17.04053
1086.189	13.03072
1086.54	9.02059
1086.891	34.08456
1087.242	31.07393
1087.593	-24.05573
1087.944	53.11532
1088.295	4.00871
1088.646	88.20692
1088.996	-23.05416
1089.347	-16.0378
1089.698	22.0506
1090.048	18.04492
1090.398	-8.01775
1090.749	-21.04817
1091.099	60.14661
1091.449	42.10095
1091.799	11.02659
1092.149	-13.03124
1092.499	-9.02127
1092.849	32.07854
1093.199	-7.01683
1093.548	35.08167
1093.898	-22.05326
1094.248	24.05889
1094.597	16.04008
1094.947	12.03116
1095.296	44.10491
1095.645	24.06004
1095.994	9.02083
1096.343	41.09961
1096.692	48.12379
1097.041	47.12517
1097.39	-1.00241
1097.739	45.11255
1098.088	8.02066
1098.437	9.02333
1098.785	-17.04435
1099.134	-12.0305
1099.482	33.08841
1099.83	41.10403
1100.179	76.19409
1100.527	4.0102
1100.875	18.04655
1101.223	36.09317
1101.571	-30.08097
1101.919	37.0957
1102.267	-4.01112
1102.615	-2.00643
1102.962	-5.01605
1103.31	2.00642
1103.658	-6.01925
