Data from N1 R2 sample 3_Subt2__1__13-52-38-176.txt Node

Date: Wed Sep 17 13:52:38 PDT 2025
User: uwsun
Spectrometer: HDX01956
Trigger mode: 0
Integration Time (sec): 5.000000E-1
Scans to average: 1
Nonlinearity correction enabled: true
Boxcar width: 0
Storing dark spectrum: false
XAxis mode: Wavelengths
Number of Pixels in Spectrum: 2068
>>>>>Begin Spectral Data<<<<<
194.03	-9.02616
194.578	-5.01627
195.127	-6.01925
195.676	11.03535
196.225	-6.01604
196.773	-7.01958
197.321	14.03911
197.87	13.03399
198.418	38.09963
198.966	50.13371
199.513	28.07264
200.061	-1.00261
200.609	44.1179
201.156	33.074
201.704	44.11269
202.251	47.12682
202.798	28.07396
203.345	56.141
203.892	48.1234
204.438	35.08478
204.985	33.08014
205.532	10.02687
206.078	13.03252
206.624	94.23829
207.17	81.19265
207.716	61.15213
208.262	36.07338
208.808	83.21111
209.354	61.1534
209.899	50.12792
210.445	41.10458
210.99	40.09967
211.535	42.10114
212.08	39.09251
212.625	35.08912
213.17	65.16801
213.715	39.09122
214.259	72.17075
214.804	61.15174
215.348	99.23138
215.892	103.25229
216.436	20.04677
216.98	35.07858
217.524	44.10732
218.068	51.13082
218.612	84.21588
219.155	91.21735
219.698	45.109
220.242	27.06787
220.785	87.20652
221.328	21.0529
221.871	96.2462
222.414	41.10292
222.956	-5.01225
223.499	11.0251
224.041	15.035
224.583	6.01297
225.126	23.05151
225.668	28.06918
226.21	76.19396
226.751	70.15784
227.293	35.08048
227.835	12.03
228.376	60.13794
228.918	-18.04586
229.459	24.06088
230	42.1024
230.541	38.08876
231.082	35.08656
231.622	24.05527
232.163	17.04173
232.704	69.17426
233.244	43.10806
233.784	37.09087
234.324	96.21744
234.864	50.11445
235.404	47.112
235.944	49.11676
236.484	85.21321
237.023	37.08847
237.563	65.15275
238.102	36.08643
238.641	52.13196
239.18	67.15886
239.719	43.10895
240.258	40.09126
240.797	101.24197
241.335	14.03464
241.874	74.14609
242.412	99.24151
242.95	64.15633
243.488	-11.02532
244.026	48.11331
244.564	69.14381
245.102	91.20766
245.64	36.08715
246.177	33.07455
246.715	135.32317
247.252	48.11035
247.789	111.20643
248.326	27.06621
248.863	36.08071
249.4	48.11035
249.936	108.22744
250.473	57.1365
251.009	59.13665
251.546	74.16713
252.082	31.06817
252.618	68.15383
253.154	53.12915
253.69	23.05259
254.226	57.13812
254.761	47.10708
255.297	58.12832
255.832	50.12054
256.367	45.10723
256.903	86.19288
257.438	62.14686
257.972	72.16195
258.507	75.1735
259.042	46.10173
259.576	82.18338
260.111	73.16907
260.645	33.07266
261.179	68.16101
261.713	99.22291
262.247	32.0743
262.781	72.15369
263.315	25.06162
263.849	58.14677
264.382	40.09332
264.915	96.22845
265.449	30.07442
265.982	68.15615
266.515	71.17572
267.048	77.16505
267.58	63.13754
268.113	35.07716
268.646	16.03985
269.178	35.07961
269.71	79.17664
270.243	70.16408
270.775	109.28028
271.307	40.09643
271.838	84.19959
272.37	44.10923
272.902	83.18941
273.433	81.18148
273.965	68.16672
274.496	76.18964
275.027	83.20805
275.558	46.11391
276.089	47.11904
276.62	34.08689
277.15	35.08732
277.681	48.10495
278.211	43.10627
278.741	60.13523
279.272	5.01173
279.802	41.10336
280.332	38.09126
280.861	47.11389
281.391	28.06491
281.921	44.10664
282.45	60.15026
282.98	88.23041
283.509	71.16359
284.038	71.16444
284.567	106.24798
285.096	112.27245
285.625	10.02303
286.153	111.26633
286.682	27.06335
287.21	5.01217
287.739	56.13408
288.267	79.19415
288.795	60.15816
289.323	44.10511
289.851	65.15495
290.378	27.06144
290.906	63.15609
291.433	68.17121
291.961	111.25493
292.488	40.10068
293.015	72.17206
293.542	115.29642
294.069	85.21244
294.596	39.09677
295.122	116.27923
295.649	40.08923
296.175	81.19657
296.702	115.28221
297.228	18.04421
297.754	42.09633
298.28	129.29758
298.806	39.09564
299.332	41.09371
299.857	122.27835
300.383	36.09197
300.908	72.17914
301.433	122.29989
301.958	94.21732
302.483	56.1406
303.008	113.28222
303.533	47.12283
304.058	28.06661
304.582	53.12731
305.107	42.11086
305.631	57.13139
306.155	82.19326
306.679	92.21851
307.203	84.19728
307.727	77.18468
308.251	91.22637
308.775	125.30527
309.298	78.19031
309.822	83.21029
310.345	146.3489
310.868	109.26461
311.391	94.23336
311.914	64.16247
312.437	131.30051
312.96	78.18619
313.482	25.06008
314.005	70.17669
314.527	47.12388
315.049	121.30722
315.571	115.26105
316.093	77.19294
316.615	66.16062
317.137	104.22922
317.659	134.32512
318.18	55.13322
318.702	134.3152
319.223	72.14969
319.744	91.20766
320.265	130.3179
320.786	120.30138
321.307	64.16039
321.828	103.23495
322.348	101.24012
322.869	79.19099
323.389	367.68799
323.909	81.18782
324.43	112.26949
324.95	138.31726
325.47	126.31394
325.989	116.27742
326.509	131.29568
327.029	122.28115
327.548	101.23178
328.067	102.25017
328.587	153.38377
329.106	117.26602
329.625	153.39738
330.144	161.37479
330.662	142.33506
331.181	105.25069
331.7	64.1516
332.218	148.32305
332.736	147.34544
333.255	131.31072
333.773	152.35963
334.291	170.42434
334.808	136.30903
335.326	136.30778
335.844	188.44101
336.361	187.47915
336.879	164.38681
337.396	160.39038
337.913	154.35744
338.43	165.37318
338.947	163.39005
339.464	132.28813
339.981	146.34784
340.497	185.45297
341.014	180.4377
341.53	197.44282
342.046	206.5112
342.562	177.43996
343.078	181.42567
343.594	153.36514
344.11	213.50657
344.626	176.44344
345.141	198.45173
345.657	230.51583
346.172	217.51945
346.687	205.46817
347.202	199.45374
347.717	183.4359
348.232	240.5899
348.747	216.49597
349.261	241.52436
349.776	227.53508
350.29	203.5055
350.805	265.64327
351.319	212.48991
351.833	196.45077
352.347	215.50463
352.861	236.5484
353.374	214.4839
353.888	249.60081
354.401	250.56183
354.915	245.54823
355.428	265.6493
355.941	188.43756
356.454	241.5306
356.967	215.49812
357.48	240.53826
357.993	260.62889
358.505	221.53245
359.018	270.64987
359.53	252.60678
360.042	262.57889
360.554	282.67695
361.066	228.549
361.578	318.68556
362.09	241.56675
362.602	259.57047
363.113	325.74457
363.625	266.59534
364.136	270.58408
364.647	275.6409
365.158	303.68916
365.669	258.60685
366.18	291.67044
366.691	290.62305
367.201	276.64918
367.712	326.7266
368.222	280.63363
368.733	285.60901
369.243	304.66522
369.753	289.6528
370.263	325.76336
370.773	260.62225
371.282	387.888
371.792	349.78348
372.301	302.7117
372.811	345.87519
373.32	360.7541
373.829	321.736
374.338	378.8086
374.847	325.72991
375.356	333.76167
375.865	421.86178
376.373	438.94664
376.882	435.04485
377.39	458.0431
377.898	442.02845
378.407	454.97618
378.915	518.05636
379.423	476.04041
379.93	602.28133
380.438	465.05203
380.946	573.22772
381.453	608.33502
381.96	595.30343
382.468	648.38116
382.975	708.55547
383.482	697.39535
383.989	787.78942
384.495	855.72629
385.002	770.41422
385.509	883.81381
386.015	909.56622
386.521	986.8735
387.028	1005.89534
387.534	1036.80896
388.04	1104.17072
388.546	1094.9506
389.051	1165.03002
389.557	1206.2026
390.063	1308.25716
390.568	1349.4826
391.073	1440.34667
391.578	1469.67213
392.084	1627.59477
392.589	1563.37552
393.093	1778.90111
393.598	1924.85287
394.103	2082.09463
394.607	2299.26504
395.112	2417.42289
395.616	2611.42765
396.12	2786.14213
396.624	3065.32738
397.128	3405.4325
397.632	3720.21429
398.136	4078.93565
398.639	4337.96281
399.143	4714.15375
399.646	5453.40651
400.15	5955.03975
400.653	6660.73818
401.156	7477.80451
401.659	8701.12749
402.162	10539.50557
402.664	13903.30565
403.167	19543.56235
403.67	36440.2738
404.172	60499.35355
404.674	63858.43483
405.176	63738.15102
405.678	63977.72923
406.18	64011.81569
406.682	63863.44694
407.184	63926.60148
407.686	63841.39382
408.187	62540.77136
408.688	36348.86237
409.19	24865.46161
409.691	20074.92514
410.192	16952.75714
410.693	14615.10733
411.194	13113.25609
411.694	12281.46837
412.195	11441.84491
412.696	10372.90691
413.196	9568.68601
413.696	9358.19448
414.196	9368.17472
414.696	9178.89752
415.196	8629.9105
415.696	7952.06953
416.196	6509.90258
416.695	5085.55608
417.195	4292.12491
417.694	4171.28984
418.194	3859.50388
418.693	3550.07598
419.192	3442.28887
419.691	3384.21222
420.19	3382.41819
420.688	3158.56693
421.187	3102.54637
421.685	2861.23654
422.184	2621.27945
422.682	2211.77479
423.18	1935.85494
423.678	1737.68663
424.176	1647.60483
424.674	1547.4313
425.172	1471.52868
425.669	1436.62561
426.167	1269.26069
426.664	1205.12312
427.161	1075.98909
427.659	1033.05505
428.156	966.68285
428.652	873.88407
429.149	846.76074
429.646	819.56061
430.143	750.57253
430.639	742.53932
431.135	703.55967
431.632	665.35023
432.128	599.30062
432.624	655.51794
433.12	562.16495
433.616	546.08934
434.111	509.11244
434.607	484.07174
435.103	487.93913
435.598	512.97479
436.093	424.92501
436.588	480.99877
437.083	417.87561
437.578	455.98022
438.073	409.96397
438.568	417.96409
439.062	367.74274
439.557	315.70455
440.051	261.56739
440.546	283.61888
441.04	293.67612
441.534	314.75661
442.028	338.77513
442.522	281.64921
443.015	226.47153
443.509	311.72336
444.002	280.6591
444.496	269.56212
444.989	244.57325
445.482	248.59399
445.975	296.65592
446.468	226.47593
446.961	220.46533
447.454	192.42139
447.947	283.64889
448.439	261.6176
448.931	267.59055
449.424	241.59378
449.916	260.61179
450.408	233.51665
450.9	214.50552
451.392	226.55673
451.884	251.55679
452.375	219.52644
452.867	232.5051
453.358	182.40819
453.849	213.44313
454.341	235.5137
454.832	117.251
455.323	240.57811
455.814	203.45219
456.304	217.48758
456.795	209.4642
457.285	168.36282
457.776	212.4694
458.266	163.37945
458.756	167.38646
459.247	135.31836
459.737	177.41885
460.226	211.46748
460.716	150.35242
461.206	130.30674
461.695	125.3047
462.185	190.43977
462.674	163.36535
463.163	225.48872
463.653	182.37872
464.142	195.46002
464.63	124.29633
465.119	142.32489
465.608	182.41623
466.096	154.32816
466.585	123.2774
467.073	101.23605
467.561	127.30019
468.05	145.32795
468.538	125.30083
469.026	111.26013
469.513	118.24631
470.001	162.36438
470.489	144.33621
470.976	181.41253
471.463	99.24385
471.951	145.35332
472.438	131.30279
472.925	103.24006
473.412	68.16418
473.899	128.2892
474.385	107.25878
474.872	89.20596
475.359	131.31682
475.845	77.15912
476.331	78.16549
476.817	99.23835
477.303	84.19397
477.789	80.18921
478.275	85.20913
478.761	76.17933
479.247	140.30675
479.732	92.22731
480.218	115.29704
480.703	88.21479
481.188	117.25024
481.673	86.19637
482.158	90.19337
482.643	146.36562
483.128	114.26261
483.612	80.1895
484.097	73.17495
484.581	36.08353
485.066	121.29209
485.55	95.20855
486.034	78.16845
486.518	102.24171
487.002	15.03663
487.486	29.07053
487.969	67.16198
488.453	3.00751
488.936	76.17031
489.42	98.21491
489.903	45.11178
490.386	-17.03576
490.869	66.14443
491.352	42.10102
491.835	10.0207
492.318	49.11019
492.8	45.09358
493.283	77.19509
493.765	42.10294
494.247	63.1462
494.73	62.13705
495.212	8.01909
495.694	45.10616
496.175	65.15566
496.657	75.17659
497.139	20.03478
497.62	33.07957
498.102	81.20017
498.583	-25.0621
499.064	10.0225
499.545	40.09137
500.026	76.17123
500.507	26.06013
500.988	95.23511
501.469	52.12924
501.949	50.12322
502.43	98.23393
502.91	112.23514
503.39	34.08435
503.87	79.18572
504.35	49.11457
504.83	65.14185
505.31	41.09886
505.79	11.02617
506.269	74.16897
506.749	36.0825
507.228	79.18492
507.707	117.25782
508.187	104.24587
508.666	87.21389
509.145	37.08675
509.623	86.19993
510.102	108.25819
510.581	162.38239
511.059	126.31246
511.538	77.19717
512.016	132.31134
512.494	114.27045
512.972	122.28809
513.45	94.21749
513.928	121.29021
514.406	168.40285
514.884	173.43596
515.361	187.43583
515.839	195.43671
516.316	226.53117
516.793	172.42419
517.27	223.5185
517.747	240.59469
518.224	215.47932
518.701	240.51008
519.178	266.63928
519.654	296.66765
520.131	260.61892
520.607	200.47465
521.083	216.47327
521.56	256.57933
522.036	252.52601
522.512	290.68422
522.987	270.62367
523.463	227.51987
523.939	300.71056
524.414	221.48882
524.89	249.57185
525.365	196.43017
525.84	198.46283
526.315	197.46419
526.79	225.49018
527.265	197.44264
527.74	151.35954
528.215	142.32541
528.689	139.29948
529.164	113.23949
529.638	123.30741
530.112	113.26264
530.587	150.31491
531.061	100.23989
531.534	136.32252
532.008	141.33728
532.482	124.2812
532.956	78.19787
533.429	125.30186
533.903	83.18098
534.376	80.1761
534.849	79.18079
535.322	112.2613
535.795	89.21338
536.268	105.25174
536.741	74.17495
537.213	85.19428
537.686	41.10054
538.158	75.17011
538.631	54.13077
539.103	105.23506
539.575	43.08894
540.047	31.06802
540.519	64.15265
540.991	103.24883
541.463	21.05083
541.934	32.07271
542.406	42.10122
542.877	59.13322
543.348	57.13765
543.82	38.09268
544.291	79.18376
544.762	57.13578
545.233	82.20683
545.703	33.07394
546.174	61.1415
546.645	40.09716
547.115	63.15202
547.585	29.06717
548.056	82.20097
548.526	64.15201
548.996	3.00725
549.466	48.11694
549.935	28.0674
550.405	25.05548
550.875	44.10495
551.344	16.0385
551.814	25.05781
552.283	78.17018
552.752	56.13168
553.221	55.12206
553.69	84.18964
554.159	45.11247
554.628	61.13881
555.096	76.19293
555.565	0
556.033	85.20224
556.502	33.08014
556.97	49.1097
557.438	44.10382
557.906	47.1114
558.374	52.12113
558.842	18.04354
559.31	34.07679
559.777	76.1855
560.245	-22.05141
560.712	-8.01861
561.18	45.10028
561.647	14.03144
562.114	28.06476
562.581	61.15019
563.048	29.06701
563.514	98.24445
563.981	47.10821
564.448	58.13153
564.914	62.14419
565.381	51.11709
565.847	66.1538
566.313	25.0585
566.779	7.01597
567.245	-1.00235
567.711	27.0651
568.176	8.01819
568.642	41.10358
569.108	43.10607
569.573	15.03507
570.038	24.05079
570.504	72.16275
570.969	23.05736
571.434	23.05164
571.899	56.13301
572.363	81.18544
572.828	105.2398
573.293	45.10368
573.757	89.20588
574.222	66.14821
574.686	79.18151
575.15	114.27202
575.614	158.36687
576.078	90.21038
576.542	97.22001
577.006	78.17616
577.469	86.21054
577.933	151.33887
578.396	99.23328
578.86	120.27963
579.323	117.27934
579.786	145.31026
580.249	161.37287
580.712	78.18911
581.175	62.1528
581.637	69.15752
582.1	102.22113
582.563	113.23834
583.025	106.25593
583.487	140.2847
583.95	78.16722
584.412	143.29644
584.874	84.20411
585.336	92.21725
585.797	107.23143
586.259	75.17529
586.721	53.12474
587.182	70.16138
587.643	100.22603
588.105	66.15598
588.566	92.19144
589.027	117.28382
589.488	99.2261
589.949	111.26724
590.41	112.2207
590.87	141.31851
591.331	149.32103
591.791	93.21454
592.252	105.24308
592.712	107.25439
593.172	142.31874
593.632	161.35194
594.092	116.25642
594.552	154.32845
595.011	52.1196
595.471	82.18573
595.931	106.23793
596.39	76.18218
596.849	88.20425
597.308	52.11144
597.768	155.39312
598.227	77.18461
598.685	72.16414
599.144	116.27105
599.603	67.15671
600.062	68.14377
600.52	134.29918
600.978	45.10678
601.437	42.0961
601.895	132.27982
602.353	55.12135
602.811	115.25734
603.269	68.16164
603.727	96.22907
604.184	73.16638
604.642	97.2368
605.099	94.21853
605.557	68.16511
606.014	90.19337
606.471	76.19005
606.928	136.29862
607.385	104.25838
607.842	101.2302
608.299	82.19108
608.755	62.15015
609.212	62.13866
609.668	74.16692
610.125	103.24619
610.581	107.2487
611.037	47.10578
611.493	38.08911
611.949	104.25129
612.405	79.16098
612.861	82.18784
613.316	55.13187
613.772	87.19837
614.227	135.31984
614.683	38.08112
615.138	72.16844
615.593	23.05378
616.048	92.20922
616.503	47.11423
616.958	34.08539
617.412	62.14709
617.867	54.12111
618.321	91.18687
618.776	60.13224
619.23	10.02363
619.684	78.17336
620.138	56.12813
620.592	55.13327
621.046	87.20429
621.5	58.13935
621.954	56.12384
622.407	76.16737
622.861	66.15965
623.314	36.08177
623.768	52.12279
624.221	44.08699
624.674	47.10868
625.127	58.13462
625.58	53.11894
626.033	75.16319
626.485	19.04568
626.938	69.1636
627.39	78.18133
627.843	26.0602
628.295	73.16746
628.747	37.08837
629.199	10.02294
629.651	25.05758
630.103	62.1418
630.555	76.15928
631.006	55.12758
631.458	22.05197
631.909	15.0338
632.361	25.05788
632.812	29.06732
633.263	74.15975
633.714	24.05108
634.165	21.0505
634.616	8.01902
635.067	8.01775
635.518	64.15096
635.968	31.06116
636.419	106.22863
636.869	45.10641
637.319	33.0767
637.769	74.16535
638.219	72.1687
638.669	6.01434
639.119	9.02164
639.569	44.10535
640.019	63.14487
640.468	49.1097
640.918	43.1018
641.367	63.1404
641.816	59.13067
642.265	22.05151
642.714	23.05291
643.163	67.15407
643.612	30.07361
644.061	8.01726
644.51	21.04835
644.958	45.09937
645.406	28.06702
645.855	20.04867
646.303	25.05792
646.751	47.10864
647.199	47.10639
647.647	27.06286
648.095	35.07987
648.543	39.07926
648.99	32.07694
649.438	39.09015
649.885	80.19774
650.333	13.02547
650.78	33.07978
651.227	54.13166
651.674	75.16998
652.121	57.13926
652.568	21.05157
653.015	2.00497
653.461	41.09736
653.908	37.08494
654.354	62.14681
654.801	8.01886
655.247	28.06078
655.693	42.10888
656.139	31.07398
656.585	1.0024
657.031	49.11488
657.477	77.16704
657.922	-8.01834
658.368	2.00494
658.813	14.03195
659.259	56.13516
659.704	78.18341
660.149	22.05084
660.594	52.12294
661.039	57.12934
661.484	45.10629
661.929	34.07942
662.373	-4.01009
662.818	5.01241
663.262	7.017
663.707	55.13915
664.151	25.06096
664.595	-1.00243
665.039	24.05956
665.483	34.08631
665.927	49.11452
666.371	37.08698
666.814	38.09008
667.258	42.10099
667.701	49.10417
668.145	67.16539
668.588	46.11353
669.031	32.07521
669.474	37.08857
669.917	33.07229
670.36	38.09458
670.803	47.11311
671.245	-42.0874
671.688	50.12104
672.13	59.13274
672.573	52.13051
673.015	71.16971
673.457	41.08906
673.899	38.09165
674.341	11.02655
674.783	29.06942
675.225	2.00494
675.666	84.20327
676.108	34.07343
676.549	41.09515
676.991	24.05272
677.432	41.08123
677.873	39.08875
678.314	-1.00239
678.755	46.11286
679.196	13.02977
679.637	10.02396
680.078	38.08845
680.518	15.03446
680.959	-14.03352
681.399	6.01487
681.839	39.09422
682.28	22.0546
682.72	-7.01609
683.16	63.15575
683.6	55.12419
684.039	-10.0208
684.479	24.05915
684.919	61.14234
685.358	36.08915
685.798	0
686.237	21.04998
686.676	21.04744
687.115	65.15162
687.554	76.17968
687.993	58.12719
688.432	7.01599
688.871	25.05721
689.309	75.17769
689.748	21.04365
690.186	26.06059
690.625	26.0609
691.063	13.03098
691.501	35.08608
691.939	61.15207
692.377	20.04834
692.815	106.25448
693.253	2.00476
693.69	8.01752
694.128	19.046
694.565	34.08007
695.003	57.14421
695.44	33.07776
695.877	19.0446
696.314	25.05243
696.751	40.08997
697.188	68.15571
697.625	-2.00448
698.061	34.08088
698.498	30.07046
698.934	27.06417
699.371	1.00235
699.807	38.089
700.243	79.18767
700.679	16.03555
701.115	14.03255
701.551	86.19621
701.987	16.03481
702.422	29.06881
702.858	30.07112
703.294	107.24013
703.729	52.12503
704.164	24.05694
704.599	108.23584
705.035	59.13072
705.47	45.10814
705.904	12.02769
706.339	32.07289
706.774	53.12265
707.209	22.05094
707.643	12.02859
708.078	16.0387
708.512	9.02248
708.946	27.06345
709.38	27.0637
709.814	7.01579
710.248	44.10652
710.682	75.17728
711.116	79.18926
711.549	-19.04848
711.983	17.03904
712.416	85.19803
712.85	27.06628
713.283	58.135
713.716	58.14162
714.149	17.03909
714.582	74.16337
715.015	17.04138
715.448	54.13421
715.881	49.10371
716.313	31.07171
716.746	41.09597
717.178	19.04536
717.61	49.12304
718.043	32.07817
718.475	57.1363
718.907	47.11572
719.339	10.02256
719.77	37.0877
720.202	22.05458
720.634	81.19509
721.065	51.1184
721.497	37.08952
721.928	-14.03412
722.359	29.06995
722.79	5.01191
723.221	30.07361
723.652	10.02521
724.083	49.10852
724.514	67.1511
724.945	10.02324
725.375	38.08778
725.806	17.04149
726.236	56.14075
726.666	34.07914
727.096	60.14415
727.526	67.16969
727.956	36.08131
728.386	51.12297
728.816	68.17103
729.246	57.13848
729.675	1.00242
730.105	50.12022
730.534	30.069
730.964	-11.02727
731.393	43.10364
731.822	29.07321
732.251	38.0951
732.68	15.03433
733.109	38.09244
733.537	102.24329
733.966	73.17875
734.395	30.06847
734.823	-12.02637
735.251	9.02141
735.68	50.12104
736.108	-27.06721
736.536	46.1058
736.964	8.01836
737.392	42.10324
737.82	22.05181
738.247	25.05873
738.675	39.09004
739.102	28.06888
739.53	53.13414
739.957	22.05632
740.384	-7.01671
740.811	-44.10923
741.238	44.10628
741.665	81.18618
742.092	-65.14977
742.519	30.07353
742.945	103.24384
743.372	53.12944
743.798	35.0882
744.225	50.11596
744.651	9.02226
745.077	21.05167
745.503	27.06417
745.929	58.13792
746.355	18.04316
746.781	0
747.207	14.03292
747.632	83.20157
748.058	90.22147
748.483	59.13274
748.908	38.0932
749.334	13.03171
749.759	79.18398
750.184	55.13021
750.609	31.07472
751.033	9.02072
751.458	31.06788
751.883	25.06055
752.307	8.01862
752.732	68.17054
753.156	36.08712
753.58	46.10622
754.005	27.06665
754.429	28.0655
754.853	34.08342
755.277	49.11425
755.7	47.11449
756.124	21.05152
756.548	12.02797
756.971	44.10535
757.394	-2.00506
757.818	34.08637
758.241	37.09254
758.664	-25.06278
759.087	53.11723
759.51	26.06306
759.933	37.0881
760.356	43.10918
760.778	56.13475
761.201	44.1041
761.623	22.05143
762.046	30.06872
762.468	80.18613
762.89	32.07659
763.312	84.20036
763.734	57.13452
764.156	35.08494
764.578	1.00225
765	52.12403
765.421	25.06294
765.843	55.14093
766.264	-39.09172
766.686	-15.03681
767.107	7.01674
767.528	32.081
767.949	35.08716
768.37	69.16719
768.791	1.00236
769.212	30.07445
769.632	2.00463
770.053	-14.03621
770.473	11.02608
770.894	32.07706
771.314	32.07383
771.734	37.0844
772.154	7.01759
772.575	59.13225
772.994	-10.02235
773.414	26.06052
773.834	7.01716
774.254	29.06934
774.673	59.14108
775.093	62.15082
775.512	24.05827
775.931	50.12409
776.351	76.18467
776.77	21.05075
777.189	64.14802
777.607	26.06518
778.026	45.10965
778.445	33.0823
778.864	-14.035
779.282	-20.04705
779.701	-8.0198
780.119	24.05978
780.537	34.08277
780.955	39.09627
781.373	31.07492
781.791	58.12842
782.209	5.01105
782.627	25.06467
783.045	-43.09682
783.462	39.0974
783.88	10.0255
784.297	15.03707
784.715	19.04817
785.132	14.03301
785.549	20.04896
785.966	11.02718
786.383	50.12063
786.8	18.04087
787.217	72.16725
787.633	34.08392
788.05	0
788.466	33.07473
788.883	43.10817
789.299	3.00698
789.715	37.08817
790.131	39.09464
790.547	38.09234
790.963	20.04847
791.379	5.01242
791.795	0
792.21	45.10145
792.626	12.02759
793.041	56.13388
793.457	-22.05318
793.872	23.05223
794.287	3.00715
794.702	-11.02616
795.117	31.0756
795.532	17.04209
795.947	10.02316
796.362	17.0387
796.776	34.07569
797.191	21.05033
797.605	23.05344
798.02	46.10854
798.434	71.15212
798.848	63.15266
799.262	35.08462
799.676	78.18355
800.09	47.11217
800.504	30.07046
800.918	5.01119
801.331	-19.04781
801.745	33.07308
802.158	-13.0316
802.572	65.15227
802.985	31.07205
803.398	13.03012
803.811	12.02948
804.224	-4.00961
804.637	19.04432
805.05	24.05356
805.462	55.1299
805.875	-10.02557
806.288	0
806.7	-30.07336
807.112	-6.01346
807.525	-8.01899
807.937	-23.05605
808.349	10.02426
808.761	16.03854
809.173	9.02139
809.584	17.04067
809.996	-17.04076
810.408	7.0179
810.819	-29.06711
811.231	36.09403
811.642	40.09676
812.053	70.16511
812.464	-24.05575
812.875	28.0701
813.286	42.10613
813.697	3.00664
814.108	36.08478
814.519	54.11707
814.929	31.07658
815.34	-50.11816
815.75	62.15387
816.16	13.03112
816.571	-2.00506
816.981	3.00681
817.391	-25.05854
817.801	21.051
818.211	32.07366
818.62	-25.05937
819.03	-5.01193
819.44	4.01002
819.849	26.06292
820.259	7.01727
820.668	17.04088
821.077	65.15738
821.486	12.0277
821.895	3.00711
822.304	-1.00259
822.713	12.02743
823.122	34.08206
823.531	-3.00682
823.939	16.03809
824.348	60.13949
824.756	41.09879
825.164	-28.0687
825.573	42.10213
825.981	9.02158
826.389	46.11148
826.797	72.17698
827.205	57.12687
827.612	35.08308
828.02	-24.05478
828.428	2.00496
828.835	13.03364
829.243	3.0069
829.65	19.04632
830.057	-1.00235
830.464	42.10026
830.871	58.13425
831.278	11.02585
831.685	27.05782
832.092	9.02118
832.499	9.01917
832.905	15.03665
833.312	-4.00868
833.718	87.20946
834.124	28.06197
834.531	-22.05368
834.937	9.02258
835.343	30.06933
835.749	3.00669
836.155	22.05605
836.561	18.04303
836.966	3.0071
837.372	17.04181
837.777	21.05098
838.183	12.02563
838.588	11.02674
838.993	35.08241
839.399	12.02864
839.804	23.05447
840.209	23.05761
840.613	-4.00861
841.018	-13.03196
841.423	17.04244
841.828	22.05432
842.232	56.13101
842.637	29.0669
843.041	6.01507
843.445	-13.03157
843.849	3.00726
844.253	-6.01382
844.657	22.05416
845.061	77.17003
845.465	47.10946
845.869	-3.00677
846.272	42.0993
846.676	-14.03237
847.079	32.07956
847.483	13.03138
847.886	64.1479
848.289	56.14667
848.692	-32.07881
849.095	32.07383
849.498	33.07963
849.901	8.01759
850.304	25.05765
850.707	1.00247
851.109	46.11165
851.512	39.09283
851.914	4.00989
852.316	49.12109
852.718	61.1562
853.121	-13.03109
853.523	0
853.925	61.15538
854.326	22.05374
854.728	20.05016
855.13	23.05825
855.531	9.02092
855.933	38.08694
856.334	40.09723
856.736	34.07406
857.137	44.09937
857.538	36.08826
857.939	37.08972
858.34	23.05359
858.741	5.01269
859.142	-9.0209
859.542	12.03108
859.943	23.05531
860.343	20.04838
860.744	38.08939
861.144	22.05246
861.544	14.03311
861.945	-4.00992
862.345	47.11006
862.745	68.16362
863.145	42.09459
863.544	29.07122
863.944	38.08638
864.344	-4.00953
864.743	44.10503
865.143	63.1574
865.542	-8.01776
865.941	41.09834
866.34	24.05474
866.74	23.06013
867.139	34.07973
867.537	-11.02701
867.936	30.07005
868.335	31.07613
868.734	37.09167
869.132	20.04423
869.531	11.02543
869.929	55.12074
870.327	39.09004
870.726	61.14447
871.124	28.06249
871.522	27.06636
871.92	29.06913
872.318	19.04458
872.715	18.04244
873.113	8.01878
873.511	-2.00483
873.908	14.03493
874.306	49.11851
874.703	-8.01928
875.1	-36.08882
875.497	9.0208
875.894	46.11077
876.291	-1.00239
876.688	10.02512
877.085	18.04142
877.482	-16.03902
877.878	47.11045
878.275	5.01239
878.671	-39.08179
879.068	39.09058
879.464	-7.01643
879.86	18.04112
880.256	-18.04254
880.652	12.02962
881.048	14.03321
881.444	-3.00682
881.84	-16.03961
882.236	13.03165
882.631	27.06441
883.027	14.03264
883.422	-17.04214
883.817	-6.01481
884.213	17.04235
884.608	53.12799
885.003	-18.04186
885.398	22.05338
885.793	4.00971
886.188	-18.04354
886.582	5.01234
886.977	18.04094
887.371	-7.0171
887.766	0
888.16	-17.04059
888.554	19.04508
888.949	9.02191
889.343	-3.00707
889.737	-30.07922
890.131	24.05827
890.525	24.05991
890.918	-5.01223
891.312	12.02744
891.706	-17.04347
892.099	30.07355
892.492	21.04316
892.886	-43.10266
893.279	-32.07953
893.672	41.10155
894.065	19.04613
894.458	-26.06315
894.851	62.14448
895.244	4.00992
895.637	31.07225
896.029	9.02147
896.422	34.07898
896.814	-10.0241
897.206	50.11605
897.599	48.11401
897.991	12.02828
898.383	41.09334
898.775	75.16326
899.167	44.10014
899.559	7.01703
899.951	2.00452
900.342	-7.01715
900.734	29.07135
901.125	29.07316
901.517	-2.00478
901.908	12.02736
902.299	16.03799
902.69	56.12787
903.082	17.03979
903.473	70.16312
903.863	-1.00247
904.254	85.19021
904.645	-21.0502
905.036	19.04545
905.426	21.0455
905.817	20.04708
906.207	-41.09428
906.597	35.07961
906.987	5.01248
907.378	2.00495
907.768	28.07206
908.158	19.04465
908.547	34.08628
908.937	-17.04198
909.327	31.07237
909.717	17.04107
910.106	-15.03484
910.495	35.08321
910.885	42.1029
911.274	15.03624
911.663	16.03895
912.052	2.00472
912.441	32.07933
912.83	12.02635
913.219	5.01267
913.608	50.11821
913.997	16.03927
914.385	69.15752
914.774	40.09347
915.162	73.16826
915.55	11.02552
915.939	17.04193
916.327	-21.05064
916.715	14.03519
917.103	32.07448
917.491	73.17208
917.878	-14.03338
918.266	14.03507
918.654	38.09458
919.041	-8.02065
919.429	-16.03667
919.816	-3.00738
920.203	44.1037
920.591	33.07912
920.978	55.1292
921.365	17.0435
921.752	4.00907
922.139	-7.01468
922.525	18.04194
922.912	3.00706
923.299	16.03856
923.685	-32.08092
924.072	-3.00651
924.458	9.02172
924.844	-12.02891
925.231	6.01335
925.617	27.06724
926.003	-4.00991
926.389	48.11651
926.774	0
927.16	23.05506
927.546	42.1053
927.931	-20.04827
928.317	8.01763
928.702	17.03857
929.088	62.14374
929.473	36.08924
929.858	33.07843
930.243	52.12113
930.628	18.04282
931.013	16.03844
931.398	46.0993
931.783	-5.01268
932.167	33.07867
932.552	-8.01942
932.937	20.04765
933.321	36.08797
933.705	12.02895
934.09	2.0048
934.474	4.00909
934.858	24.06047
935.242	-6.01341
935.626	28.06974
936.009	40.10413
936.393	60.14901
936.777	29.07232
937.16	15.03822
937.544	-14.03143
937.927	40.09854
938.311	72.16659
938.694	78.19885
939.077	-6.01393
939.46	-4.0093
939.843	36.06967
940.226	2.00496
940.609	72.15956
940.991	9.02207
941.374	3.00716
941.757	-1.00238
942.139	27.0585
942.522	10.02265
942.904	41.09473
943.286	7.01718
943.668	57.14385
944.05	30.07134
944.432	-12.02866
944.814	-4.00945
945.196	-7.01672
945.578	38.08848
945.959	-53.12002
946.341	32.07407
946.722	-5.01129
947.104	43.09872
947.485	22.0493
947.866	27.06636
948.247	58.14215
948.628	5.01155
949.009	-15.03745
949.39	21.05014
949.771	10.02185
950.152	5.01191
950.532	73.17715
950.913	15.03486
951.293	24.06361
951.674	21.049
952.054	43.1047
952.434	20.04809
952.814	16.03624
953.194	6.01504
953.574	-5.01188
953.954	-12.02731
954.334	27.06565
954.714	5.01187
955.093	75.17604
955.473	49.11931
955.853	26.06521
956.232	11.02931
956.611	20.04556
956.99	67.16223
957.37	-4.00984
957.749	-16.0364
958.128	26.06375
958.506	22.05543
958.885	10.02435
959.264	29.06953
959.643	17.03751
960.021	25.0603
960.4	65.13999
960.778	20.04677
961.156	-4.00969
961.535	6.01334
961.913	23.05213
962.291	17.04287
962.669	22.05424
963.047	31.07692
963.424	62.15431
963.802	41.09725
964.18	35.08385
964.557	-23.05109
964.935	33.075
965.312	25.06348
965.69	29.06932
966.067	8.0186
966.444	0
966.821	21.05251
967.198	15.03466
967.575	-1.00236
967.952	29.06543
968.329	63.14776
968.705	64.13122
969.082	42.10552
969.458	-11.02601
969.835	32.07495
970.211	40.10025
970.587	15.03621
970.963	11.02709
971.339	10.0255
971.715	26.06282
972.091	-11.02627
972.467	-37.08868
972.843	11.02677
973.219	17.0389
973.594	2.00509
973.97	-9.02015
974.345	18.04176
974.721	-9.02078
975.096	30.07054
975.471	19.0432
975.846	-16.03701
976.221	24.05904
976.596	64.14943
976.971	60.14311
977.346	11.02444
977.72	4.00983
978.095	-20.05038
978.469	6.01376
978.844	39.09375
979.218	18.04234
979.593	10.023
979.967	-28.06504
980.341	42.09307
980.715	59.14312
981.089	1.00242
981.463	-4.00888
981.837	33.0787
982.21	4.00871
982.584	16.03749
982.957	18.04377
983.331	5.01122
983.704	44.10535
984.078	10.02379
984.451	6.01419
984.824	24.05678
985.197	-13.03012
985.57	1.00239
985.943	13.03039
986.316	32.07427
986.688	17.03944
987.061	51.11478
987.434	62.15767
987.806	16.03683
988.179	-18.041
988.551	46.11169
988.923	10.02365
989.295	37.08844
989.667	-12.02828
990.039	96.23003
990.411	15.03264
990.783	-1.00219
991.155	-19.0446
991.527	3.00699
991.898	38.09168
992.27	32.07712
992.641	23.05529
993.012	2.00441
993.384	-5.01147
993.755	40.09894
994.126	22.05149
994.497	18.04267
994.868	1.00219
995.239	19.04423
995.61	-20.04907
995.98	-17.04003
996.351	9.02174
996.722	40.09005
997.092	-10.02308
997.462	47.10656
997.833	2.00453
998.203	-9.02079
998.573	24.05795
998.943	5.01139
999.313	29.0673
999.683	16.03718
1000.053	-48.10486
1000.423	32.07413
1000.792	-8.01993
1001.162	-48.11458
1001.531	32.07612
1001.901	23.055
1002.27	-39.08273
1002.639	10.02454
1003.009	-14.03217
1003.378	4.00994
1003.747	-32.07295
1004.116	-30.06966
1004.485	22.05056
1004.853	-22.05346
1005.222	-48.11607
1005.591	18.04097
1005.959	-11.02408
1006.328	28.06065
1006.696	-39.09122
1007.064	-33.08011
1007.433	9.02156
1007.801	-28.06561
1008.169	38.0913
1008.537	51.10728
1008.905	4.00906
1009.273	22.05193
1009.64	5.01169
1010.008	30.0685
1010.375	25.05723
1010.743	-5.01076
1011.11	67.15443
1011.478	28.0673
1011.845	45.10053
1012.212	69.15032
1012.579	29.06868
1012.946	53.11894
1013.313	47.10591
1013.68	55.11682
1014.047	-35.08113
1014.414	28.06337
1014.78	12.02896
1015.147	46.10508
1015.513	-9.021
1015.88	41.10009
1016.246	-20.04728
1016.612	-6.01312
1016.978	73.17195
1017.344	38.0905
1017.71	16.03731
1018.076	0
1018.442	35.08716
1018.808	33.08029
1019.174	-7.01692
1019.539	-14.02969
1019.905	6.01373
1020.27	-20.04785
1020.636	-16.03661
1021.001	38.08757
1021.366	38.08803
1021.731	64.16033
1022.096	5.01235
1022.461	33.07515
1022.826	42.09648
1023.191	10.02548
1023.556	-32.07236
1023.92	24.05621
1024.285	8.01862
1024.649	-7.01649
1025.014	3.00709
1025.378	30.07323
1025.742	-18.043
1026.107	35.07531
1026.471	62.13671
1026.835	30.07158
1027.199	-9.02103
1027.562	-16.03555
1027.926	26.06073
1028.29	15.03674
1028.654	17.03735
1029.017	45.10645
1029.381	13.03005
1029.744	41.10076
1030.107	65.14641
1030.471	48.11066
1030.834	20.04282
1031.197	73.16712
1031.56	34.07638
1031.923	9.02261
1032.286	39.0876
1032.648	11.02494
1033.011	69.15294
1033.374	30.06673
1033.736	-23.05912
1034.099	14.03294
1034.461	2.00494
1034.823	18.04349
1035.185	-4.00966
1035.548	34.07992
1035.91	8.01843
1036.272	20.04393
1036.634	47.11006
1036.995	1.00225
1037.357	17.04011
1037.719	52.12127
1038.08	61.13943
1038.442	-35.08058
1038.803	3.00683
1039.165	-4.00973
1039.526	11.02566
1039.887	11.02532
1040.248	45.10842
1040.609	-4.00945
1040.97	18.04223
1041.331	43.10552
1041.692	35.07987
1042.053	11.02387
1042.413	-8.01786
1042.774	44.10281
1043.134	17.03834
1043.495	45.10859
1043.855	38.08953
1044.215	-11.0263
1044.576	-19.04441
1044.936	15.03278
1045.296	37.08871
1045.656	-24.05652
1046.016	47.10782
1046.375	-15.03526
1046.735	48.10588
1047.095	49.10956
1047.454	18.03589
1047.814	3.00697
1048.173	23.05191
1048.533	4.00882
1048.892	-14.03273
1049.251	19.04562
1049.61	38.08998
1049.969	-28.06378
1050.328	50.10284
1050.687	7.01632
1051.046	9.02104
1051.405	-5.01192
1051.763	53.11762
1052.122	-10.02414
1052.48	-1.00238
1052.839	32.07351
1053.197	-9.02044
1053.555	-24.05161
1053.914	13.03054
1054.272	-21.04806
1054.63	16.03783
1054.988	27.06226
1055.345	24.04847
1055.703	23.05333
1056.061	36.09042
1056.419	88.22157
1056.776	-10.02303
1057.134	-31.0682
1057.491	33.07957
1057.848	8.01911
1058.206	3.00668
1058.563	-30.06371
1058.92	22.04833
1059.277	47.1111
1059.634	13.02893
1059.991	43.09888
1060.348	4.00873
1060.704	42.0983
1061.061	7.0153
1061.418	15.03511
1061.774	25.05944
1062.131	40.10384
1062.487	-31.06983
1062.843	-6.01448
1063.199	36.08613
1063.555	12.02701
1063.911	8.0194
1064.267	58.11203
1064.623	50.11775
1064.979	-38.084
1065.335	41.09281
1065.691	-6.01366
1066.046	4.00841
1066.402	-2.00434
1066.757	22.05362
1067.112	13.0306
1067.468	-15.03481
1067.823	-15.03412
1068.178	48.11018
1068.533	24.0559
1068.888	20.04563
1069.243	34.08066
1069.598	22.05102
1069.952	24.05303
1070.307	33.07903
1070.662	72.165
1071.016	58.12553
1071.371	50.109
1071.725	32.0726
1072.079	42.09698
1072.434	22.05167
1072.788	11.02483
1073.142	78.18298
1073.496	22.04997
1073.85	1.00223
1074.203	38.08852
1074.557	34.0886
1074.911	34.07707
1075.265	36.07991
1075.618	56.13085
1075.971	19.04336
1076.325	25.06185
1076.678	0
1077.031	-62.13355
1077.385	13.02726
1077.738	14.0302
1078.091	-14.03106
1078.444	25.05481
1078.796	23.05472
1079.149	39.0934
1079.502	27.06171
1079.855	29.0649
1080.207	16.03783
1080.56	34.08539
1080.912	-6.01409
1081.264	25.05813
1081.617	63.14724
1081.969	12.02948
1082.321	25.05845
1082.673	44.09755
1083.025	22.04975
1083.377	270.57734
1083.728	2.00446
1084.08	-24.05782
1084.432	16.03696
1084.783	-19.0421
1085.135	34.08243
1085.486	44.09673
1085.838	24.05714
1086.189	44.10334
1086.54	9.02059
1086.891	37.09197
1087.242	74.17502
1087.593	13.02997
1087.944	78.16881
1088.295	44.09494
1088.646	60.14185
1088.996	32.07454
1089.347	-25.05916
1089.698	15.03455
1090.048	17.04243
1090.398	-10.0222
1090.749	-4.00914
1091.099	28.06883
1091.449	7.01694
1091.799	33.07945
1092.149	10.02393
1092.499	10.02354
1092.849	-16.03962
1093.199	10.02397
1093.548	44.10249
1093.898	19.04564
1094.248	10.0246
1094.597	37.09234
1094.947	9.02338
1095.296	28.06697
1095.645	-8.02013
1095.994	-10.02323
1096.343	70.16914
1096.692	77.19758
1097.041	35.0934
1097.39	7.01687
1097.739	-7.01767
1098.088	34.08741
1098.437	22.0569
1098.785	-1.0026
1099.134	-10.0254
1099.482	23.06172
1099.83	53.13419
1100.179	46.1181
1100.527	-38.09763
1100.875	12.03107
1101.223	10.026
1101.571	-16.04308
1101.919	7.0182
1102.267	20.05539
1102.615	6.01926
1102.962	-4.01284
1103.31	4.01285
1103.658	-4.01283
