Data from N1 R2 sample 8_Subt2__3__12-59-05-737.txt Node

Date: Wed Sep 17 12:59:05 PDT 2025
User: uwsun
Spectrometer: HDX01956
Trigger mode: 0
Integration Time (sec): 5.000000E-1
Scans to average: 1
Nonlinearity correction enabled: true
Boxcar width: 0
Storing dark spectrum: false
XAxis mode: Wavelengths
Number of Pixels in Spectrum: 2068
>>>>>Begin Spectral Data<<<<<
194.03	-2.00581
194.578	-2.0065
195.127	-5.01604
195.676	-3.00966
196.225	-29.07782
196.773	20.05572
197.321	-5.01401
197.87	2.00524
198.418	22.05784
198.966	38.10182
199.513	40.10355
200.061	11.0286
200.609	33.08858
201.156	-21.04761
201.704	14.03604
202.251	16.04339
202.798	-7.0186
203.345	61.15345
203.892	11.02846
204.438	12.02919
204.985	-14.0343
205.532	22.05899
206.078	-15.03771
206.624	77.19578
207.17	72.17154
207.716	65.16199
208.262	19.03888
208.808	33.08468
209.354	81.20296
209.899	-23.05959
210.445	30.07667
210.99	-5.01256
211.535	35.08439
212.08	53.12537
212.625	6.01536
213.17	58.1501
213.715	97.2243
214.259	53.12615
214.804	16.04013
215.348	66.15525
215.892	24.05965
216.436	10.02343
216.98	1.00226
217.524	58.14109
218.068	62.15873
218.612	78.20067
219.155	102.2431
219.698	43.10419
220.242	15.03779
220.785	48.1148
221.328	41.10292
221.871	55.14207
222.414	-5.01265
222.956	-23.05655
223.499	43.09749
224.041	18.04198
224.583	-2.00433
225.126	8.01797
225.668	23.05688
226.21	38.09763
226.751	51.11544
227.293	36.08277
227.835	13.03249
228.376	-4.00931
228.918	23.05817
229.459	40.10118
230	56.13618
230.541	12.02817
231.082	-20.04996
231.622	-21.04879
232.163	40.09778
232.704	83.20909
233.244	3.00759
233.784	28.06888
234.324	58.13238
234.864	10.02307
235.404	-1.0024
235.944	-6.01445
236.484	60.15118
237.023	37.08847
237.563	52.12251
238.102	68.16226
238.641	24.06121
239.18	9.02158
239.719	27.0686
240.258	54.12286
240.797	51.12335
241.335	12.0297
241.874	121.23624
242.412	62.15229
242.95	56.13699
243.488	27.06169
244.026	71.16685
244.564	80.16632
245.102	53.12187
245.64	31.07512
246.177	12.02722
246.715	36.08781
247.252	30.06922
247.789	81.15176
248.326	46.1124
248.863	7.01579
249.4	24.05544
249.936	85.17991
250.473	38.09133
251.009	28.06525
251.546	60.1359
252.082	-19.04222
252.618	31.07066
253.154	17.0417
253.69	-18.0415
254.226	62.15009
254.761	63.14307
255.297	26.05791
255.832	49.11815
256.367	37.0883
256.903	82.18406
257.438	42.09987
257.972	17.03867
258.507	-8.01881
259.042	61.13448
259.576	89.19875
260.111	45.1048
260.645	41.09012
261.179	74.17502
261.713	28.06396
262.247	2.00467
262.781	66.14107
263.315	10.02472
263.849	85.21406
264.382	50.11642
264.915	66.15797
265.449	-1.00249
265.982	21.04868
266.515	74.18304
267.048	28.06065
267.58	31.06814
268.113	29.06401
268.646	42.10412
269.178	0
269.71	58.13024
270.243	82.19176
270.775	66.17098
271.307	-28.06837
271.838	53.12668
272.37	38.09444
272.902	29.0669
273.433	70.15719
273.965	41.10103
274.496	2.00506
275.027	36.091
275.558	70.17258
276.089	32.08126
276.62	-5.01287
277.15	33.08236
277.681	34.07456
278.211	6.01493
278.741	35.07929
279.272	49.11394
279.802	62.15572
280.332	83.19763
280.861	-12.0294
281.391	49.11313
281.921	-5.01223
282.45	17.0429
282.98	38.10034
283.509	67.1545
284.038	72.16672
284.567	45.10653
285.096	19.04702
285.625	-3.00693
286.153	78.18833
286.682	23.05401
287.21	-21.05134
287.739	55.13172
288.267	24.05958
288.795	18.04778
289.323	31.07424
289.851	38.09106
290.378	-4.00916
290.906	53.13155
291.433	12.03052
291.961	58.13462
292.488	34.08567
293.015	61.14608
293.542	94.24318
294.069	97.24191
294.596	22.05476
295.122	53.1291
295.649	15.03364
296.175	30.0735
296.702	94.23157
297.228	58.14141
297.754	22.05066
298.28	82.19093
298.806	44.1078
299.332	49.11182
299.857	68.15683
300.383	29.07418
300.908	57.14221
301.433	90.22254
301.958	37.08651
302.483	8.02026
303.008	69.1737
303.533	50.1306
304.058	57.13484
304.582	29.06998
305.107	12.03184
305.631	41.09481
306.155	17.04057
306.679	70.16697
307.203	45.10649
307.727	51.12293
308.251	30.07546
308.775	122.29811
309.298	36.08853
309.822	46.11731
310.345	82.19836
310.868	68.16635
311.391	48.12016
311.914	46.11715
312.437	77.17855
312.96	46.11048
313.482	31.07441
314.005	10.02551
314.527	5.01327
315.049	91.23228
315.571	55.12637
316.093	95.23726
316.615	4.00985
317.137	82.18157
317.659	77.18882
318.18	-8.01961
318.702	92.21818
319.223	46.09619
319.744	65.14911
320.265	55.13637
320.786	87.2198
321.307	39.09818
321.828	75.17205
322.348	45.10814
322.869	66.15995
323.389	353.66403
323.909	70.16267
324.43	94.22696
324.95	71.16542
325.47	93.23311
325.989	76.18315
326.509	85.19366
327.029	119.2744
327.548	62.14339
328.067	79.19459
328.587	134.33727
329.106	72.1652
329.625	74.19481
330.144	92.21708
330.662	143.33735
331.181	104.24835
331.7	62.14692
332.218	97.21402
332.736	58.13866
333.255	110.26197
333.773	49.11824
334.291	101.25526
334.808	104.23785
335.326	74.16958
335.844	84.20105
336.361	127.32883
336.879	75.17995
337.396	99.2443
337.913	59.13951
338.43	100.22917
338.947	85.20643
339.464	57.12639
339.981	39.09482
340.497	94.23404
341.014	98.24196
341.53	52.12036
342.046	142.3565
342.562	125.31366
343.078	97.23185
343.594	84.20312
344.11	135.32588
344.626	109.27793
345.141	156.35893
345.657	124.28416
346.172	101.24712
346.687	72.16884
347.202	158.36324
347.717	120.28929
348.232	125.31377
348.747	126.29453
349.261	136.30251
349.776	179.42588
350.29	158.39667
350.805	128.31869
351.319	103.24318
351.833	157.3639
352.347	161.38188
352.861	142.3361
353.374	153.35027
353.888	200.48705
354.401	114.26334
354.915	142.3245
355.428	159.39724
355.941	99.23446
356.454	165.36907
356.967	128.30167
357.48	104.23977
357.993	134.33181
358.505	106.26094
359.018	183.44774
359.53	139.34186
360.042	177.39803
360.554	196.47821
361.066	150.36653
361.578	198.43785
362.09	161.38453
362.602	170.38143
363.113	208.48773
363.625	148.3393
364.136	134.29831
364.647	220.51828
365.158	201.46661
365.669	166.39745
366.18	163.38513
366.691	132.29325
367.201	154.37083
367.712	172.39558
368.222	207.4754
368.733	207.44982
369.243	172.38687
369.753	176.40672
370.263	229.54796
370.773	154.37602
371.282	243.57368
371.792	271.61813
372.301	183.44124
372.811	224.58045
373.32	227.48949
373.829	197.46293
374.338	236.52036
374.847	186.42966
375.356	166.39244
375.865	263.55762
376.373	242.54497
376.882	241.60142
377.39	292.68867
377.898	259.62564
378.407	312.69137
378.915	283.60893
379.423	291.66214
379.93	372.83253
380.438	275.64745
380.946	370.82874
381.453	344.79836
381.96	355.81818
382.468	408.91609
382.975	432.00317
383.482	447.9477
383.989	467.12949
384.495	514.11794
385.002	477.94149
385.509	561.23505
386.015	603.1228
386.521	590.22798
387.028	652.33494
387.534	615.19175
388.04	690.48859
388.546	641.27538
389.051	681.33748
389.557	742.5133
390.063	812.58507
390.568	842.74543
391.073	777.4998
391.578	906.88153
392.084	947.80058
392.589	950.70455
393.093	1054.06252
393.598	1158.10934
394.103	1206.26002
394.607	1358.48744
395.112	1410.61649
395.616	1524.71093
396.12	1666.64937
396.624	1829.90419
397.128	2009.13423
397.632	2174.1447
398.136	2338.12702
398.639	2527.29985
399.143	2775.65086
399.646	3157.40655
400.15	3485.23843
400.653	3822.01574
401.156	4334.71084
401.659	5064.83597
402.162	6233.93752
402.664	7849.47896
403.167	11171.78098
403.67	20941.68811
404.172	58862.07862
404.674	63561.27139
405.176	63738.15102
405.678	63977.72923
406.18	64011.81569
406.682	63863.44694
407.184	63926.60148
407.686	63841.39382
408.187	36493.28448
408.688	21392.70619
409.19	14800.9966
409.691	11865.01964
410.192	9972.66483
410.693	8708.89907
411.194	7785.01002
411.694	7410.04887
412.195	6846.30355
412.696	6202.02518
413.196	5774.50907
413.696	5608.39701
414.196	5735.80428
414.696	5613.63083
415.196	5400.32193
415.696	4867.37211
416.196	3919.131
416.695	3060.36719
417.195	2524.40029
417.694	2468.72515
418.194	2328.74111
418.693	2143.99551
419.192	2120.11129
419.691	2033.99864
420.19	1986.10574
420.688	1961.16994
421.187	1841.39301
421.685	1759.78707
422.184	1622.71447
422.682	1327.1667
423.18	1133.07351
423.678	1056.95531
424.176	958.81228
424.674	906.68539
425.172	866.72736
425.669	827.74289
426.167	783.5692
426.664	673.34972
427.161	642.31503
427.659	601.31548
428.156	570.0957
428.652	546.25987
429.149	486.09137
429.646	534.08708
430.143	445.99688
430.639	449.99342
431.135	453.05637
431.632	383.82868
432.128	387.87946
432.624	388.94792
433.12	345.75094
433.616	374.77719
434.111	306.69866
434.607	285.65845
435.103	263.53446
435.598	311.62105
436.093	279.62739
436.588	280.60856
437.083	246.53604
437.578	276.61746
438.073	222.54224
438.568	273.64924
439.062	196.41221
439.557	217.49517
440.051	213.46778
440.546	206.45783
441.04	241.56189
441.534	221.54191
442.028	175.41444
442.522	149.35328
443.015	105.22496
443.509	213.50501
444.002	178.42732
444.496	151.3238
444.989	127.30518
445.482	133.32553
445.975	185.41943
446.468	171.36447
446.961	151.32422
447.454	128.28472
447.947	154.36224
448.439	160.38601
448.931	178.40102
449.424	163.40738
449.916	175.4186
450.408	110.25016
450.9	94.22721
451.392	161.40136
451.884	136.30891
452.375	127.31062
452.867	87.19525
453.358	142.3211
453.849	128.27134
454.341	132.29483
454.832	122.26144
455.323	179.43616
455.814	109.24753
456.304	143.32619
456.795	145.32634
457.285	77.16953
457.776	83.18872
458.266	100.23568
458.756	72.16976
459.247	136.32065
459.737	158.37527
460.226	161.36042
460.716	128.30203
461.206	120.2837
461.695	49.12114
462.185	78.18455
462.674	106.24038
463.163	137.30315
463.653	100.21189
464.142	109.26143
464.63	79.19042
465.119	106.24428
465.608	137.31616
466.096	86.18597
466.585	52.11898
467.073	59.13903
467.561	56.13419
468.05	116.26391
468.538	86.2085
469.026	71.16769
469.513	45.09545
470.001	124.28108
470.489	129.30208
470.976	131.30159
471.463	118.28963
471.951	79.19487
472.438	76.17759
472.925	66.15495
473.412	75.18084
473.899	62.14197
474.385	87.2112
474.872	64.14884
475.359	88.21455
475.845	76.15709
476.331	46.09828
476.817	70.16946
477.303	87.20077
477.789	82.19386
478.275	44.10908
478.761	41.0974
479.247	81.17969
479.732	45.11215
480.218	104.26914
480.703	37.09117
481.188	62.13419
481.673	71.16261
482.158	80.17225
482.643	99.25003
483.128	123.28283
483.612	115.27056
484.097	28.06768
484.581	95.21784
485.066	126.30387
485.55	73.161
486.034	56.12151
486.518	102.24171
487.002	39.09482
487.486	50.12113
487.969	6.01467
488.453	29.07225
488.936	51.11488
489.42	53.11733
489.903	68.1682
490.386	18.03757
490.869	105.22788
491.352	50.12008
491.835	58.11876
492.318	44.09905
492.8	92.18931
493.283	90.2275
493.765	53.12963
494.247	112.25739
494.73	83.18267
495.212	57.13473
495.694	126.29257
496.175	140.33047
496.657	142.32998
497.139	164.27435
497.62	149.35137
498.102	170.41323
498.583	110.26649
499.064	178.38672
499.545	218.48007
500.026	192.42228
500.507	198.44224
500.988	265.6353
501.469	286.68028
501.949	281.66286
502.43	366.82855
502.91	421.82355
503.39	355.8286
503.87	459.9986
504.35	469.00368
504.83	503.99561
505.31	575.24314
505.79	554.17749
506.269	665.33488
506.749	756.47909
507.228	817.63215
507.707	893.64596
508.187	1067.04537
508.666	1116.21178
509.145	1137.08606
509.623	1331.32916
510.102	1473.595
510.581	1641.7591
511.059	1761.04569
511.538	1893.27418
512.016	2040.04359
512.494	2276.18108
512.972	2425.22362
513.45	2578.12433
513.928	2886.40584
514.406	3116.46477
514.884	3240.8128
515.361	3526.23028
515.839	3789.88261
516.316	4020.16869
516.793	4230.36955
517.27	4355.92415
517.747	4554.35399
518.224	4636.45644
518.701	4812.07186
519.178	4988.90075
519.654	5080.40693
520.131	5166.71355
520.607	5012.68501
521.083	4926.17425
521.56	4914.46554
522.036	4792.98508
522.512	4761.91811
522.987	4735.73924
523.463	4557.7104
523.939	4391.16228
524.414	4160.6663
524.89	4022.03294
525.365	3921.69463
525.84	3712.2087
526.315	3519.32108
526.79	3389.88451
527.265	3315.0566
527.74	3077.39881
528.215	2835.15386
528.689	2780.8117
529.164	2672.69976
529.638	2540.58849
530.112	2355.10707
530.587	2356.65927
531.061	2207.19068
531.534	2066.08858
532.008	2079.14229
532.482	1929.79491
532.956	1791.13674
533.429	1767.93774
533.903	1681.44349
534.376	1613.42217
534.849	1487.44062
535.322	1468.50819
535.795	1384.49105
536.268	1370.4845
536.741	1291.32597
537.213	1227.15645
537.686	1161.2452
538.158	1141.02451
538.631	1163.2192
539.103	1063.90832
539.575	976.59874
540.047	942.66942
540.519	963.89578
540.991	885.8171
541.463	820.68088
541.934	796.52589
542.406	745.55208
542.877	772.48693
543.348	695.47216
543.82	729.54426
544.291	698.42217
544.762	636.34324
545.233	634.43702
545.703	618.21556
546.174	586.21532
546.645	554.21273
547.115	537.1767
547.585	515.07521
548.056	509.14568
548.526	527.13727
548.996	468.02936
549.466	488.08825
549.935	508.10861
550.405	418.85157
550.875	422.93312
551.344	410.91226
551.814	409.8732
552.283	363.74407
552.752	413.90312
553.221	387.79936
553.69	418.87906
554.159	371.87206
554.628	363.77534
555.096	336.81328
555.565	315.66174
556.033	367.82557
556.502	254.59115
556.97	294.62484
557.438	230.52304
557.906	339.75791
558.374	313.69141
558.842	249.57597
559.31	310.66057
559.777	267.62838
560.245	217.48317
560.712	279.61219
561.18	251.53543
561.647	242.51792
562.114	226.50206
562.581	256.60753
563.048	267.58759
563.514	323.77255
563.981	259.57094
564.448	221.48453
564.914	231.51925
565.381	287.62762
565.847	234.52717
566.313	207.46702
566.779	231.50303
567.245	179.40534
567.711	174.40785
568.176	201.43919
568.642	212.51917
569.108	222.52949
569.573	177.40064
570.038	244.49144
570.504	223.4885
570.969	219.52664
571.434	201.43473
571.899	222.51036
572.363	224.49804
572.828	282.62099
573.293	240.53139
573.757	252.56401
574.222	253.54626
574.686	276.60905
575.15	249.57872
575.614	304.68542
576.078	191.43761
576.542	230.50755
577.006	238.51993
577.469	229.54566
577.933	251.55169
578.396	183.42416
578.86	238.54167
579.323	229.53497
579.786	233.48905
580.249	260.59029
580.712	228.53713
581.175	195.46875
581.637	200.44449
582.1	182.38783
582.563	173.36007
583.025	174.4147
583.487	197.39541
583.95	148.3125
584.412	192.39365
584.874	214.50728
585.336	191.44235
585.797	218.4603
586.259	172.39432
586.721	138.31942
587.182	171.38628
587.643	177.39379
588.105	148.34419
588.566	152.31207
589.027	197.47068
589.488	156.35218
589.949	175.4162
590.41	155.30234
590.87	204.45489
591.331	227.48088
591.791	188.42545
592.252	192.43681
592.712	162.38106
593.172	200.44357
593.632	254.5443
594.092	143.31432
594.552	153.32639
595.011	141.31851
595.471	183.40595
595.931	157.34871
596.39	174.40928
596.849	117.27001
597.308	111.23484
597.768	158.40052
598.227	167.39351
598.685	156.34959
599.144	149.3459
599.603	126.2913
600.062	189.38899
600.52	196.43198
600.978	141.32837
601.437	113.25484
601.895	142.30036
602.353	133.28865
602.811	187.41223
603.269	117.27548
603.727	141.33354
604.184	147.33003
604.642	105.25595
605.099	167.38262
605.557	144.34465
606.014	116.24783
606.471	140.34603
606.928	157.3432
607.385	150.36953
607.842	85.19436
608.299	115.26624
608.755	142.3387
609.212	168.36748
609.668	114.25505
610.125	170.40112
610.581	149.34344
611.037	69.1546
611.493	102.23619
611.949	144.34531
612.405	171.34116
612.861	116.26391
613.316	84.20028
613.772	82.18716
614.227	170.40003
614.683	68.14421
615.138	77.17996
615.593	87.20085
616.048	101.22927
616.503	62.15026
616.958	99.24573
617.412	112.26314
617.867	81.18066
618.321	115.23488
618.776	103.22497
619.23	53.12421
619.684	80.17773
620.138	51.1168
620.592	39.09479
621.046	129.30042
621.5	54.12984
621.954	67.14783
622.407	98.21482
622.861	61.1477
623.314	69.15568
623.768	91.21326
624.221	35.06934
624.674	66.15204
625.127	49.11394
625.58	68.15214
626.033	102.22066
626.485	56.13368
626.938	105.24723
627.39	81.18819
627.843	86.19677
628.295	48.11066
628.747	94.22206
629.199	83.18765
629.651	36.08273
630.103	40.09189
630.555	81.16957
631.006	37.08614
631.458	67.1569
631.909	33.07409
632.361	37.08546
632.812	61.14072
633.263	72.15549
633.714	14.02986
634.165	22.0529
634.616	0
635.067	57.12518
635.518	52.12294
635.968	53.10402
636.419	117.25176
636.869	38.08998
637.319	49.11353
637.769	29.0654
638.219	59.13859
638.669	9.0215
639.119	5.01203
639.569	35.08395
640.019	85.1946
640.468	40.08971
640.918	36.08534
641.367	47.10509
641.816	72.15902
642.265	10.02347
642.714	22.05062
643.163	61.14044
643.612	59.14398
644.061	44.09417
644.51	69.15733
644.958	78.17105
645.406	42.10026
645.855	29.07046
646.303	45.10385
646.751	61.14061
647.199	50.11311
647.647	33.07673
648.095	31.0708
648.543	6.01229
648.99	50.11981
649.438	4.00931
649.885	75.18555
650.333	64.12386
650.78	18.04364
651.227	34.08321
651.674	45.10261
652.121	63.15374
652.568	41.10032
653.015	-17.04241
653.461	32.07612
653.908	2.00462
654.354	40.09512
654.801	39.0914
655.247	5.01091
655.693	30.07793
656.139	3.0072
656.585	43.10247
657.031	-5.01185
657.477	55.11988
657.922	-6.01375
658.368	40.09807
658.813	-8.01834
659.259	14.03406
659.704	62.14624
660.149	-24.05597
660.594	57.13463
661.039	19.04345
661.484	55.12965
661.929	39.09101
662.373	-36.09132
662.818	5.01241
663.262	26.06292
663.707	7.01786
664.151	32.07793
664.595	20.04845
665.039	54.13328
665.483	30.07621
665.927	57.13301
666.371	-13.03086
666.814	19.04521
667.258	30.0723
667.701	30.06404
668.145	44.10908
668.588	30.07426
669.031	-12.02845
669.474	-7.0169
669.917	24.05268
670.36	58.14383
670.803	13.03149
671.245	-17.03518
671.688	5.01221
672.13	33.07464
672.573	18.04545
673.015	62.14845
673.457	-14.03077
673.899	44.10599
674.341	-6.01453
674.783	52.12394
675.225	9.0222
675.666	84.20327
676.108	0
676.549	-2.00468
676.991	-24.05325
677.432	25.04971
677.873	13.02974
678.314	34.08069
678.755	52.12744
679.196	-12.02762
679.637	19.04545
680.078	32.07457
680.518	-9.02078
680.959	17.04046
681.399	-16.03981
681.839	15.0364
682.28	20.04965
682.72	0
683.16	37.09191
683.6	14.03188
684.039	-9.01872
684.479	6.01484
684.919	59.13773
685.358	-36.09032
685.798	-13.03394
686.237	-22.0528
686.676	-28.06388
687.115	39.09144
687.554	49.11645
687.993	-9.02002
688.432	3.00686
688.871	51.1161
689.309	41.09778
689.748	72.14795
690.186	-40.09442
690.625	35.08183
691.063	-6.01435
691.501	22.05424
691.939	33.08269
692.377	19.04594
692.815	64.15487
693.253	5.0119
693.69	8.01752
694.128	-11.02678
694.565	16.03781
695.003	60.15172
695.44	28.06604
695.877	59.1374
696.314	75.15555
696.751	67.14987
697.188	48.11035
697.625	-1.00224
698.061	8.01913
698.498	-10.02367
698.934	-21.05037
699.371	25.05857
699.807	13.0306
700.243	47.11234
700.679	-8.01786
701.115	14.03255
701.551	13.0301
701.987	8.01743
702.422	25.05937
702.858	48.11339
703.294	73.16497
703.729	45.10834
704.164	-27.06468
704.599	14.03118
705.035	4.00896
705.47	19.04588
705.904	4.00924
706.339	43.09773
706.774	24.05586
707.209	21.04864
707.643	-1.00239
708.078	13.03146
708.512	-14.03511
708.946	4.00944
709.38	41.09646
709.814	11.02479
710.248	34.08246
710.682	19.0454
711.116	17.04121
711.549	-27.06899
711.983	11.02529
712.416	18.04249
712.85	23.05651
713.283	29.06788
713.716	51.12469
714.149	21.04825
714.582	52.11533
715.015	17.04138
715.448	27.06743
715.881	35.07431
716.313	-3.00699
716.746	60.13993
717.178	40.09512
717.61	50.12553
718.043	21.0514
718.475	45.10785
718.907	40.09862
719.339	30.0674
719.77	30.0712
720.202	-25.06255
720.634	38.09227
721.065	-3.00704
721.497	47.1135
721.928	-30.07333
722.359	21.05073
722.79	18.04275
723.221	3.0074
723.652	22.05533
724.083	63.13912
724.514	15.03419
724.945	20.04639
725.375	16.03712
725.806	10.02444
726.236	38.09582
726.666	56.12977
727.096	43.10364
727.526	65.16469
727.956	31.07009
728.386	31.07503
728.816	12.03048
729.246	23.05623
729.675	-57.13952
730.105	19.04595
730.534	30.069
730.964	-25.06214
731.393	44.10603
731.822	24.06065
732.251	-5.01261
732.68	-17.03915
733.109	15.03665
733.537	74.17745
733.966	16.03959
734.395	31.07074
734.823	-27.05952
735.251	-4.00954
735.68	-8.01958
736.108	15.03706
736.536	5.01159
736.964	20.04578
737.392	41.1008
737.82	5.01181
738.247	-17.04026
738.675	13.03017
739.102	37.09087
739.53	45.11405
739.957	7.01797
740.384	-19.04545
740.811	-52.12928
741.238	25.0606
741.665	33.07658
742.092	-38.08708
742.519	39.09542
742.945	16.03851
743.372	24.05893
743.798	9.02279
744.225	-19.04467
744.651	-8.01985
745.077	-2.00494
745.503	-9.02154
745.929	74.17542
746.355	2.00481
746.781	12.0291
747.207	0
747.632	52.12702
748.058	56.13867
748.483	20.04535
748.908	56.13689
749.334	31.07537
749.759	34.07988
750.184	63.14891
750.609	41.09864
751.033	0
751.458	28.06135
751.883	2.00487
752.307	4.00932
752.732	52.13079
753.156	31.07509
753.58	31.0718
754.005	2.00496
754.429	74.17156
754.853	11.0271
755.277	79.18311
755.7	39.09514
756.124	24.05884
756.548	4.00934
756.971	48.11484
757.394	35.08792
757.818	-1.00256
758.241	47.11734
758.664	-31.07793
759.087	12.02677
759.51	-1.00244
759.933	33.07864
760.356	55.13935
760.778	67.16088
761.201	22.05227
761.623	-26.06135
762.046	41.09371
762.468	20.04708
762.89	10.02404
763.312	56.13429
763.734	42.09941
764.156	29.07046
764.578	-14.03155
765	57.13583
765.421	26.06544
765.843	37.09511
766.264	14.03259
766.686	4.00978
767.107	65.1537
767.528	39.0986
767.949	0
768.37	42.10229
768.791	-12.02843
769.212	37.09171
769.632	-2.00464
770.053	23.0591
770.473	-16.03813
770.894	-8.01941
771.314	37.08529
771.734	12.02751
772.154	9.02261
772.575	34.0766
772.994	5.01114
773.414	36.08363
773.834	-16.03939
774.254	41.09781
774.673	36.08646
775.093	57.13879
775.512	16.03891
775.931	55.13637
776.351	8.01969
776.77	7.01696
777.189	32.07448
777.607	8.02012
778.026	56.13618
778.445	35.08726
778.864	16.03978
779.282	1.00234
779.701	25.06149
780.119	30.07464
780.537	-1.00245
780.955	-11.0274
781.373	25.06049
781.791	64.14153
782.209	-4.00886
782.627	7.01816
783.045	9.02005
783.462	39.0974
783.88	10.0255
784.297	56.13735
784.715	24.0608
785.132	1.00236
785.549	5.01227
785.966	18.04443
786.383	51.12302
786.8	17.03861
787.217	76.1764
787.633	10.02479
788.05	-9.02054
788.466	39.08821
788.883	22.05555
789.299	-41.09627
789.715	44.10471
790.131	4.00977
790.547	5.01222
790.963	18.04364
791.379	28.06928
791.795	6.01324
792.21	-21.04798
792.626	-24.05557
793.041	60.14333
793.457	32.07656
793.872	-17.03892
794.287	55.1297
794.702	13.03078
795.117	28.06832
795.532	15.03715
795.947	26.06001
796.362	-26.0597
796.776	11.02461
797.191	35.08366
797.605	-5.01168
798.02	4.00952
798.434	56.12037
798.848	88.21223
799.262	-19.0464
799.676	60.14169
800.09	17.04081
800.504	14.03298
800.918	-28.06311
801.331	-46.11632
801.745	7.01559
802.158	-7.01699
802.572	22.05197
802.985	8.01868
803.398	-6.01395
803.811	-21.0519
804.224	14.03352
804.637	27.06288
805.05	20.04467
805.462	14.03333
805.875	-13.03325
806.288	0
806.7	-51.1252
807.112	13.02904
807.525	-6.01424
807.937	22.05316
808.349	19.04602
808.761	15.03614
809.173	43.10152
809.584	25.05971
809.996	-40.09632
810.408	-2.00512
810.819	5.01149
811.231	40.10441
811.642	37.08955
812.053	8.0191
812.464	-35.08148
812.875	19.04764
813.286	29.07345
813.697	6.01328
814.108	-4.00949
814.519	61.13205
814.929	13.03222
815.34	5.01169
815.75	30.07489
816.16	-25.06028
816.571	25.063
816.981	10.02266
817.391	23.05335
817.801	-5.0122
818.211	5.01157
818.62	-22.05221
819.03	6.01428
819.44	-42.10605
819.849	-10.02436
820.259	31.07616
820.668	22.05286
821.077	42.10213
821.486	13.03
821.895	-20.04759
822.304	-5.01294
822.713	-1.00229
823.122	3.00728
823.531	-38.08698
823.939	21.04995
824.348	-11.02593
824.756	47.11311
825.164	1.00244
825.573	27.06584
825.981	-1.0024
826.389	52.12588
826.797	61.15025
827.205	11.02472
827.612	-9.02155
828.02	-35.08006
828.428	4.00992
828.835	-8.02078
829.243	-21.0485
829.65	60.14514
830.057	11.02579
830.464	62.14743
830.871	22.05129
831.278	18.04224
831.685	37.07907
832.092	-8.01889
832.499	26.05519
832.905	0
833.312	1.00217
833.718	52.12602
834.124	22.04875
834.531	-20.04878
834.937	34.08493
835.343	-9.02096
835.749	7.0156
836.155	18.04589
836.561	29.06918
836.966	21.04954
837.372	5.01232
837.777	25.06065
838.183	35.07437
838.588	5.01217
838.993	56.13132
839.399	34.08082
839.804	-56.13465
840.209	56.13943
840.613	21.04497
841.018	-8.01965
841.423	34.08462
841.828	32.07886
842.232	-37.08814
842.637	43.09892
843.041	-25.06314
843.445	-6.01455
843.849	12.029
844.253	25.05721
844.657	10.02467
845.061	47.10444
845.465	-28.06617
845.869	31.06946
846.272	27.06402
846.676	-25.05792
847.079	29.07214
847.483	26.06261
847.886	25.05822
848.289	5.01321
848.692	1.00245
849.095	5.0116
849.498	38.09161
849.901	-21.04645
850.304	12.02774
850.707	0
851.109	15.03662
851.512	8.01915
851.914	2.00495
852.316	30.0744
852.718	40.1028
853.121	-25.05992
853.523	2.0045
853.925	11.02827
854.326	-16.03936
854.728	23.05765
855.13	11.02792
855.531	28.06484
855.933	20.04593
856.334	28.06822
856.736	43.09348
857.137	52.11725
857.538	38.09313
857.939	40.09694
858.34	-1.00234
858.741	-22.05609
859.142	9.02083
859.542	11.02849
859.943	33.07921
860.343	-11.02676
860.744	22.05191
861.144	60.14202
861.544	-7.01662
861.945	3.00743
862.345	-7.01657
862.745	39.09436
863.145	-7.01592
863.544	49.11989
863.944	56.12684
864.344	27.06394
864.743	39.09318
865.143	38.09537
865.542	-41.09163
865.941	-15.03636
866.34	-20.04602
866.74	13.03404
867.139	24.05639
867.537	-22.05414
867.936	22.05145
868.335	23.05657
868.734	-21.05258
869.132	-37.0828
869.531	-9.02089
869.929	11.02437
870.327	5.01162
870.726	8.01914
871.124	20.04471
871.522	-8.01979
871.92	37.08807
872.318	4.00941
872.715	-23.05466
873.113	-38.09001
873.511	18.04328
873.908	-22.05525
874.306	41.09931
874.703	14.0336
875.1	-37.0913
875.497	-9.02088
875.894	27.06525
876.291	24.05709
876.688	-4.01007
877.085	19.04371
877.482	6.01457
877.878	57.13369
878.275	-17.04229
878.671	-18.03757
879.068	52.12046
879.464	24.05599
879.86	-17.03911
880.256	-15.03543
880.652	-20.04965
881.048	-13.031
881.444	-7.01592
881.84	-11.0272
882.236	32.07764
882.631	6.01437
883.027	40.09277
883.422	-17.04214
883.817	13.03197
884.213	9.02245
884.608	63.15185
885.003	-11.02555
885.398	26.06304
885.793	7.01697
886.188	-25.06055
886.582	-4.00989
886.977	42.09505
887.371	33.08002
887.766	-20.04885
888.16	-38.09109
888.554	3.00714
888.949	25.06067
889.343	14.03289
889.737	-10.02632
890.131	-15.03669
890.525	32.07976
890.918	21.05111
891.312	-12.02758
891.706	13.03307
892.099	-7.01728
892.492	17.03497
892.886	20.04717
893.279	-7.01732
893.672	17.04229
894.065	42.10152
894.458	-18.04366
894.851	-5.0118
895.244	-22.05484
895.637	39.09076
896.029	95.2229
896.422	-1.00234
896.814	2.00481
897.206	37.0861
897.599	83.19581
897.991	37.08678
898.383	37.0843
898.775	24.05281
899.167	26.05939
899.559	22.05338
899.951	-4.00905
900.342	-4.00979
900.734	45.11039
901.125	-12.0305
901.517	28.0665
901.908	23.05232
902.299	-4.00953
902.69	33.0757
903.082	9.0211
903.473	61.1424
903.863	6.01478
904.254	36.08137
904.645	38.0898
905.036	45.10711
905.426	-15.03275
905.817	-25.05937
906.207	-23.0527
906.597	31.07057
906.987	0
907.378	15.037
907.768	-16.04149
908.158	19.04465
908.547	45.11397
908.937	-8.01972
909.327	42.09783
909.717	-6.01456
910.106	-5.01159
910.495	-39.09404
910.885	14.03448
911.274	7.01694
911.663	1.00244
912.052	34.07982
912.441	42.10393
912.83	35.07648
913.219	46.11574
913.608	70.16485
913.997	5.0123
914.385	77.1755
914.774	-3.00707
915.162	60.13866
915.55	25.05783
915.939	30.07383
916.327	-14.03371
916.715	21.05271
917.103	5.0117
917.491	38.09019
917.878	64.15031
918.266	16.04007
918.654	60.14874
919.041	21.05394
919.429	-30.06894
919.816	-2.00492
920.203	29.06855
920.591	59.14076
920.978	59.13849
921.365	48.12216
921.752	-37.0846
922.139	48.09944
922.525	-16.03753
922.912	-18.04252
923.299	30.07211
923.685	10.0251
924.072	-21.04575
924.458	28.06732
924.844	25.0598
925.231	-55.12394
925.617	-1.0025
926.003	10.02471
926.389	21.05123
926.774	2.0049
927.16	29.06934
927.546	47.11772
927.931	19.04552
928.317	2.00441
928.702	24.05438
929.088	57.13228
929.473	30.07445
929.858	26.06187
930.243	67.1556
930.628	32.07592
931.013	50.11935
931.398	3.00654
931.783	-15.0381
932.167	49.11645
932.552	38.09144
932.937	23.05477
933.321	12.02945
933.705	-15.03637
934.09	12.02872
934.474	7.01589
934.858	9.02274
935.242	-33.07418
935.626	32.07965
936.009	39.10154
936.393	60.14901
936.777	49.12176
937.16	58.14666
937.544	-2.00448
937.927	44.10832
938.311	19.04442
938.694	50.1281
939.077	17.03928
939.46	-13.03028
939.843	-6.01173
940.226	-12.02981
940.609	42.09366
940.991	1.00246
941.374	58.13691
941.757	17.04035
942.139	5.01088
942.522	4.00907
942.904	36.08326
943.286	12.02943
943.668	35.08868
944.05	8.0191
944.432	4.00952
944.814	20.04705
945.196	-7.01672
945.578	45.10463
945.959	-12.02695
946.341	-24.05617
946.722	39.08724
947.104	-23.0535
947.485	41.09152
947.866	24.05902
948.247	20.04936
948.628	-20.04644
949.009	7.01741
949.39	9.02154
949.771	-48.10615
950.152	37.08756
950.532	44.10736
950.913	33.07643
951.293	12.03187
951.674	-2.00469
952.054	46.11194
952.434	55.13136
952.814	1.00227
953.194	-5.01256
953.574	47.11058
953.954	-12.02731
954.334	50.12104
954.714	13.03081
955.093	59.13892
955.473	-8.01969
955.853	20.05021
956.232	-5.01336
956.611	39.0885
956.99	-14.03441
957.37	-33.08158
957.749	-60.13772
958.128	28.06862
958.506	7.01769
958.885	-3.00732
959.264	35.08382
959.643	41.09001
960.021	-12.02915
960.4	-7.01531
960.778	2.00469
961.156	21.05066
961.535	3.00667
961.913	50.1127
962.291	59.14767
962.669	-5.01239
963.047	39.09663
963.424	49.12225
963.802	7.01671
964.18	10.02407
964.557	33.07244
964.935	69.15568
965.312	30.0761
965.69	-23.05552
966.067	17.03945
966.444	-32.0753
966.821	36.08977
967.198	32.07369
967.575	-1.00236
967.952	44.09897
968.329	30.07082
968.705	104.2113
969.082	46.11549
969.458	28.06571
969.835	43.1005
970.211	22.05531
970.587	16.03862
970.963	-22.05452
971.339	16.04076
971.715	41.09879
972.091	1.00238
972.467	-16.03819
972.843	45.10883
973.219	45.1024
973.594	7.0178
973.97	18.04007
974.345	5.01163
974.721	42.09598
975.096	43.10085
975.471	38.08607
975.846	24.05507
976.221	-3.00742
976.596	34.07985
976.971	77.18306
977.346	74.16228
977.72	-3.00738
978.095	9.02255
978.469	13.02977
978.844	35.0842
979.218	20.04703
979.593	9.0207
979.967	-23.05337
980.341	0
980.715	13.03181
981.089	23.05554
981.463	20.04415
981.837	81.19139
982.21	-15.0328
982.584	27.06313
982.957	58.13998
983.331	-9.02026
983.704	47.11247
984.078	4.00953
984.451	0
984.824	40.09435
985.197	-39.09083
985.57	0
985.943	15.03506
986.316	18.0419
986.688	27.06251
987.061	55.12369
987.434	54.13752
987.806	2.00462
988.179	-10.02274
988.551	7.01712
988.923	-24.05714
989.295	6.01443
989.667	20.04684
990.039	31.0752
990.411	-29.06369
990.783	2.00437
991.155	12.028
991.527	22.0511
991.898	26.06287
992.27	-9.02186
992.641	11.0265
993.012	-16.03544
993.384	33.07515
993.755	42.10385
994.126	47.10946
994.497	36.08504
994.868	-1.00219
995.239	5.01167
995.61	-12.0294
995.98	-13.03059
996.351	15.0362
996.722	14.03168
997.092	7.0161
997.462	39.08857
997.833	27.06087
998.203	27.06194
998.573	-2.00485
998.943	51.11507
999.313	24.05575
999.683	2.00466
1000.053	-36.07845
1000.423	37.08563
1000.792	25.0619
1001.162	-44.10495
1001.531	45.10678
1001.901	48.11423
1002.27	-14.02953
1002.639	-12.02957
1003.009	43.09769
1003.378	48.11838
1003.747	-57.1306
1004.116	-20.04635
1004.485	52.11878
1004.853	-29.07056
1005.222	-11.02641
1005.591	53.11977
1005.959	-3.00656
1006.328	-2.00436
1006.696	2.00464
1007.064	-25.0606
1007.433	16.03828
1007.801	-1.00233
1008.169	2.00484
1008.537	105.21825
1008.905	57.12776
1009.273	3.00711
1009.64	24.0559
1010.008	29.06623
1010.375	-3.00691
1010.743	-17.03667
1011.11	62.14305
1011.478	43.10306
1011.845	49.10938
1012.212	83.18029
1012.579	2.00476
1012.946	14.03167
1013.313	24.05434
1013.68	40.08524
1014.047	-14.03232
1014.414	18.04082
1014.78	38.09126
1015.147	14.03219
1015.513	17.03947
1015.88	32.07825
1016.246	9.02116
1016.612	55.1187
1016.978	65.15334
1017.344	41.09759
1017.71	48.11124
1018.076	17.03809
1018.442	62.15364
1018.808	66.15959
1019.174	3.00724
1019.539	-34.07242
1019.905	2.00458
1020.27	-51.12274
1020.636	14.03184
1021.001	65.14899
1021.366	9.02097
1021.731	57.14298
1022.096	37.09087
1022.461	23.05249
1022.826	46.10559
1023.191	-9.02301
1023.556	-13.02928
1023.92	-9.02122
1024.285	6.01397
1024.649	-7.01649
1025.014	22.05183
1025.378	20.04891
1025.742	-1.00238
1026.107	29.06248
1026.471	54.11927
1026.835	6.01438
1027.199	-9.02103
1027.562	1.00221
1027.926	0
1028.29	6.01472
1028.654	31.06791
1029.017	28.06645
1029.381	36.08283
1029.744	40.09833
1030.107	41.09281
1030.471	33.07631
1030.834	-44.09551
1031.197	32.07386
1031.56	0
1031.923	29.07259
1032.286	11.02485
1032.648	5.01135
1033.011	52.11567
1033.374	32.07115
1033.736	-18.04623
1034.099	-5.01181
1034.461	3.00741
1034.823	14.03385
1035.185	-1.00241
1035.548	13.03068
1035.91	22.05054
1036.272	18.03956
1036.634	34.07982
1036.995	-28.06326
1037.357	18.04246
1037.719	34.07957
1038.08	59.13491
1038.442	-57.1318
1038.803	-27.06181
1039.165	3.00729
1039.526	16.03728
1039.887	3.00692
1040.248	36.08689
1040.609	59.13773
1040.97	11.02584
1041.331	32.07869
1041.692	32.07307
1042.053	45.09696
1042.413	33.07305
1042.774	3.00707
1043.134	13.02934
1043.495	42.10141
1043.855	67.15696
1044.215	-3.00716
1044.576	50.11527
1044.936	19.04148
1045.296	38.09109
1045.656	20.0467
1046.016	73.16659
1046.375	-27.06362
1046.735	55.12115
1047.095	31.06957
1047.454	2.004
1047.814	35.0808
1048.173	26.05865
1048.533	27.05922
1048.892	26.0603
1049.251	17.04084
1049.61	-5.01194
1049.969	5.01131
1050.328	51.10487
1050.687	19.04418
1051.046	30.06985
1051.405	-11.02625
1051.763	37.08239
1052.122	-10.02414
1052.48	41.0968
1052.839	40.09174
1053.197	13.02939
1053.555	-7.015
1053.914	15.03522
1054.272	-20.04576
1054.63	-9.02138
1054.988	27.06226
1055.345	-18.0367
1055.703	22.05102
1056.061	43.10786
1056.419	50.12675
1056.776	-40.09266
1057.134	-31.0682
1057.491	13.03146
1057.848	-23.05527
1058.206	-62.13986
1058.563	32.06703
1058.92	22.04833
1059.277	43.10172
1059.634	-7.01564
1059.991	57.1307
1060.348	5.01092
1060.704	39.09133
1061.061	3.00656
1061.418	-4.0094
1061.774	13.03098
1062.131	8.02088
1062.487	-43.0971
1062.843	51.12176
1063.199	23.05517
1063.555	26.05836
1063.911	-1.00243
1064.267	24.04674
1064.623	22.05209
1064.979	-61.13549
1065.335	22.04999
1065.691	-31.07094
1066.046	60.12452
1066.402	-31.06768
1066.757	20.04876
1067.112	-18.04262
1067.468	25.05756
1067.823	-53.12148
1068.178	24.05535
1068.533	26.06054
1068.888	40.09089
1069.243	18.04284
1069.598	-20.04677
1069.952	6.01331
1070.307	-5.01206
1070.662	19.044
1071.016	49.10625
1071.371	8.0176
1071.725	-7.01601
1072.079	21.04869
1072.434	-9.02127
1072.788	-40.09122
1073.142	81.1899
1073.496	-10.02286
1073.85	-9.02008
1074.203	48.11159
1074.557	29.07563
1074.911	-12.02746
1075.265	30.06668
1075.618	46.1077
1075.971	-1.00229
1076.325	-8.01991
1076.678	23.05045
1077.031	-82.17739
1077.385	47.09782
1077.738	-16.03473
1078.091	-24.05336
1078.444	23.05045
1078.796	-5.01196
1079.149	37.08864
1079.502	6.01377
1079.855	22.0493
1080.207	8.01894
1080.56	-22.05581
1080.912	-9.02115
1081.264	70.16132
1081.617	16.03774
1081.969	6.01475
1082.321	-27.06377
1082.673	28.06228
1083.025	-21.0479
1083.377	219.47346
1083.728	42.09296
1084.08	-22.05298
1084.432	-33.07697
1084.783	-20.04432
1085.135	1.00244
1085.486	47.10326
1085.838	9.02149
1086.189	1.00237
1086.54	3.00687
1086.891	5.0125
1087.242	57.13525
1087.593	-14.03244
1087.944	18.03946
1088.295	37.07996
1088.646	51.12078
1088.996	-25.05889
1089.347	-7.01651
1089.698	11.02536
1090.048	-39.09832
1090.398	37.08133
1090.749	13.02962
1091.099	13.03204
1091.449	24.05788
1091.799	-2.00485
1092.149	-4.0096
1092.499	29.06802
1092.849	-29.07198
1093.199	9.02158
1093.548	79.18275
1093.898	-4.00965
1094.248	-15.03707
1094.597	30.07497
1094.947	21.05445
1095.296	19.04552
1095.645	31.07745
1095.994	24.05538
1096.343	31.07546
1096.692	17.04408
1097.041	19.05083
1097.39	-4.00966
1097.739	5.0126
1098.088	-2.00517
1098.437	-7.01819
1098.785	-4.01041
1099.134	-20.0509
1099.482	23.06172
1099.83	15.03823
1100.179	41.10535
1100.527	-53.13652
1100.875	-5.01298
1101.223	2.00521
1101.571	-36.09725
1101.919	51.1316
1102.267	36.09946
1102.615	-8.02573
1102.962	2.00642
1103.31	-6.01929
1103.658	-1.00321
