Data from N1 R2 sample 4_Subt2__0__13-53-27-677.txt Node

Date: Wed Sep 17 13:53:27 PDT 2025
User: uwsun
Spectrometer: HDX01956
Trigger mode: 0
Integration Time (sec): 5.000000E-1
Scans to average: 1
Nonlinearity correction enabled: true
Boxcar width: 0
Storing dark spectrum: false
XAxis mode: Wavelengths
Number of Pixels in Spectrum: 2068
>>>>>Begin Spectral Data<<<<<
194.03	-5.01453
194.578	9.02923
195.127	3.00961
195.676	9.02893
196.225	26.06914
196.773	-29.08141
197.321	29.08083
197.87	36.09375
198.418	51.13342
198.966	62.16547
199.513	81.20821
200.061	47.12144
200.609	61.16299
201.156	70.15577
201.704	10.02576
202.251	45.12147
202.798	37.09758
203.345	83.20797
203.892	79.202
204.438	16.03889
204.985	56.13541
205.532	59.15723
206.078	51.12668
206.624	80.2033
207.17	94.22301
207.716	79.19638
208.262	38.07742
208.808	81.2061
209.354	97.24235
209.899	38.09742
210.445	69.17513
210.99	56.13913
211.535	104.24749
212.08	41.09721
212.625	36.09165
213.17	99.25439
213.715	63.14666
214.259	69.16373
214.804	44.10979
215.348	113.26337
215.892	75.18466
216.436	4.00938
216.98	19.0428
217.524	83.20097
218.068	96.24431
218.612	80.20575
219.155	80.19148
219.698	62.1497
220.242	73.18199
220.785	73.17375
221.328	60.1501
221.871	79.20321
222.414	90.22392
222.956	22.05364
223.499	46.10423
224.041	38.08827
224.583	46.09858
225.126	33.07375
225.668	33.08146
226.21	74.18892
226.751	74.16672
227.293	33.07591
227.835	64.15848
228.376	39.09004
228.918	40.10086
229.459	32.08106
230	54.13136
230.541	87.20125
231.082	42.10374
231.622	45.10319
232.163	10.02458
232.704	76.1917
233.244	32.08057
233.784	69.16845
234.324	68.15489
234.864	-25.05808
235.404	28.06697
235.944	69.16379
236.484	72.18103
237.023	39.09322
237.563	81.18975
238.102	78.18576
238.641	66.16707
239.18	10.02397
239.719	72.18148
240.258	36.0822
240.797	26.06318
241.335	19.04697
241.874	102.20004
242.412	96.23432
242.95	42.10301
243.488	-1.0023
244.026	61.14363
244.564	84.17448
245.102	72.16493
245.64	48.11594
246.177	26.05882
246.715	78.18875
247.252	14.03241
247.789	146.26915
248.326	48.11725
248.863	46.10292
249.4	68.15571
249.936	93.1965
250.473	123.29085
251.009	11.02572
251.546	108.24222
252.082	40.08779
252.618	83.18719
253.154	64.15563
253.69	53.12046
254.226	83.20013
254.761	68.15427
255.297	57.12613
255.832	52.12531
256.367	93.21957
256.903	103.2302
257.438	86.20277
257.972	85.19068
258.507	18.04211
259.042	86.18859
259.576	114.25326
260.111	37.0863
260.645	87.18938
261.179	56.13291
261.713	43.09793
262.247	40.09273
262.781	85.18093
263.315	36.08856
263.849	59.14927
264.382	71.16463
264.915	96.22845
265.449	53.13093
265.982	64.14708
266.515	76.18792
267.048	112.23825
267.58	54.11812
268.113	77.16825
268.646	23.05721
269.178	53.12012
269.71	95.21171
270.243	93.21701
270.775	109.28028
271.307	47.11316
271.838	104.24616
272.37	53.13136
272.902	44.1012
273.433	106.23627
273.965	77.18847
274.496	80.19948
275.027	71.17835
275.558	87.21382
276.089	73.18403
276.62	30.07672
277.15	61.15147
277.681	25.05493
278.211	63.15512
278.741	92.206
279.272	79.1826
279.802	46.11586
280.332	59.14113
280.861	75.18077
281.391	77.17678
281.921	56.13541
282.45	47.11798
282.98	73.19162
283.509	136.30928
284.038	86.19859
284.567	100.23422
285.096	110.26769
285.625	57.13002
286.153	105.25222
286.682	84.19489
287.21	45.10867
287.739	93.2211
288.267	66.1626
288.795	42.11105
289.323	74.17576
289.851	88.20885
290.378	61.13785
290.906	75.18541
291.433	92.23065
291.961	90.20757
292.488	47.11815
293.015	63.15082
293.542	114.2939
294.069	97.24191
294.596	63.15563
295.122	111.26744
295.649	67.14863
296.175	110.26549
296.702	132.32291
297.228	64.15586
297.754	98.22224
298.28	89.20694
298.806	56.13689
299.332	63.14336
299.857	111.25381
300.383	58.1476
300.908	108.26694
301.433	100.24681
301.958	135.30956
302.483	54.13562
303.008	155.38416
303.533	52.13578
304.058	93.21846
304.582	39.09393
305.107	67.17611
305.631	103.23523
306.155	64.15137
306.679	128.30191
307.203	62.14624
307.727	99.23645
308.251	68.16986
308.775	154.37406
309.298	87.21192
309.822	110.27736
310.345	123.29523
310.868	115.27886
311.391	127.31339
311.914	92.23239
312.437	123.28261
312.96	125.29569
313.482	100.23687
314.005	75.18914
314.527	94.24578
315.049	126.31963
315.571	160.35988
316.093	122.3032
316.615	98.23706
317.137	150.32741
317.659	135.32748
318.18	80.19286
318.702	136.31978
319.223	90.18636
319.744	121.27445
320.265	95.23382
320.786	161.40136
321.307	101.25143
321.828	143.32356
322.348	106.25177
322.869	122.29255
323.389	430.79358
323.909	80.18554
324.43	132.31641
324.95	161.36843
325.47	193.47501
325.989	173.40923
326.509	142.31979
327.029	165.37698
327.548	146.33202
328.067	163.39525
328.587	180.44929
329.106	131.29701
329.625	170.44023
330.144	204.47086
330.662	164.38531
331.181	218.50917
331.7	164.38095
332.218	159.34625
332.736	179.41801
333.255	171.40246
333.773	133.31583
334.291	180.44848
334.808	189.42484
335.326	170.38206
335.844	190.44552
336.361	254.64314
336.879	210.49088
337.396	197.47733
337.913	223.51051
338.43	235.5239
338.947	160.38309
339.464	172.37225
339.981	193.45565
340.497	183.44824
341.014	207.5008
341.53	193.43419
342.046	278.68076
342.562	209.51647
343.078	223.52014
343.594	240.56319
344.11	271.63729
344.626	228.56909
345.141	241.54505
345.657	311.68585
346.172	212.50797
346.687	163.37541
347.202	261.58764
347.717	244.57437
348.232	263.64368
348.747	236.53972
349.261	233.50782
349.776	260.60893
350.29	278.68278
350.805	274.66399
351.319	278.63397
351.833	261.59244
352.347	304.70108
352.861	275.63408
353.374	314.69551
353.888	326.77511
354.401	267.59794
354.915	259.57788
355.428	313.76005
355.941	277.63335
356.454	288.62781
356.967	256.58828
357.48	284.63116
357.993	298.71562
358.505	251.60129
359.018	341.80967
359.53	336.79611
360.042	328.7147
360.554	336.79826
361.066	313.74149
361.578	337.72355
362.09	379.86721
362.602	363.78206
363.113	376.85256
363.625	388.84649
364.136	359.76181
364.647	326.7521
365.158	366.82181
365.669	364.83842
366.18	330.75436
366.691	362.76566
367.201	400.918
367.712	377.83137
368.222	350.78072
368.733	375.78569
369.243	426.90811
369.753	368.81781
370.263	438.00389
370.773	353.82976
371.282	434.98643
371.792	421.9311
372.301	402.92887
372.811	412.03032
373.32	437.89979
373.829	452.007
374.338	450.9476
374.847	442.96876
375.356	462.02719
375.865	521.04058
376.373	515.09281
376.882	529.24838
377.39	543.21584
377.898	517.18553
378.407	599.24591
378.915	679.3348
379.423	669.40345
379.93	727.50582
380.438	604.32845
380.946	759.56167
381.453	757.6106
381.96	793.66533
382.468	792.63585
382.975	887.87595
383.482	924.7538
383.989	954.09437
384.495	991.93911
385.002	1020.75761
385.509	1114.16894
386.015	1221.93289
386.521	1264.24078
387.028	1253.22063
387.534	1278.0914
388.04	1398.56225
388.546	1360.26095
389.051	1464.3557
389.557	1582.62276
390.063	1638.58678
390.568	1789.94091
391.073	1739.60615
391.578	1877.0728
392.084	1980.85542
392.589	2018.67543
393.093	2092.1282
393.598	2347.06396
394.103	2591.30573
394.607	2870.41652
395.112	3002.55029
395.616	3205.47393
396.12	3416.07655
396.624	3875.13459
397.128	4294.11205
397.632	4545.8353
398.136	5075.39794
398.639	5317.42047
399.143	5911.50372
399.646	6826.93429
400.15	7429.91433
400.653	8204.35337
401.156	9205.83491
401.659	10782.25439
402.162	13198.66981
402.664	17401.56224
403.167	24134.40257
403.67	45100.10512
404.172	61520.74089
404.674	63858.43483
405.176	63738.15102
405.678	63977.72923
406.18	64011.81569
406.682	63863.44694
407.184	63926.60148
407.686	63841.39382
408.187	64025.8516
408.688	45134.23795
409.19	31391.31961
409.691	24865.79249
410.192	21069.4141
410.693	18180.24111
411.194	16340.96817
411.694	15707.26196
412.195	14489.86818
412.696	13057.54798
413.196	12194.99258
413.696	11922.47506
414.196	11998.46418
414.696	11767.47286
415.196	11226.23775
415.696	10125.19954
416.196	8282.50883
416.695	6365.96659
417.195	5531.44605
417.694	5345.64347
418.194	4969.90477
418.693	4547.62507
419.192	4432.88989
419.691	4330.84333
420.19	4167.15225
420.688	4218.26743
421.187	3969.21484
421.685	3678.10206
422.184	3363.27425
422.682	2873.86969
423.18	2468.09487
423.678	2145.94427
424.176	2039.8806
424.674	1929.71357
425.172	1829.85522
425.669	1691.89875
426.167	1651.6601
426.664	1493.43841
427.161	1417.40191
427.659	1288.41296
428.156	1257.0244
428.652	1122.29169
429.149	1082.13334
429.646	1020.85012
430.143	1000.98206
430.639	950.88023
431.135	912.93598
431.632	810.59087
432.128	810.68053
432.624	771.74598
433.12	712.42706
433.616	712.36658
434.111	624.3311
434.607	614.32333
435.103	606.13371
435.598	657.20539
436.093	585.2308
436.588	574.16759
437.083	511.04891
437.578	520.10271
438.073	490.13452
438.568	515.16535
439.062	459.90937
439.557	399.87693
440.051	456.9501
440.546	345.74456
441.04	404.91157
441.534	407.96335
442.028	412.93076
442.522	347.79113
443.015	354.71758
443.509	331.76683
444.002	357.8277
444.496	286.59539
444.989	318.73628
445.482	317.74922
445.975	381.82928
446.468	313.64652
446.961	344.70784
447.454	311.66543
447.947	349.78959
448.439	317.74196
448.931	352.76471
449.424	327.79284
449.916	339.78536
450.408	301.65796
450.9	279.65073
451.392	309.74949
451.884	268.59239
452.375	243.58146
452.867	278.59933
453.358	300.65647
453.849	276.56613
454.341	285.6164
454.832	211.44346
455.323	285.68064
455.814	231.51157
456.304	287.63558
456.795	269.59
457.285	229.48808
457.776	260.56991
458.266	258.58932
458.756	181.41769
459.247	226.5235
459.737	249.581
460.226	265.5805
460.716	211.48982
461.206	244.56295
461.695	214.51295
462.185	242.55433
462.674	197.43846
463.163	233.50523
463.653	249.5104
464.142	235.55006
464.63	179.42326
465.119	199.45007
465.608	288.64457
466.096	160.3405
466.585	160.35811
467.073	146.3382
467.561	167.39167
468.05	138.31256
468.538	165.39408
469.026	132.30807
469.513	189.38829
470.001	185.41415
470.489	171.39713
470.976	222.50178
471.463	195.47177
471.951	194.46838
472.438	163.37436
472.925	144.33291
473.412	141.33573
473.899	158.3548
474.385	161.38541
474.872	123.28272
475.359	146.3521
475.845	152.30882
476.331	96.20288
476.817	154.36689
477.303	160.36386
477.789	99.23328
478.275	102.25017
478.761	102.23946
479.247	86.19058
479.732	108.26606
480.218	185.47203
480.703	101.24593
481.188	133.28348
481.673	109.24773
482.158	105.22487
482.643	142.35586
483.128	125.28732
483.612	183.42483
484.097	90.215
484.581	92.21109
485.066	145.34843
485.55	130.28328
486.034	122.26099
486.518	132.31098
487.002	48.11651
487.486	42.1019
487.969	76.18343
488.453	83.20474
488.936	92.20549
489.42	83.18259
489.903	39.09698
490.386	54.11182
490.869	155.33281
491.352	33.07951
491.835	37.07612
492.318	45.10128
492.8	96.19736
493.283	67.17006
493.765	84.20427
494.247	56.13013
494.73	47.10422
495.212	68.16039
495.694	88.20587
496.175	118.27973
496.657	78.18355
497.139	53.09137
497.62	85.20294
498.102	100.24626
498.583	11.02714
499.064	24.05385
499.545	75.17011
500.026	86.19336
500.507	64.1469
500.988	86.21319
501.469	43.10704
501.949	71.1743
502.43	48.11567
502.91	123.2576
503.39	61.15058
503.87	81.19035
504.35	76.17675
504.83	65.14185
505.31	60.14415
505.79	16.03803
506.269	30.06911
506.749	46.10521
507.228	62.14561
507.707	98.21681
508.187	87.20636
508.666	117.28605
509.145	29.0681
509.623	92.21362
510.102	122.29088
510.581	130.30877
511.059	150.37034
511.538	129.3273
512.016	158.37078
512.494	103.24488
512.972	114.26962
513.45	110.2537
513.928	151.36009
514.406	187.44679
514.884	145.36724
515.361	183.42684
515.839	187.41949
516.316	210.49511
516.793	184.45278
517.27	191.4469
517.747	232.57571
518.224	199.44512
518.701	220.46961
519.178	244.58886
519.654	270.61225
520.131	248.59172
520.607	218.51557
521.083	165.36542
521.56	241.54705
522.036	238.49833
522.512	270.63951
522.987	286.65852
523.463	254.57854
523.939	305.7217
524.414	230.50776
524.89	269.61531
525.365	205.44907
525.84	221.51425
526.315	199.46872
526.79	202.44222
527.265	249.5535
527.74	189.44673
528.215	171.38958
528.689	137.2953
529.164	169.35378
529.638	163.40443
530.112	171.39289
530.587	177.36938
531.061	131.3124
531.534	110.26217
532.008	151.36051
532.482	192.42937
532.956	151.37807
533.429	152.36518
533.903	140.30157
534.376	114.24915
534.849	117.2657
535.322	128.29768
535.795	55.13272
536.268	140.33341
536.741	81.19124
537.213	71.16274
537.686	82.19955
538.158	123.27626
538.631	94.22593
539.103	64.14449
539.575	112.22807
540.047	39.08544
540.519	48.11484
540.991	87.21081
541.463	80.19148
541.934	17.03875
542.406	115.2733
542.877	93.20854
543.348	90.21598
543.82	102.24581
544.291	100.23165
544.762	75.17803
545.233	135.33728
545.703	74.1644
546.174	105.24144
546.645	37.08992
547.115	82.19716
547.585	62.14265
548.056	76.18647
548.526	88.20805
548.996	54.1293
549.466	94.22704
549.935	70.16716
550.405	54.11912
550.875	41.09785
551.344	55.13136
551.814	111.25228
552.283	119.25738
552.752	81.18953
553.221	59.13083
553.69	128.28637
554.159	63.15695
554.628	80.18134
555.096	69.17538
555.565	58.12875
556.033	90.21393
556.502	39.09461
556.97	57.12739
557.438	16.03796
557.906	51.12078
558.374	84.19443
558.842	49.11784
559.31	32.0723
559.777	82.19993
560.245	32.07398
560.712	8.01855
561.18	31.06928
561.647	10.02247
562.114	55.12652
562.581	32.07921
563.048	5.01161
563.514	85.21252
563.981	61.14004
564.448	53.12031
564.914	27.06323
565.381	35.08061
565.847	47.10993
566.313	21.04918
566.779	39.08839
567.245	-2.0047
567.711	40.09621
568.176	-17.03886
568.642	49.12362
569.108	16.03966
569.573	-29.06839
570.038	42.08853
570.504	39.08875
570.969	6.01501
571.434	48.10721
571.899	47.11183
572.363	70.16061
572.828	67.15419
573.293	33.07622
573.757	15.03521
574.222	67.15042
574.686	38.08803
575.15	34.08237
575.614	94.22103
576.078	25.05918
576.542	70.15964
577.006	20.0457
577.469	76.1864
577.933	24.05527
578.396	32.07639
578.86	25.05935
579.323	74.17813
579.786	79.17145
580.249	128.29839
580.712	27.06609
581.175	28.06944
581.637	-4.00927
582.1	34.07478
582.563	13.02802
583.025	86.20842
583.487	84.173
583.95	-30.06582
584.412	25.05319
584.874	70.17054
585.336	44.10487
585.797	27.0594
586.259	58.13601
586.721	61.14335
587.182	60.1386
587.643	40.09152
588.105	34.08085
588.566	33.06957
589.027	78.1906
589.488	65.14947
589.949	86.20803
590.41	7.01413
590.87	96.21885
591.331	124.2686
591.791	76.17591
592.252	65.15168
592.712	6.01454
593.172	35.08029
593.632	129.2839
594.092	53.1187
594.552	90.19462
595.011	3.00697
595.471	68.15446
595.931	90.20268
596.39	34.08215
596.849	56.1308
597.308	8.01731
597.768	87.22332
598.227	61.1467
598.685	19.04378
599.144	59.13941
599.603	23.05426
600.062	22.04698
600.52	51.11582
600.978	40.09501
601.437	25.0574
601.895	110.2343
602.353	31.06874
602.811	70.1581
603.269	30.07183
603.727	53.12751
604.184	47.10769
604.642	60.14749
605.099	54.12653
605.557	4.00983
606.014	50.10835
606.471	17.04296
606.928	79.17554
607.385	72.17992
607.842	27.06246
608.299	45.10563
608.755	61.14775
609.212	49.10988
609.668	71.16026
610.125	78.18733
610.581	77.18003
611.037	22.04977
611.493	-2.00473
611.949	78.18939
612.405	59.12078
612.861	54.1244
613.316	27.06508
613.772	71.16241
614.227	62.14896
614.683	66.14003
615.138	46.10816
615.593	22.05145
616.048	8.0185
616.503	50.12145
616.958	45.1128
617.412	34.0811
617.867	36.08104
618.321	15.03133
618.776	35.07755
619.23	29.06828
619.684	9.02029
620.138	60.13717
620.592	13.03175
621.046	46.10888
621.5	9.02182
621.954	17.0379
622.407	17.0379
622.861	22.05366
623.314	15.03422
623.768	55.1298
624.221	30.0595
624.674	29.0673
625.127	14.03278
625.58	3.0068
626.033	86.18668
626.485	48.11475
626.938	22.05264
627.39	91.21101
627.843	46.10609
628.295	69.15841
628.747	52.12384
629.199	55.12505
629.651	30.06903
630.103	16.03693
630.555	-25.05356
631.006	29.06762
631.458	40.09416
631.909	6.01355
632.361	38.08775
632.812	41.09496
633.263	34.07403
633.714	42.08903
634.165	28.06725
634.616	36.08514
635.067	63.13819
635.518	49.11591
635.968	45.08848
636.419	50.10914
636.869	30.07115
637.319	2.00468
637.769	48.10783
638.219	42.09899
638.669	-15.036
639.119	-6.01446
639.569	43.10298
640.019	36.08323
640.468	82.18232
640.918	15.0357
641.367	37.0829
641.816	31.06906
642.265	72.16692
642.714	51.11666
643.163	36.08329
643.612	34.08336
644.061	36.07718
644.51	27.06209
644.958	46.10156
645.406	38.09078
645.855	19.04625
646.303	24.05562
646.751	78.17918
647.199	7.01597
647.647	62.14334
648.095	6.01377
648.543	27.05502
648.99	78.1859
649.438	13.0302
649.885	70.17334
650.333	49.09517
650.78	29.07016
651.227	94.22747
651.674	28.06406
652.121	47.11504
652.568	63.15352
653.015	-22.05494
653.461	12.02866
653.908	26.05982
654.354	65.15382
654.801	32.0751
655.247	2.00437
655.693	31.08052
656.139	13.03113
656.585	45.10719
657.031	33.07761
657.477	42.09179
657.922	-38.08764
658.368	34.08345
658.813	-4.00916
659.259	76.18273
659.704	60.14158
660.149	4.00928
660.594	40.09479
661.039	8.01833
661.484	58.13664
661.929	31.07245
662.373	3.00756
662.818	7.01737
663.262	39.09415
663.707	2.00511
664.151	15.03665
664.595	10.02427
665.039	-4.00998
665.483	46.11653
665.927	-11.02601
666.371	12.02835
666.814	7.01669
667.258	35.08427
667.701	77.16269
668.145	34.08444
668.588	64.15744
669.031	41.0962
669.474	32.07668
669.917	27.05922
670.36	57.14138
670.803	41.09879
671.245	-47.09791
671.688	43.10423
672.13	32.07239
672.573	57.14293
673.015	77.18384
673.457	18.03929
673.899	34.08206
674.341	65.15531
674.783	1.00241
675.225	48.11755
675.666	44.10728
676.108	21.04548
676.549	17.03964
676.991	-5.01105
677.432	-4.00801
677.873	-17.03912
678.314	65.15334
678.755	78.19024
679.196	16.03662
679.637	14.03352
680.078	47.1092
680.518	4.00921
680.959	34.08066
681.399	56.1375
681.839	82.19649
682.28	47.11611
682.72	47.10686
683.16	35.08697
683.6	85.19076
684.039	-19.0396
684.479	55.13477
684.919	54.12618
685.358	-1.00249
685.798	25.06484
686.237	6.01432
686.676	3.0068
687.115	42.09841
687.554	65.154
687.993	52.11418
688.432	87.19557
688.871	66.14979
689.309	65.1543
689.748	37.07663
690.186	3.00702
690.625	37.08647
691.063	19.04522
691.501	66.1614
691.939	61.15207
692.377	42.1011
692.815	61.1477
693.253	21.04981
693.69	50.10854
694.128	51.12274
694.565	42.09876
695.003	49.12415
695.44	53.1244
695.877	20.04694
696.314	15.03153
696.751	51.11446
697.188	43.09896
697.625	24.05345
698.061	39.09269
698.498	20.04706
698.934	12.0286
699.371	15.03521
699.807	79.18355
700.243	84.19936
700.679	16.03555
701.115	57.13139
701.551	30.06922
701.987	-7.0153
702.422	53.12518
702.858	41.09699
703.294	55.12475
703.729	67.16064
704.164	5.01191
704.599	54.11927
705.035	61.1351
705.47	20.04829
705.904	-37.0862
706.339	21.04794
706.774	38.0882
707.209	71.16281
707.643	79.18579
708.078	51.12256
708.512	19.04737
708.946	46.1077
709.38	42.0988
709.814	48.10735
710.248	69.16625
710.682	62.14692
711.116	76.18218
711.549	26.06582
711.983	-8.01847
712.416	96.22318
712.85	28.06873
713.283	70.16254
713.716	46.11257
714.149	26.05968
714.582	52.11533
715.015	3.00732
715.448	43.10708
715.881	56.11835
716.313	28.06481
716.746	37.08668
717.178	21.05012
717.61	83.20714
718.043	67.16259
718.475	37.08881
718.907	29.07164
719.339	7.0158
719.77	62.14624
720.202	5.01244
720.634	42.1019
721.065	28.0653
721.497	54.13023
721.928	28.06771
722.359	17.0411
722.79	36.08521
723.221	19.04671
723.652	29.07285
724.083	4.00894
724.514	75.16887
724.945	20.04639
725.375	72.1652
725.806	7.01711
726.236	32.08077
726.666	44.10221
727.096	71.17023
727.526	67.16969
727.956	44.09921
728.386	74.17766
728.816	54.13616
729.246	55.13367
729.675	0
730.105	9.02181
730.534	46.10546
730.964	21.05176
731.393	42.10125
731.822	63.15809
732.251	71.17662
732.68	38.08656
733.109	28.06824
733.537	73.17509
733.966	36.08875
734.395	77.17408
734.823	40.08694
735.251	15.03565
735.68	60.14498
736.108	26.0641
736.536	8.01854
736.964	42.09571
737.392	43.10568
737.82	31.07288
738.247	47.10993
738.675	39.09004
739.102	15.03699
739.53	50.12661
739.957	56.14251
740.384	36.08521
740.811	21.05152
741.238	36.08708
741.665	75.1726
742.092	-40.0917
742.519	12.02951
742.945	69.16442
743.372	37.09063
743.798	24.0606
744.225	42.09756
744.651	-3.00744
745.077	-4.00989
745.503	44.10423
745.929	69.16373
746.355	51.12153
746.781	13.03152
747.207	40.09358
747.632	65.15839
748.058	94.23115
748.483	81.18141
748.908	46.11266
749.334	50.12113
749.759	67.1564
750.184	79.18615
750.609	57.13671
751.033	54.1232
751.458	93.20098
751.883	55.13247
752.307	69.15866
752.732	80.2002
753.156	-19.04645
753.58	47.10851
754.005	17.04204
754.429	36.08409
754.853	55.13442
755.277	43.10038
755.7	40.09756
756.124	54.13166
756.548	-3.00701
756.971	48.11484
757.394	39.0979
757.818	28.07121
758.241	74.18385
758.664	47.11649
759.087	9.02009
759.51	9.0219
759.933	36.08574
760.356	54.13684
760.778	58.13951
761.201	16.03806
761.623	-21.0495
762.046	-8.01847
762.468	54.12628
762.89	31.07421
763.312	68.16269
763.734	43.10176
764.156	25.06078
764.578	82.18119
765	74.17576
765.421	45.11288
765.843	54.13839
766.264	-4.00934
766.686	43.10439
767.107	14.03343
767.528	31.07849
767.949	38.09458
768.37	50.12159
768.791	56.13091
769.212	22.05468
769.632	31.07143
770.053	5.01289
770.473	39.09197
770.894	8.01935
771.314	47.10812
771.734	24.05489
772.154	23.05763
772.575	40.09001
772.994	-20.04478
773.414	21.04893
773.834	16.03916
774.254	40.09545
774.673	80.19052
775.093	53.12915
775.512	36.08722
775.931	31.0772
776.351	34.08327
776.77	29.06998
777.189	37.08603
777.607	30.07516
778.026	59.14339
778.445	61.15136
778.864	-3.00748
779.282	35.08145
779.701	8.01974
780.119	31.07712
780.537	13.03177
780.955	26.06434
781.373	27.0653
781.791	61.13498
782.209	16.03528
782.627	5.01298
783.045	9.02005
783.462	40.09988
783.88	-5.01279
784.297	15.03707
784.715	55.13856
785.132	-19.04508
785.549	38.09272
785.966	41.10076
786.383	41.09909
786.8	60.13507
787.217	32.07492
787.633	26.06427
788.05	18.04085
788.466	31.07023
788.883	8.02025
789.299	7.01628
789.715	5.01199
790.131	45.10908
790.547	47.11401
790.963	-15.03659
791.379	2.00497
791.795	14.03083
792.21	11.02497
792.626	35.0801
793.041	-6.01451
793.457	9.02163
793.872	13.02958
794.287	39.09226
794.702	-14.03332
795.117	30.07317
795.532	35.08637
795.947	17.03931
796.362	7.01597
796.776	27.0602
797.191	52.12389
797.605	31.07191
798.02	22.05215
798.434	57.12249
798.848	73.17655
799.262	25.06055
799.676	61.14402
800.09	39.09322
800.504	26.06111
800.918	7.01566
801.331	-24.06045
801.745	11.02447
802.158	-15.03647
802.572	30.07076
802.985	41.09511
803.398	42.09675
803.811	0
804.224	8.01918
804.637	15.03502
805.05	-4.00898
805.462	10.02382
805.875	-9.02301
806.288	0
806.7	10.02427
807.112	24.0535
807.525	-16.03805
807.937	-7.01701
808.349	25.06049
808.761	30.07208
809.173	40.09449
809.584	9.02156
809.996	-12.02874
810.408	21.05357
810.819	9.02067
811.231	61.15865
811.642	72.17312
812.053	41.09725
812.464	2.00462
812.875	70.17391
813.286	39.0986
813.697	-4.00887
814.108	-1.00237
814.519	52.11278
814.929	33.08149
815.34	6.01403
815.75	6.01504
816.16	17.04067
816.571	3.00759
816.981	-13.02959
817.391	11.02558
817.801	18.04374
818.211	29.06679
818.62	6.01416
819.03	18.04275
819.44	-21.05283
819.849	-9.02192
820.259	29.07127
820.668	-14.03387
821.077	56.13582
821.486	23.05297
821.895	15.03546
822.304	4.01034
822.713	28.06381
823.122	16.03875
823.531	-9.02048
823.939	61.14396
824.348	16.03752
824.756	14.0339
825.164	35.08487
825.573	0
825.981	52.12365
826.389	10.0244
826.797	64.15755
827.205	36.08048
827.612	18.04287
828.02	-29.06626
828.428	-6.01491
828.835	40.10302
829.243	15.0344
829.65	13.03173
830.057	26.06078
830.464	34.08128
830.871	57.13196
831.278	15.03522
831.685	15.03221
832.092	-8.01889
832.499	84.17604
832.905	14.03421
833.312	-45.0985
833.718	18.0439
834.124	53.11669
834.531	-8.01947
834.937	34.08493
835.343	-8.01863
835.749	46.10168
836.155	40.10158
836.561	25.05969
836.966	-25.05951
837.372	7.01725
837.777	16.03888
838.183	35.07437
838.588	37.08952
838.993	50.11738
839.399	5.01195
839.804	11.02611
840.209	13.03262
840.613	17.03644
841.018	9.02204
841.423	4.01001
841.828	12.02968
842.232	5.01181
842.637	45.10348
843.041	-15.03782
843.445	-1.00242
843.849	47.11281
844.253	4.00919
844.657	-9.02228
845.061	52.11543
845.465	-16.03772
845.869	-10.02259
846.272	29.06873
846.676	-26.06025
847.079	81.19958
847.483	22.05302
847.886	21.04895
848.289	55.14408
848.692	23.05607
849.095	56.12859
849.498	41.09879
849.901	-10.02207
850.304	35.08055
850.707	20.04929
851.109	48.11646
851.512	31.0739
851.914	-1.00248
852.316	49.12109
852.718	54.13844
853.121	66.15543
853.523	-29.06564
853.925	21.05387
854.326	30.07317
854.728	29.07261
855.13	46.11603
855.531	18.04176
855.933	12.0276
856.334	8.01956
856.736	43.09348
857.137	30.06795
857.538	4.00987
857.939	63.15202
858.34	-3.00703
858.741	-23.05865
859.142	-27.06293
859.542	27.06974
859.943	35.08398
860.343	-4.00972
860.744	47.11036
861.144	36.0856
861.544	38.08946
861.945	10.02474
862.345	17.04004
862.745	67.16125
863.145	-1.00227
863.544	27.06633
863.944	56.12684
864.344	-7.01669
864.743	49.11685
865.143	41.10284
865.542	-16.03558
865.941	35.08404
866.34	-46.10639
866.74	38.09909
867.139	-12.02839
867.537	17.04153
867.936	31.07237
868.335	18.04431
868.734	33.08182
869.132	-14.03118
869.531	44.10104
869.929	30.0662
870.327	13.03017
870.726	22.0525
871.124	19.04248
871.522	2.00494
871.92	19.04538
872.318	-13.03069
872.715	-22.05227
873.113	-3.00706
873.511	-17.04115
873.908	31.07712
874.306	45.10892
874.703	17.04077
875.1	-16.03933
875.497	26.05989
875.894	62.14885
876.291	29.06892
876.688	-2.00503
877.085	-5.01156
877.482	21.05087
877.878	42.0988
878.275	-6.0149
878.671	-30.06279
879.068	89.20465
879.464	25.05831
879.86	4.00916
880.256	-13.03069
880.652	23.05665
881.048	19.04503
881.444	-3.00682
881.84	12.02955
882.236	-14.03426
882.631	75.17728
883.027	-1.00234
883.422	-20.0496
883.817	-14.0346
884.213	34.08444
884.608	68.16375
885.003	-35.08167
885.398	-4.00975
885.793	3.00728
886.188	3.00723
886.582	11.02711
886.977	1.00228
887.371	5.01219
887.766	-4.00974
888.16	-40.09592
888.554	37.08749
888.949	51.12316
889.343	20.04694
889.737	22.05758
890.131	33.07999
890.525	31.07728
890.918	20.04869
891.312	13.02973
891.706	49.12384
892.099	42.10275
892.492	43.08794
892.886	17.04012
893.279	9.0222
893.672	37.09171
894.065	47.1135
894.458	-9.02179
894.851	11.02589
895.244	3.00744
895.637	52.1207
896.029	35.08308
896.422	-15.03518
896.814	-24.05799
897.206	52.12065
897.599	26.06202
897.991	53.12392
898.383	50.11362
898.775	77.16754
899.167	61.13836
899.559	37.08952
899.951	2.00452
900.342	11.02685
900.734	65.15886
901.125	35.0882
901.517	16.03809
901.908	-55.12708
902.299	25.05925
902.69	79.17955
903.082	24.0561
903.473	82.19063
903.863	-2.00493
904.254	45.10153
904.645	25.05923
905.036	52.1236
905.426	15.03254
905.817	-9.02131
906.207	-32.07345
906.597	72.16255
906.987	-11.02754
907.378	19.04683
907.768	-12.0311
908.158	25.05868
908.547	10.02549
908.937	-3.00739
909.327	5.01173
909.717	7.01694
910.106	12.02772
910.495	-3.00718
910.885	55.13442
911.274	5.0121
911.663	-3.00733
912.052	27.06347
912.441	43.10638
912.83	29.06345
913.219	28.07068
913.608	22.05229
913.997	-8.01972
914.385	51.11685
914.774	51.11891
915.162	13.03032
915.55	19.044
915.939	3.00742
916.327	7.01679
916.715	61.15202
917.103	23.05363
917.491	46.10901
917.878	21.04973
918.266	41.10221
918.654	61.15119
919.041	24.06162
919.429	13.02962
919.816	-9.02217
920.203	-2.00476
920.591	1.00241
920.978	32.07551
921.365	55.1398
921.752	-13.02958
922.139	28.05827
922.525	18.04194
922.912	27.06323
923.299	-4.00968
923.685	-29.07329
924.072	-40.0875
924.458	49.11735
924.844	1.0024
925.231	-3.00669
925.617	26.06476
926.003	-12.02977
926.389	5.01223
926.774	5.01225
927.16	40.09545
927.546	54.13509
927.931	41.09781
928.317	31.068
928.702	24.05438
929.088	66.15289
929.473	37.09171
929.858	41.09729
930.243	47.10959
930.628	94.22034
931.013	3.00723
931.398	20.04342
931.783	-12.03046
932.167	55.13056
932.552	-1.00242
932.937	19.04528
933.321	-7.01724
933.705	-44.10728
934.09	-17.04091
934.474	4.00909
934.858	-2.00506
935.242	21.04668
935.626	50.12404
936.009	13.034
936.393	100.24654
936.777	42.1045
937.16	34.08634
937.544	-38.08572
937.927	12.02972
938.311	-3.00704
938.694	44.11285
939.077	-20.04655
939.46	-8.01861
939.843	17.03305
940.226	15.03708
940.609	49.10911
940.991	-25.06169
941.374	21.04993
941.757	7.01665
942.139	65.13969
942.522	29.06543
942.904	51.1176
943.286	40.0976
943.668	49.12384
944.05	27.06424
944.432	-24.05744
944.814	28.06576
945.196	11.02618
945.578	44.10233
945.959	6.01342
946.341	-4.00932
946.722	45.10053
947.104	1.00232
947.485	40.08931
947.866	38.0932
948.247	74.18082
948.628	0
949.009	24.0595
949.39	19.04538
949.771	-22.04839
950.152	35.08286
950.532	71.17236
950.913	54.12454
951.293	32.0847
951.674	12.02805
952.054	65.15762
952.434	3.00724
952.814	10.02268
953.194	-15.03775
953.574	28.06612
953.954	12.02718
954.334	64.15452
954.714	-11.02619
955.093	60.14125
955.473	14.03431
955.853	28.0702
956.232	19.05057
956.611	-4.00916
956.99	41.09976
957.37	-3.00738
957.749	-10.02272
958.128	12.0295
958.506	19.0479
958.885	29.07038
959.264	63.15007
959.643	37.08129
960.021	-3.00727
960.4	24.05214
960.778	27.06305
961.156	-6.01455
961.535	13.02886
961.913	79.177
962.291	13.03281
962.669	-3.00743
963.047	46.11383
963.424	45.11235
963.802	30.07131
964.18	-15.03628
964.557	52.1137
964.935	59.13339
965.312	18.04576
965.69	26.06218
966.067	26.06023
966.444	-22.05167
966.821	28.06992
967.198	13.03005
967.575	6.01416
967.952	22.04971
968.329	42.09891
968.705	91.18544
969.082	46.11549
969.458	-10.02364
969.835	30.07029
970.211	49.1226
970.587	56.13414
970.963	-6.01483
971.339	38.09643
971.715	37.08922
972.091	36.08521
972.467	-53.12741
972.843	20.0486
973.219	23.05257
973.594	-11.02807
973.97	-28.06293
974.345	34.07864
974.721	54.1231
975.096	40.09387
975.471	50.11297
975.846	2.00461
976.221	9.0222
976.596	36.08452
976.971	68.16195
977.346	25.05539
977.72	3.00738
978.095	1.00251
978.469	8.01834
978.844	45.10805
979.218	19.04468
979.593	49.11182
979.967	-30.06972
980.341	10.02231
980.715	21.05131
981.089	53.12726
981.463	32.07047
981.837	24.05733
982.21	-4.00873
982.584	9.02112
982.957	15.0365
983.331	-10.02251
983.704	70.16677
984.078	20.04749
984.451	49.11488
984.824	16.03791
985.197	14.03226
985.57	-8.01915
985.943	16.03739
986.316	-4.00935
986.688	30.06941
987.061	74.16576
987.434	39.09958
987.806	-3.00693
988.179	-3.00681
988.551	46.11169
988.923	-27.06431
989.295	42.10029
989.667	17.03984
990.039	94.22533
990.411	-18.03944
990.783	17.03705
991.155	-9.02108
991.527	44.10176
991.898	55.13227
992.27	46.11056
992.641	3.00724
993.012	32.07017
993.384	21.04794
993.755	35.08665
994.126	53.12329
994.497	3.00713
994.868	19.04138
995.239	-3.00701
995.61	28.06809
995.98	3.00704
996.351	23.05542
996.722	19.04296
997.092	2.00461
997.462	27.06146
997.833	2.00453
998.203	-10.02311
998.573	35.08433
998.943	10.02275
999.313	25.05806
999.683	7.0163
1000.053	6.01296
1000.423	12.02791
1000.792	-2.00498
1001.162	-5.01184
1001.531	30.07139
1001.901	-24.0579
1002.27	-26.055
1002.639	-21.05184
1003.009	47.10669
1003.378	40.0988
1003.747	27.06082
1004.116	-13.03008
1004.485	-8.0185
1004.853	-17.04127
1005.222	-32.07715
1005.591	18.04097
1005.959	28.06078
1006.328	34.07355
1006.696	-7.01627
1007.064	-1.00241
1007.433	-14.03369
1007.801	-22.05149
1008.169	13.03138
1008.537	68.14251
1008.905	31.06986
1009.273	-13.0309
1009.64	49.11358
1010.008	16.03664
1010.375	35.07997
1010.743	-9.01938
1011.11	34.07889
1011.478	24.05773
1011.845	43.0961
1012.212	6.01325
1012.579	56.13193
1012.946	11.0249
1013.313	94.20978
1013.68	11.02359
1014.047	-5.01152
1014.414	-23.05259
1014.78	5.01208
1015.147	24.05507
1015.513	47.10846
1015.88	12.02945
1016.246	19.04458
1016.612	20.04349
1016.978	20.04759
1017.344	57.13525
1017.71	5.01169
1018.076	2.00449
1018.442	23.0574
1018.808	74.17867
1019.174	-25.06065
1019.539	-6.0127
1019.905	38.08642
1020.27	-2.00477
1020.636	34.07701
1021.001	20.04626
1021.366	53.12241
1021.731	76.18998
1022.096	14.03453
1022.461	-7.01607
1022.826	42.09648
1023.191	-9.02301
1023.556	49.10897
1023.92	34.07948
1024.285	9.02094
1024.649	6.0141
1025.014	-4.00947
1025.378	37.09019
1025.742	6.01427
1026.107	34.07318
1026.471	42.093
1026.835	25.05971
1027.199	-25.05861
1027.562	24.05288
1027.926	46.10702
1028.29	13.03186
1028.654	4.00881
1029.017	41.09706
1029.381	16.03696
1029.744	29.07143
1030.107	36.08157
1030.471	57.13118
1030.834	26.0556
1031.197	53.12182
1031.56	-4.00906
1031.923	-13.03279
1032.286	33.07421
1032.648	-30.06858
1033.011	62.13762
1033.374	11.02456
1033.736	3.00768
1034.099	39.09133
1034.461	27.06641
1034.823	28.06753
1035.185	8.01928
1035.548	20.04714
1035.91	10.02303
1036.272	29.06358
1036.634	51.11933
1036.995	25.05587
1037.357	10.02362
1037.719	5.01177
1038.08	49.11227
1038.442	-16.0367
1038.803	-2.00456
1039.165	-11.0268
1039.526	9.021
1039.887	37.08474
1040.248	30.07249
1040.609	14.03297
1040.97	9.02115
1041.331	58.14194
1041.692	57.1295
1042.053	36.07771
1042.413	26.05764
1042.774	48.11207
1043.134	50.112
1043.495	-6.01462
1043.855	77.18003
1044.215	21.04991
1044.576	10.02324
1044.936	46.09985
1045.296	53.12668
1045.656	39.09072
1046.016	23.05302
1046.375	18.04204
1046.735	51.11243
1047.095	7.01579
1047.454	30.05964
1047.814	26.06013
1048.173	-1.00227
1048.533	27.05922
1048.892	-32.07507
1049.251	14.03365
1049.61	2.00477
1049.969	14.03162
1050.328	50.10284
1050.687	-48.11309
1051.046	-2.00469
1051.405	-6.01431
1051.763	8.01792
1052.122	4.00963
1052.48	16.03796
1052.839	41.09401
1053.197	14.03165
1053.555	21.04472
1053.914	-7.01651
1054.272	-36.08263
1054.63	-37.08837
1054.988	38.08743
1055.345	-4.00813
1055.703	73.16759
1056.061	54.13518
1056.419	40.10158
1056.776	-6.01381
1057.134	-47.10374
1057.491	20.04834
1057.848	14.03341
1058.206	-36.08078
1058.563	20.04201
1058.92	51.11135
1059.277	4.00953
1059.634	6.01337
1059.991	50.11481
1060.348	47.1017
1060.704	51.11915
1061.061	-7.01535
1061.418	-8.01881
1061.774	25.05944
1062.131	28.07284
1062.487	-58.13137
1062.843	47.1123
1063.199	35.08375
1063.555	54.12051
1063.911	-18.04387
1064.267	23.0448
1064.623	25.05916
1064.979	-25.05511
1065.335	0
1065.691	-15.03422
1066.046	36.07511
1066.402	-10.02174
1066.757	-7.01715
1067.112	28.06571
1067.468	46.10546
1067.823	-60.13772
1068.178	7.0162
1068.533	21.04895
1068.888	24.05471
1069.243	13.03097
1069.598	-29.06794
1069.952	10.02216
1070.307	41.09804
1070.662	42.09683
1071.016	31.06748
1071.371	18.03951
1071.725	-10.02288
1072.079	20.04639
1072.434	35.08199
1072.788	14.03158
1073.142	35.08279
1073.496	23.05223
1073.85	18.03994
1074.203	-1.00235
1074.557	53.13766
1074.911	14.03186
1075.265	31.06888
1075.618	45.10538
1075.971	12.02742
1076.325	38.09379
1076.678	-25.05539
1077.031	0
1077.385	70.14495
1077.738	25.05379
1078.091	4.00884
1078.444	-8.01766
1078.796	4.00955
1079.149	47.11238
1079.502	23.05261
1079.855	58.12901
1080.207	8.01894
1080.56	0
1080.912	37.08617
1081.264	33.07661
1081.617	-13.03084
1081.969	34.08317
1082.321	5.01174
1082.673	51.1129
1083.025	7.01588
1083.377	249.53486
1083.728	-24.05385
1084.08	0
1084.432	20.04616
1084.783	7.01543
1085.135	17.04135
1085.486	3.00665
1085.838	-13.03117
1086.189	20.04719
1086.54	23.05246
1086.891	68.16808
1087.242	58.1376
1087.593	-13.03012
1087.944	24.05254
1088.295	19.04122
1088.646	74.17447
1088.996	11.02573
1089.347	3.00706
1089.698	4.00923
1090.048	3.00751
1090.398	-18.04002
1090.749	-23.05278
1091.099	7.01727
1091.449	55.13187
1091.799	43.10333
1092.149	3.00719
1092.499	-11.026
1092.849	5.01233
1093.199	-15.03613
1093.548	72.16679
1093.898	1.00241
1094.248	-16.03955
1094.597	-8.02013
1094.947	30.07767
1095.296	53.12615
1095.645	-5.01257
1095.994	12.02775
1096.343	59.14286
1096.692	18.04666
1097.041	14.03749
1097.39	16.03849
1097.739	0
1098.088	6.0155
1098.437	10.02592
1098.785	-33.08633
1099.134	-2.00507
1099.482	26.06974
1099.83	28.07121
1100.179	49.12573
1100.527	-22.05636
1100.875	21.05428
1101.223	24.06224
1101.571	-25.06742
1101.919	-3.00781
1102.267	36.09946
1102.615	-7.02251
1102.962	13.04164
1103.31	1.00321
1103.658	-2.00641
