Data from N1 R2 sample 3_Subt2__0__13-52-37-180.txt Node

Date: Wed Sep 17 13:52:37 PDT 2025
User: uwsun
Spectrometer: HDX01956
Trigger mode: 0
Integration Time (sec): 5.000000E-1
Scans to average: 1
Nonlinearity correction enabled: true
Boxcar width: 0
Storing dark spectrum: false
XAxis mode: Wavelengths
Number of Pixels in Spectrum: 2068
>>>>>Begin Spectral Data<<<<<
194.03	-6.01743
194.578	-5.01627
195.127	-5.01604
195.676	1.00322
196.225	2.00534
196.773	11.03069
197.321	25.06973
197.87	21.05483
198.418	51.13342
198.966	61.16283
199.513	74.19045
200.061	31.08032
200.609	41.10991
201.156	13.02927
201.704	32.08213
202.251	34.09194
202.798	20.0529
203.345	60.15096
203.892	27.06967
204.438	24.05825
204.985	28.06806
205.532	22.05899
206.078	63.15615
206.624	70.1782
207.17	103.24393
207.716	23.05776
208.262	48.09757
208.808	46.11777
209.354	85.21283
209.899	-10.02585
210.445	30.07667
210.99	86.21249
211.535	80.19126
212.08	13.03099
212.625	44.11186
213.17	65.16801
213.715	114.26272
214.259	47.112
214.804	16.04013
215.348	60.1413
215.892	71.17495
216.436	53.12314
216.98	48.10748
217.524	44.10732
218.068	83.21171
218.612	80.20575
219.155	37.08928
219.698	63.15208
220.242	27.06787
220.785	99.23446
221.328	42.10541
221.871	113.28894
222.414	60.1501
222.956	15.03662
223.499	24.05462
224.041	1.00234
224.583	42.09008
225.126	44.09812
225.668	24.05934
226.21	85.21658
226.751	26.05915
227.293	33.07591
227.835	64.15848
228.376	48.11062
228.918	21.05313
229.459	59.14874
230	94.22696
230.541	52.12113
231.082	63.155
231.622	10.02309
232.163	1.00246
232.704	98.24622
233.244	13.03284
233.784	45.11035
234.324	73.16612
234.864	33.07579
235.404	75.17776
235.944	53.1262
236.484	47.1187
237.023	27.06468
237.563	48.11317
238.102	53.12683
238.641	45.11434
239.18	45.10715
239.719	35.0888
240.258	37.08447
240.797	38.09213
241.335	69.16901
241.874	73.14415
242.412	92.22472
242.95	52.1273
243.488	31.07077
244.026	80.18767
244.564	23.04843
245.102	84.19196
245.64	50.12072
246.177	33.07455
246.715	46.11199
247.252	4.00928
247.789	115.21365
248.326	24.05889
248.863	92.20388
249.4	45.10352
249.936	130.27244
250.473	111.26308
251.009	52.1206
251.546	94.21143
252.082	32.07035
252.618	62.14043
253.154	71.17243
253.69	38.08663
254.226	89.21436
254.761	63.14307
255.297	54.11957
255.832	67.161
256.367	47.11196
256.903	102.22801
257.438	36.0857
257.972	36.08157
258.507	18.04211
259.042	82.17997
259.576	77.17238
260.111	82.18957
260.645	65.14215
261.179	60.14229
261.713	93.20965
262.247	14.03262
262.781	74.1579
263.315	42.1032
263.849	58.14677
264.382	30.07013
264.915	95.22612
265.449	20.04971
265.982	64.14708
266.515	75.18548
267.048	89.19027
267.58	54.11812
268.113	2.00444
268.646	9.02245
269.178	45.10215
269.71	104.23133
270.243	111.2581
270.775	99.25501
271.307	76.18197
271.838	76.18086
272.37	20.04987
272.902	80.18267
273.433	96.21443
273.965	30.07407
274.496	28.07048
275.027	61.15351
275.558	109.26679
276.089	60.15161
276.62	20.05124
277.15	52.12933
277.681	44.09629
278.211	36.08908
278.741	62.13968
279.272	94.21663
279.802	75.18793
280.332	73.17415
280.861	25.06083
281.391	77.17678
281.921	78.18783
282.45	30.07554
282.98	57.15003
283.509	78.17947
284.038	129.29532
284.567	58.13696
285.096	43.10595
285.625	36.08247
286.153	118.28275
286.682	59.13757
287.21	35.08468
287.739	80.19067
288.267	43.10638
288.795	63.16599
289.323	63.14995
289.851	76.18079
290.378	21.04784
290.906	71.17565
291.433	121.30176
291.961	101.23243
292.488	71.17771
293.015	66.15791
293.542	118.304
294.069	126.31257
294.596	62.15319
295.122	102.24618
295.649	71.15737
296.175	53.12929
296.702	67.16588
297.228	62.15105
297.754	95.21556
298.28	145.33342
298.806	49.11994
299.332	93.21034
299.857	85.19538
300.383	77.1953
300.908	93.2305
301.433	97.23954
301.958	97.22412
302.483	16.04046
303.008	134.33339
303.533	61.15904
304.058	48.11374
304.582	71.16997
305.107	36.09512
305.631	65.14959
306.155	62.14669
306.679	152.35684
307.203	78.18341
307.727	47.11337
308.251	76.18957
308.775	148.35989
309.298	96.23345
309.822	68.17275
310.345	87.21025
310.868	114.27649
311.391	104.25772
311.914	85.21498
312.437	90.20815
312.96	75.17913
313.482	95.22525
314.005	49.12415
314.527	74.19415
315.049	91.23228
315.571	128.28979
316.093	111.27642
316.615	67.16302
317.137	115.25288
317.659	139.33693
318.18	75.18098
318.702	147.3449
319.223	96.19852
319.744	116.26337
320.265	57.14128
320.786	128.32101
321.307	120.29769
321.828	123.27944
322.348	77.18391
322.869	133.31826
323.389	390.72696
323.909	100.231
324.43	106.25535
324.95	140.32173
325.47	112.27977
325.989	130.31007
326.509	142.31979
327.029	132.30359
327.548	106.24301
328.067	132.32195
328.587	178.44446
329.106	114.25936
329.625	125.32622
330.144	164.38155
330.662	154.36252
331.181	159.37568
331.7	98.23061
332.218	142.31035
332.736	175.40899
333.255	128.30378
333.773	142.33662
334.291	180.44848
334.808	162.36617
335.326	127.28794
335.844	159.3751
336.361	183.46923
336.879	187.43909
337.396	196.475
337.913	198.45556
338.43	168.37973
338.947	151.36216
339.464	137.29872
339.981	130.31067
340.497	169.41502
341.014	194.4705
341.53	191.42987
342.046	226.55878
342.562	172.42793
343.078	165.38925
343.594	188.44565
344.11	215.51113
344.626	203.50899
345.141	191.43638
345.657	219.49227
346.172	196.47106
346.687	154.35532
347.202	208.47339
347.717	237.55865
348.232	229.56401
348.747	260.59173
349.261	231.50367
349.776	190.45109
350.29	236.58414
350.805	240.58533
351.319	202.46773
351.833	207.47502
352.347	209.49113
352.861	230.53509
353.374	206.46657
353.888	274.658
354.401	224.50609
354.915	249.55672
355.428	228.56248
355.941	194.45099
356.454	257.56392
356.967	237.54669
357.48	204.46091
357.993	235.5711
358.505	228.54859
359.018	286.68629
359.53	270.6479
360.042	274.60388
360.554	262.63134
361.066	233.56051
361.578	313.6755
362.09	279.65125
362.602	255.56213
363.113	293.67558
363.625	259.58051
364.136	251.54519
364.647	295.6848
365.158	285.65059
365.669	274.64246
366.18	276.63778
366.691	276.59476
367.201	326.75929
367.712	296.66383
368.222	274.62081
368.733	243.52399
369.243	292.64058
369.753	294.66341
370.263	334.78312
370.773	304.72142
371.282	351.81122
371.792	343.77096
372.301	263.6245
372.811	351.88945
373.32	363.75988
373.829	342.78084
374.338	348.74926
374.847	388.8601
375.356	337.7702
375.865	408.83763
376.373	431.93291
376.882	436.04706
377.39	404.93201
377.898	398.93605
378.407	496.05494
378.915	504.03102
379.423	461.01075
379.93	604.28504
380.438	487.09698
380.946	587.25397
381.453	556.234
381.96	631.37193
382.468	678.4358
382.975	720.57788
383.482	712.42049
383.989	782.77984
384.495	781.60338
385.002	809.47148
385.509	862.77897
386.015	963.63577
386.521	985.87205
387.028	982.86227
387.534	981.73737
388.04	1077.13088
388.546	1006.8339
389.051	1245.1247
389.557	1250.2581
390.063	1349.30314
390.568	1429.57825
391.073	1419.32566
391.578	1519.72892
392.084	1579.55159
392.589	1592.39949
393.093	1757.88307
393.598	1914.84625
394.103	2010.04948
394.607	2256.24459
395.112	2410.41999
395.616	2566.41525
396.12	2830.1444
396.624	3132.32288
397.128	3356.4413
397.632	3717.21531
398.136	4117.91731
398.639	4308.97752
399.143	4775.12019
399.646	5437.41508
400.15	5963.03646
400.653	6555.75202
401.156	7372.76404
401.659	8557.94802
402.162	10502.37471
402.664	13811.39824
403.167	19536.46502
403.67	36575.34668
404.172	60522.66638
404.674	63858.43483
405.176	63738.15102
405.678	63977.72923
406.18	64011.81569
406.682	63863.44694
407.184	63926.60148
407.686	63841.39382
408.187	61576.25139
408.688	35866.01554
409.19	24806.636
409.691	19789.95841
410.192	16661.40071
410.693	14558.58779
411.194	13150.52118
411.694	12365.96264
412.195	11406.68802
412.696	10466.22049
413.196	9610.79768
413.696	9303.08293
414.196	9404.25749
414.696	9157.8604
415.196	8699.00673
415.696	7952.06953
416.196	6425.92146
416.695	5038.5827
417.195	4142.19605
417.694	4083.33562
418.194	3772.5428
418.693	3546.07719
419.192	3440.28933
419.691	3357.218
420.19	3338.42581
420.688	3201.56441
421.187	3055.55647
421.685	2948.23815
422.184	2625.28028
422.682	2248.78749
423.18	1923.84712
423.678	1711.66581
424.176	1563.52973
424.674	1529.4151
425.172	1454.51051
425.669	1376.55319
426.167	1286.28112
426.664	1134.03434
427.161	1101.02283
427.659	969.95758
428.156	925.62861
428.652	888.91033
429.149	834.74036
429.646	870.63752
430.143	826.70309
430.639	731.52018
431.135	733.61616
431.632	670.35885
432.128	623.34591
432.624	644.49566
433.12	599.23153
433.616	579.14647
434.111	472.03948
434.607	504.11147
435.103	478.92376
435.598	495.94631
436.093	517.10374
436.588	436.91611
437.083	411.86415
437.578	433.93724
438.073	394.93133
438.568	391.90866
439.062	337.68672
439.557	309.69199
440.051	320.68691
440.546	336.72653
441.04	299.68914
441.534	275.66754
442.028	296.68454
442.522	268.62078
443.015	256.53056
443.509	323.74949
444.002	244.57839
444.496	296.61483
444.989	265.62003
445.482	255.60993
445.975	248.55505
446.468	256.53555
446.961	335.69071
447.454	227.49453
447.947	224.51969
448.439	280.66012
448.931	254.56332
449.424	275.67329
449.916	292.68279
450.408	248.54819
450.9	220.51909
451.392	222.54728
451.884	193.4333
452.375	206.49641
452.867	216.47187
453.358	226.50227
453.849	224.46487
454.341	219.48035
454.832	175.37072
455.323	249.59877
455.814	216.47985
456.304	184.41623
456.795	183.40866
457.285	167.36073
457.776	175.39047
458.266	157.36592
458.756	172.39764
459.247	171.40043
459.737	199.4689
460.226	223.49283
460.716	176.41141
461.206	160.37533
461.695	158.38277
462.185	177.41074
462.674	183.40849
463.163	227.49285
463.653	253.51813
464.142	207.48718
464.63	162.38432
465.119	183.41524
465.608	160.36754
466.096	193.40778
466.585	145.32554
467.073	125.29076
467.561	114.27014
468.05	129.29271
468.538	112.27021
469.026	93.21872
469.513	126.26254
470.001	172.38608
470.489	143.33394
470.976	174.39714
471.463	120.29442
471.951	116.28419
472.438	137.31628
472.925	134.31041
473.412	135.32181
473.899	128.2892
474.385	123.29658
474.872	121.27823
475.359	133.32154
475.845	118.2416
476.331	75.15923
476.817	111.26663
477.303	101.23243
477.789	76.17989
478.275	63.15563
478.761	99.23256
479.247	122.26833
479.732	89.22002
480.218	126.32483
480.703	94.22918
481.188	117.25024
481.673	108.24551
482.158	90.19337
482.643	124.31176
483.128	122.28059
483.612	126.29581
484.097	79.18912
484.581	84.19304
485.066	118.28501
485.55	121.26417
486.034	73.15782
486.518	150.35215
487.002	51.12372
487.486	30.07295
487.969	31.07546
488.453	51.12654
488.936	57.12824
489.42	63.13918
489.903	48.11917
490.386	-4.00839
490.869	88.19168
491.352	10.0242
491.835	22.04541
492.318	56.12575
492.8	63.13048
493.283	80.20258
493.765	31.07613
494.247	91.21001
494.73	90.19778
495.212	61.14408
495.694	67.15739
496.175	57.13671
496.657	92.2159
497.139	39.06748
497.62	71.16997
498.102	31.07731
498.583	30.07377
499.064	79.17525
499.545	66.14997
500.026	60.13562
500.507	40.09226
500.988	92.22781
501.469	35.08726
501.949	71.1743
502.43	54.12999
502.91	119.24945
503.39	45.11141
503.87	72.1695
504.35	43.10066
504.83	33.0725
505.31	37.08928
505.79	66.15537
506.269	33.07597
506.749	36.0825
507.228	48.11304
507.707	108.23844
508.187	133.31266
508.666	59.14581
509.145	80.18598
509.623	90.20906
510.102	111.26521
510.581	115.27393
511.059	132.32698
511.538	119.30246
512.016	140.3297
512.494	114.27045
512.972	150.35228
513.45	130.29863
513.928	117.28083
514.406	167.40053
514.884	159.40169
515.361	188.43808
515.839	211.47098
516.316	249.5826
516.793	234.57048
517.27	224.52072
517.747	210.52322
518.224	246.5449
518.701	248.52616
519.178	260.62557
519.654	222.50832
520.131	201.48391
520.607	202.47921
521.083	232.50661
521.56	196.44897
522.036	208.43841
522.512	300.70644
522.987	256.59298
523.463	224.51331
523.939	272.64773
524.414	204.45282
524.89	221.5104
525.365	181.39851
525.84	166.39047
526.315	224.52504
526.79	197.43173
527.265	198.4448
527.74	148.3526
528.215	143.32764
528.689	115.24905
529.164	129.27244
529.638	114.28539
530.112	89.20784
530.587	141.29661
531.061	102.2446
531.534	121.28778
532.008	162.38595
532.482	160.36017
532.956	86.21785
533.429	180.43015
533.903	82.17884
534.376	97.21276
534.849	86.19653
535.322	93.21778
535.795	47.11359
536.268	93.22348
536.741	63.14926
537.213	89.20326
537.686	88.21391
538.158	100.22567
538.631	42.10194
539.103	109.24381
539.575	9.01876
540.047	51.11144
540.519	42.1006
540.991	94.22747
541.463	50.12036
541.934	21.04783
542.406	27.06525
542.877	61.13768
543.348	90.21598
543.82	49.11927
544.291	77.17918
544.762	23.05514
545.233	81.20435
545.703	24.05387
546.174	82.18942
546.645	36.08751
547.115	22.0535
547.585	49.11304
548.056	97.23707
548.526	39.09308
548.996	27.06498
549.466	25.06117
549.935	68.16244
550.405	1.00223
550.875	51.12148
551.344	27.06483
551.814	71.16268
552.283	61.13357
552.752	48.11304
553.221	54.11987
553.69	69.15625
554.159	58.14462
554.628	69.15676
555.096	43.1098
555.565	61.13532
556.033	109.25814
556.502	34.08256
556.97	32.07189
557.438	26.06156
557.906	13.03101
558.374	57.13264
558.842	10.02423
559.31	50.11256
559.777	49.1202
560.245	-6.01398
560.712	-3.00697
561.18	2.0045
561.647	16.03591
562.114	42.09687
562.581	54.13313
563.048	75.1717
563.514	84.21006
563.981	39.08993
564.448	63.14272
564.914	46.10732
565.381	30.06916
565.847	33.0774
566.313	31.07245
566.779	11.02507
567.245	-6.0141
567.711	34.08187
568.176	27.06117
568.642	24.06082
569.108	31.07664
569.573	20.04672
570.038	10.02123
570.504	77.17387
570.969	11.02749
571.434	71.15783
571.899	57.13536
572.363	56.12885
572.828	110.25097
573.293	78.17853
573.757	102.23534
574.222	69.15485
574.686	48.11097
575.15	91.21809
575.614	174.40274
576.078	77.18045
576.542	83.18879
577.006	83.18726
577.469	91.22257
577.933	122.27542
578.396	76.17989
578.86	112.2614
579.323	98.23482
579.786	85.18424
580.249	153.35491
580.712	88.21295
581.175	120.29257
581.637	78.17774
582.1	57.12476
582.563	77.16369
583.025	111.26775
583.487	124.25308
583.95	64.13763
584.412	113.23582
584.874	130.31316
585.336	107.25194
585.797	117.25252
586.259	122.2825
586.721	71.16652
587.182	109.24934
587.643	89.20162
588.105	63.14897
588.566	54.11332
589.027	106.25767
589.488	108.24621
589.949	126.30249
590.41	93.18408
590.87	107.24338
591.331	179.38318
591.791	150.34209
592.252	127.29273
592.712	69.16524
593.172	183.4073
593.632	148.32442
594.092	100.22179
594.552	108.23264
595.011	53.12187
595.471	126.28283
595.931	146.32502
596.39	80.19162
596.849	141.32383
597.308	16.03455
597.768	142.36098
598.227	114.27139
598.685	91.20666
599.144	112.26191
599.603	86.2004
600.062	105.2202
600.52	79.17839
600.978	127.29658
601.437	98.22169
601.895	95.20301
602.353	55.12135
602.811	150.33324
603.269	101.23855
603.727	120.28502
604.184	110.24884
604.642	92.22481
605.099	109.25265
605.557	77.18665
606.014	98.21019
606.471	72.18018
606.928	119.26222
607.385	84.20945
607.842	44.10144
608.299	132.30456
608.755	106.25457
609.212	79.17605
609.668	84.18909
610.125	90.21566
610.581	123.28498
611.037	22.04977
611.493	53.12392
611.949	103.24892
612.405	40.08223
612.861	89.20359
613.316	84.20028
613.772	71.16241
614.227	126.29904
614.683	62.13166
615.138	49.11515
615.593	75.17356
616.048	40.09192
616.503	92.22171
616.958	88.21887
617.412	124.29066
617.867	75.16749
618.321	108.22093
618.776	84.18421
619.23	50.11725
619.684	69.15364
620.138	90.20451
620.592	31.07546
621.046	112.26171
621.5	30.07246
621.954	71.15652
622.407	52.11509
622.861	86.20725
623.314	68.15345
623.768	85.19944
624.221	55.10845
624.674	70.16112
625.127	58.13462
625.58	62.13888
626.033	79.17175
626.485	37.08864
626.938	52.1237
627.39	65.1515
627.843	77.17649
628.295	46.10609
628.747	101.23827
629.199	82.18542
629.651	79.17999
630.103	78.17782
630.555	56.11788
631.006	61.14133
631.458	57.13374
631.909	19.04278
632.361	3.00698
632.812	56.12931
633.263	78.16824
633.714	24.05108
634.165	40.09585
634.616	7.01665
635.067	48.10562
635.518	55.12995
635.968	41.08069
636.419	71.15429
636.869	35.08292
637.319	30.06977
637.769	61.13667
638.219	52.12232
638.669	18.04293
639.119	-8.01929
639.569	19.04571
640.019	27.06253
640.468	37.08304
640.918	46.10884
641.367	52.11615
641.816	29.06463
642.265	98.22602
642.714	18.04145
643.163	45.10393
643.612	70.17048
644.061	52.1111
644.51	35.08035
644.958	66.1451
645.406	40.09552
645.855	15.03654
646.303	44.10156
646.751	35.08109
647.199	28.06363
647.647	56.12962
648.095	-22.05078
648.543	43.0873
648.99	30.07216
649.438	23.05333
649.885	104.25593
650.333	60.11623
650.78	63.15145
651.227	27.06616
651.674	33.07543
652.121	59.14409
652.568	47.11487
653.015	-21.05243
653.461	6.01434
653.908	29.06669
654.354	74.17481
654.801	33.07743
655.247	0
655.693	18.04686
656.139	38.09057
656.585	10.02398
657.031	51.11952
657.477	63.13708
657.922	41.09307
658.368	49.11994
658.813	61.13791
659.259	96.22994
659.704	54.12757
660.149	31.07151
660.594	41.09714
661.039	39.08882
661.484	75.17611
661.929	36.08405
662.373	12.03018
662.818	45.11088
663.262	30.07254
663.707	-5.01279
664.151	92.22154
664.595	17.04121
665.039	16.03977
665.483	33.08379
665.927	52.12146
666.371	66.15428
666.814	17.04046
667.258	68.16269
667.701	57.12096
668.145	71.17514
668.588	62.15257
669.031	7.01653
669.474	40.0957
669.917	63.13714
670.36	59.14629
670.803	60.14405
671.245	-7.01445
671.688	68.16406
672.13	5.01137
672.573	1.00253
673.015	53.12712
673.457	80.17233
673.899	58.13935
674.341	42.10079
674.783	33.07894
675.225	22.05414
675.666	92.22229
676.108	38.082
676.549	8.01869
676.991	47.10274
677.432	52.10275
677.873	20.04569
678.314	39.09247
678.755	76.18544
679.196	21.04802
679.637	10.02396
680.078	70.1619
680.518	32.07327
680.959	6.01431
681.399	1.00248
681.839	56.13485
682.28	40.09894
682.72	19.04345
683.16	26.06471
683.6	57.12866
684.039	2.00415
684.479	62.15173
684.919	47.10998
685.358	-21.05254
685.798	-3.00782
686.237	37.0878
686.676	-4.00908
687.115	60.14009
687.554	58.1376
687.993	41.09023
688.432	31.07049
688.871	63.14307
689.309	88.20797
689.748	31.06429
690.186	5.0117
690.625	46.10732
691.063	30.07126
691.501	52.12749
691.939	63.157
692.377	16.0387
692.815	101.2427
693.253	31.07339
693.69	1.00219
694.128	41.09886
694.565	37.08709
695.003	49.12415
695.44	50.11743
695.877	64.1489
696.314	-7.01478
696.751	60.1344
697.188	71.16248
697.625	30.06673
698.061	23.05483
698.498	-24.05696
698.934	85.19975
699.371	-2.00471
699.807	76.17668
700.243	22.05284
700.679	8.0178
701.115	61.14049
701.551	11.02548
701.987	-15.03285
702.422	45.10645
702.858	79.1855
703.294	112.25109
703.729	78.18662
704.164	6.01428
704.599	92.20158
705.035	35.07793
705.47	15.03625
705.904	34.0781
706.339	38.08645
706.774	22.05123
707.209	80.18311
707.643	24.05705
708.078	10.02422
708.512	5.0125
708.946	44.10306
709.38	54.12673
709.814	27.06064
710.248	62.14958
710.682	113.26513
711.116	58.13951
711.549	-29.07413
711.983	6.01381
712.416	89.20719
712.85	16.03936
713.283	29.06788
713.716	34.08339
714.149	55.12551
714.582	56.1241
715.015	15.03652
715.448	48.11943
715.881	37.07852
716.313	73.16746
716.746	67.15604
717.178	8.01914
717.61	60.15037
718.043	39.09514
718.475	35.08404
718.907	63.15466
719.339	21.04726
719.77	63.14857
720.202	1.00249
720.634	58.1403
721.065	32.07457
721.497	46.11111
721.928	-1.00243
722.359	14.03387
722.79	19.04512
723.221	-38.09441
723.652	52.13008
724.083	45.09974
724.514	85.19099
724.945	-11.02567
725.375	73.16746
725.806	-11.02698
726.236	40.10082
726.666	20.04668
727.096	37.08928
727.526	60.15215
727.956	45.10145
728.386	47.11341
728.816	41.10362
729.246	79.19114
729.675	-35.08532
730.105	47.11307
730.534	38.08726
730.964	-9.02231
731.393	39.09407
731.822	35.08827
732.251	0
732.68	43.09785
733.109	5.01224
733.537	10.02427
733.966	69.16908
734.395	42.09563
734.823	14.0306
735.251	24.05694
735.68	46.11144
736.108	-24.05971
736.536	48.11035
736.964	43.09797
737.392	37.09103
737.82	55.12869
738.247	29.06807
738.675	13.03017
739.102	4.00988
739.53	77.19405
739.957	42.10715
740.384	-6.01432
740.811	-3.00739
741.238	60.14448
741.665	51.11793
742.092	-40.0917
742.519	8.01969
742.945	72.17147
743.372	58.14152
743.798	7.01773
744.225	31.07217
744.651	15.03706
745.077	41.1005
745.503	37.08776
745.929	49.11672
746.355	33.07891
746.781	8.01942
747.207	32.07498
747.632	65.15839
748.058	55.13622
748.483	27.06114
748.908	-6.01484
749.334	35.08503
749.759	39.09154
750.184	91.21393
750.609	42.10102
751.033	25.05737
751.458	13.02857
751.883	6.01459
752.307	21.04875
752.732	11.02787
753.156	20.04854
753.58	57.13133
754.005	24.05928
754.429	52.12108
754.853	19.04675
755.277	27.06323
755.7	36.08787
756.124	32.07834
756.548	30.06969
756.971	85.20193
757.394	38.0954
757.818	36.09142
758.241	40.09999
758.664	22.05478
759.087	-8.01792
759.51	10.02433
759.933	23.05491
760.356	58.14687
760.778	34.08215
761.201	16.03806
761.623	9.02109
762.046	44.10051
762.468	76.17696
762.89	-11.02654
763.312	92.2191
763.734	16.03806
764.156	31.07529
764.578	43.09579
765	47.11221
765.421	38.09544
765.843	43.11042
766.264	16.03723
766.686	19.04633
767.107	7.01674
767.528	29.07345
767.949	21.05243
768.37	43.1047
768.791	18.04239
769.212	13.03236
769.632	44.10112
770.053	7.01804
770.473	27.06382
770.894	6.01452
771.314	28.06466
771.734	89.20088
772.154	60.14934
772.575	10.02264
772.994	13.02891
773.414	28.06514
773.834	41.09987
774.254	43.10255
774.673	90.21393
775.093	23.05636
775.512	-2.00488
775.931	35.0871
776.351	54.13176
776.77	36.08676
777.189	43.09987
777.607	17.04269
778.026	19.04652
778.445	16.04003
778.864	-1.00249
779.282	-2.00469
779.701	24.05904
780.119	14.03493
780.537	-30.07391
780.955	39.09627
781.373	9.02184
781.791	76.16765
782.209	29.06377
782.627	20.05178
783.045	15.03337
783.462	8.02009
783.88	49.1241
784.297	-4.00992
784.715	7.01779
785.132	16.03771
785.549	25.06115
785.966	27.06653
786.383	2.00487
786.8	81.18156
787.217	39.09118
787.633	66.16194
788.05	26.05891
788.466	7.01594
788.883	64.16039
789.299	28.06486
789.715	43.10235
790.131	26.06325
790.547	13.03174
790.963	32.07738
791.379	25.0619
791.795	30.06584
792.21	4.00909
792.626	-13.03004
793.041	19.04574
793.457	-4.00964
793.872	-45.1036
794.287	57.13437
794.702	-3.00712
795.117	53.12871
795.532	29.07164
795.947	2.00464
796.362	28.0636
796.776	61.13504
797.191	-5.01204
797.605	50.11555
798.02	-2.00476
798.434	71.15212
798.848	24.05858
799.262	7.01701
799.676	26.0618
800.09	25.05992
800.504	50.11697
800.918	-18.04049
801.331	-55.1393
801.745	28.06208
802.158	-16.03891
802.572	71.16613
802.985	13.03032
803.398	22.05088
803.811	14.03438
804.224	29.06924
804.637	33.07676
805.05	28.06244
805.462	22.05229
805.875	18.04579
806.288	7.01662
806.7	-24.05862
807.112	20.04462
807.525	5.01184
807.937	-24.05849
808.349	-28.06842
808.761	26.06251
809.173	1.00238
809.584	31.07396
809.996	-56.13526
810.408	8.02045
810.819	5.01149
811.231	67.17408
811.642	53.12789
812.053	56.13245
812.464	18.04147
812.875	41.1024
813.286	41.10362
813.697	9.01991
814.108	25.059
814.519	72.15549
814.929	54.13284
815.34	-8.01875
815.75	45.11202
816.16	-6.01442
816.571	-7.01774
816.981	8.01813
817.391	-23.05384
817.801	44.1064
818.211	52.11921
818.62	28.06581
819.03	3.00715
819.44	-27.06799
819.849	22.05328
820.259	23.05659
820.668	16.03849
821.077	14.03422
821.486	25.05756
821.895	44.10342
822.304	0
822.713	34.07738
823.122	10.02424
823.531	-36.08237
823.939	8.01907
824.348	31.07248
824.756	33.07963
825.164	18.04379
825.573	7.01713
825.981	-12.02889
826.389	27.06567
826.797	72.17698
827.205	39.08713
827.612	-20.04798
828.02	-43.09852
828.428	25.06176
828.835	-13.03379
829.243	-27.06243
829.65	26.0633
830.057	28.06543
830.464	69.16385
830.871	86.19795
831.278	-31.07345
831.685	29.06208
832.092	8.01883
832.499	48.1014
832.905	13.03177
833.312	0
833.718	53.12842
834.124	42.09269
834.531	20.04842
834.937	12.0301
835.343	18.0417
835.749	7.0156
836.155	-22.05648
836.561	25.05969
836.966	24.05659
837.372	-4.00988
837.777	-12.02931
838.183	47.09961
838.588	36.08712
838.993	28.06602
839.399	9.0215
839.804	-12.02861
840.209	43.10732
840.613	-13.02805
841.018	-1.00245
841.423	34.08462
841.828	-5.01241
842.232	-13.03082
842.637	79.18042
843.041	-7.01762
843.445	3.00726
843.849	38.09137
844.253	41.09352
844.657	47.11517
845.061	63.13952
845.465	-5.01176
845.869	11.02475
846.272	6.01428
846.676	-6.01385
847.079	64.15819
847.483	16.0386
847.886	41.09518
848.289	24.0632
848.692	-6.01471
849.095	14.03242
849.498	75.17954
849.901	-10.02207
850.304	15.03466
850.707	19.04683
851.109	-14.03436
851.512	15.03587
851.914	27.0665
852.316	41.10147
852.718	46.1181
853.121	-19.04548
853.523	2.0045
853.925	44.11241
854.326	33.08044
854.728	8.02011
855.13	51.12853
855.531	31.07174
855.933	-23.05327
856.334	28.06822
856.736	55.11926
857.137	60.13507
857.538	43.10529
857.939	42.10175
858.34	-6.01406
858.741	5.01269
859.142	44.10112
859.542	41.10565
859.943	28.06727
860.343	-30.07325
860.744	30.07068
861.144	33.07852
861.544	18.04254
861.945	20.04938
862.345	-16.03793
862.745	6.01461
863.145	0
863.544	50.12232
863.944	36.08187
864.344	-4.00953
864.743	56.13337
865.143	29.0729
865.542	-25.05569
865.941	26.06254
866.34	34.07738
866.74	0
867.139	54.12613
867.537	5.01224
867.936	20.04679
868.335	28.0688
868.734	10.0249
869.132	16.03541
869.531	1.00232
869.929	30.0662
870.327	21.04866
870.726	39.09276
871.124	13.0291
871.522	48.11751
871.92	49.11636
872.318	9.02116
872.715	-15.03559
873.113	-13.03065
873.511	19.04568
873.908	34.08453
874.306	15.03651
874.703	-12.02894
875.1	7.01713
875.497	21.04842
875.894	50.12031
876.291	22.05235
876.688	10.02512
877.085	7.01614
877.482	31.07495
877.878	47.11045
878.275	30.07399
878.671	10.02074
879.068	35.08135
879.464	37.0861
879.86	-16.0368
880.256	4.00941
880.652	8.01976
881.048	3.00713
881.444	1.00227
881.84	12.02955
882.236	33.08005
882.631	37.0881
883.027	49.11344
883.422	-6.01484
883.817	14.03443
884.213	7.01747
884.608	48.11602
885.003	-19.0442
885.398	25.06062
885.793	-17.04141
886.188	4.00964
886.582	42.10294
886.977	-20.04583
887.371	12.02921
887.766	-11.02682
888.16	-22.05258
888.554	51.12027
888.949	17.04132
889.343	74.17183
889.737	21.05498
890.131	5.01218
890.525	56.13898
890.918	17.04141
891.312	34.07742
891.706	-13.03322
892.099	60.14629
892.492	24.0493
892.886	-3.00711
893.279	-4.00989
893.672	51.12608
894.065	40.09672
894.458	-15.03636
894.851	39.09129
895.244	-6.01491
895.637	36.08382
896.029	-1.00239
896.422	-11.02578
896.814	-24.05799
897.206	37.0861
897.599	84.19813
897.991	13.03063
898.383	57.12934
898.775	70.15254
899.167	57.12939
899.559	-12.0293
899.951	28.0629
900.342	6.01466
900.734	42.10309
901.125	14.03541
901.517	35.08302
901.908	6.01369
902.299	41.09688
902.69	52.11883
903.082	29.06772
903.473	47.11002
903.863	1.00246
904.254	15.03405
904.645	20.04743
905.036	54.12831
905.426	26.05627
905.817	14.033
906.207	-76.17598
906.597	70.1581
906.987	23.05724
907.378	28.0689
907.768	17.04384
908.158	38.08897
908.547	40.1014
908.937	-14.03455
909.327	5.01173
909.717	16.03866
910.106	-3.00695
910.495	17.04056
910.885	27.06633
911.274	40.09618
911.663	35.0849
912.052	2.00472
912.441	49.12109
912.83	27.0591
913.219	69.17289
913.608	5.01192
913.997	-27.0668
914.385	61.13948
914.774	88.20369
915.162	46.1066
915.55	-5.01164
915.939	25.06158
916.327	22.05262
916.715	22.05521
917.103	15.03503
917.491	60.1418
917.878	42.09907
918.266	-5.01257
918.654	39.09705
919.041	16.04114
919.429	8.01825
919.816	42.10248
920.203	21.04972
920.591	48.11475
920.978	55.1292
921.365	38.09688
921.752	-32.0731
922.139	50.10353
922.525	41.09511
922.912	-1.00235
923.299	33.07927
923.685	-51.1294
924.072	-33.07208
924.458	11.02653
924.844	35.08356
925.231	15.03332
925.617	-7.01754
926.003	13.0321
926.389	-24.05904
926.774	-10.02456
927.16	30.07172
927.546	45.11276
927.931	-6.01444
928.317	50.10923
928.702	24.05438
929.088	80.1848
929.473	35.08678
929.858	-4.00957
930.243	36.08412
930.628	50.11821
931.013	21.05041
931.398	34.07359
931.783	-15.0381
932.167	29.06918
932.552	19.04588
932.937	24.05714
933.321	29.07096
933.705	3.00725
934.09	18.04303
934.474	9.02042
934.858	-8.02027
935.242	25.05553
935.626	13.03247
936.009	23.06005
936.393	35.08732
936.777	12.03002
937.16	27.06865
937.544	42.09319
937.927	33.0814
938.311	51.11849
938.694	58.14839
939.077	25.05767
939.46	-37.08658
939.843	3.00585
940.226	-12.02981
940.609	46.10249
940.991	-9.02214
941.374	-8.01913
941.757	52.1226
942.139	5.01088
942.522	12.02717
942.904	4.00931
943.286	35.08548
943.668	55.13885
944.05	15.03577
944.432	3.00714
944.814	81.18827
945.196	10.02381
945.578	37.08617
945.959	-33.07442
946.341	6.01396
946.722	39.08724
947.104	24.05531
947.485	17.03814
947.866	50.12236
948.247	54.13244
948.628	-3.00694
949.009	2.00498
949.39	28.06676
949.771	-9.01974
950.152	60.14136
950.532	45.10978
950.913	70.16093
951.293	34.08996
951.674	27.06293
952.054	16.03916
952.434	30.072
952.814	59.13246
953.194	29.0724
953.574	36.08488
953.954	-9.02047
954.334	74.17833
954.714	-2.00475
955.093	42.09922
955.473	56.13618
955.853	43.10751
956.232	1.00267
956.611	5.01142
956.99	33.08041
957.37	40.09756
957.749	5.01133
958.128	30.0735
958.506	-13.03296
958.885	37.08965
959.264	45.10756
959.643	25.05507
960.021	18.04348
960.4	-2.00437
960.778	23.05375
961.156	4.00968
961.535	-26.05819
961.913	47.106
962.291	16.04036
962.669	39.09585
963.047	24.05963
963.424	53.13213
963.802	8.0191
964.18	-3.00724
964.557	47.10287
964.935	69.15568
965.312	15.03815
965.69	6.0144
966.067	14.03251
966.444	23.05354
966.821	40.09967
967.198	-2.00464
967.575	62.14476
967.952	84.18739
968.329	35.08254
968.705	64.13122
969.082	58.1453
969.458	13.0306
969.835	10.02352
970.211	24.06032
970.587	27.06503
970.963	15.03692
971.339	1.00255
971.715	1.00243
972.091	19.04512
972.467	9.02138
972.843	38.09203
973.219	36.08207
973.594	7.0178
973.97	-41.09239
974.345	49.11299
974.721	-11.02541
975.096	53.12406
975.471	42.09505
975.846	-42.09764
976.221	28.06883
976.596	81.18849
976.971	89.2111
977.346	0
977.72	12.02945
978.095	27.06743
978.469	59.13388
978.844	69.16493
979.218	69.16069
979.593	31.071
979.967	-16.03708
980.341	44.09747
980.715	39.09496
981.089	5.01212
981.463	46.101
981.837	14.03351
982.21	10.02175
982.584	28.06545
982.957	44.10648
983.331	-3.00674
983.704	56.13378
984.078	9.02141
984.451	6.01419
984.824	3.00713
985.197	-18.04175
985.57	13.03099
985.943	10.02339
986.316	20.04653
986.688	11.02555
987.061	66.14809
987.434	69.17526
987.806	-18.04171
988.179	8.01813
988.551	21.05123
988.923	20.04721
989.295	19.04557
989.667	69.16006
990.039	63.15191
990.411	-31.06811
990.783	-1.00219
991.155	39.0905
991.527	4.00932
991.898	18.04359
992.27	22.05312
992.641	24.05768
993.012	-17.03767
993.384	-18.04142
993.755	25.06201
994.126	68.15771
994.497	-9.02145
994.868	-9.01972
995.239	47.10881
995.61	0
995.98	-43.10176
996.351	31.07458
996.722	66.14778
997.092	-25.05788
997.462	38.08631
997.833	34.07654
998.203	15.03449
998.573	34.08194
998.943	41.09269
999.313	18.04186
999.683	36.08333
1000.053	-26.05654
1000.423	3.00699
1000.792	-18.04492
1001.162	22.05181
1001.531	12.02866
1001.901	-15.03613
1002.27	-51.10847
1002.639	-13.03204
1003.009	46.10444
1003.378	5.01243
1003.747	13.02937
1004.116	-1.00231
1004.485	21.04827
1004.853	-23.0559
1005.222	-25.06019
1005.591	-1.00228
1005.959	44.09519
1006.328	-40.0879
1006.696	11.02548
1007.064	16.03849
1007.433	28.06684
1007.801	8.01861
1008.169	16.0386
1008.537	43.09061
1008.905	6.01359
1009.273	48.11273
1009.64	32.07442
1010.008	-9.02071
1010.375	42.09582
1010.743	8.01717
1011.11	38.0881
1011.478	65.15513
1011.845	31.06946
1012.212	32.07026
1012.579	37.08749
1012.946	1.00227
1013.313	29.06559
1013.68	69.14611
1014.047	28.06409
1014.414	-10.02281
1014.78	-5.01211
1015.147	58.13217
1015.513	2.00466
1015.88	12.02945
1016.246	0
1016.612	39.08446
1016.978	46.10892
1017.344	29.06918
1017.71	63.14556
1018.076	8.01796
1018.442	71.17565
1018.808	17.04149
1019.174	-48.11694
1019.539	-22.04674
1019.905	57.12913
1020.27	16.03802
1020.636	-2.00456
1021.001	42.09671
1021.366	-4.00934
1021.731	96.23911
1022.096	3.00741
1022.461	-3.00688
1022.826	10.02312
1023.191	16.04072
1023.556	28.06254
1023.92	-13.03067
1024.285	19.04413
1024.649	20.04688
1025.014	30.07057
1025.378	-17.04186
1025.742	-8.01907
1026.107	45.09662
1026.471	37.08201
1026.835	34.08107
1027.199	-13.03041
1027.562	0
1027.926	-6.0141
1028.29	44.1072
1028.654	35.07661
1029.017	55.12985
1029.381	32.07369
1029.744	39.09588
1030.107	46.10402
1030.471	48.11066
1030.834	-27.0584
1031.197	14.03243
1031.56	30.06745
1031.923	23.05763
1032.286	51.11427
1032.648	13.02946
1033.011	73.16167
1033.374	14.03124
1033.736	-21.05396
1034.099	40.09365
1034.461	-20.04962
1034.823	25.06033
1035.185	-7.01692
1035.548	72.16798
1035.91	10.02303
1036.272	57.12423
1036.634	49.1147
1036.995	17.03806
1037.357	-23.05468
1037.719	11.02586
1038.08	62.14168
1038.442	59.13328
1038.803	-49.11267
1039.165	-11.0268
1039.526	19.04425
1039.887	-18.04168
1040.248	49.11797
1040.609	13.03062
1040.97	-22.05201
1041.331	31.07624
1041.692	29.06626
1042.053	19.04117
1042.413	34.07525
1042.774	35.08193
1043.134	4.00905
1043.495	36.08702
1043.855	48.11287
1044.215	-2.00477
1044.576	37.08552
1044.936	20.04366
1045.296	41.09823
1045.656	11.02573
1046.016	13.03002
1046.375	-19.0447
1046.735	64.1407
1047.095	52.1162
1047.454	2.004
1047.814	15.03477
1048.173	-9.02045
1048.533	5.01102
1048.892	-3.007
1049.251	20.04802
1049.61	34.08057
1049.969	1.00226
1050.328	47.09673
1050.687	-50.11784
1051.046	21.04898
1051.405	25.05925
1051.763	26.05803
1052.122	-19.04595
1052.48	41.0968
1052.839	20.04605
1053.197	33.0743
1053.555	-8.01714
1053.914	-4.00943
1054.272	-5.01141
1054.63	-11.02614
1054.988	30.06914
1055.345	15.03036
1055.703	1.00233
1056.061	51.12774
1056.419	8.02043
1056.776	-24.05542
1057.134	-42.09261
1057.491	25.06037
1057.848	3.00717
1058.206	-11.02455
1058.563	6.01264
1058.92	20.04395
1059.277	35.08292
1059.634	-33.07415
1059.991	13.03007
1060.348	7.01528
1060.704	33.07737
1061.061	70.15098
1061.418	3.00704
1061.774	12.0286
1062.131	3.00784
1062.487	-44.09937
1062.843	-2.00482
1063.199	59.14054
1063.555	25.05613
1063.911	8.0194
1064.267	26.05061
1064.623	47.11075
1064.979	-20.04404
1065.335	43.09729
1065.691	-9.0205
1066.046	32.06683
1066.402	-10.02174
1066.757	30.07301
1067.112	7.01649
1067.468	36.0827
1067.823	14.03166
1068.178	11.02544
1068.533	19.0443
1068.888	7.01601
1069.243	42.09949
1069.598	4.00931
1069.952	72.15749
1070.307	5.01204
1070.662	10.0232
1071.016	29.06315
1071.371	41.08955
1071.725	25.0568
1072.079	24.05562
1072.434	-9.02127
1072.788	-7.01586
1073.142	19.04508
1073.496	14.03185
1073.85	6.01335
1074.203	23.05373
1074.557	69.17872
1074.911	45.10178
1075.265	23.05119
1075.618	65.15162
1075.971	42.0954
1076.325	-5.01244
1076.678	-9.01987
1077.031	-31.06633
1077.385	-24.05074
1077.738	25.05379
1078.091	-1.00221
1078.444	11.02419
1078.796	80.18825
1079.149	39.0934
1079.502	36.08214
1079.855	6.01349
1080.207	48.11278
1080.56	-12.03039
1080.912	47.10924
1081.264	-1.00234
1081.617	25.05886
1081.969	2.00492
1082.321	25.05845
1082.673	22.049
1083.025	-6.01365
1083.377	276.5894
1083.728	2.00446
1084.08	-8.01921
1084.432	35.08055
1084.783	-27.05992
1085.135	16.03892
1085.486	-9.02001
1085.838	23.05477
1086.189	35.08235
1086.54	58.13137
1086.891	47.11662
1087.242	71.16802
1087.593	-24.05573
1087.944	76.16456
1088.295	20.04338
1088.646	70.16517
1088.996	10.02339
1089.347	-14.03306
1089.698	21.04831
1090.048	-16.04017
1090.398	41.09004
1090.749	-21.04817
1091.099	61.14903
1091.449	56.13424
1091.799	61.14608
1092.149	0
1092.499	45.10521
1092.849	3.0074
1093.199	-23.05548
1093.548	65.15078
1093.898	-49.11922
1094.248	-8.01974
1094.597	1.00251
1094.947	21.05445
1095.296	23.05506
1095.645	-21.05296
1095.994	3.00695
1096.343	41.09961
1096.692	37.09561
1097.041	23.0615
1097.39	-34.08256
1097.739	32.08023
1098.088	12.03097
1098.437	27.06977
1098.785	-10.02606
1099.134	-58.14859
1099.482	25.06706
1099.83	14.03569
1100.179	46.1181
1100.527	-40.1028
1100.875	-3.00779
1101.223	44.11371
1101.571	-30.08097
1101.919	11.02858
1102.267	-16.04456
1102.615	-6.01929
1102.962	-2.00642
1103.31	-2.00643
1103.658	-11.03531
