Data from N1 R2 sample 1_Subt2__4__13-51-04-677.txt Node

Date: Wed Sep 17 13:51:04 PDT 2025
User: uwsun
Spectrometer: HDX01956
Trigger mode: 0
Integration Time (sec): 5.000000E-1
Scans to average: 1
Nonlinearity correction enabled: true
Boxcar width: 0
Storing dark spectrum: false
XAxis mode: Wavelengths
Number of Pixels in Spectrum: 2068
>>>>>Begin Spectral Data<<<<<
194.03	158.44806
194.578	167.53238
195.127	142.44749
195.676	172.54201
196.225	197.50882
196.773	189.51262
197.321	274.73431
197.87	376.92135
198.418	415.01517
198.966	417.04416
199.513	401.97256
200.061	401.97183
200.609	384.97045
201.156	416.85906
201.704	349.84553
202.251	372.94983
202.798	337.84336
203.345	433.01361
203.892	406.97784
204.438	400.90181
204.985	384.8707
205.532	380.95795
206.078	391.91045
206.624	454.07425
207.17	417.92726
207.716	405.94638
208.262	444.82107
208.808	413.98848
209.354	423.99385
209.899	421.00389
210.445	394.94177
210.99	421.97565
211.535	454.0052
212.08	392.86607
212.625	415.98493
213.17	438.05585
213.715	478.01923
214.259	417.92264
214.804	405.94379
215.348	466.00821
215.892	482.09477
216.436	396.85735
216.98	425.87745
217.524	439.99113
218.068	430.02676
218.612	453.08611
219.155	411.92112
219.698	388.8787
220.242	387.9093
220.785	425.94269
221.328	366.86449
221.871	400.97068
222.414	422.9859
222.956	333.76443
223.499	357.75757
224.041	335.73227
224.583	368.73368
225.126	402.82978
225.668	398.91597
226.21	380.91732
226.751	403.84659
227.293	337.72792
227.835	366.85578
228.376	370.79765
228.918	378.8949
229.459	378.89801
230	382.87179
230.541	331.72842
231.082	390.90115
231.622	357.76715
232.163	327.75636
232.704	460.07756
233.244	391.92048
233.784	350.80939
234.324	420.88832
234.864	348.74862
235.404	343.77065
235.944	365.8167
236.484	401.94805
237.023	405.89983
237.563	431.94008
238.102	401.89538
238.641	378.90319
239.18	394.87485
239.719	373.88903
240.258	365.77792
240.797	388.87834
241.335	376.86812
241.874	417.75706
242.412	400.92058
242.95	426.96982
243.488	327.70178
244.026	414.90741
244.564	426.81734
245.102	408.87125
245.64	363.82426
246.177	319.67841
246.715	422.95451
247.252	419.89144
247.789	390.67511
248.326	405.92296
248.863	403.83502
249.4	408.87012
249.936	445.86761
250.473	464.02226
251.009	356.7757
251.546	403.84883
252.082	405.8204
252.618	421.88362
253.154	386.88163
253.69	458.95512
254.226	443.99485
254.761	437.91679
255.297	375.77457
255.832	432.96558
256.367	391.86946
256.903	408.85426
257.438	436.95763
257.972	410.85806
258.507	388.84147
259.042	387.7947
259.576	413.86033
260.111	403.87194
260.645	440.88579
261.179	371.8267
261.713	448.93634
262.247	372.8054
262.781	382.76053
263.315	373.86
263.849	433.01954
264.382	405.87665
264.915	481.05734
265.449	395.91397
265.982	431.91737
266.515	428.98932
267.048	439.8673
267.58	377.76822
268.113	417.84548
268.646	422.97274
269.178	429.89763
269.71	483.98958
270.243	487.04587
270.775	463.11391
271.307	460.01808
271.838	421.93498
272.37	430.99157
272.902	465.97897
273.433	489.0014
273.965	440.00163
274.496	432.00554
275.027	458.06743
275.558	465.06014
276.089	439.03129
276.62	397.94912
277.15	431.99724
277.681	418.84227
278.211	441.00735
278.741	474.97751
279.272	455.97265
279.802	465.08016
280.332	440.97534
280.861	477.05951
281.391	486.02196
281.921	383.86861
282.45	470.08685
282.98	466.13826
283.509	473.00004
284.038	519.09269
284.567	483.04395
285.096	512.14939
285.625	432.9105
286.153	503.11412
286.682	465.99703
287.21	444.99076
287.739	438.97172
288.267	488.10573
288.795	499.21424
289.323	490.06791
289.851	477.04458
290.378	452.93968
290.906	460.05399
291.433	510.17903
291.961	528.10898
292.488	506.16374
293.015	492.07862
293.542	522.24682
294.069	522.19821
294.596	491.11457
295.122	492.09718
295.649	467.94945
296.175	518.15097
296.702	567.27173
297.228	497.10949
297.754	490.02043
298.28	551.1617
298.806	520.15829
299.332	535.09876
299.857	534.1147
300.383	566.30711
300.908	546.23786
301.433	551.2439
301.958	545.1445
302.483	501.15383
303.008	580.32248
303.533	573.35861
304.058	520.11711
304.582	588.26559
305.107	528.27556
305.631	549.13872
306.155	568.20939
306.679	576.23761
307.203	593.25148
307.727	569.23382
308.251	551.25249
308.775	670.46637
309.298	579.27739
309.822	532.23677
310.345	612.32916
310.868	589.29786
311.391	645.43622
311.914	645.46404
312.437	613.26772
312.96	609.30271
313.482	586.2548
314.005	648.46224
314.527	603.43529
315.049	655.50116
315.571	660.33001
316.093	718.58604
316.615	665.43307
317.137	680.31574
317.659	678.47329
318.18	668.42754
318.702	684.43338
319.223	622.13331
319.744	754.48769
320.265	661.45304
320.786	734.63489
321.307	693.53492
321.828	734.45834
322.348	719.5025
322.869	750.57945
323.389	977.55821
323.909	750.50541
324.43	744.5716
324.95	756.52026
325.47	806.75461
325.989	804.66585
326.509	849.63274
327.029	899.74727
327.548	813.5964
328.067	899.8732
328.587	836.83301
329.106	832.61496
329.625	902.03047
330.144	897.78141
330.662	884.78123
331.181	874.77476
331.7	894.77338
332.218	906.65872
332.736	935.85524
333.255	932.86431
333.773	946.88973
334.291	1026.15378
334.808	992.86028
335.326	940.77644
335.844	1049.04066
336.361	1074.31177
336.879	1075.08049
337.396	1050.12802
337.913	1099.06853
338.43	1089.99706
338.947	1098.15083
339.464	1127.94212
339.981	1157.21409
340.497	1113.2462
341.014	1224.3847
341.53	1165.09602
342.046	1258.50987
342.562	1160.35557
343.078	1193.24597
343.594	1180.25443
344.11	1238.35644
344.626	1251.53085
345.141	1254.24817
345.657	1274.24232
346.172	1297.45657
346.687	1278.28437
347.202	1331.33886
347.717	1339.47392
348.232	1389.67701
348.747	1390.4386
349.261	1377.2763
349.776	1423.56868
350.29	1451.77823
350.805	1409.67574
351.319	1433.50465
351.833	1449.49591
352.347	1465.59416
352.861	1485.59602
353.374	1468.47227
353.888	1509.76442
354.401	1524.53277
354.915	1519.51
355.428	1474.78943
355.941	1595.68119
356.454	1551.48363
356.967	1549.63835
357.48	1579.57149
357.993	1608.89177
358.505	1561.79763
359.018	1688.96299
359.53	1733.99473
360.042	1672.61708
360.554	1738.00953
361.066	1659.90353
361.578	1655.55836
362.09	1658.82007
362.602	1729.64944
363.113	1751.86842
363.625	1733.71752
364.136	1748.60663
364.647	1829.96307
365.158	1879.92427
365.669	1851.00492
366.18	1843.93985
366.691	1839.66064
367.201	1848.01736
367.712	1900.87556
368.222	1928.9186
368.733	1941.6985
369.243	1970.82687
369.753	1964.94271
370.263	2109.24432
370.773	2025.21711
371.282	2100.18666
371.792	2073.03633
372.301	2149.26339
372.811	2190.7139
373.32	2288.83708
373.829	2263.20861
374.338	2401.98412
374.847	2463.18561
375.356	2453.28535
375.865	2633.86184
376.373	2759.1652
376.882	2790.78859
377.39	2865.50409
377.898	2914.61998
378.407	3067.15504
378.915	3272.91399
379.423	3204.27478
379.93	3494.2174
380.438	3508.42399
380.946	3582.19542
381.453	3891.29879
381.96	4004.2188
382.468	4238.00113
382.975	4560.1383
383.482	4778.3704
383.989	4718.4369
384.495	5008.52487
385.002	5085.79388
385.509	5488.41479
386.015	5787.31694
386.521	6002.8428
387.028	6272.73854
387.534	6638.34645
388.04	6863.99523
388.546	6832.50314
389.051	7233.5552
389.557	7760.00651
390.063	8521.6632
390.568	8872.30952
391.073	9031.46609
391.578	9380.24874
392.084	9647.84621
392.589	9856.47293
393.093	10536.45842
393.598	11782.10765
394.103	12874.34663
394.607	14208.29615
395.112	14841.55911
395.616	16022.53356
396.12	17084.82485
396.624	19112.9824
397.128	20594.93884
397.632	22825.78384
398.136	24831.09622
398.639	26172.93324
399.143	28972.86756
399.646	32842.57028
400.15	36120.25998
400.653	40351.61951
401.156	45132.31106
401.659	52597.85674
402.162	61911.66881
402.664	61836.9049
403.167	63977.72923
403.67	63769.22307
404.172	63919.58413
404.674	63858.43483
405.176	63738.15102
405.678	63977.72923
406.18	64011.81569
406.682	63863.44694
407.184	63926.60148
407.686	63841.39382
408.187	64025.8516
408.688	63892.51763
409.19	63833.37461
409.691	63977.72923
410.192	63945.6488
410.693	63713.09355
411.194	63812.32447
411.694	63919.58413
412.195	64038.8851
412.696	63881.49072
413.196	60340.42658
413.696	59021.11748
414.196	59760.60344
414.696	58682.93605
415.196	56266.64296
415.696	51235.96904
416.196	41559.71278
416.695	32226.01994
417.195	27565.56754
417.694	26052.2927
418.194	24501.74163
418.693	22756.64304
419.192	21950.07446
419.691	21584.17748
420.19	21126.63005
420.688	20498.09405
421.187	19510.12607
421.685	18284.40859
422.184	16737.07059
422.682	14383.31847
423.18	12218.55483
423.678	10745.38598
424.176	10048.97041
424.674	9521.54199
425.172	8986.44133
425.669	8525.86922
426.167	7931.09504
426.664	7243.64032
427.161	6630.6599
427.659	6217.10394
428.156	5820.42908
428.652	5448.76604
429.149	5168.62396
429.646	5020.10703
430.143	4788.74547
430.639	4489.82701
431.135	4258.35356
431.632	4047.80288
432.128	3814.23966
432.624	3557.83881
433.12	3467.01311
433.616	3300.82202
434.111	3327.29679
434.607	3100.37274
435.103	3005.63095
435.598	2880.61653
436.093	2855.20585
436.588	2708.01246
437.083	2622.97978
437.578	2449.11051
438.073	2394.50057
438.568	2325.3758
439.062	2166.65815
439.557	2158.03436
440.051	2034.79791
440.546	2021.83517
441.04	1963.03699
441.534	1949.2391
442.028	1909.00994
442.522	1837.93838
443.015	1723.42786
443.509	1807.96593
444.002	1828.00728
444.496	1704.45254
444.989	1770.9213
445.482	1682.92045
445.975	1724.69631
446.468	1656.41178
446.961	1716.46552
447.454	1616.49525
447.947	1598.69854
448.439	1552.74971
448.931	1541.50771
449.424	1525.85495
449.916	1543.71898
450.408	1473.42679
450.9	1416.55922
451.392	1440.74068
451.884	1438.4045
452.375	1345.53298
452.867	1318.20984
453.358	1384.33748
453.849	1341.09653
454.341	1376.28523
454.832	1326.10815
455.323	1318.51756
455.814	1304.24192
456.304	1282.24945
456.795	1288.21896
457.285	1221.04356
457.776	1254.17267
458.266	1155.15729
458.756	1123.10044
459.247	1155.17741
459.737	1172.23265
460.226	1228.14309
460.716	1108.11043
461.206	1074.06326
461.695	1091.17066
462.185	1061.02605
462.674	1052.92471
463.163	1069.90443
463.653	1078.7979
464.142	975.94727
464.63	1055.06497
465.119	940.8024
465.608	955.84132
466.096	934.65264
466.585	951.77932
467.073	915.79275
467.561	863.74484
468.05	887.70021
468.538	902.8458
469.026	867.72736
469.513	885.53286
470.001	830.60877
470.489	862.72494
470.976	846.66635
471.463	849.79632
471.951	803.7115
472.438	782.57044
472.925	785.58046
473.412	754.58023
473.899	744.46725
474.385	708.51441
474.872	765.52955
475.359	780.65131
475.845	745.30826
476.331	621.15982
476.817	644.38688
477.303	611.26019
477.789	581.23792
478.275	646.42093
478.761	614.29445
479.247	618.21556
479.732	599.33864
480.218	608.43197
480.703	578.27864
481.188	565.08947
481.673	540.11777
482.158	535.03744
482.643	573.32094
483.128	581.2111
483.612	568.21568
484.097	545.18572
484.581	498.04725
485.066	509.13586
485.55	459.9302
486.034	458.90845
486.518	521.13199
487.002	436.98054
487.486	399.90268
487.969	418.94315
488.453	388.90294
488.936	441.91375
489.42	462.93521
489.903	410.94998
490.386	294.57606
490.869	441.88842
491.352	363.81959
491.835	393.74365
492.318	372.78096
492.8	369.7119
493.283	357.85905
493.765	361.832
494.247	384.83421
494.73	370.7651
495.212	290.65439
495.694	352.78064
496.175	338.76704
496.657	368.81679
497.139	348.55293
497.62	364.82235
498.102	345.81096
498.583	280.65653
499.064	348.72864
499.545	320.68957
500.026	324.6928
500.507	284.62303
500.988	342.80782
501.469	275.6555
501.949	312.73155
502.43	301.69043
502.91	366.72528
503.39	292.69001
503.87	317.71049
504.35	295.65629
504.83	282.58706
505.31	286.65747
505.79	282.63582
506.269	231.51072
506.749	280.61012
507.228	255.57624
507.707	316.66721
508.187	315.71413
508.666	279.66147
509.145	269.60193
509.623	245.55162
510.102	266.61663
510.581	301.69126
511.059	255.61738
511.538	280.69125
512.016	290.66293
512.494	305.6968
512.972	281.64301
513.45	221.4984
513.928	261.60924
514.406	335.77763
514.884	293.72241
515.361	295.67287
515.839	321.70019
516.316	321.74042
516.793	300.72234
517.27	323.73613
517.747	298.73054
518.224	282.61995
518.701	338.70301
519.178	350.82767
519.654	289.6528
520.131	280.66396
520.607	343.79147
521.083	254.55206
521.56	295.66227
522.036	312.64257
522.512	326.76377
522.987	339.77227
523.463	321.72122
523.939	334.78587
524.414	317.68707
524.89	312.70747
525.365	326.69586
525.84	292.66992
526.315	326.74881
526.79	324.691
527.265	326.71305
527.74	280.65011
528.215	264.59013
528.689	306.6356
529.164	256.52558
529.638	236.57772
530.112	265.59737
530.587	266.54414
531.061	288.66604
531.534	283.65201
532.008	250.58551
532.482	306.66818
532.956	245.60297
533.429	274.64297
533.903	291.60647
534.376	218.46595
534.849	226.50186
535.322	271.6124
535.795	263.60956
536.268	289.66848
536.741	203.4679
537.213	235.52086
537.686	236.5577
538.158	287.62285
538.631	262.60953
539.103	270.58383
539.575	189.37812
540.047	181.38461
540.519	263.60328
540.991	275.64267
541.463	240.55681
541.934	238.51817
542.406	225.52335
542.877	219.47832
543.348	292.67368
543.82	232.54527
544.291	272.60851
544.762	275.62751
545.233	257.62783
545.703	259.55322
546.174	254.56661
546.645	258.60093
547.115	307.70645
547.585	294.64497
548.056	293.68983
548.526	310.70123
548.996	244.56295
549.466	267.62373
549.935	289.66105
550.405	312.65096
550.875	296.67174
551.344	289.65919
551.814	283.62071
552.283	321.66423
552.752	344.76322
553.221	295.62191
553.69	359.7648
554.159	367.86333
554.628	352.75364
555.096	326.79057
555.565	291.61456
556.033	344.77749
556.502	284.65705
556.97	280.5969
557.438	271.61115
557.906	261.59293
558.374	250.55953
558.842	206.48058
559.31	248.53558
559.777	239.56555
560.245	128.29027
560.712	177.39673
561.18	231.49491
561.647	179.38831
562.114	176.39505
562.581	193.46359
563.048	221.49106
563.514	266.64316
563.981	194.43349
564.448	182.40231
564.914	180.40884
565.381	167.37447
565.847	207.46893
566.313	186.42144
566.779	210.45934
567.245	157.35711
567.711	175.41011
568.176	175.38449
568.642	184.45294
569.108	192.46058
569.573	161.36562
570.038	194.39523
570.504	207.45498
570.969	155.37726
571.434	196.42437
571.899	181.41952
572.363	180.40387
572.828	251.55632
573.293	206.45935
573.757	205.46326
574.222	222.48251
574.686	233.5188
575.15	230.53657
575.614	277.62799
576.078	187.42879
576.542	242.53269
577.006	188.41505
577.469	219.52284
577.933	238.52455
578.396	210.48413
578.86	169.39
579.323	227.53051
579.786	218.45908
580.249	269.60961
580.712	190.45092
581.175	203.48724
581.637	156.34988
582.1	220.46493
582.563	209.43151
583.025	187.44457
583.487	223.4449
583.95	169.35519
584.412	219.44627
584.874	208.49363
585.336	149.34795
585.797	191.40568
586.259	205.46685
586.721	153.35308
587.182	206.46201
587.643	263.57466
588.105	197.45371
588.566	187.38089
589.027	260.61369
589.488	207.46244
589.949	244.57258
590.41	224.42976
590.87	199.4442
591.331	271.56856
591.791	229.51391
592.252	201.45645
592.712	213.49603
593.172	194.4308
593.632	282.60065
594.092	236.50857
594.552	216.45447
595.011	161.3622
595.471	227.49894
595.931	253.5507
596.39	162.38195
596.849	171.39037
597.308	179.37306
597.768	240.59947
598.227	183.42987
598.685	208.46112
599.144	232.52972
599.603	168.38515
600.062	189.38899
600.52	205.45097
600.978	188.43376
601.437	218.48107
601.895	213.44352
602.353	193.4135
602.811	242.52732
603.269	205.47439
603.727	223.51911
604.184	201.44625
604.642	199.47655
605.099	261.58667
605.557	182.43243
606.014	168.35488
606.471	198.48417
606.928	278.59213
607.385	271.65265
607.842	239.52951
608.299	267.59942
608.755	230.53931
609.212	269.57582
609.668	223.48768
610.125	273.63123
610.581	273.61364
611.037	197.42973
611.493	160.36622
611.949	195.46305
612.405	184.36599
612.861	155.34985
613.316	218.50637
613.772	178.39839
614.227	189.44309
614.683	192.39615
615.138	153.35224
615.593	181.41003
616.048	231.51051
616.503	166.39442
616.958	189.46139
617.412	198.45738
617.867	140.30843
618.321	149.30197
618.776	153.33064
619.23	119.27528
619.684	180.39156
620.138	167.37354
620.592	175.41444
621.046	194.446
621.5	145.3426
621.954	155.33567
622.407	158.34195
622.861	147.35015
623.314	158.34999
623.768	157.36318
624.221	105.20461
624.674	139.31553
625.127	123.28182
625.58	161.35328
626.033	154.32945
626.485	139.32651
626.938	127.29775
627.39	179.40781
627.843	126.28596
628.295	109.24823
628.747	209.48269
629.199	144.3215
629.651	114.25789
630.103	164.36736
630.555	78.16339
631.006	91.20959
631.458	148.34107
631.909	128.28176
632.361	70.16061
632.812	137.31124
633.263	158.33493
633.714	59.12461
634.165	109.25774
634.616	117.27237
635.067	111.241
635.518	115.26856
635.968	92.1789
636.419	175.37186
636.869	116.27052
637.319	131.29858
637.769	80.17854
638.219	118.27399
638.669	58.13728
639.119	62.14754
639.569	91.21593
640.019	106.24165
640.468	82.18232
640.918	85.19959
641.367	84.18638
641.816	51.11314
642.265	131.30014
642.714	88.1998
643.163	117.26635
643.612	99.23979
644.061	105.22175
644.51	83.18872
644.958	91.19901
645.406	72.17088
645.855	61.14731
646.303	58.1335
646.751	113.25776
647.199	66.14882
647.647	87.20013
648.095	31.0708
648.543	89.1788
648.99	108.25592
649.438	67.154
649.885	91.22447
650.333	89.1712
650.78	29.07016
651.227	118.28425
651.674	60.1364
652.121	140.33674
652.568	70.17035
653.015	87.21295
653.461	86.20245
653.908	55.12581
654.354	108.25345
654.801	46.10766
655.247	60.12936
655.693	78.20095
656.139	52.1236
656.585	83.19626
657.031	58.13574
657.477	70.15208
657.922	47.10656
658.368	49.11994
658.813	54.12226
659.259	84.20166
659.704	83.19497
660.149	51.11718
660.594	63.14863
661.039	70.15842
661.484	79.18536
661.929	79.18289
662.373	21.05273
662.818	43.10599
663.262	76.18218
663.707	78.19653
664.151	84.20258
664.595	55.13237
665.039	83.20376
665.483	87.21878
665.927	69.16063
666.371	54.12653
666.814	54.12762
667.258	109.25874
667.701	87.18342
668.145	58.14341
668.588	89.21792
669.031	41.0962
669.474	81.19228
669.917	57.12423
670.36	80.19759
670.803	104.24759
671.245	6.01235
671.688	80.19257
672.13	76.17038
672.573	37.09311
673.015	113.26793
673.457	63.1362
673.899	42.10122
674.341	49.11744
674.783	39.09318
675.225	43.10541
675.666	67.16265
676.108	47.10122
676.549	57.13186
676.991	19.04178
677.432	62.12223
677.873	10.02289
678.314	40.09482
678.755	99.24052
679.196	28.06393
679.637	33.07873
680.078	95.21862
680.518	33.07555
680.959	3.00716
681.399	63.15449
681.839	73.17522
682.28	83.20368
682.72	31.07071
683.16	88.21655
683.6	117.26084
684.039	37.07615
684.479	72.17587
684.919	63.14695
685.358	21.05214
685.798	26.06743
686.237	54.12772
686.676	10.02264
687.115	118.27237
687.554	64.15166
687.993	43.0946
688.432	28.0637
688.871	93.20991
689.309	55.13081
689.748	67.13784
690.186	51.11826
690.625	61.14189
691.063	45.10657
691.501	66.1614
691.939	111.27421
692.377	-6.01457
692.815	77.18588
693.253	53.12494
693.69	53.11498
694.128	58.1394
694.565	84.1959
695.003	93.23378
695.44	77.17989
695.877	74.17183
696.314	85.17589
696.751	79.17627
697.188	97.22082
697.625	32.07115
698.061	-9.02159
698.498	9.02122
698.934	23.0547
699.371	5.01176
699.807	59.13762
700.243	60.14306
700.679	14.03112
701.115	66.15186
701.551	55.12627
701.987	24.05212
702.422	67.15782
702.858	77.18088
703.294	117.26203
703.729	37.08922
704.164	65.15299
704.599	77.16925
705.035	58.12853
705.47	42.10099
705.904	42.09633
706.339	54.12246
706.774	27.06281
707.209	89.20334
707.643	110.25713
708.078	38.09154
708.512	17.0424
708.946	34.07979
709.38	58.13601
709.814	60.13385
710.248	92.2207
710.682	97.2283
711.116	57.13713
711.549	36.09097
711.983	48.10956
712.416	81.18886
712.85	11.02708
713.283	29.06788
713.716	61.14886
714.149	13.02992
714.582	77.16989
715.015	26.06318
715.448	76.18813
715.881	55.11626
716.313	66.15161
716.746	32.07504
717.178	13.03107
717.61	81.20223
718.043	41.09998
718.475	75.17872
718.907	80.19578
719.339	87.19316
719.77	68.1602
720.202	4.00996
720.634	76.18322
721.065	79.18239
721.497	63.15168
721.928	20.04843
722.359	38.09151
722.79	25.0593
723.221	-21.05201
723.652	40.10028
724.083	0
724.514	-8.01832
724.945	40.0924
725.375	82.18777
725.806	53.12847
726.236	86.21498
726.666	67.15493
727.096	53.12751
727.526	79.19966
727.956	49.11037
728.386	62.14919
728.816	70.176
729.246	71.17204
729.675	4.00968
730.105	48.11546
730.534	41.09409
730.964	11.02716
731.393	67.16076
731.822	48.12077
732.251	37.09261
732.68	76.17179
733.109	35.08519
733.537	100.23861
733.966	41.10099
734.395	64.14508
734.823	35.07615
735.251	-14.03346
735.68	59.14259
736.108	19.0469
736.536	55.12627
736.964	32.07307
737.392	65.1591
737.82	66.1541
738.247	35.08206
738.675	66.15155
739.102	47.11521
739.53	71.17912
739.957	39.09955
740.384	-11.02627
740.811	-2.00493
741.238	54.13018
741.665	101.23122
742.092	-6.01366
742.519	56.13659
742.945	76.18086
743.372	27.06626
743.798	44.11071
744.225	30.06985
744.651	4.0099
745.077	63.1538
745.503	24.05707
745.929	70.16607
746.355	47.11208
746.781	57.13708
747.207	50.11674
747.632	73.17762
748.058	102.25045
748.483	61.13718
748.908	41.1005
749.334	55.13312
749.759	87.20229
750.184	59.13957
750.609	43.10341
751.033	44.10059
751.458	66.14345
751.883	53.1277
752.307	28.06491
752.732	67.16806
753.156	64.15406
753.58	82.18799
754.005	18.04451
754.429	76.17612
754.853	69.1682
755.277	69.16025
755.7	74.17934
756.124	11.02703
756.548	0
756.971	112.26468
757.394	67.16734
757.818	55.1392
758.241	58.14452
758.664	65.16057
759.087	39.08652
759.51	-16.03911
759.933	47.1117
760.356	68.17189
760.778	56.13475
761.201	7.01668
761.623	29.0677
762.046	23.05276
762.468	74.17237
762.89	8.01924
763.312	55.13192
763.734	19.04517
764.156	66.15923
764.578	44.09799
765	24.05755
765.421	31.07796
765.843	62.15867
766.264	74.1702
766.686	12.0293
767.107	71.16769
767.528	101.25252
767.949	21.05243
768.37	55.13362
768.791	41.09612
769.212	24.05963
769.632	91.20716
770.053	11.02832
770.473	45.106
770.894	29.06987
771.314	86.19629
771.734	47.10699
772.154	35.08751
772.575	3.0068
772.994	37.08187
773.414	35.08132
773.834	-5.01228
774.254	38.09071
774.673	103.24422
775.093	51.12432
775.512	35.08481
775.931	36.08957
776.351	41.10028
776.77	51.12256
777.189	41.09526
777.607	34.08512
778.026	36.08787
778.445	33.0823
778.864	28.06946
779.282	20.04668
779.701	36.08836
780.119	15.03742
780.537	-2.0049
780.955	39.09627
781.373	34.08212
781.791	79.17416
782.209	-10.02217
782.627	5.01298
783.045	39.08634
783.462	27.06758
783.88	29.07371
784.297	69.16883
784.715	59.14853
785.132	-14.03319
785.549	19.04652
785.966	45.11051
786.383	36.08708
786.8	77.17273
787.217	64.1489
787.633	44.1084
788.05	61.13723
788.466	32.07248
788.883	60.15048
789.299	-17.03973
789.715	56.13296
790.131	24.05841
790.547	42.10198
790.963	30.07257
791.379	16.03968
791.795	-5.01105
792.21	78.17465
792.626	22.05048
793.041	37.08878
793.457	45.1074
793.872	22.04997
794.287	74.17386
794.702	-5.01188
795.117	78.18854
795.532	50.12304
795.947	22.05082
796.362	45.10186
796.776	32.07127
797.191	25.05987
797.605	15.03491
798.02	20.04743
798.434	67.14367
798.848	90.21697
799.262	-4.00974
799.676	114.26638
800.09	44.10507
800.504	14.03298
800.918	-5.01122
801.331	-77.19578
801.745	38.08407
802.158	-11.02672
802.572	41.0965
802.985	40.09281
803.398	31.07157
803.811	-13.03208
804.224	15.03591
804.637	34.07907
805.05	7.01568
805.462	21.04993
805.875	2.0051
806.288	26.06152
806.7	9.02185
807.112	-3.00672
807.525	-7.01662
807.937	17.04112
808.349	21.05085
808.761	67.15984
809.173	56.13188
809.584	51.1212
809.996	10.02385
810.408	21.05357
810.819	36.08224
811.231	91.23546
811.642	113.26958
812.053	117.27344
812.464	80.18201
812.875	129.31703
813.286	101.25252
813.697	28.06169
814.108	45.10579
814.519	108.23144
814.929	36.08885
815.34	-16.03756
815.75	31.07737
816.16	8.01917
816.571	24.06049
816.981	28.06321
817.391	45.10393
817.801	-9.02198
818.211	65.14863
818.62	9.02123
819.03	15.03565
819.44	-13.03266
819.849	25.06051
820.259	60.14661
820.668	-26.06304
821.077	33.08038
821.486	0
821.895	-19.04521
822.304	7.01808
822.713	35.07964
823.122	53.12746
823.531	-1.00227
823.939	35.08302
824.348	49.11416
824.756	10.02424
825.164	55.13287
825.573	33.08038
825.981	51.1213
826.389	8.01953
826.797	68.16728
827.205	40.08934
827.612	37.0878
828.02	-18.04103
828.428	16.03959
828.835	57.14636
829.243	51.1161
829.65	18.04389
830.057	-9.02118
830.464	11.02641
830.871	48.11132
831.278	46.10736
831.685	4.00861
832.092	11.02588
832.499	36.07625
832.905	43.10451
833.312	17.03672
833.718	29.07059
834.124	27.05977
834.531	4.00971
834.937	42.10476
835.343	0
835.749	42.09292
836.155	25.06366
836.561	-2.0048
836.966	26.06128
837.372	19.04671
837.777	19.04614
838.183	35.07437
838.588	51.12307
838.993	23.05428
839.399	-3.00718
839.804	10.02374
840.209	44.10979
840.613	-4.00861
841.018	18.044
841.423	38.09451
841.828	36.08866
842.232	21.04947
842.637	35.08064
843.041	17.04261
843.445	-21.05108
843.849	27.06505
844.253	32.07313
844.657	16.03943
845.061	115.25192
845.465	32.07474
845.869	53.11821
846.272	38.08991
846.676	-16.03701
847.079	31.07709
847.483	63.15064
847.886	60.13877
848.289	45.11808
848.692	-15.03682
849.095	55.12632
849.498	46.11073
849.901	17.0373
850.304	10.02313
850.707	1.00247
851.109	43.10443
851.512	49.11641
851.914	28.06895
852.316	41.10147
852.718	46.1181
853.121	45.10641
853.523	33.07375
853.925	52.13266
854.326	11.02692
854.728	25.06264
855.13	57.14349
855.531	22.051
855.933	24.05507
856.334	13.03176
856.736	38.0827
857.137	56.12617
857.538	75.18255
857.939	63.15202
858.34	15.035
858.741	-18.04586
859.142	11.02545
859.542	26.06717
859.943	5.01207
860.343	26.06282
860.744	27.06365
861.144	56.13265
861.544	10.02367
861.945	3.00743
862.345	55.12859
862.745	25.06065
863.145	5.01135
863.544	-10.02474
863.944	17.03881
864.344	-5.01191
864.743	52.12394
865.143	75.18698
865.542	-37.08263
865.941	60.14339
866.34	52.11792
866.74	9.02358
867.139	43.10066
867.537	2.0049
867.936	56.13008
868.335	21.05167
868.734	-3.00749
869.132	34.07497
869.531	41.0942
869.929	29.06401
870.327	25.05788
870.726	-5.01199
871.124	30.06693
871.522	0
871.92	40.09515
872.318	22.05159
872.715	21.04948
873.113	45.10488
873.511	-12.02902
873.908	43.10673
874.306	37.08969
874.703	-19.04588
875.1	-2.0049
875.497	10.02311
875.894	56.1346
876.291	46.10896
876.688	0
877.085	25.05744
877.482	16.03879
877.878	64.1499
878.275	61.14959
878.671	-18.03757
879.068	63.14562
879.464	38.08841
879.86	40.09097
880.256	-29.06868
880.652	8.01976
881.048	27.06389
881.444	34.07666
881.84	47.115
882.236	5.01219
882.631	23.05491
883.027	31.07202
883.422	5.01234
883.817	33.08086
884.213	35.08691
884.608	57.13755
885.003	49.11245
885.398	3.0073
885.793	4.00971
886.188	-37.08982
886.582	41.1005
886.977	22.04999
887.371	3.00732
887.766	-21.05131
888.16	-40.09592
888.554	-5.01192
888.949	51.12316
889.343	49.11434
889.737	18.04715
890.131	-17.0416
890.525	51.12668
890.918	9.02196
891.312	47.10673
891.706	19.04828
892.099	50.12213
892.492	72.14628
892.886	3.0071
893.279	-14.03468
893.672	57.14076
894.065	79.18962
894.458	-11.02664
894.851	24.05634
895.244	-8.01989
895.637	39.09076
896.029	39.09251
896.422	-6.01405
896.814	17.04076
897.206	29.06759
897.599	82.19349
897.991	-6.01419
898.383	49.11137
898.775	62.13533
899.167	36.08207
899.559	-6.01463
899.951	37.08297
900.342	43.10435
900.734	41.10065
901.125	37.09321
901.517	-1.00239
901.908	28.06363
902.299	22.05217
902.69	63.14365
903.082	30.07005
903.473	113.26109
903.863	-1.00247
904.254	74.16597
904.645	-22.0526
905.036	56.13301
905.426	60.12891
905.817	-4.00946
906.207	-65.15018
906.597	52.11787
906.987	-35.08802
907.378	63.15403
907.768	1.00259
908.158	23.05401
908.547	31.07871
908.937	7.01721
909.327	38.08859
909.717	9.02178
910.106	29.06677
910.495	-34.08191
910.885	64.15616
911.274	0
911.663	-14.03427
912.052	19.04474
912.441	37.09164
912.83	2.0044
913.219	6.0152
913.608	78.18341
913.997	29.07101
914.385	105.23796
914.774	38.08883
915.162	47.1089
915.55	16.03708
915.939	9.02223
916.327	20.04785
916.715	28.0702
917.103	12.02804
917.491	32.07603
917.878	20.04738
918.266	-3.00754
918.654	62.15364
919.041	17.0437
919.429	10.0228
919.816	13.03189
920.203	61.14329
920.591	31.07435
920.978	30.07082
921.365	27.06897
921.752	14.03168
922.139	60.12396
922.525	6.01401
922.912	22.05157
923.299	33.07927
923.685	-17.04287
924.072	-18.03919
924.458	29.06971
924.844	-10.02408
925.231	-15.03352
925.617	51.12645
926.003	26.06405
926.389	-12.02945
926.774	28.06829
927.16	6.01441
927.546	12.03025
927.931	37.08834
928.317	-42.09354
928.702	28.06339
929.088	91.20975
929.473	50.12363
929.858	32.07606
930.243	43.10034
930.628	61.14391
931.013	19.04562
931.398	24.05205
931.783	32.0806
932.167	24.05731
932.552	26.0627
932.937	36.08551
933.321	22.0539
933.705	-27.06562
934.09	-3.0072
934.474	12.02721
934.858	7.01769
935.242	-5.01117
935.626	-14.03514
936.009	39.10154
936.393	82.20283
936.777	25.06239
937.16	41.10399
937.544	2.00447
937.927	31.0765
938.311	34.07926
938.694	19.04894
939.077	-28.06527
939.46	-12.02794
939.843	37.07159
940.226	-13.0323
940.609	62.13768
940.991	-1.00246
941.374	31.07356
941.757	23.05453
942.139	59.12696
942.522	35.07887
942.904	33.07637
943.286	37.09033
943.668	85.21344
944.05	62.14652
944.432	10.02378
944.814	-1.00236
945.196	6.01429
945.578	60.1391
945.959	10.02235
946.341	-26.06087
946.722	38.08502
947.104	35.08048
947.485	4.009
947.866	18.04431
948.247	41.1008
948.628	5.01155
949.009	-1.00249
949.39	29.06913
949.771	1.00219
950.152	24.05694
950.532	41.10009
950.913	34.07873
951.293	21.05568
951.674	42.0976
952.054	78.18868
952.434	-2.00483
952.814	-34.07779
953.194	30.07489
953.574	36.08488
953.954	0
954.334	57.13781
954.714	-1.00238
955.093	76.17835
955.473	62.1506
955.853	11.02766
956.232	2.00534
956.611	33.07497
956.99	27.06587
957.37	-24.05923
957.749	-15.03412
958.128	31.07593
958.506	18.04539
958.885	15.0365
959.264	20.04803
959.643	60.13119
960.021	18.04348
960.4	42.0909
960.778	36.08392
961.156	31.07464
961.535	13.02886
961.913	81.18141
962.291	68.16992
962.669	-5.01239
963.047	36.08924
963.424	59.14693
963.802	24.05711
964.18	4.00964
964.557	37.08116
964.935	51.11549
965.312	40.10129
965.69	3.00721
966.067	4.00931
966.444	-14.03283
966.821	37.09224
967.198	-22.05121
967.575	27.06347
967.952	21.04746
968.329	39.0919
968.705	99.20137
969.082	45.113
969.458	44.10294
969.835	4.00942
970.211	75.18677
970.587	33.07939
970.963	24.05897
971.339	30.07624
971.715	22.0532
972.091	46.10867
972.467	1.00238
972.843	70.1685
973.219	44.10014
973.594	0
973.97	-3.00671
974.345	65.14941
974.721	3.00691
975.096	33.07755
975.471	26.05903
975.846	32.0733
976.221	21.05169
976.596	22.05179
976.971	60.14311
977.346	5.01112
977.72	36.08797
978.095	17.04254
978.469	39.08885
978.844	8.01934
979.218	70.16299
979.593	37.08464
979.967	-24.05571
980.341	35.07768
980.715	30.07317
981.089	29.06995
981.463	32.07047
981.837	57.13531
982.21	-24.05259
982.584	38.08865
982.957	6.01462
983.331	16.03583
983.704	64.15265
984.078	24.05694
984.451	9.02127
984.824	2.00475
985.197	-18.04175
985.57	-2.00478
985.943	-5.01173
986.316	55.12708
986.688	11.02555
987.061	55.12369
987.434	82.20779
987.806	-13.0301
988.179	9.02039
988.551	57.13812
988.923	29.06834
989.295	52.12394
989.667	30.07013
990.039	42.10167
990.411	-11.02407
990.783	36.07815
991.155	30.06974
991.527	38.08799
991.898	34.08209
992.27	19.0459
992.641	52.12432
993.012	10.02203
993.384	-3.00688
993.755	71.17462
994.126	43.10022
994.497	-12.02861
994.868	3.00656
995.239	11.02565
995.61	24.05841
995.98	18.04209
996.351	-29.07056
996.722	32.07215
997.092	12.02758
997.462	18.04105
997.833	9.02036
998.203	-24.05562
998.573	29.06995
998.943	46.10389
999.313	31.07191
999.683	27.06261
1000.053	-45.09825
1000.423	7.0163
1000.792	-22.05494
1001.162	-4.00947
1001.531	49.11618
1001.901	11.02636
1002.27	-11.02319
1002.639	-2.00492
1003.009	-17.03909
1003.378	52.12815
1003.747	7.01583
1004.116	-17.03937
1004.485	14.03223
1004.853	-26.06323
1005.222	-25.06019
1005.591	40.09064
1005.959	14.03048
1006.328	30.06496
1006.696	-7.01627
1007.064	28.0672
1007.433	-1.0024
1007.801	9.02094
1008.169	9.02174
1008.537	80.16721
1008.905	34.07657
1009.273	16.03781
1009.64	24.0559
1010.008	18.0412
1010.375	52.1184
1010.743	-8.01723
1011.11	88.20199
1011.478	44.10543
1011.845	-16.0362
1012.212	102.22066
1012.579	35.08279
1012.946	12.02716
1013.313	56.12596
1013.68	50.10632
1014.047	22.05042
1014.414	23.0521
1014.78	41.09841
1015.147	61.13892
1015.513	51.1176
1015.88	18.04413
1016.246	-9.02123
1016.612	57.12297
1016.978	74.17427
1017.344	47.11174
1017.71	77.17741
1018.076	12.02691
1018.442	28.06982
1018.808	27.06577
1019.174	2.00483
1019.539	-18.03821
1019.905	27.06154
1020.27	-41.09849
1020.636	17.03864
1021.001	56.12859
1021.366	19.04418
1021.731	58.14546
1022.096	24.05908
1022.461	43.09773
1022.826	53.12148
1023.191	-4.01022
1023.556	1.00225
1023.92	-23.05437
1024.285	10.02327
1024.649	-10.02358
1025.014	-4.00947
1025.378	38.09261
1025.742	3.00714
1026.107	38.08172
1026.471	31.0688
1026.835	26.06209
1027.199	16.03721
1027.562	2.00443
1027.926	18.04211
1028.29	30.07328
1028.654	47.10261
1029.017	21.04991
1029.381	13.03005
1029.744	41.10076
1030.107	57.1286
1030.471	72.1652
1030.834	-23.0497
1031.197	38.08761
1031.56	40.08975
1031.923	-8.02016
1032.286	53.1187
1032.648	15.03398
1033.011	74.16385
1033.374	46.10198
1033.736	-6.01538
1034.099	35.08203
1034.461	37.09083
1034.823	10.0242
1035.185	7.01687
1035.548	18.04244
1035.91	18.04138
1036.272	36.07881
1036.634	11.02594
1036.995	-21.04738
1037.357	33.07761
1037.719	55.12819
1038.08	52.11907
1038.442	25.05687
1038.803	5.01137
1039.165	2.00486
1039.526	25.05815
1039.887	15.03451
1040.248	71.17023
1040.609	26.06109
1040.97	41.09575
1041.331	59.14436
1041.692	34.0776
1042.053	8.01737
1042.413	47.10374
1042.774	35.08193
1043.134	23.05181
1043.495	1.00243
1043.855	35.08251
1044.215	-20.04791
1044.576	33.07634
1044.936	44.09555
1045.296	56.13378
1045.656	-16.03762
1046.016	12.02772
1046.375	7.01639
1046.735	50.11025
1047.095	38.08516
1047.454	27.05372
1047.814	-6.01397
1048.173	18.04067
1048.533	45.09833
1048.892	12.02791
1049.251	17.04084
1049.61	51.12046
1049.969	43.09654
1050.328	56.11502
1050.687	-12.02807
1051.046	37.08603
1051.405	7.01665
1051.763	13.02909
1052.122	-20.04838
1052.48	51.12018
1052.839	83.18872
1053.197	22.04965
1053.555	18.03836
1053.914	58.13505
1054.272	-30.06878
1054.63	40.09413
1054.988	20.04618
1055.345	-40.08197
1055.703	-2.00466
1056.061	17.04284
1056.419	21.05351
1056.776	-33.07634
1057.134	-22.04831
1057.491	24.05797
1057.848	33.07846
1058.206	-41.09209
1058.563	-25.05303
1058.92	8.01763
1059.277	38.08998
1059.634	22.04888
1059.991	64.14655
1060.348	34.07377
1060.704	67.15604
1061.061	6.01312
1061.418	-6.0141
1061.774	10.02384
1062.131	15.03911
1062.487	-1.00224
1062.843	16.03846
1063.199	8.01924
1063.555	14.0315
1063.911	1.00243
1064.267	34.06605
1064.623	35.08267
1064.979	-40.08846
1065.335	16.0364
1065.691	-23.05255
1066.046	-2.00421
1066.402	0
1066.757	43.10439
1067.112	44.10294
1067.468	61.13943
1067.823	-46.10529
1068.178	18.04156
1068.533	22.05127
1068.888	28.06378
1069.243	13.03097
1069.598	31.07177
1069.952	62.13591
1070.307	6.01444
1070.662	45.10368
1071.016	63.1362
1071.371	35.07654
1071.725	-19.04355
1072.079	22.051
1072.434	-2.00472
1072.788	-25.05684
1073.142	58.13659
1073.496	7.01595
1073.85	32.0708
1074.203	45.10468
1074.557	39.10154
1074.911	50.11297
1075.265	1.00224
1075.618	65.15162
1075.971	30.06831
1076.325	45.11092
1076.678	-26.05762
1077.031	-84.1818
1077.385	23.04813
1077.738	14.0302
1078.091	33.0725
1078.444	55.11982
1078.796	36.08544
1079.149	28.0672
1079.502	-9.02072
1079.855	33.07379
1080.207	-13.03091
1080.56	55.13761
1080.912	43.10002
1081.264	42.09733
1081.617	30.07057
1081.969	-31.07675
1082.321	46.10711
1082.673	52.11509
1083.025	19.04299
1083.377	20.04508
1083.728	35.07758
1084.08	-3.0072
1084.432	26.05994
1084.783	0
1085.135	27.06555
1085.486	23.05079
1085.838	20.04765
1086.189	39.09169
1086.54	26.05927
1086.891	26.06476
1087.242	79.18666
1087.593	5.01154
1087.944	102.21962
1088.295	32.06923
1088.646	88.20692
1088.996	29.06759
1089.347	-34.0806
1089.698	24.05518
1090.048	-22.05529
1090.398	18.03972
1090.749	12.02735
1091.099	3.00741
1091.449	18.04346
1091.799	-8.01941
1092.149	-17.04088
1092.499	28.06568
1092.849	15.03693
1093.199	2.0048
1093.548	6.01408
1093.898	-1.00241
1094.248	-19.04699
1094.597	-12.03021
1094.947	24.0622
1095.296	44.10491
1095.645	20.05007
1095.994	-5.0116
1096.343	36.08754
1096.692	29.07504
1097.041	1.00268
1097.39	10.02408
1097.739	15.03772
1098.088	24.06181
1098.437	21.05432
1098.785	-2.0052
1099.134	-2.00507
1099.482	16.04298
1099.83	43.10906
1100.179	74.18905
1100.527	-39.10021
1100.875	-4.01038
1101.223	58.14953
1101.571	-10.0269
1101.919	56.14437
1102.267	18.04987
1102.615	10.03209
1102.962	2.00642
1103.31	12.0385
1103.658	0
