Data from N1 R2 sample 7_Subt2__5__12-58-41-238.txt Node

Date: Wed Sep 17 12:58:41 PDT 2025
User: uwsun
Spectrometer: HDX01956
Trigger mode: 0
Integration Time (sec): 5.000000E-1
Scans to average: 1
Nonlinearity correction enabled: true
Boxcar width: 0
Storing dark spectrum: false
XAxis mode: Wavelengths
Number of Pixels in Spectrum: 2068
>>>>>Begin Spectral Data<<<<<
194.03	-8.02325
194.578	3.00975
195.127	-7.02246
195.676	4.01286
196.225	0
196.773	-25.07014
197.321	10.02796
197.87	0
198.418	16.04211
198.966	35.09383
199.513	22.05713
200.061	6.01561
200.609	40.10725
201.156	11.02478
201.704	9.02319
202.251	-3.00816
202.798	21.05554
203.345	29.07337
203.892	25.06453
204.438	26.06308
204.985	14.03412
205.532	3.00807
206.078	25.06239
206.624	82.20831
207.17	66.15742
207.716	49.12247
208.262	36.07338
208.808	14.03604
209.354	63.15837
209.899	10.02576
210.445	7.01796
210.99	9.02255
211.535	38.09158
212.08	5.01194
212.625	9.02302
213.17	61.15778
213.715	62.14436
214.259	54.12851
214.804	31.07754
215.348	83.19459
215.892	76.18709
216.436	22.05143
216.98	16.03606
217.524	47.11457
218.068	34.08747
218.612	90.23106
219.155	91.21735
219.698	27.06562
220.242	-30.07619
220.785	73.17375
221.328	36.09045
221.871	81.20828
222.414	25.06294
222.956	-16.03929
223.499	6.01371
224.041	22.05127
224.583	3.00649
225.126	-2.0045
225.668	30.0741
226.21	28.07206
226.751	72.16228
227.293	55.12597
227.835	44.10935
228.376	22.05096
228.918	42.10586
229.459	23.05836
230	40.09756
230.541	-6.01414
231.082	46.11353
231.622	13.03
232.163	33.08077
232.704	41.10406
233.244	35.08808
233.784	49.12007
234.324	71.16163
234.864	-41.09556
235.404	7.01681
235.944	45.10731
236.484	41.10366
237.023	-1.00241
237.563	46.1085
238.102	53.12683
238.641	21.05358
239.18	36.08587
239.719	32.08124
240.258	7.01608
240.797	34.08249
241.335	23.05682
241.874	59.11689
242.412	82.20067
242.95	22.05416
243.488	-10.02302
244.026	9.02141
244.564	80.16632
245.102	67.15363
245.64	-1.00244
246.177	-34.07785
246.715	72.17443
247.252	6.01391
247.789	7.01336
248.326	3.00739
248.863	49.10956
249.4	37.08525
249.936	93.1965
250.473	65.15543
251.009	-6.01408
251.546	55.1247
252.082	-5.01108
252.618	40.091
253.154	46.11224
253.69	68.15408
254.226	47.1141
254.761	37.08447
255.297	-12.02694
255.832	18.04366
256.367	45.10723
256.903	43.09729
257.438	8.01915
257.972	27.06129
258.507	17.03978
259.042	41.09076
259.576	58.13035
260.111	-13.03062
260.645	59.12919
261.179	38.0905
261.713	37.08437
262.247	19.04423
262.781	24.05177
263.315	-5.01239
263.849	9.02297
264.382	23.05384
264.915	28.0675
265.449	-1.00249
265.982	24.0556
266.515	33.08224
267.048	2.00436
267.58	33.0725
268.113	55.12074
268.646	23.05721
269.178	15.03426
269.71	80.17884
270.243	62.14556
270.775	56.14533
271.307	25.06044
271.838	50.11958
272.37	14.03495
272.902	37.08522
273.433	49.11051
273.965	23.05686
274.496	25.06296
275.027	61.15351
275.558	33.08191
276.089	35.08884
276.62	-45.1166
277.15	48.11947
277.681	20.04399
278.211	67.16485
278.741	40.09052
279.272	35.08161
279.802	8.02029
280.332	-4.00968
280.861	26.06325
281.391	14.03255
281.921	-24.05891
282.45	34.08555
282.98	29.07669
283.509	83.19078
284.038	63.14614
284.567	58.13696
285.096	27.06672
285.625	-1.00231
286.153	60.14536
286.682	71.16516
287.21	-5.01219
287.739	23.05542
288.267	75.18446
288.795	15.03984
289.323	46.10985
289.851	66.1573
290.378	-15.03442
290.906	40.09952
291.433	57.1438
291.961	48.11163
292.488	0
293.015	89.212
293.542	71.18441
294.069	55.13821
294.596	9.02245
295.122	66.16038
295.649	57.12671
296.175	42.10267
296.702	109.26778
297.228	38.09299
297.754	53.12129
298.28	22.05183
298.806	34.08345
299.332	86.19479
299.857	42.09737
300.383	42.10719
300.908	56.13974
301.433	75.18596
301.958	24.05626
302.483	35.0882
303.008	104.26016
303.533	38.09946
304.058	15.03577
304.582	45.10826
305.107	31.08198
305.631	43.09939
306.155	37.08797
306.679	26.06254
307.203	63.14857
307.727	57.13723
308.251	56.14019
308.775	103.25258
309.298	-1.00248
309.822	13.03335
310.345	92.22213
310.868	50.12272
311.391	75.18684
311.914	48.1222
312.437	58.135
312.96	84.20028
313.482	5.01206
314.005	13.03315
314.527	3.00797
315.049	62.15906
315.571	45.1036
316.093	67.16818
316.615	-11.02715
317.137	32.07159
317.659	61.15003
318.18	22.05362
318.702	94.22283
319.223	25.05252
319.744	91.20766
320.265	58.14373
320.786	103.25948
321.307	19.048
321.828	26.06023
322.348	38.09144
322.869	59.14318
323.389	334.63122
323.909	50.11665
324.43	38.09272
324.95	30.07046
325.47	97.24296
325.989	73.17602
326.509	51.11699
327.029	84.19505
327.548	32.07445
328.067	78.19216
328.587	109.27557
329.106	32.07401
329.625	75.19741
330.144	56.13306
330.662	93.22153
331.181	75.18009
331.7	53.12581
332.218	82.18149
332.736	64.15283
333.255	97.23159
333.773	84.20136
334.291	70.17789
334.808	90.20641
335.326	50.11514
335.844	76.18218
336.361	122.31616
336.879	112.26684
337.396	104.2564
337.913	87.20461
338.43	83.19086
338.947	82.19925
339.464	103.22621
339.981	50.12131
340.497	60.15031
341.014	70.17372
341.53	58.13409
342.046	144.36139
342.562	95.23967
343.078	88.2107
343.594	48.11686
344.11	120.29049
344.626	94.24032
345.141	110.25542
345.657	61.14156
346.172	89.21825
346.687	53.12474
347.202	157.36101
347.717	110.26569
348.232	118.29657
348.747	117.27398
349.261	109.24381
349.776	158.37743
350.29	103.26115
350.805	127.31626
351.319	142.33272
351.833	89.20907
352.347	148.35192
352.861	123.2922
353.374	105.2427
353.888	176.43053
354.401	74.1723
354.915	103.23722
355.428	108.27232
355.941	92.21818
356.454	108.24441
356.967	80.19031
357.48	105.24202
357.993	148.36554
358.505	93.22949
359.018	180.44065
359.53	167.4086
360.042	169.38067
360.554	199.48525
361.066	105.25872
361.578	189.41874
362.09	132.31701
362.602	184.41165
363.113	202.47421
363.625	166.37919
364.136	136.30264
364.647	136.32563
365.158	123.28995
365.669	85.20666
366.18	161.38055
366.691	152.33627
367.201	152.36615
367.712	129.29924
368.222	193.4445
368.733	131.28927
369.243	195.43653
369.753	140.32585
370.263	194.46732
370.773	144.35226
371.282	180.43015
371.792	184.42707
372.301	165.3992
372.811	170.44463
373.32	219.47305
373.829	175.413
374.338	148.33234
374.847	196.45186
375.356	174.41072
375.865	211.45245
376.373	223.50414
376.882	244.60858
377.39	230.54899
377.898	212.51666
378.407	231.52052
378.915	269.58055
379.423	255.58446
379.93	366.82012
380.438	224.53262
380.946	318.71991
381.453	282.66251
381.96	327.75786
382.468	284.65392
382.975	369.86938
383.482	329.71551
383.989	398.97704
384.495	421.93537
385.002	395.79465
385.509	461.03577
386.015	518.98621
386.521	505.07062
387.028	541.13509
387.534	496.98979
388.04	589.29786
388.546	560.13492
389.051	607.21267
389.557	600.26268
390.063	607.24184
390.568	724.53999
391.073	672.3294
391.578	783.67029
392.084	795.56687
392.589	795.48256
393.093	914.84848
393.598	946.81566
394.103	1014.99024
394.607	1131.18809
395.112	1163.28856
395.616	1304.44899
396.12	1397.38809
396.624	1529.63038
397.128	1658.84254
397.632	1790.8856
398.136	1980.9461
398.639	2102.11571
399.143	2339.49669
399.646	2673.37937
400.15	2912.30702
400.653	3228.18506
401.156	3636.0214
401.659	4286.25616
402.162	5202.41558
402.664	6835.96326
403.167	9583.69875
403.67	17534.45982
404.172	53775.74871
404.674	62481.27102
405.176	63738.15102
405.678	63977.72923
406.18	64011.81569
406.682	63863.44694
407.184	63926.60148
407.686	63841.39382
408.187	31194.91029
408.688	17980.80444
409.19	12564.49135
409.691	10036.83356
410.192	8428.77268
410.693	7415.63404
411.194	6671.73706
411.694	6318.09329
412.195	5850.63335
412.696	5288.45138
413.196	4962.91145
413.696	4731.88313
414.196	4760.32004
414.696	4805.08181
415.196	4533.8062
415.696	4174.74981
416.196	3446.28528
416.695	2550.31055
417.195	2189.25415
417.694	2250.67751
418.194	1985.61422
418.693	1798.77818
419.192	1808.89713
419.691	1696.7493
420.19	1728.89799
420.688	1711.95491
421.187	1542.19989
421.685	1501.54928
422.184	1420.50441
422.682	1202.02963
423.18	1025.92747
423.678	820.60676
424.176	845.64217
424.674	802.53001
425.172	758.54947
425.669	708.53072
426.167	671.37916
426.664	598.2198
427.161	521.09594
427.659	488.09318
428.156	510.996
428.652	443.04272
429.149	424.96605
429.646	452.93884
430.143	420.94573
430.639	387.86734
431.135	347.82772
431.632	367.79678
432.128	348.79709
432.624	345.84964
433.12	304.66746
433.616	318.66907
434.111	255.58821
434.607	243.56611
435.103	204.42015
435.598	257.51965
436.093	232.52673
436.588	272.59218
437.083	191.42105
437.578	248.55803
438.073	203.49759
438.568	225.54004
439.062	196.41221
439.557	185.42488
440.051	168.37245
440.546	187.41724
441.04	195.45877
441.534	172.42559
442.028	200.47135
442.522	107.25575
443.015	117.25002
443.509	154.36929
444.002	139.33617
444.496	121.26115
444.989	137.32858
445.482	119.29203
445.975	183.41507
446.468	99.21431
446.961	178.37996
447.454	90.20177
447.947	145.34167
448.439	135.32724
448.931	145.32888
449.424	185.46052
449.916	148.35584
450.408	110.25016
450.9	86.20819
451.392	119.29892
451.884	108.2467
452.375	87.21437
452.867	78.17537
453.358	88.20118
453.849	107.22786
454.341	60.13601
454.832	118.25309
455.323	156.38175
455.814	70.16022
456.304	89.20523
456.795	89.20261
457.285	84.18467
457.776	109.24653
458.266	76.17996
458.756	75.17673
459.247	115.27225
459.737	135.32206
460.226	111.25105
460.716	108.25582
461.206	87.207
461.695	60.14803
462.185	115.27014
462.674	66.15089
463.163	125.27729
463.653	145.30421
464.142	103.24732
464.63	48.11637
465.119	68.1579
465.608	100.23247
466.096	51.11111
466.585	50.11445
467.073	-10.02388
467.561	95.22594
468.05	68.15621
468.538	67.16302
469.026	30.07142
469.513	70.14767
470.001	54.12415
470.489	70.16581
470.976	120.27687
471.463	80.19774
471.951	84.20701
472.438	36.08478
472.925	108.25147
473.412	42.1019
473.899	58.13292
474.385	41.10039
474.872	41.09579
475.359	83.20255
475.845	75.15506
476.331	67.14249
476.817	100.24071
477.303	108.24819
477.789	53.12601
478.275	67.16539
478.761	-18.04325
479.247	29.06503
479.732	70.17366
480.218	97.25133
480.703	61.14964
481.188	24.05236
481.673	59.13545
482.158	58.12547
482.643	71.18021
483.128	75.17412
483.612	152.35503
484.097	72.17259
484.581	68.15677
485.066	75.18262
485.55	68.15013
486.034	77.16633
486.518	112.26489
487.002	35.08516
487.486	17.04144
487.969	51.12367
488.453	46.11424
488.936	51.11488
489.42	102.22349
489.903	35.0871
490.386	-5.01049
490.869	126.27223
491.352	46.11056
491.835	47.09647
492.318	71.15895
492.8	93.19132
493.283	96.24241
493.765	42.10294
494.247	77.17819
494.73	84.18483
495.212	76.17898
495.694	124.28804
496.175	107.25419
496.657	123.2869
497.139	96.16359
497.62	118.27994
498.102	112.2752
498.583	62.15156
499.064	184.39924
499.545	152.33936
500.026	201.44124
500.507	145.32741
500.988	257.61706
501.469	166.40396
501.949	236.56158
502.43	269.62099
502.91	299.6018
503.39	266.63174
503.87	368.81611
504.35	366.80222
504.83	412.83286
505.31	392.88198
505.79	436.95199
506.269	470.9871
506.749	507.04958
507.228	628.30893
507.707	708.36478
508.187	779.59711
508.666	810.72009
509.145	927.79067
509.623	1014.9212
510.102	1110.13769
510.581	1222.28449
511.059	1302.52149
511.538	1374.69767
512.016	1536.63066
512.494	1678.77719
512.972	1874.92723
513.45	1936.859
513.928	2217.21517
514.406	2335.3176
514.884	2517.68447
515.361	2619.27461
515.839	2864.08482
516.316	3042.40977
516.793	3180.65854
517.27	3403.29225
517.747	3601.72865
518.224	3689.91856
518.701	3833.59053
519.178	3981.41118
519.654	4064.95354
520.131	4121.27018
520.607	4157.14224
521.083	4092.63013
521.56	4094.90533
522.036	4011.41245
522.512	4068.26995
522.987	3870.16761
523.463	3805.07235
523.939	3784.42276
524.414	3557.92202
524.89	3506.21957
525.365	3379.89492
525.84	3188.33002
526.315	3110.38716
526.79	2929.96396
527.265	2830.1051
527.74	2603.35262
528.215	2511.10987
528.689	2358.7662
529.164	2223.63185
529.638	2125.37466
530.112	2071.97759
530.587	2014.55006
531.061	1930.01861
531.534	1792.89207
532.008	1741.88787
532.482	1713.64143
532.956	1528.85711
533.429	1576.75386
533.903	1472.2734
534.376	1371.20435
534.849	1293.23409
535.322	1246.25313
535.795	1201.26107
536.268	1166.22227
536.741	1058.01787
537.213	1067.95369
537.686	1017.03345
538.158	995.83254
538.631	970.93772
539.103	888.66492
539.575	851.44188
540.047	854.54762
540.519	808.64806
540.991	783.64431
541.463	698.46983
541.934	692.35944
542.406	741.5451
542.877	651.2899
543.348	669.42505
543.82	607.31969
544.291	635.31211
544.762	570.22102
545.233	595.35918
545.703	495.00136
546.174	527.10712
546.645	608.31598
547.115	504.11193
547.585	431.91817
548.056	447.01862
548.526	482.05
548.996	405.90431
549.466	419.94946
549.935	438.97172
550.405	389.79772
550.875	401.89058
551.344	373.83632
551.814	366.78869
552.283	353.72521
552.752	385.84688
553.221	330.69034
553.69	390.82524
554.159	331.78412
554.628	354.75759
555.096	334.80875
555.565	255.54279
556.033	374.84011
556.502	246.57344
556.97	255.54656
557.438	319.71232
557.906	265.60152
558.374	305.67487
558.842	258.59572
559.31	293.62665
559.777	243.57457
560.245	213.47466
560.712	199.44402
561.18	237.50711
561.647	202.43605
562.114	283.62123
562.581	221.52801
563.048	215.47832
563.514	276.66607
563.981	196.43777
564.448	228.49914
564.914	201.45459
565.381	232.51325
565.847	217.49058
566.313	194.43885
566.779	183.40257
567.245	182.41188
567.711	202.47088
568.176	194.42453
568.642	190.46719
569.108	237.56364
569.573	173.39191
570.038	209.42434
570.504	223.4885
570.969	152.37017
571.434	252.53908
571.899	147.34301
572.363	241.53394
572.828	262.57937
573.293	164.36888
573.757	260.58095
574.222	202.44091
574.686	231.51456
575.15	230.53657
575.614	271.61514
576.078	173.3978
576.542	239.52642
577.006	199.43832
577.469	202.48382
577.933	224.49514
578.396	190.43977
578.86	181.41669
579.323	163.38572
579.786	203.42891
580.249	259.58814
580.712	174.41422
581.175	119.29019
581.637	148.33248
582.1	131.28225
582.563	139.2915
583.025	152.3638
583.487	178.35884
583.95	93.19874
584.412	161.33241
584.874	140.33661
585.336	108.25424
585.797	173.36889
586.259	115.26666
586.721	134.31041
587.182	128.29168
587.643	133.2986
588.105	107.25086
588.566	89.18532
589.027	199.47528
589.488	111.25289
589.949	120.28842
590.41	123.24174
590.87	109.24783
591.331	179.38318
591.791	134.30659
592.252	142.32633
592.712	122.28921
593.172	148.3318
593.632	139.30527
594.092	123.27149
594.552	123.2641
595.011	99.22555
595.471	146.32637
595.931	131.29254
596.39	89.21281
596.849	92.21337
597.308	35.07528
597.768	98.25107
598.227	101.24104
598.685	98.22224
599.144	91.21368
599.603	48.11269
600.062	85.17904
600.52	124.27742
600.978	126.2943
601.437	105.23719
601.895	97.2072
602.353	72.15829
602.811	95.21346
603.269	76.18037
603.727	67.16076
604.184	99.22446
604.642	93.22721
605.099	116.2685
605.557	80.19381
606.014	51.1105
606.471	70.17524
606.928	105.23205
607.385	110.27298
607.842	66.15149
608.299	89.20711
608.755	80.19308
609.212	73.16288
609.668	70.15803
610.125	74.17786
610.581	78.18233
611.037	42.09463
611.493	-3.00709
611.949	112.27021
612.405	72.14695
612.861	24.05562
613.316	73.17442
613.772	75.17143
614.227	95.22681
614.683	106.22293
615.138	97.22581
615.593	39.0909
616.048	89.20252
616.503	29.07072
616.958	70.17467
617.412	43.10239
617.867	54.12111
618.321	61.12611
618.776	47.10387
619.23	58.13579
619.684	38.08516
620.138	78.17767
620.592	45.10924
621.046	55.12995
621.5	38.09165
621.954	12.02678
622.407	51.1129
622.861	40.09723
623.314	35.07952
623.768	90.21096
624.221	4.00798
624.674	5.01166
625.127	38.08855
625.58	35.07884
626.033	61.13312
626.485	30.07197
626.938	83.19626
627.39	94.21784
627.843	49.11295
628.295	45.10381
628.747	52.12384
629.199	45.10252
629.651	16.03692
630.103	5.01157
630.555	18.03821
631.006	20.04672
631.458	0
631.909	-2.00452
632.361	6.01394
632.812	54.12474
633.263	89.19151
633.714	31.06587
634.165	8.01929
634.616	17.04035
635.067	43.09471
635.518	75.17652
635.968	19.03759
636.419	59.12854
636.869	60.14147
637.319	56.12957
637.769	46.10338
638.219	27.06382
638.669	-7.01678
639.119	34.08135
639.569	16.03851
640.019	80.18333
640.468	20.04504
640.918	29.06884
641.367	27.06062
641.816	6.01343
642.265	98.22602
642.714	37.08488
643.163	85.19475
643.612	67.16326
644.061	34.07292
644.51	38.08719
644.958	60.13208
645.406	25.05987
645.855	-13.03183
646.303	35.08093
646.751	58.13377
647.199	52.11759
647.647	63.14562
648.095	-11.02533
648.543	29.05907
648.99	14.03378
649.438	49.11304
649.885	64.15865
650.333	49.09517
650.78	50.12049
651.227	31.07591
651.674	57.12965
652.121	32.07854
652.568	23.05646
653.015	-3.00747
653.461	17.04056
653.908	22.05066
654.354	20.04774
654.801	4.00944
655.247	39.08446
655.693	5.01304
656.139	33.07873
656.585	47.11191
657.031	14.03305
657.477	44.09612
657.922	-15.03444
658.368	-12.0297
658.813	18.04105
659.259	42.10164
659.704	83.19497
660.149	1.00232
660.594	46.10888
661.039	3.00688
661.484	53.12499
661.929	49.11412
662.373	29.07272
662.818	-7.01741
663.262	24.0581
663.707	11.02805
664.151	23.05611
664.595	35.08455
665.039	32.0793
665.483	17.04329
665.927	24.05637
666.371	19.04482
666.814	30.07123
667.258	27.0651
667.701	49.10417
668.145	60.1483
668.588	35.08656
669.031	7.01653
669.474	-27.06542
669.917	21.04612
670.36	9.02252
670.803	54.12979
671.245	1.00206
671.688	42.10183
672.13	29.06564
672.573	40.10061
673.015	55.13187
673.457	50.1084
673.899	21.05081
674.341	6.0145
674.783	8.01923
675.225	50.12241
675.666	37.09033
676.108	38.082
676.549	22.05125
676.991	55.12003
677.432	-17.03414
677.873	-48.11115
678.314	29.06889
678.755	53.12987
679.196	38.08659
679.637	-4.00961
680.078	44.10229
680.518	-20.04627
680.959	3.00716
681.399	15.03711
681.839	32.07741
682.28	30.07434
682.72	-17.03915
683.16	62.1533
683.6	60.13534
684.039	-12.02497
684.479	51.12506
684.919	55.12849
685.358	-35.08779
685.798	-24.06278
686.237	-15.03595
686.676	-5.01135
687.115	17.04003
687.554	55.13056
687.993	35.07713
688.432	-22.05056
688.871	27.06176
689.309	19.0455
689.748	-1.00209
690.186	-15.03524
690.625	16.03755
691.063	-3.00717
691.501	42.10316
691.939	59.14714
692.377	-2.00485
692.815	78.18825
693.253	1.00238
693.69	-48.10637
694.128	-19.04633
694.565	25.05898
695.003	73.18417
695.44	25.059
695.877	9.02117
696.314	-22.04662
696.751	-15.03412
697.188	53.12173
697.625	8.01788
698.061	-44.10624
698.498	-40.09523
698.934	8.01908
699.371	17.03989
699.807	26.06104
700.243	57.13598
700.679	-8.01786
701.115	9.02094
701.551	-6.01394
701.987	-62.13711
702.422	32.07589
702.858	28.0664
703.294	106.23793
703.729	-7.01702
704.164	1.00238
704.599	45.09958
705.035	-1.00224
705.47	6.01452
705.904	-43.1003
706.339	34.07742
706.774	3.00701
707.209	70.16055
707.643	-1.00239
708.078	9.0218
708.512	-11.02757
708.946	6.01416
709.38	28.06604
709.814	10.02254
710.248	11.02679
710.682	56.13286
711.116	68.16325
711.549	-34.08698
711.983	0
712.416	86.20032
712.85	21.05161
713.283	27.06323
713.716	3.0074
714.149	-28.06496
714.582	15.03352
715.015	-24.05886
715.448	55.13667
715.881	9.01922
716.313	45.10381
716.746	10.02355
717.178	11.0263
717.61	73.18252
718.043	-10.02462
718.475	14.03375
718.907	38.09372
719.339	-29.06594
719.77	75.17645
720.202	-10.02495
720.634	-6.01469
721.065	-6.01409
721.497	57.13739
721.928	-15.03657
722.359	-14.03404
722.79	2.00476
723.221	-20.04953
723.652	35.08783
724.083	38.08435
724.514	23.05234
724.945	-27.0632
725.375	14.0325
725.806	-6.01471
726.236	22.05563
726.666	3.00703
727.096	42.10125
727.526	36.09168
727.956	41.0925
728.386	30.07262
728.816	61.15362
729.246	59.14329
729.675	-50.12222
730.105	15.03631
730.534	21.04839
730.964	31.07627
731.393	70.16786
731.822	47.11828
732.251	-2.00504
732.68	-10.023
733.109	4.00979
733.537	61.14664
733.966	71.17391
734.395	57.12939
734.823	21.04583
735.251	-2.00477
735.68	3.00733
736.108	18.04444
736.536	-8.0186
736.964	3.00689
737.392	64.15668
737.82	7.01653
738.247	-9.02128
738.675	27.06248
739.102	13.03207
739.53	70.17663
739.957	38.09701
740.384	8.01904
740.811	-32.07927
741.238	24.05819
741.665	61.14077
742.092	-79.18253
742.519	-5.01233
742.945	61.14558
743.372	48.11734
743.798	31.07818
744.225	-35.08254
744.651	19.0469
745.077	24.05902
745.503	-50.12059
745.929	52.12379
746.355	24.05749
746.781	-6.0146
747.207	3.00707
747.632	72.17522
748.058	57.14112
748.483	41.09258
748.908	40.09807
749.334	37.08986
749.759	54.12638
750.184	31.07373
750.609	18.04349
751.033	21.04823
751.458	27.05917
751.883	-13.03171
752.307	32.07413
752.732	49.12331
753.156	-12.0293
753.58	36.08329
754.005	12.0297
754.429	19.04453
754.853	2.00494
755.277	9.02115
755.7	21.0514
756.124	-19.04695
756.548	-12.02811
756.971	30.07202
757.394	-25.06348
757.818	18.04586
758.241	40.09999
758.664	33.082
759.087	30.06668
759.51	-16.03911
759.933	23.05491
760.356	35.08899
760.778	33.07975
761.201	16.03806
761.623	-34.08035
762.046	25.05733
762.468	56.13091
762.89	21.05037
763.312	39.09383
763.734	32.07589
764.156	66.15923
764.578	-9.02026
765	60.14289
765.421	25.06294
765.843	24.06183
766.264	6.01399
766.686	6.01467
767.107	7.01674
767.528	44.11114
767.949	18.04496
768.37	38.09261
768.791	3.00709
769.212	28.06951
769.632	5.01158
770.053	-28.07259
770.473	45.106
770.894	-17.04132
771.314	59.1354
771.734	9.02065
772.154	38.09496
772.575	25.05643
772.994	-19.04254
773.414	29.06746
773.834	31.07565
774.254	-5.01203
774.673	56.13398
775.093	33.08071
775.512	-1.00244
775.931	49.12163
776.351	37.09056
776.77	59.14156
777.189	3.00702
777.607	23.05769
778.026	35.08545
778.445	34.08478
778.864	-6.01498
779.282	-8.01877
779.701	28.06883
780.119	-18.04518
780.537	-17.04178
780.955	33.08155
781.373	43.10368
781.791	49.1087
782.209	-1.00221
782.627	30.07753
783.045	1.00223
783.462	10.02511
783.88	15.03822
784.297	-19.04725
784.715	27.06836
785.132	-18.0427
785.549	-14.03449
785.966	29.07143
786.383	14.03401
786.8	50.11279
787.217	36.08422
787.633	24.05934
788.05	-1.00228
788.466	17.03862
788.883	38.09568
789.299	6.01396
789.715	66.1564
790.131	13.0317
790.547	41.09957
790.963	30.07257
791.379	7.01739
791.795	7.01544
792.21	5.01136
792.626	17.03904
793.041	-7.01694
793.457	46.10976
793.872	-46.10592
794.287	24.05694
794.702	3.00712
795.117	26.06346
795.532	26.06427
795.947	21.04852
796.362	5.01141
796.776	48.10655
797.191	24.05749
797.605	8.01864
798.02	-4.00953
798.434	58.12462
798.848	61.14786
799.262	10.02429
799.676	49.11596
800.09	-8.01929
800.504	4.00944
800.918	-12.02696
801.331	-8.02009
801.745	-34.07635
802.158	-27.06579
802.572	33.07779
802.985	19.04427
803.398	34.07845
803.811	8.01967
804.224	28.06686
804.637	42.09752
805.05	5.0112
805.462	16.03808
805.875	16.04072
806.288	-26.06213
806.7	30.07254
807.112	-35.07897
807.525	-46.11001
807.937	68.16288
808.349	-29.07088
808.761	38.09116
809.173	-21.0502
809.584	-2.0048
809.996	-40.09632
810.408	25.06372
810.819	-32.0741
811.231	62.16123
811.642	53.12789
812.053	15.03576
812.464	10.02307
812.875	17.04264
813.286	19.04821
813.697	15.03314
814.108	29.06839
814.519	80.17248
814.929	5.01241
815.34	16.03733
815.75	28.06992
816.16	-5.01201
816.571	-28.07123
816.981	0
817.391	-28.06561
817.801	40.0968
818.211	29.06679
818.62	24.05645
819.03	42.0993
819.44	20.04994
819.849	-12.02925
820.259	11.02712
820.668	14.03369
821.077	35.08522
821.486	-11.02551
821.895	12.02838
822.304	33.08486
822.713	6.01373
823.122	-28.06837
823.531	-57.13097
823.939	24.05705
824.348	13.0305
824.756	13.03149
825.164	21.05106
825.573	26.06342
825.981	62.14715
826.389	22.05356
826.797	67.16485
827.205	42.09377
827.612	-9.02155
828.02	-5.01137
828.428	16.03959
828.835	-16.04161
829.243	41.09352
829.65	-15.0368
830.057	35.08167
830.464	35.08366
830.871	42.09752
831.278	21.04925
831.685	-16.03458
832.092	0
832.499	-21.04503
832.905	-17.04178
833.312	32.0689
833.718	69.16669
834.124	47.10361
834.531	1.00243
834.937	50.12454
835.343	18.0417
835.749	-26.05834
836.155	18.04589
836.561	9.02155
836.966	53.12426
837.372	4.00986
837.777	1.00244
838.183	54.11427
838.588	43.10392
838.993	62.14522
839.399	23.05479
839.804	-24.05736
840.209	48.11969
840.613	11.02361
841.018	3.00735
841.423	24.05984
841.828	56.1374
842.232	14.03302
842.637	67.15339
843.041	5.01256
843.445	-11.0267
843.849	37.08898
844.253	62.14083
844.657	-1.00247
845.061	42.09342
845.465	2.0047
845.869	45.10053
846.272	-8.0191
846.676	-20.04629
847.079	12.02994
847.483	50.11986
847.886	63.14562
848.289	56.14667
848.692	-15.03682
849.095	24.05546
849.498	34.08203
849.901	7.01539
850.304	28.06453
850.707	-1.00247
851.109	49.11887
851.512	23.05491
851.914	-7.01735
852.316	24.05958
852.718	59.15113
853.121	21.04989
853.523	20.04482
853.925	16.04108
854.326	15.03669
854.728	0
855.13	-1.00254
855.531	9.02092
855.933	26.05963
856.334	30.07306
856.736	62.13424
857.137	53.11948
857.538	41.10043
857.939	48.11616
858.34	-8.01875
858.741	15.03799
859.142	24.05538
859.542	34.08772
859.943	11.02651
860.343	-2.00486
860.744	-6.01423
861.144	69.16303
861.544	0
861.945	10.02474
862.345	16.0377
862.745	23.05582
863.145	21.0475
863.544	9.02218
863.944	40.09089
864.344	35.08276
864.743	60.14278
865.143	53.13266
865.542	-24.05345
865.941	45.10785
866.34	-3.00688
866.74	-22.05795
867.139	8.01885
867.537	34.0828
867.936	6.01408
868.335	-1.00247
868.734	20.04971
869.132	-10.02225
869.531	3.00695
869.929	-12.02671
870.327	8.01858
870.726	-10.02401
871.124	19.04248
871.522	-31.077
871.92	17.04062
872.318	-17.04017
872.715	18.04244
873.113	-19.04484
873.511	6.01446
873.908	-18.04518
874.306	16.03894
874.703	5.01202
875.1	13.03178
875.497	-14.03251
875.894	41.09882
876.291	40.09486
876.688	53.13208
877.085	6.01384
877.482	32.07735
877.878	40.09413
878.275	21.05188
878.671	-31.0649
879.068	50.11587
879.464	64.14814
879.86	8.01831
880.256	15.03522
880.652	13.03208
881.048	-30.07178
881.444	-8.01819
881.84	29.07119
882.236	1.00244
882.631	35.08337
883.027	60.1386
883.422	-3.00742
883.817	21.05157
884.213	-7.01751
884.608	53.12799
885.003	-65.15257
885.398	-16.0391
885.793	-10.02433
886.188	-31.07517
886.582	34.08345
886.977	15.03413
887.371	-12.02934
887.766	-13.03171
888.16	-6.01429
888.554	14.03325
888.949	27.0655
889.343	8.01882
889.737	16.04192
890.131	13.03163
890.525	38.09461
890.918	17.04141
891.312	37.0842
891.706	2.0051
892.099	9.02215
892.492	-8.01655
892.886	18.04247
893.279	-1.00247
893.672	8.01993
894.065	48.11589
894.458	-32.07782
894.851	27.06335
895.244	-8.01989
895.637	14.03274
896.029	30.07128
896.422	-6.01405
896.814	-17.04102
897.206	48.11146
897.599	79.18652
897.991	14.03298
898.383	57.12934
898.775	35.07683
899.167	6.01376
899.559	2.00487
899.951	11.0248
900.342	4.00978
900.734	41.10065
901.125	14.03541
901.517	-17.04073
901.908	-7.01602
902.299	41.09688
902.69	52.11883
903.082	-3.00705
903.473	53.12392
903.863	-5.01234
904.254	35.07913
904.645	10.02376
905.036	39.09293
905.426	39.08417
905.817	-13.0308
906.207	-18.0412
906.597	46.1044
906.987	17.04235
907.378	41.10065
907.768	10.02582
908.158	3.00707
908.547	46.11649
908.937	-39.0967
909.327	-5.01175
909.717	6.01452
910.106	-3.00695
910.495	15.0358
910.885	44.10776
911.274	-16.03888
911.663	-6.01467
912.052	34.07982
912.441	9.0224
912.83	26.05692
913.219	49.12322
913.608	52.12289
913.997	-11.02713
914.385	27.06216
914.774	27.06325
915.162	56.12952
915.55	32.07392
915.939	-21.05216
916.327	9.02158
916.715	54.13475
917.103	3.00702
917.491	38.09019
917.878	26.06152
918.266	5.01255
918.654	59.14629
919.041	17.0437
919.429	34.07713
919.816	16.03923
920.203	66.15489
920.591	2.00482
920.978	5.01186
921.365	2.00513
921.752	-2.00454
922.139	69.14227
922.525	57.1318
922.912	14.03287
923.299	0
923.685	-14.03529
924.072	-14.03046
924.458	39.09358
924.844	26.06218
925.231	-16.03577
925.617	23.05732
926.003	3.00742
926.389	7.01712
926.774	-11.02702
927.16	64.15201
927.546	22.05535
927.931	27.06459
928.317	39.0854
928.702	3.00683
929.088	64.14831
929.473	7.01744
929.858	48.11374
930.243	79.18304
930.628	25.05939
931.013	15.03605
931.398	-3.00654
931.783	42.1056
932.167	52.12351
932.552	43.10337
932.937	22.05239
933.321	27.06609
933.705	15.03617
934.09	-10.02404
934.474	-23.05253
934.858	16.04037
935.242	-22.04934
935.626	13.03247
936.009	31.08082
936.393	52.12933
936.777	46.11437
937.16	35.08887
937.544	7.01564
937.927	10.02477
938.311	62.14374
938.694	39.10011
939.077	-8.01858
939.46	-31.07245
939.843	34.06583
940.226	3.00743
940.609	59.1311
940.991	-24.05921
941.374	23.05466
941.757	-5.01192
942.139	51.10993
942.522	42.09451
942.904	44.1016
943.286	18.0441
943.668	47.11883
944.05	11.02625
944.432	-1.00238
944.814	14.03297
945.196	9.02143
945.578	19.04441
945.959	-64.14525
946.341	7.01628
946.722	-16.0362
947.104	45.10327
947.485	9.02022
947.866	45.11023
948.247	37.09103
948.628	-10.02317
949.009	26.06443
949.39	-2.0048
949.771	-23.0506
950.152	30.07109
950.532	58.14115
950.913	-2.00466
951.293	26.06888
951.674	47.10911
952.054	41.09987
952.434	25.06005
952.814	-4.0091
953.194	-12.03018
953.574	46.10825
953.954	-22.05017
954.334	72.17358
954.714	-15.03574
955.093	46.10858
955.473	31.07574
955.853	31.07768
956.232	-21.05626
956.611	-19.04362
956.99	20.04885
957.37	-35.08656
957.749	-26.05927
958.128	4.00985
958.506	22.05543
958.885	-2.00488
959.264	74.1759
959.643	52.11389
960.021	44.10575
960.4	-46.10143
960.778	-19.04477
961.156	-11.02669
961.535	-20.04471
961.913	34.07688
962.291	-14.0355
962.669	-1.00248
963.047	13.03236
963.424	97.23989
963.802	24.05711
964.18	-12.02901
964.557	26.05716
964.935	44.09978
965.312	17.04323
965.69	-11.02649
966.067	-14.03269
966.444	-23.05403
966.821	25.06246
967.198	10.02313
967.575	35.08215
967.952	-10.02274
968.329	61.14313
968.705	73.14937
969.082	45.113
969.458	9.0212
969.835	29.06796
970.211	45.11267
970.587	35.08417
970.963	31.07608
971.339	-30.07705
971.715	15.03632
972.091	-5.01193
972.467	-2.00476
972.843	47.11363
973.219	52.11816
973.594	3.00764
973.97	-6.01342
974.345	37.08552
974.721	-17.03931
975.096	51.11943
975.471	-15.03434
975.846	-25.05792
976.221	18.04433
976.596	54.12633
976.971	40.09577
977.346	28.062
977.72	-6.01478
978.095	25.06246
978.469	39.08885
978.844	65.15548
979.218	46.10761
979.593	14.03217
979.967	-41.09548
980.341	14.03121
980.715	23.05617
981.089	36.08672
981.463	7.0155
981.837	28.06684
982.21	-53.11684
982.584	-40.09475
982.957	34.08243
983.331	-8.018
983.704	44.10535
984.078	-14.03346
984.451	-7.01659
984.824	-23.05491
985.197	-18.04175
985.57	-13.03114
985.943	-14.03291
986.316	-17.03984
986.688	-6.01398
987.061	48.1081
987.434	50.12742
987.806	-25.05802
988.179	-2.00454
988.551	26.06337
988.923	-29.06911
989.295	41.09793
989.667	-12.02828
990.039	47.11367
990.411	-71.15731
990.783	2.00437
991.155	-17.03989
991.527	0
991.898	24.05806
992.27	31.07472
992.641	-16.03875
993.012	-24.05325
993.384	56.12694
993.755	53.13079
994.126	6.01409
994.497	-32.07659
994.868	11.024
995.239	-3.00701
995.61	-26.06386
995.98	-18.04239
996.351	4.00967
996.722	65.14557
997.092	-3.00692
997.462	-10.02294
997.833	-5.01135
998.203	-9.02079
998.573	-2.00485
998.943	52.1173
999.313	24.05575
999.683	35.08103
1000.053	-37.08064
1000.423	6.01397
1000.792	4.00994
1001.162	-5.01184
1001.531	51.12088
1001.901	-16.03854
1002.27	-10.02108
1002.639	-10.02464
1003.009	16.03655
1003.378	12.02979
1003.747	21.04736
1004.116	-23.05333
1004.485	10.02304
1004.853	-14.03397
1005.222	-39.09415
1005.591	74.16652
1005.959	16.03482
1006.328	-16.03498
1006.696	-18.04193
1007.064	-9.02175
1007.433	-3.0072
1007.801	-9.02101
1008.169	-47.11474
1008.537	66.13838
1008.905	37.08327
1009.273	37.08709
1009.64	66.15246
1010.008	17.03892
1010.375	51.11615
1010.743	-10.02154
1011.11	69.15898
1011.478	42.10068
1011.845	32.07168
1012.212	44.09637
1012.579	17.04035
1012.946	26.05867
1013.313	40.09027
1013.68	3.00644
1014.047	-15.03463
1014.414	-13.02967
1014.78	39.09365
1015.147	6.01382
1015.513	57.13128
1015.88	32.07825
1016.246	26.06092
1016.612	66.14211
1016.978	13.03098
1017.344	22.05256
1017.71	19.04428
1018.076	21.04701
1018.442	54.13401
1018.808	55.13327
1019.174	-15.03632
1019.539	-18.03821
1019.905	58.13137
1020.27	5.01191
1020.636	8.01822
1021.001	74.16931
1021.366	-9.02104
1021.731	44.11063
1022.096	26.06398
1022.461	9.0206
1022.826	68.15539
1023.191	4.0102
1023.556	-22.04965
1023.92	15.03519
1024.285	18.04181
1024.649	-14.03303
1025.014	-43.10258
1025.378	-20.04927
1025.742	-45.10805
1026.107	28.06034
1026.471	17.03784
1026.835	31.07396
1027.199	-1.00233
1027.562	2.00443
1027.926	2.00469
1028.29	-6.01475
1028.654	13.02859
1029.017	28.06645
1029.381	19.04387
1029.744	-7.01736
1030.107	25.05677
1030.471	36.0832
1030.834	-17.03669
1031.197	54.1241
1031.56	15.03383
1031.923	18.04514
1032.286	34.07644
1032.648	7.01588
1033.011	41.09141
1033.374	14.03124
1033.736	-24.0617
1034.099	34.0797
1034.461	20.04925
1034.823	16.03867
1035.185	-16.03873
1035.548	28.06589
1035.91	2.00461
1036.272	58.12639
1036.634	72.16778
1036.995	-3.00674
1037.357	42.0986
1037.719	-1.00236
1038.08	85.19334
1038.442	8.01826
1038.803	-56.12895
1039.165	-28.06845
1039.526	14.03264
1039.887	32.07336
1040.248	51.12274
1040.609	12.02827
1040.97	40.09343
1041.331	43.10552
1041.692	40.09119
1042.053	3.00652
1042.413	12.02668
1042.774	11.02587
1043.134	-12.02722
1043.495	16.03882
1043.855	75.17542
1044.215	-2.00477
1044.576	-33.07734
1044.936	14.0306
1045.296	37.08871
1045.656	7.01639
1046.016	61.13954
1046.375	13.03039
1046.735	13.02889
1047.095	13.02928
1047.454	-8.01605
1047.814	40.09226
1048.173	30.06762
1048.533	-4.00883
1048.892	-11.0257
1049.251	-13.03141
1049.61	10.02381
1049.969	10.0226
1050.328	14.02903
1050.687	6.01399
1051.046	16.03736
1051.405	-39.09358
1051.763	11.02463
1052.122	-6.01448
1052.48	37.08742
1052.839	51.11671
1053.197	-24.05467
1053.555	34.0722
1053.914	39.09115
1054.272	-9.02055
1054.63	6.01421
1054.988	21.04848
1055.345	-20.0408
1055.703	3.00698
1056.061	60.15004
1056.419	36.09149
1056.776	-52.12074
1057.134	-4.00875
1057.491	14.03388
1057.848	16.03816
1058.206	-25.05597
1058.563	37.07742
1058.92	35.07667
1059.277	25.05935
1059.634	29.06433
1059.991	78.1781
1060.348	49.10598
1060.704	68.15833
1061.061	16.03491
1061.418	-29.06847
1061.774	22.05233
1062.131	56.14498
1062.487	32.07115
1062.843	18.04325
1063.199	2.00482
1063.555	2.00451
1063.911	23.05563
1064.267	-21.04133
1064.623	39.09204
1064.979	-39.08623
1065.335	11.02505
1065.691	3.00682
1066.046	54.11222
1066.402	-41.0897
1066.757	11.02686
1067.112	37.08668
1067.468	-22.05112
1067.823	12.02715
1068.178	1.00232
1068.533	41.09518
1068.888	14.03198
1069.243	-20.04794
1069.598	14.03252
1069.952	17.03762
1070.307	-23.05567
1070.662	21.04862
1071.016	85.1829
1071.371	70.15195
1071.725	25.0568
1072.079	8.0186
1072.434	24.05634
1072.788	-53.12119
1073.142	67.15751
1073.496	10.02277
1073.85	30.0664
1074.203	37.0862
1074.557	-6.01574
1074.911	36.08157
1075.265	-5.01119
1075.618	41.09609
1075.971	7.01601
1076.325	34.08398
1076.678	-12.02652
1077.031	-89.19283
1077.385	-2.00421
1077.738	8.01728
1078.091	-10.02217
1078.444	2.00441
1078.796	22.05235
1079.149	22.05286
1079.502	36.08214
1079.855	17.03814
1080.207	30.07073
1080.56	-21.05326
1080.912	3.00703
1081.264	59.13627
1081.617	21.04948
1081.969	3.00738
1082.321	-16.03771
1082.673	53.11728
1083.025	8.01814
1083.377	-44.10047
1083.728	17.03782
1084.08	-37.08935
1084.432	11.02544
1084.783	-18.03987
1085.135	12.02921
1085.486	26.05738
1085.838	4.00956
1086.189	38.08935
1086.54	23.05246
1086.891	41.10184
1087.242	51.12116
1087.593	-7.0162
1087.944	46.10024
1088.295	21.04554
1088.646	103.24148
1088.996	-4.00938
1089.347	7.01646
1089.698	-29.06738
1090.048	-35.08817
1090.398	12.02652
1090.749	-10.02289
1091.099	56.13694
1091.449	47.11286
1091.799	29.06987
1092.149	12.0287
1092.499	-13.03074
1092.849	15.03693
1093.199	-18.04338
1093.548	55.12784
1093.898	-6.01448
1094.248	-35.08681
1094.597	21.05256
1094.947	8.02079
1095.296	41.09781
1095.645	8.02007
1095.994	-6.01393
1096.343	52.12607
1096.692	21.05441
1097.041	15.04016
1097.39	8.01927
1097.739	-1.00252
1098.088	12.03097
1098.437	6.01556
1098.785	19.04926
1099.134	-5.01269
1099.482	41.1097
1099.83	41.10403
1100.179	62.15873
1100.527	-35.08987
1100.875	6.01555
1101.223	10.026
1101.571	-38.10269
1101.919	27.06996
1102.267	28.07745
1102.615	-2.00643
1102.962	-6.01926
1103.31	4.01285
1103.658	-2.00641
