Data from N1 R2 sample 12_Subt2__4__13-01-47-748.txt Node

Date: Wed Sep 17 13:01:47 PDT 2025
User: uwsun
Spectrometer: HDX01956
Trigger mode: 0
Integration Time (sec): 5.000000E-1
Scans to average: 1
Nonlinearity correction enabled: true
Boxcar width: 0
Storing dark spectrum: false
XAxis mode: Wavelengths
Number of Pixels in Spectrum: 2068
>>>>>Begin Spectral Data<<<<<
194.03	-10.02907
194.578	6.01949
195.127	-10.0321
195.676	4.01286
196.225	12.03198
196.773	-24.06732
197.321	-3.0084
197.87	22.05743
198.418	51.13342
198.966	49.13106
199.513	56.14457
200.061	9.02341
200.609	2.0054
201.156	35.07845
201.704	18.04631
202.251	44.11879
202.798	25.06607
203.345	87.21784
203.892	41.10554
204.438	29.07032
204.985	19.04626
205.532	2.00538
206.078	19.04747
206.624	48.12267
207.17	96.22766
207.716	55.13732
208.262	52.1056
208.808	64.16333
209.354	79.19802
209.899	28.07191
210.445	50.12733
210.99	58.14404
211.535	54.12974
212.08	40.09486
212.625	12.03068
213.17	68.17568
213.715	57.13285
214.259	52.12379
214.804	29.07256
215.348	60.1413
215.892	67.16521
216.436	27.06305
216.98	-4.00905
217.524	58.14109
218.068	75.19157
218.612	67.1727
219.155	93.22204
219.698	50.121
220.242	37.09284
220.785	61.14553
221.328	44.11039
221.871	91.23359
222.414	12.03028
222.956	20.04878
223.499	18.04102
224.041	-21.04935
224.583	-17.03693
225.126	39.08706
225.668	50.12304
226.21	69.17631
226.751	65.14671
227.293	3.00694
227.835	32.0797
228.376	33.07628
228.918	27.06824
229.459	26.06593
230	59.14339
230.541	53.12343
231.082	47.11598
231.622	19.0438
232.163	47.11474
232.704	71.17925
233.244	25.06303
233.784	10.02468
234.324	71.16163
234.864	58.13254
235.404	17.04074
235.944	29.06937
236.484	61.15367
237.023	7.01683
237.563	90.21047
238.102	52.12446
238.641	9.02301
239.18	31.07401
239.719	44.11146
240.258	57.1296
240.797	71.17107
241.335	32.07892
241.874	81.15965
242.412	49.12065
242.95	80.19483
243.488	11.02521
244.026	44.10394
244.564	59.12324
245.102	25.05781
245.64	62.14936
246.177	-7.01594
246.715	60.14569
247.252	48.11035
247.789	66.12412
248.326	34.08327
248.863	2.00452
249.4	60.13761
249.936	104.21921
250.473	68.16251
251.009	-22.05177
251.546	87.19597
252.082	11.02429
252.618	49.11128
253.154	44.1074
253.69	13.02979
254.226	72.17397
254.761	60.13634
255.297	32.07118
255.832	49.11815
256.367	72.17068
256.903	100.22364
257.438	38.09043
257.972	51.11521
258.507	52.12084
259.042	76.16702
259.576	87.19436
260.111	31.07239
260.645	87.18938
261.179	67.15868
261.713	80.18083
262.247	39.09043
262.781	69.14739
263.315	23.05671
263.849	39.09902
264.382	36.08405
264.915	79.18861
265.449	16.03979
265.982	68.15615
266.515	102.251
267.048	-5.01091
267.58	61.13323
268.113	32.07059
268.646	50.12377
269.178	58.13131
269.71	116.25738
270.243	64.15019
270.775	92.23727
271.307	29.07006
271.838	67.15972
272.37	62.15342
272.902	95.21626
273.433	60.13501
273.965	43.10591
274.496	52.13032
275.027	36.091
275.558	82.20171
276.089	31.07874
276.62	-6.01544
277.15	81.20039
277.681	52.1136
278.211	54.13318
278.741	78.17516
279.272	33.07697
279.802	22.05565
280.332	78.1859
280.861	27.06567
281.391	49.11313
281.921	14.03412
282.45	58.1453
282.98	16.0424
283.509	105.24028
284.038	85.19632
284.567	85.19967
285.096	84.20541
285.625	1.00231
286.153	69.16688
286.682	60.13987
287.21	44.10628
287.739	39.09368
288.267	31.07686
288.795	58.15294
289.323	53.12639
289.851	68.16201
290.378	41.09303
290.906	64.15854
291.433	48.12129
291.961	74.17122
292.488	60.15048
293.015	55.13187
293.542	83.21513
294.069	85.21244
294.596	18.04483
295.122	109.26272
295.649	64.14206
296.175	57.13895
296.702	81.20003
297.228	89.21574
297.754	68.15514
298.28	115.26602
298.806	85.20666
299.332	47.1073
299.857	78.17954
300.383	76.1928
300.908	99.2451
301.433	63.15655
301.958	23.05392
302.483	37.09321
303.008	90.22571
303.533	48.12542
304.058	5.01195
304.582	68.16288
305.107	34.08987
305.631	84.19258
306.155	44.10447
306.679	68.16226
307.203	93.21804
307.727	77.18468
308.251	80.1994
308.775	143.34806
309.298	57.13962
309.822	30.07672
310.345	84.20312
310.868	103.25033
311.391	63.15729
311.914	91.2299
312.437	100.23082
312.96	66.15791
313.482	44.10535
314.005	48.12164
314.527	45.11864
315.049	80.2046
315.571	88.20086
316.093	76.19047
316.615	52.12688
317.137	144.31472
317.659	53.13055
318.18	24.05847
318.702	131.30832
319.223	65.13535
319.744	94.21438
320.265	74.18284
320.786	114.28662
321.307	56.14055
321.828	69.15847
322.348	63.15087
322.869	116.27848
323.389	127.2522
323.909	99.22874
324.43	97.23407
324.95	107.24752
325.47	115.28711
325.989	110.26338
326.509	75.17122
327.029	159.36371
327.548	159.36063
328.067	137.33383
328.587	155.38865
329.106	56.1289
329.625	101.26467
330.144	108.25404
330.662	191.44638
331.181	123.29265
331.7	88.20748
332.218	114.25063
332.736	121.28579
333.255	159.3751
333.773	103.24601
334.291	124.3121
334.808	153.34646
335.326	132.29897
335.844	146.3453
336.361	180.46178
336.879	136.32252
337.396	159.38801
337.913	142.33037
338.43	154.34908
338.947	117.28243
339.464	109.23908
339.981	127.30367
340.497	153.37685
341.014	151.36918
341.53	170.38425
342.046	210.52075
342.562	178.44237
343.078	168.39609
343.594	156.37209
344.11	219.52023
344.626	187.47023
345.141	169.38783
345.657	198.44699
346.172	183.44091
346.687	158.36426
347.202	185.42301
347.717	164.39207
348.232	163.40635
348.747	190.43855
349.261	221.48289
349.776	185.43964
350.29	182.45494
350.805	196.48195
351.319	152.35545
351.833	213.4882
352.347	183.43221
352.861	185.43422
353.374	213.48173
353.888	207.50344
354.401	188.42788
354.915	203.45818
355.428	211.52217
355.941	187.43532
356.454	181.40352
356.967	169.39512
357.48	201.45441
357.993	225.54783
358.505	174.42295
359.018	247.59711
359.53	214.519
360.042	240.53272
360.554	241.58305
361.066	200.48414
361.578	250.54683
362.09	241.56675
362.602	236.52232
363.113	243.56589
363.625	269.60168
364.136	252.54725
364.647	241.56543
365.158	276.63119
365.669	221.52357
366.18	184.43297
366.691	269.58055
367.201	263.62017
367.712	287.64484
368.222	288.65067
368.733	274.58691
369.243	306.66931
369.753	269.61011
370.263	319.75015
370.773	243.58345
371.282	318.73978
371.792	322.72688
372.301	257.61096
372.811	315.80335
373.32	311.65852
373.829	280.64728
374.338	340.7333
374.847	338.75708
375.356	295.67992
375.865	368.76233
376.373	406.8835
376.882	400.96923
377.39	415.95528
377.898	370.87495
378.407	435.93916
378.915	458.94833
379.423	434.95884
379.93	569.21966
380.438	455.03146
380.946	472.03296
381.453	526.17458
381.96	619.34923
382.468	619.32755
382.975	631.40849
383.482	641.29966
383.989	672.56319
384.495	694.45244
385.002	700.30799
385.509	809.68927
386.015	867.51034
386.521	885.72247
387.028	927.78128
387.534	895.62003
388.04	1043.07978
388.546	936.73614
389.051	1052.88804
389.557	1117.08509
390.063	1149.06503
390.568	1255.36303
391.073	1205.09014
391.578	1406.59749
392.084	1435.4105
392.589	1400.22796
393.093	1625.76134
393.598	1663.65425
394.103	1824.9149
394.607	2034.1171
395.112	2186.30817
395.616	2299.31305
396.12	2510.10116
396.624	2727.31176
397.128	2953.46747
397.632	3304.3216
398.136	3611.12151
398.639	3826.19297
399.143	4214.40691
399.646	4773.78704
400.15	5280.37237
400.653	5832.97588
401.156	6588.6895
401.659	7661.23851
402.162	9284.01623
402.664	12415.94459
403.167	17461.51326
403.67	32748.56644
404.172	60058.52348
404.674	63858.43483
405.176	63738.15102
405.678	63977.72923
406.18	64011.81569
406.682	63863.44694
407.184	63926.60148
407.686	63841.39382
408.187	55294.17002
408.688	32362.19447
409.19	22335.0984
409.691	18062.97753
410.192	15325.21389
410.693	13176.19266
411.194	11894.64339
411.694	11265.2893
412.195	10324.64861
412.696	9319.0986
413.196	8673.79032
413.696	8457.77046
414.196	8572.71172
414.696	8529.95956
415.196	7969.21695
415.696	7216.68674
416.196	5920.09424
416.695	4683.78326
417.195	3909.29472
417.694	3790.47675
418.194	3523.64188
418.693	3315.13607
419.192	3151.33629
419.691	3083.25705
420.19	3086.4509
420.688	3003.56763
421.187	2795.59341
421.685	2653.21465
422.184	2423.22502
422.682	2107.73397
423.18	1727.70337
423.678	1544.51889
424.176	1527.49576
424.674	1365.2551
425.172	1320.35855
425.669	1236.37188
426.167	1160.12362
426.664	1023.88798
427.161	959.8252
427.659	888.82695
428.156	882.57012
428.652	781.71847
429.149	777.64173
429.646	725.41266
430.143	732.54083
430.639	645.36673
431.135	612.38318
431.632	598.23251
432.128	560.22588
432.624	553.30711
433.12	516.0804
433.616	535.07008
434.111	477.04941
434.607	473.04974
435.103	433.84582
435.598	467.89883
436.093	435.94679
436.588	420.8856
437.083	370.78498
437.578	418.90768
438.073	331.79198
438.568	372.86776
439.062	351.71297
439.557	316.70664
440.051	271.58788
440.546	296.64552
441.04	343.78359
441.534	268.65141
442.028	330.758
442.522	312.71637
443.015	175.36926
443.509	309.71899
444.002	243.57613
444.496	219.46271
444.989	235.55308
445.482	235.56425
445.975	241.54017
446.468	256.53555
446.961	258.54117
447.454	225.49038
447.947	240.55505
448.439	278.65566
448.931	236.52537
449.424	231.5702
449.916	241.56918
450.408	201.44866
450.9	206.48738
451.392	222.54728
451.884	185.41602
452.375	162.39364
452.867	191.41946
453.358	200.44689
453.849	177.37119
454.341	234.51162
454.832	152.32362
455.323	228.55046
455.814	168.37694
456.304	181.4097
456.795	191.42581
457.285	153.33149
457.776	171.38186
458.266	150.35008
458.756	124.2894
459.247	163.38229
459.737	179.42342
460.226	235.51804
460.716	177.41366
461.206	148.34799
461.695	130.3166
462.185	180.41745
462.674	121.27356
463.163	200.43673
463.653	157.32852
464.142	146.3477
464.63	144.34281
465.119	144.32933
465.608	168.3853
466.096	112.24084
466.585	143.32118
467.073	81.19005
467.561	153.35982
468.05	120.27279
468.538	136.32662
469.026	133.31035
469.513	123.25646
470.001	116.26337
470.489	125.29294
470.976	158.36179
471.463	137.33507
471.951	142.34621
472.438	99.23029
472.925	127.2946
473.412	115.27519
473.899	106.24057
474.385	106.25641
474.872	82.19003
475.359	122.29556
475.845	105.21562
476.331	57.12149
476.817	116.27838
477.303	94.21663
477.789	107.25174
478.275	91.22365
478.761	77.18165
479.247	102.22528
479.732	92.22731
480.218	139.35754
480.703	63.15449
481.188	94.20205
481.673	81.18514
482.158	119.25408
482.643	132.3314
483.128	109.25134
483.612	143.3346
484.097	54.12989
484.581	84.19304
485.066	118.28501
485.55	82.1805
486.034	28.06112
486.518	150.35215
487.002	52.12612
487.486	39.09468
487.969	34.08271
488.453	24.05984
488.936	55.12379
489.42	89.19554
489.903	13.03248
490.386	21.04381
490.869	87.18954
491.352	56.13434
491.835	59.12078
492.318	75.16776
492.8	69.14272
493.283	81.20508
493.765	71.17307
494.247	118.27085
494.73	107.2343
495.212	68.16039
495.694	123.28577
496.175	103.24488
496.657	125.29145
497.139	101.17188
497.62	114.27066
498.102	150.36598
498.583	99.24034
499.064	142.31087
499.545	172.38243
500.026	191.42017
500.507	148.33398
500.988	230.55508
501.469	210.50681
501.949	210.50222
502.43	249.57712
502.91	337.67234
503.39	276.65423
503.87	294.66206
504.35	317.702
504.83	329.67773
505.31	381.85916
505.79	348.77402
506.269	475.9965
506.749	484.00702
507.228	497.06555
507.707	642.25691
508.187	679.4232
508.666	701.52364
509.145	782.5625
509.623	823.63124
510.102	897.81613
510.581	963.9153
511.059	1012.09367
511.538	1115.32086
512.016	1237.28487
512.494	1370.45576
512.972	1389.46782
513.45	1517.51763
513.928	1702.8479
514.406	1817.98576
514.884	1878.26576
515.361	2065.05342
515.839	2236.96162
516.316	2411.3017
516.793	2438.5222
517.27	2642.30594
517.747	2776.73808
518.224	2795.08087
518.701	2978.84253
519.178	2986.60138
519.654	3090.2392
520.131	3122.53277
520.607	3156.43453
521.083	3158.95903
521.56	3067.21142
522.036	3114.73867
522.512	3077.51374
522.987	3074.35419
523.463	2990.25192
523.939	3016.55074
524.414	2876.04525
524.89	2841.29167
525.365	2666.96702
525.84	2700.31888
526.315	2572.33599
526.79	2529.9425
527.265	2450.05055
527.74	2391.28577
528.215	2243.02202
528.689	2220.72691
529.164	2155.61025
529.638	2091.35139
530.112	1948.90284
530.587	1963.52679
531.061	1894.99263
531.534	1836.92774
532.008	1841.97284
532.482	1725.65092
532.956	1702.04831
533.429	1615.79389
533.903	1562.35098
534.376	1506.33182
534.849	1353.30141
535.322	1356.38484
535.795	1296.38414
536.268	1322.4261
536.741	1189.19703
537.213	1122.02506
537.686	1132.20406
538.158	1089.95912
538.631	1015.00517
539.103	932.7287
539.575	965.58549
540.047	906.62043
540.519	922.83239
540.991	895.83353
541.463	772.59948
541.934	740.43749
542.406	769.59362
542.877	695.3631
543.348	709.49727
543.82	691.47578
544.291	679.38936
544.762	614.30294
545.233	646.46069
545.703	581.15259
546.174	553.1552
546.645	594.28947
547.115	565.23086
547.585	527.09739
548.056	566.25935
548.526	524.13151
548.996	425.94504
549.466	469.0499
549.935	443.98179
550.405	421.8571
550.875	441.97125
551.344	405.90207
551.814	399.8537
552.283	402.81674
552.752	400.8771
553.221	426.87221
553.69	419.88097
554.159	383.89815
554.628	352.75364
555.096	339.82008
555.565	307.64607
556.033	340.76907
556.502	332.76076
556.97	316.66838
557.438	268.60475
557.906	287.64855
558.374	337.74069
558.842	293.67181
559.31	316.67247
559.777	292.68386
560.245	208.464
560.712	245.54144
561.18	269.57159
561.647	202.43605
562.114	223.49571
562.581	233.5554
563.048	257.56677
563.514	292.70255
563.981	228.50588
564.448	237.51785
564.914	242.54274
565.381	272.59671
565.847	245.55071
566.313	219.49288
566.779	240.52163
567.245	209.47038
567.711	218.50657
568.176	196.42872
568.642	250.60789
569.108	217.51806
569.573	217.48718
570.038	210.42627
570.504	247.53833
570.969	201.485
571.434	260.55523
571.899	255.58235
572.363	274.60287
572.828	283.62306
573.293	209.46575
573.757	326.71847
574.222	248.53604
574.686	274.60489
575.15	239.55657
575.614	325.72961
576.078	247.55953
576.542	234.51595
577.006	263.5715
577.469	278.65617
577.933	259.56831
578.396	244.55869
578.86	244.55465
579.323	275.63661
579.786	254.53066
580.249	312.70086
580.712	178.42342
581.175	214.51256
581.637	180.40171
582.1	201.42654
582.563	169.35206
583.025	229.54001
583.487	280.55122
583.95	161.33898
584.412	216.44045
584.874	206.48907
585.336	203.46902
585.797	199.42193
586.259	191.4362
586.721	162.37318
587.182	203.45556
587.643	212.46822
588.105	188.43376
588.566	219.44281
589.027	250.59124
589.488	228.50714
589.949	217.51191
590.41	223.42794
590.87	231.51221
591.331	247.52095
591.791	216.48603
592.252	212.48035
592.712	218.50717
593.172	238.52367
593.632	282.60065
594.092	218.4716
594.552	220.46248
595.011	204.45489
595.471	263.57369
595.931	260.5651
596.39	188.44101
596.849	226.51019
597.308	185.38505
597.768	243.60663
598.227	226.52641
598.685	212.4696
599.144	201.46181
599.603	211.47954
600.062	186.38308
600.52	169.37459
600.978	179.41374
601.437	209.46208
601.895	213.44352
602.353	186.39911
602.811	220.48162
603.269	175.40738
603.727	156.36795
604.184	208.46112
604.642	176.42332
605.099	234.5289
605.557	165.39332
606.014	166.35081
606.471	183.44874
606.928	199.43114
607.385	200.48815
607.842	190.42525
608.299	202.45955
608.755	189.44673
609.212	154.33785
609.668	201.44161
610.125	169.39884
610.581	193.44095
611.037	152.33473
611.493	137.31502
611.949	193.45848
612.405	190.37739
612.861	123.27944
613.316	162.38047
613.772	164.36812
614.227	172.40458
614.683	166.3445
615.138	161.37006
615.593	121.27746
616.048	165.36968
616.503	163.38751
616.958	164.40222
617.412	181.41952
617.867	138.30416
618.321	166.33511
618.776	168.36188
619.23	116.2685
619.684	92.20388
620.138	151.33887
620.592	151.35926
621.046	199.45703
621.5	108.25701
621.954	77.16953
622.407	107.2341
622.861	150.35709
623.314	84.18894
623.768	153.35421
624.221	95.18557
624.674	106.24223
625.127	90.20757
625.58	139.30642
626.033	144.30872
626.485	89.2111
626.938	140.32739
627.39	148.3393
627.843	113.25714
628.295	80.18326
628.747	173.40241
629.199	91.2054
629.651	75.17101
630.103	111.25136
630.555	89.18598
631.006	130.29708
631.458	72.16844
631.909	50.11186
632.361	52.11974
632.812	61.14072
633.263	154.32674
633.714	80.16818
634.165	81.19257
634.616	88.20603
635.067	87.18986
635.518	110.25713
635.968	81.15792
636.419	134.28728
636.869	85.19944
637.319	105.24057
637.769	61.13667
638.219	91.21243
638.669	69.16297
639.119	94.22232
639.569	52.12432
640.019	126.28608
640.468	132.29044
640.918	67.15788
641.367	72.16015
641.816	86.18939
642.265	114.26209
642.714	82.18641
643.163	143.32382
643.612	77.18728
644.061	68.14478
644.51	111.25095
644.958	74.16242
645.406	54.1286
645.855	64.15447
646.303	35.08093
646.751	118.26889
647.199	71.15993
647.647	72.16613
648.095	10.02294
648.543	64.12932
648.99	75.17886
649.438	53.12217
649.885	90.22205
650.333	84.16178
650.78	58.13956
651.227	65.15815
651.674	98.22106
652.121	101.24473
652.568	52.12697
653.015	15.03721
653.461	51.12088
653.908	59.13486
654.354	103.24195
654.801	57.13311
655.247	68.14635
655.693	86.22125
656.139	63.14943
656.585	49.11663
657.031	24.05654
657.477	95.2053
657.922	18.04105
658.368	64.15621
658.813	17.03878
659.259	61.14709
659.704	115.26845
660.149	70.16022
660.594	55.12995
661.039	29.06618
661.484	55.12965
661.929	86.19882
662.373	45.11251
662.818	88.21511
663.262	68.16325
663.707	30.07624
664.151	82.19783
664.595	41.09894
665.039	60.14792
665.483	42.10647
665.927	51.11915
666.371	49.11492
666.814	19.04521
667.258	63.15087
667.701	67.14187
668.145	105.25738
668.588	60.14771
669.031	-10.0237
669.474	22.05282
669.917	43.094
670.36	56.13892
670.803	95.22655
671.245	-20.04141
671.688	35.08497
672.13	43.09706
672.573	93.23168
673.015	51.12237
673.457	48.10411
673.899	27.06525
674.341	8.01932
674.783	39.09318
675.225	87.21152
675.666	80.19374
676.108	41.08841
676.549	5.01169
676.991	43.09408
677.432	40.07926
677.873	15.0343
678.314	61.14402
678.755	98.23813
679.196	40.09111
679.637	-1.0024
680.078	55.12758
680.518	54.1231
680.959	4.00954
681.399	30.07402
681.839	62.14913
682.28	72.17705
682.72	-21.04841
683.16	53.13127
683.6	66.1487
684.039	25.05159
684.479	72.17587
684.919	66.15386
685.358	0
685.798	-23.06015
686.237	17.04049
686.676	30.06764
687.115	100.23165
687.554	55.13056
687.993	85.18534
688.432	55.12445
688.871	82.1855
689.309	83.19634
689.748	30.06223
690.186	-11.02582
690.625	38.08879
691.063	40.09482
691.501	91.2215
691.939	75.1865
692.377	-4.00971
692.815	97.23327
693.253	49.1156
693.69	23.05021
694.128	11.02667
694.565	25.05898
695.003	58.14672
695.44	50.11743
695.877	59.1374
696.314	-17.03598
696.751	99.21998
697.188	63.1444
697.625	26.05788
698.061	12.02867
698.498	25.05877
698.934	54.12767
699.371	31.07254
699.807	28.06571
700.243	27.06478
700.679	19.04218
701.115	66.15186
701.551	13.0301
701.987	37.08013
702.422	44.1041
702.858	38.08994
703.294	94.21152
703.729	24.05801
704.164	48.11335
704.599	44.09738
705.035	44.09779
705.47	1.00242
705.904	43.0986
706.339	26.0593
706.774	28.06512
707.209	67.15376
707.643	51.1206
708.078	29.06998
708.512	10.02497
708.946	49.11466
709.38	54.12673
709.814	6.01353
710.248	38.0921
710.682	69.16329
711.116	63.15139
711.549	-8.02037
711.983	13.02988
712.416	42.09868
712.85	28.06873
713.283	35.08183
713.716	19.04673
714.149	0
714.582	17.03798
715.015	-8.01956
715.448	42.10461
715.881	29.06165
716.313	33.07631
716.746	62.14453
717.178	48.11396
717.61	70.17511
718.043	19.04652
718.475	29.06971
718.907	55.13522
719.339	38.08523
719.77	36.08534
720.202	15.03726
720.634	76.18322
721.065	25.05834
721.497	2.00487
721.928	-5.01217
722.359	17.0411
722.79	25.0593
723.221	-6.01482
723.652	70.17454
724.083	9.0201
724.514	35.07945
724.945	7.01628
725.375	-16.03736
725.806	39.09479
726.236	25.06318
726.666	10.02339
727.096	35.08449
727.526	51.12954
727.956	32.07233
728.386	26.06299
728.816	18.04568
729.246	59.14329
729.675	-59.14447
730.105	49.11784
730.534	45.10319
730.964	9.02223
731.393	-9.02191
731.822	66.16552
732.251	30.07518
732.68	20.04572
733.109	46.11174
733.537	58.13951
733.966	45.11076
734.395	9.02063
734.823	-11.02417
735.251	5.01191
735.68	44.10664
736.108	-11.0273
736.536	41.09439
736.964	-3.0069
737.392	9.02226
737.82	35.08222
738.247	26.06106
738.675	46.10605
739.102	42.10305
739.53	44.11154
739.957	33.08432
740.384	1.00238
740.811	-24.05937
741.238	69.16587
741.665	60.13849
742.092	-14.03193
742.519	9.02214
742.945	97.2299
743.372	61.14875
743.798	12.03037
744.225	38.08834
744.651	20.04936
745.077	64.15621
745.503	25.05944
745.929	39.09308
746.355	32.07653
746.781	7.01699
747.207	38.08893
747.632	50.12218
748.058	71.17533
748.483	88.1968
748.908	23.05657
749.334	44.10672
749.759	49.11479
750.184	13.03103
750.609	34.08191
751.033	35.08016
751.458	77.16697
751.883	21.0509
752.307	43.09939
752.732	66.16558
753.156	17.04129
753.58	65.14953
754.005	34.08382
754.429	45.10492
754.853	35.08586
755.277	73.16941
755.7	27.06601
756.124	48.11716
756.548	23.0535
756.971	73.17382
757.394	-1.00253
757.818	18.04586
758.241	60.14945
758.664	43.10666
759.087	3.0067
759.51	1.00244
759.933	51.12111
760.356	50.12679
760.778	36.08695
761.201	16.03806
761.623	1.00235
762.046	18.04133
762.468	54.12628
762.89	7.01683
763.312	98.23312
763.734	44.1041
764.156	39.09457
764.578	29.06479
765	57.13583
765.421	12.03028
765.843	50.12823
766.264	17.03954
766.686	-4.0098
767.107	30.07142
767.528	74.18592
767.949	18.04496
768.37	96.23143
768.791	16.0377
769.212	35.08678
769.632	22.05078
770.053	17.04373
770.473	19.04498
770.894	-18.04376
771.314	66.15125
771.734	-10.02303
772.154	1.00252
772.575	-9.02046
772.994	10.02225
773.414	40.09284
773.834	4.00981
774.254	14.03357
774.673	65.15525
775.093	60.14601
775.512	30.07276
775.931	58.14373
776.351	59.14382
776.77	44.10587
777.189	42.09756
777.607	-1.00252
778.026	30.07331
778.445	38.09468
778.864	17.04226
779.282	45.10451
779.701	20.04924
780.119	35.087
780.537	10.02445
780.955	49.12074
781.373	11.02668
781.791	77.16982
782.209	28.06158
782.627	-6.0156
783.045	-4.00893
783.462	31.07754
783.88	12.03059
784.297	0
784.715	14.03553
785.132	8.01888
785.549	-9.02215
785.966	25.06162
786.383	13.03158
786.8	59.13284
787.217	40.0935
787.633	46.11328
788.05	-5.0114
788.466	20.04541
788.883	39.09818
789.299	-22.05147
789.715	58.13765
790.131	44.10668
790.547	35.0851
790.963	26.06294
791.379	8.01987
791.795	31.06802
792.21	38.08579
792.626	9.0207
793.041	-22.05338
793.457	-15.03621
793.872	16.03639
794.287	31.07345
794.702	-9.0214
795.117	44.10704
795.532	34.08392
795.947	39.08979
796.362	-2.00457
796.776	1.00224
797.191	27.06464
797.605	-11.02573
798.02	42.09918
798.434	66.14156
798.848	63.15266
799.262	16.03882
799.676	25.05944
800.09	7.01683
800.504	13.03063
800.918	-14.03146
801.331	-34.08579
801.745	0
802.158	-22.05356
802.572	68.15921
802.985	2.00468
803.398	44.10132
803.811	-8.01972
804.224	7.01678
804.637	3.00702
805.05	2.00448
805.462	31.07356
805.875	-12.03069
806.288	24.05681
806.7	-22.05372
807.112	11.02458
807.525	-54.12934
807.937	-15.0365
808.349	17.04119
808.761	47.11256
809.173	46.10854
809.584	48.11414
809.996	-32.07694
810.408	-24.0617
810.819	-20.0462
811.231	16.04194
811.642	33.07993
812.053	43.10196
812.464	-17.03944
812.875	22.05514
813.286	49.12366
813.697	35.077
814.108	36.08478
814.519	81.17459
814.929	5.01241
815.34	18.04198
815.75	29.0724
816.16	-48.11624
816.571	14.03535
816.981	-46.10542
817.391	22.05104
817.801	11.02676
818.211	29.06679
818.62	51.11933
819.03	53.12503
819.44	-33.08319
819.849	20.04845
820.259	-9.02227
820.668	22.05286
821.077	8.01958
821.486	19.0438
821.895	-25.05955
822.304	14.03612
822.713	-8.01836
823.122	38.09165
823.531	-30.06856
823.939	35.08302
824.348	27.06318
824.756	9.02182
825.164	5.01219
825.573	18.04397
825.981	3.0072
826.389	5.01221
826.797	48.11851
827.205	63.14005
827.612	38.09015
828.02	-26.05937
828.428	17.04206
828.835	10.02589
829.243	22.05038
829.65	9.02198
830.057	-38.08994
830.464	32.07653
830.871	52.12051
831.278	1.00235
831.685	39.08331
832.092	1.00236
832.499	70.14716
832.905	2.0049
833.312	-50.10956
833.718	50.12122
834.124	29.06417
834.531	42.10125
834.937	35.08741
835.343	-13.0303
835.749	3.00669
836.155	-2.00512
836.561	33.07867
836.966	-43.1027
837.372	-21.05201
837.777	9.0219
838.183	24.05112
838.588	56.135
838.993	14.0331
839.399	0
839.804	12.02848
840.209	29.07256
840.613	-24.0519
841.018	5.01225
841.423	46.11424
841.828	21.05186
842.232	-35.08334
842.637	32.07377
843.041	22.0551
843.445	-21.05108
843.849	-5.01212
844.253	15.0344
844.657	8.01974
845.061	67.14826
845.465	21.04916
845.869	16.03596
846.272	16.03802
846.676	-49.11407
847.079	33.08203
847.483	62.14828
847.886	46.10669
848.289	16.04219
848.692	-26.06396
849.095	50.11495
849.498	4.00971
849.901	2.0044
850.304	11.02544
850.707	8.01976
851.109	49.11887
851.512	8.01915
851.914	-8.01983
852.316	40.09901
852.718	40.1028
853.121	-34.08163
853.523	35.07819
853.925	17.04364
854.326	10.02448
854.728	33.08257
855.13	22.05573
855.531	17.03945
855.933	27.06191
856.334	24.05852
856.736	35.07622
857.137	71.15947
857.538	7.01725
857.939	71.17107
858.34	1.00234
858.741	33.08331
859.142	-23.05356
859.542	2.00519
859.943	7.01689
860.343	11.02665
860.744	-4.00949
861.144	44.10447
861.544	47.11045
861.945	10.02474
862.345	15.03535
862.745	24.05823
863.145	13.02945
863.544	21.05165
863.944	70.1581
864.344	-24.0574
864.743	43.10266
865.143	57.14257
865.542	-5.01109
865.941	41.09834
866.34	24.05474
866.74	25.06534
867.139	45.1053
867.537	-25.06156
867.936	26.06075
868.335	18.04431
868.734	-4.00998
869.132	-26.05805
869.531	37.08508
869.929	8.01774
870.327	9.0209
870.726	22.0525
871.124	24.05361
871.522	-19.04709
871.92	46.1093
872.318	-28.0663
872.715	7.01654
873.113	29.0678
873.511	-24.05817
873.908	-20.05021
874.306	38.0921
874.703	-22.05316
875.1	-17.0418
875.497	-4.00927
875.894	13.0315
876.291	26.06183
876.688	-21.05304
877.085	-23.05335
877.482	0
877.878	60.14064
878.275	20.04942
878.671	-25.05227
879.068	12.02802
879.464	-13.03055
879.86	28.06383
880.256	17.0399
880.652	-8.01982
881.048	9.02137
881.444	-14.03188
881.84	38.09313
882.236	29.0704
882.631	12.02871
883.027	32.07433
883.422	9.0222
883.817	10.02461
884.213	44.10908
884.608	34.0824
885.003	-39.09108
885.398	-6.01463
885.793	-10.02433
886.188	-10.02415
886.582	8.01973
886.977	26.05903
887.371	-25.06128
887.766	8.01944
888.16	-44.10559
888.554	38.08984
888.949	33.07996
889.343	16.03758
889.737	0
890.131	9.02191
890.525	33.08224
890.918	-2.00489
891.312	18.04112
891.706	2.0051
892.099	-4.00987
892.492	19.03907
892.886	47.11028
893.279	7.01727
893.672	52.12853
894.065	21.05096
894.458	-14.03393
894.851	35.08199
895.244	17.04207
895.637	31.07225
896.029	18.04287
896.422	-9.02108
896.814	-16.0386
897.206	35.08148
897.599	60.14218
897.991	33.07746
898.383	12.02748
898.775	77.16754
899.167	38.08659
899.559	27.06545
899.951	25.0562
900.342	3.00733
900.734	69.16851
901.125	11.02784
901.517	22.05231
901.908	-7.01602
902.299	23.05453
902.69	99.22409
903.082	47.10937
903.473	100.23165
903.863	13.03197
904.254	42.09482
904.645	10.02376
905.036	34.0811
905.426	35.0756
905.817	-25.05937
906.207	-31.07114
906.597	44.0999
906.987	21.05228
907.378	45.11039
907.768	16.04126
908.158	8.01884
908.547	43.10895
908.937	-4.00985
909.327	54.12549
909.717	-17.04133
910.106	38.08733
910.495	41.09736
910.885	29.07122
911.274	29.06987
911.663	17.04138
912.052	36.08448
912.441	4.00997
912.83	6.01319
913.219	50.12571
913.608	22.05229
913.997	41.10017
914.385	32.0736
914.774	48.11198
915.162	43.09971
915.55	18.0417
915.939	43.10556
916.327	11.02636
916.715	32.08017
917.103	27.0629
917.491	10.02386
917.878	48.11309
918.266	19.04756
918.654	16.03998
919.041	14.03601
919.429	-20.04587
919.816	13.03189
920.203	72.16877
920.591	13.03129
920.978	37.08722
921.365	15.0384
921.752	9.02039
922.139	41.08507
922.525	25.05818
922.912	10.0235
923.299	32.07688
923.685	-33.08346
924.072	-17.03701
924.458	12.02894
924.844	-9.02167
925.231	-2.00446
925.617	17.04241
926.003	18.04441
926.389	-2.0049
926.774	-22.05416
927.16	18.04313
927.546	28.07037
927.931	4.00961
928.317	-9.01991
928.702	33.07464
929.088	43.10006
929.473	40.09909
929.858	-3.00718
930.243	44.10265
930.628	32.07592
931.013	-2.00482
931.398	-29.06361
931.783	-2.00507
932.167	40.09523
932.552	17.04107
932.937	28.06661
933.321	38.09282
933.705	1.00242
934.09	9.02155
934.474	21.04754
934.858	-6.0152
935.242	-10.02237
935.626	28.06974
936.009	27.07044
936.393	44.10959
936.777	31.07728
937.16	33.08382
937.544	-27.06077
937.927	-4.00993
938.311	72.16659
938.694	49.12556
939.077	39.08972
939.46	-8.01861
939.843	-5.00977
940.226	9.02227
940.609	63.13987
940.991	-11.02707
941.374	40.09475
941.757	19.04508
942.139	10.02174
942.522	62.13894
942.904	-14.0327
943.286	50.12177
943.668	52.13135
944.05	-26.06249
944.432	-19.04543
944.814	-26.06171
945.196	-6.01433
945.578	30.06996
945.959	-14.03145
946.341	-5.01166
946.722	44.09832
947.104	12.02772
947.485	36.08044
947.866	43.10537
948.247	18.04444
948.628	1.00231
949.009	12.02981
949.39	46.1093
949.771	-23.0506
950.152	41.09695
950.532	60.14596
950.913	22.05106
951.293	17.04511
951.674	17.0397
952.054	69.16719
952.434	2.00483
952.814	-30.06858
953.194	-13.0327
953.574	54.12687
953.954	-12.02731
954.334	70.16882
954.714	-11.02619
955.093	52.1226
955.473	26.06358
955.853	51.12733
956.232	8.02133
956.611	-21.04823
956.99	26.06344
957.37	18.04408
957.749	-9.02045
958.128	69.16782
958.506	18.04539
958.885	-5.01221
959.264	28.06714
959.643	103.22316
960.021	52.12479
960.4	32.06941
960.778	-6.0141
961.156	20.04825
961.535	8.01778
961.913	67.15049
962.291	24.06045
962.669	11.02717
963.047	25.0621
963.424	85.21067
963.802	21.05
964.18	40.09574
964.557	69.15032
964.935	67.15123
965.312	5.01274
965.69	21.05027
966.067	21.04869
966.444	-24.05639
966.821	47.11696
967.198	25.05765
967.575	41.09612
967.952	20.04521
968.329	72.16857
968.705	65.13324
969.082	39.09804
969.458	39.09133
969.835	21.04929
970.211	42.10522
970.587	28.06743
970.963	-1.00247
971.339	17.0433
971.715	25.06042
972.091	-3.00715
972.467	-23.05498
972.843	56.13516
973.219	-3.00689
973.594	-1.00255
973.97	-20.04488
974.345	29.06714
974.721	24.05504
975.096	15.03537
975.471	45.10178
975.846	-1.00231
976.221	-16.03965
976.596	84.19536
976.971	64.15254
977.346	12.02666
977.72	-2.00492
978.095	20.05001
978.469	59.13388
978.844	25.06026
979.218	33.0774
979.593	20.04591
979.967	-19.04406
980.341	55.12155
980.715	41.0998
981.089	0
981.463	18.03976
981.837	17.04067
982.21	-19.04159
982.584	23.05382
982.957	32.07761
983.331	18.04029
983.704	55.13141
984.078	11.02616
984.451	28.06592
984.824	-22.05252
985.197	-20.0464
985.57	-5.01196
985.943	11.02573
986.316	2.00467
986.688	31.07171
987.061	31.07006
987.434	30.07672
987.806	-11.02546
988.179	27.06094
988.551	44.10688
988.923	-16.03803
989.295	41.09793
989.667	1.00235
990.039	66.15905
990.411	1.00218
990.783	6.01311
991.155	16.0373
991.527	-9.02103
991.898	26.06287
992.27	62.14856
992.641	-4.00967
993.012	6.01323
993.384	28.06383
993.755	16.03975
994.126	67.15542
994.497	-33.079
994.868	13.02835
995.239	12.02797
995.61	17.04143
995.98	11.02576
996.351	-9.02182
996.722	45.1012
997.092	21.04817
997.462	38.08631
997.833	28.06311
998.203	7.01612
998.573	9.02179
998.943	67.15067
999.313	36.08343
999.683	7.0163
1000.053	-23.04998
1000.423	15.03486
1000.792	11.0273
1001.162	-5.01184
1001.531	32.07612
1001.901	11.02636
1002.27	-16.03377
1002.639	38.09279
1003.009	38.08642
1003.378	27.06685
1003.747	-2.00453
1004.116	4.00923
1004.485	19.04369
1004.853	-20.04858
1005.222	-38.09171
1005.591	-4.00914
1005.959	18.03916
1006.328	1.00218
1006.696	9.02085
1007.064	3.00723
1007.433	2.0048
1007.801	-9.02101
1008.169	-16.03884
1008.537	51.10728
1008.905	-11.025
1009.273	50.11738
1009.64	14.03268
1010.008	7.01606
1010.375	16.0367
1010.743	-37.08016
1011.11	76.17487
1011.478	56.13388
1011.845	42.09389
1012.212	77.16747
1012.579	28.06633
1012.946	45.10116
1013.313	6.01363
1013.68	59.12521
1014.047	-48.11154
1014.414	-39.08946
1014.78	21.0506
1015.147	-20.04629
1015.513	-5.01166
1015.88	-20.04938
1016.246	9.02116
1016.612	46.09947
1016.978	21.04997
1017.344	39.09286
1017.71	48.11124
1018.076	34.07591
1018.442	33.08221
1018.808	18.04392
1019.174	31.07441
1019.539	-12.02544
1019.905	-9.02066
1020.27	-13.03106
1020.636	-1.00228
1021.001	32.07383
1021.366	9.02097
1021.731	56.1405
1022.096	17.0419
1022.461	68.15377
1022.826	29.06679
1023.191	16.04072
1023.556	27.06032
1023.92	-13.03067
1024.285	37.08563
1024.649	25.05854
1025.014	-16.03797
1025.378	21.05134
1025.742	-28.06702
1026.107	21.04532
1026.471	-8.0179
1026.835	-3.0072
1027.199	-1.00233
1027.562	7.01548
1027.926	16.03745
1028.29	14.0343
1028.654	-6.01325
1029.017	30.07117
1029.381	6.01389
1029.744	12.02965
1030.107	43.09729
1030.471	39.09007
1030.834	8.01717
1031.197	35.08074
1031.56	7.01581
1031.923	2.00503
1032.286	47.10539
1032.648	-13.02962
1033.011	54.12007
1033.374	-6.01345
1033.736	-34.08756
1034.099	-5.01181
1034.461	-2.00495
1034.823	21.05071
1035.185	-18.04359
1035.548	-4.00947
1035.91	6.01383
1036.272	41.08966
1036.634	27.06347
1036.995	5.01122
1037.357	20.04716
1037.719	-3.00707
1038.08	85.19334
1038.442	-8.01832
1038.803	-29.06642
1039.165	3.00729
1039.526	16.03728
1039.887	18.04138
1040.248	46.11081
1040.609	21.04939
1040.97	-17.04015
1041.331	30.0738
1041.692	3.00689
1042.053	29.0627
1042.413	-3.00669
1042.774	51.11901
1043.134	20.04508
1043.495	46.11098
1043.855	81.18923
1044.215	-23.05512
1044.576	23.05331
1044.936	47.102
1045.296	45.10773
1045.656	7.01639
1046.016	-21.04883
1046.375	-13.03055
1046.735	-1.00223
1047.095	17.03826
1047.454	26.05174
1047.814	-1.00233
1048.173	32.0721
1048.533	28.0614
1048.892	-25.05857
1049.251	24.05757
1049.61	12.02856
1049.969	27.06082
1050.328	29.05993
1050.687	-17.03981
1051.046	-6.01407
1051.405	-13.03104
1051.763	-12.02699
1052.122	-2.00482
1052.48	42.09914
1052.839	68.15508
1053.197	25.05638
1053.555	6.01282
1053.914	35.08186
1054.272	-30.06878
1054.63	-17.04045
1054.988	-4.00928
1055.345	-9.01831
1055.703	25.05795
1056.061	40.10039
1056.419	68.17183
1056.776	5.01148
1057.134	-51.11267
1057.491	21.05075
1057.848	30.07136
1058.206	-86.19494
1058.563	-19.04025
1058.92	32.07015
1059.277	56.13214
1059.634	-33.07415
1059.991	42.0966
1060.348	34.07377
1060.704	35.08203
1061.061	13.02838
1061.418	-14.03296
1061.774	-18.04315
1062.131	56.14498
1062.487	-10.02243
1062.843	2.00482
1063.199	3.00722
1063.555	39.08731
1063.911	-2.00486
1064.267	85.16312
1064.623	3.00713
1064.979	-59.13099
1065.335	31.07031
1065.691	-12.02736
1066.046	36.07511
1066.402	-13.02827
1066.757	18.0439
1067.112	41.09597
1067.468	43.09864
1067.823	-33.07534
1068.178	49.11245
1068.533	22.05127
1068.888	-10.02295
1069.243	-9.02153
1069.598	-15.03504
1069.952	17.03762
1070.307	-6.01448
1070.662	21.04862
1071.016	34.07396
1071.371	38.08305
1071.725	-8.0183
1072.079	19.04407
1072.434	17.03997
1072.788	-17.03859
1073.142	56.13193
1073.496	14.03185
1073.85	20.04436
1074.203	17.03976
1074.557	27.07044
1074.911	32.07257
1075.265	30.06668
1075.618	71.16542
1075.971	18.04108
1076.325	5.01242
1076.678	-23.05094
1077.031	-56.12047
1077.385	31.06475
1077.738	44.09429
1078.091	10.02208
1078.444	-3.00662
1078.796	32.07601
1079.149	41.09815
1079.502	21.04806
1079.855	-17.0384
1080.207	29.06839
1080.56	23.05788
1080.912	21.04906
1081.264	20.04655
1081.617	41.09624
1081.969	-4.00985
1082.321	22.05147
1082.673	34.07553
1083.025	-3.00682
1083.377	-6.0136
1083.728	15.03339
1084.08	-1.0024
1084.432	22.05076
1084.783	-29.06439
1085.135	47.11367
1085.486	9.01993
1085.838	48.11374
1086.189	10.02364
1086.54	58.13137
1086.891	67.16564
1087.242	25.05969
1087.593	45.10306
1087.944	61.1325
1088.295	41.08853
1088.646	45.1067
1088.996	-2.00469
1089.347	0
1089.698	1.00231
1090.048	2.00501
1090.398	24.0529
1090.749	-15.03437
1091.099	4.00988
1091.449	42.10095
1091.799	9.02177
1092.149	-31.07475
1092.499	-12.02837
1092.849	22.0541
1093.199	-3.00721
1093.548	87.20093
1093.898	-10.02415
1094.248	-22.05444
1094.597	5.01255
1094.947	40.10337
1095.296	7.01681
1095.645	17.04258
1095.994	44.10112
1096.343	41.09961
1096.692	27.06989
1097.041	4.01073
1097.39	4.00964
1097.739	16.04023
1098.088	37.09508
1098.437	44.11336
1098.785	-14.03651
1099.134	-22.05601
1099.482	38.10172
1099.83	52.13168
1100.179	45.11555
1100.527	8.02039
1100.875	-3.00779
1101.223	45.11628
1101.571	-62.1682
1101.919	40.10341
1102.267	12.03328
1102.615	-1.00321
1102.962	3.00962
1103.31	-3.00964
1103.658	-9.02889
