Data from N1 R2 sample 7_Subt2__2__12-58-38-738.txt Node

Date: Wed Sep 17 12:58:38 PDT 2025
User: uwsun
Spectrometer: HDX01956
Trigger mode: 0
Integration Time (sec): 5.000000E-1
Scans to average: 1
Nonlinearity correction enabled: true
Boxcar width: 0
Storing dark spectrum: false
XAxis mode: Wavelengths
Number of Pixels in Spectrum: 2068
>>>>>Begin Spectral Data<<<<<
194.03	-4.01162
194.578	0
195.127	-4.01283
195.676	1.00322
196.225	-12.03211
196.773	-6.01678
197.321	-23.06463
197.87	-4.01049
198.418	4.01055
198.966	60.16018
199.513	79.20314
200.061	45.11632
200.609	37.09925
201.156	22.04944
201.704	-3.00775
202.251	33.08925
202.798	-1.00265
203.345	58.14598
203.892	17.04394
204.438	18.04374
204.985	14.03412
205.532	-7.01886
206.078	28.06984
206.624	50.12774
207.17	86.20434
207.716	17.04273
208.262	29.0592
208.808	35.08978
209.354	57.14344
209.899	2.00516
210.445	14.03588
210.99	27.06743
211.535	35.08439
212.08	3.00717
212.625	1.00256
213.17	43.11157
213.715	57.13285
214.259	18.04313
214.804	32.08002
215.348	50.11798
215.892	66.16277
216.436	16.03745
216.98	22.04953
217.524	33.08065
218.068	54.13844
218.612	57.14718
219.155	38.09168
219.698	50.121
220.242	14.03528
220.785	44.10531
221.328	34.08545
221.871	59.15229
222.414	54.13523
222.956	-48.11856
223.499	-1.00229
224.041	-32.07536
224.583	9.01944
225.126	13.02917
225.668	24.05934
226.21	74.18892
226.751	76.17116
227.293	-13.03018
227.835	12.03
228.376	6.01394
228.918	31.07829
229.459	23.05836
230	44.10724
230.541	-13.03067
231.082	65.15987
231.622	-12.02783
232.163	32.07834
232.704	70.17676
233.244	22.05549
233.784	-7.01733
234.324	79.17955
234.864	4.00924
235.404	-23.05554
235.944	-1.00241
236.484	63.15865
237.023	1.00241
237.563	38.08977
238.102	16.03856
238.641	36.09162
239.18	63.14949
239.719	45.11397
240.258	2.0046
240.797	19.04623
241.335	12.0297
241.874	83.16351
242.412	84.20549
242.95	41.10058
243.488	8.01835
244.026	28.06635
244.564	43.09014
245.102	70.16042
245.64	8.01947
246.177	22.04981
246.715	81.1959
247.252	16.03702
247.789	21.03993
248.326	50.12209
248.863	38.08516
249.4	-5.01162
249.936	83.17575
250.473	91.21651
251.009	11.02572
251.546	71.16045
252.082	-51.11408
252.618	18.04113
253.154	35.08557
253.69	26.05942
254.226	99.23799
254.761	0
255.297	7.01565
255.832	77.18468
256.367	29.06932
256.903	70.15751
257.438	47.11165
257.972	38.08607
258.507	26.06073
259.042	28.06215
259.576	62.13923
260.111	14.0328
260.645	21.04635
261.179	36.08577
261.713	33.07531
262.247	16.03727
262.781	28.06034
263.315	11.02718
263.849	5.01277
264.382	34.07942
264.915	33.07948
265.449	-7.01748
265.982	33.07631
266.515	51.12668
267.048	17.03691
267.58	43.09428
268.113	53.1164
268.646	-15.03757
269.178	-7.01606
269.71	95.21171
270.243	71.16639
270.775	44.11442
271.307	4.00971
271.838	40.09585
272.37	15.03744
272.902	68.15565
273.433	78.17487
273.965	68.16672
274.496	27.06797
275.027	36.091
275.558	28.06956
276.089	13.03312
276.62	-26.06715
277.15	32.07988
277.681	15.03303
278.211	39.09645
278.741	77.17295
279.272	14.03278
279.802	20.05061
280.332	43.10317
280.861	-7.01713
281.391	32.07413
281.921	30.0729
282.45	47.11798
282.98	77.20198
283.509	68.15677
284.038	34.07932
284.567	30.07123
285.096	82.2006
285.625	-72.16851
286.153	96.231
286.682	40.09361
287.21	21.05094
287.739	53.12697
288.267	52.12844
288.795	50.13203
289.323	53.12639
289.851	80.19016
290.378	29.06596
290.906	59.14629
291.433	27.06848
291.961	80.18488
292.488	70.17524
293.015	39.09379
293.542	100.25843
294.069	105.26148
294.596	46.11399
295.122	50.12186
295.649	30.06706
296.175	44.10752
296.702	53.13155
297.228	18.04421
297.754	39.0895
298.28	42.09856
298.806	48.11751
299.332	46.10504
299.857	20.04657
300.383	58.1476
300.908	51.12737
301.433	97.23954
301.958	63.14655
302.483	-1.00254
303.008	90.22571
303.533	31.08124
304.058	36.08551
304.582	16.0387
305.107	1.00266
305.631	29.06722
306.155	45.10682
306.679	86.2045
307.203	44.10415
307.727	60.14437
308.251	68.16986
308.775	109.26699
309.298	53.12992
309.822	25.06399
310.345	86.20788
310.868	35.08615
311.391	51.12761
311.914	51.12977
312.437	58.135
312.96	52.12474
313.482	21.0505
314.005	22.05601
314.527	-28.07473
315.049	65.16667
315.571	93.21205
316.093	67.16818
316.615	22.05398
317.137	87.19244
317.659	82.20089
318.18	24.05847
318.702	111.26227
319.223	50.10446
319.744	63.14458
320.265	62.15353
320.786	69.17488
321.307	73.18265
321.828	55.12667
322.348	57.13666
322.869	72.1743
323.389	320.60684
323.909	27.06328
324.43	50.12172
324.95	61.1424
325.47	74.18612
325.989	85.20449
326.509	42.09652
327.029	88.20417
327.548	24.05593
328.067	91.22365
328.587	109.27557
329.106	52.11979
329.625	93.24404
330.144	69.16354
330.662	54.12959
331.181	91.21784
331.7	53.12581
332.218	69.15313
332.736	81.1928
333.255	93.22221
333.773	69.16587
334.291	96.24284
334.808	72.16573
335.326	85.19436
335.844	71.17036
336.361	128.33136
336.879	136.32252
337.396	125.30698
337.913	69.16284
338.43	63.14545
338.947	69.16807
339.464	67.14826
339.981	36.08758
340.497	81.20215
341.014	123.30229
341.53	80.18414
342.046	136.34181
342.562	99.24958
343.078	60.14443
343.594	52.1265
344.11	134.32353
344.626	98.25037
345.141	105.24405
345.657	109.25054
346.172	88.21583
346.687	71.16652
347.202	151.34763
347.717	121.29165
348.232	146.36509
348.747	94.22111
349.261	160.35412
349.776	146.34957
350.29	128.32309
350.805	136.33812
351.319	83.19672
351.833	157.3639
352.347	129.30787
352.861	138.32688
353.374	102.23591
353.888	123.30385
354.401	128.29486
354.915	167.3797
355.428	108.27232
355.941	106.2507
356.454	156.34959
356.967	69.16449
357.48	105.24202
357.993	127.31488
358.505	65.16122
359.018	172.42169
359.53	168.41097
360.042	121.27523
360.554	175.42864
361.066	152.37128
361.578	164.36525
362.09	148.35436
362.602	134.30288
363.113	153.36262
363.625	189.42972
364.136	139.30912
364.647	177.42047
365.158	153.35856
365.669	144.34623
366.18	153.3622
366.691	113.25203
367.201	159.38251
367.712	195.44641
368.222	175.40449
368.733	149.32778
369.243	181.40636
369.753	153.35519
370.263	145.35253
370.773	126.30926
371.282	197.46924
371.792	182.42259
372.301	129.31422
372.811	230.59538
373.32	226.48744
373.829	169.3993
374.338	163.3649
374.847	192.44299
375.356	163.38558
375.865	274.57955
376.373	229.51707
376.882	233.5823
377.39	238.56721
377.898	175.42944
378.407	237.53339
378.915	268.57852
379.423	277.63207
379.93	340.76594
380.438	246.58245
380.946	261.59773
381.453	298.69791
381.96	291.67925
382.468	333.75922
382.975	367.86501
383.482	376.80954
383.989	405.99293
384.495	462.01571
385.002	416.83285
385.509	450.01329
386.015	494.946
386.521	526.11012
387.028	536.12582
387.534	480.96142
388.04	547.21576
388.546	542.10289
389.051	577.16064
389.557	609.27911
390.063	668.348
390.568	683.46561
391.073	754.46334
391.578	795.69151
392.084	829.62097
392.589	780.45993
393.093	899.82433
393.598	940.80673
394.103	1036.02151
394.607	1106.15231
395.112	1176.30718
395.616	1229.34997
396.12	1389.37939
396.624	1582.6842
397.128	1719.90059
397.632	1799.89301
398.136	1983.94802
398.639	2054.0866
399.143	2350.50223
399.646	2649.37434
400.15	2964.30784
400.653	3172.19314
401.156	3681.00572
401.659	4286.25616
402.162	5222.40445
402.664	6779.90844
403.167	9628.80105
403.67	17711.67032
404.172	54264.55121
404.674	62515.89509
405.176	63738.15102
405.678	63977.72923
406.18	64011.81569
406.682	63863.44694
407.184	63926.60148
407.686	63841.39382
408.187	31101.96646
408.688	18100.32535
409.19	12430.6604
409.691	10054.88378
410.192	8603.97698
410.693	7335.60166
411.194	6668.73736
411.694	6272.10793
412.195	5824.64612
412.696	5226.4858
413.196	4847.97613
413.696	4668.91804
414.196	4771.3138
414.696	4842.06116
415.196	4613.76239
415.696	4098.78705
416.196	3402.2951
416.695	2553.31136
417.195	2227.27481
417.694	2155.64691
418.194	2015.62863
418.693	1877.83606
419.192	1799.88979
419.691	1681.73608
420.19	1712.88328
420.688	1710.95394
421.187	1576.22536
421.685	1497.54515
422.184	1452.54001
422.682	1137.95422
423.18	1000.89187
423.678	861.67093
424.176	782.5423
424.674	765.47237
425.172	746.52904
425.669	687.49191
426.167	649.34048
426.664	617.25321
427.161	560.16804
427.659	513.14338
428.156	507.99085
428.652	411.97544
429.149	443.00339
429.646	497.02012
430.143	424.95396
430.639	383.85909
431.135	343.8188
431.632	310.68121
432.128	319.73493
432.624	289.71909
433.12	342.74488
433.616	300.6337
434.111	218.50657
434.607	280.64754
435.103	181.37471
435.598	279.56129
436.093	212.48328
436.588	259.56544
437.083	237.51741
437.578	225.50866
438.073	207.50702
438.568	216.51932
439.062	215.45028
439.557	215.49081
440.051	111.249
440.546	146.32853
441.04	155.3675
441.534	160.39677
442.028	198.46682
442.522	122.29077
443.015	77.16597
443.509	209.49591
444.002	155.37373
444.496	130.28003
444.989	152.36352
445.482	91.22447
445.975	120.27566
446.468	123.2649
446.961	115.24884
447.454	105.23467
447.947	121.28645
448.439	190.45578
448.931	152.34427
449.424	132.33176
449.916	100.24263
450.408	117.2657
450.9	80.19388
451.392	90.22726
451.884	156.3529
452.375	88.21679
452.867	95.21285
453.358	148.33425
453.849	90.19237
454.341	91.20498
454.832	107.23004
455.323	137.33644
455.814	65.14893
456.304	80.1848
456.795	70.15997
457.285	87.19115
457.776	121.273
458.266	64.15189
458.756	15.03576
459.247	40.09607
459.737	134.31974
460.226	162.36259
460.716	95.2256
461.206	79.18825
461.695	54.13338
462.185	77.18222
462.674	72.1644
463.163	94.20987
463.653	106.22431
464.142	91.21901
464.63	92.2212
465.119	93.21488
465.608	142.32737
466.096	22.04822
466.585	82.18648
467.073	5.01191
467.561	49.11757
468.05	41.09469
468.538	62.15099
469.026	7.01674
469.513	26.05538
470.001	115.26116
470.489	30.07161
470.976	90.2089
471.463	58.14394
471.951	64.15831
472.438	38.08946
472.925	85.19881
473.412	47.11393
473.899	51.11704
474.385	64.15604
474.872	55.12814
475.359	64.15674
475.845	103.21161
476.331	19.04083
476.817	62.15032
477.303	58.13462
477.789	13.03114
478.275	37.09184
478.761	30.07142
479.247	59.13148
479.732	43.1072
480.218	94.24368
480.703	29.07156
481.188	39.08482
481.673	44.10132
482.158	66.14254
482.643	67.17018
483.128	64.1489
483.612	91.2151
484.097	50.12036
484.581	67.1545
485.066	80.19461
485.55	61.13487
486.034	51.11078
486.518	104.24635
487.002	-2.0049
487.486	13.03171
487.969	70.16914
488.453	9.0225
488.936	17.03856
489.42	75.16527
489.903	36.08957
490.386	33.06865
490.869	83.18098
491.352	27.06513
491.835	37.07612
492.318	26.05875
492.8	46.09564
493.283	113.28446
493.765	47.11508
494.247	110.25289
494.73	101.22144
495.212	24.05709
495.694	101.23568
496.175	78.18633
496.657	106.24808
497.139	97.16525
497.62	166.39016
498.102	150.36598
498.583	76.1853
499.064	112.24675
499.545	134.30029
500.026	150.33282
500.507	131.29665
500.988	233.562
501.469	189.45795
501.949	240.57066
502.43	325.74188
502.91	275.55655
503.39	282.66767
503.87	373.82634
504.35	338.74523
504.83	426.85839
505.31	445.99032
505.79	437.95397
506.269	526.08923
506.749	573.16899
507.228	619.29272
507.707	745.4235
508.187	798.62912
508.666	858.80312
509.145	934.8012
509.623	1034.94965
510.102	1067.07576
510.581	1259.33255
511.059	1275.48485
511.538	1429.76994
512.016	1580.67507
512.494	1667.76709
512.972	1848.90751
513.45	1975.88368
513.928	2181.1961
514.406	2357.32726
514.884	2500.67731
515.361	2714.29166
515.839	2945.08336
516.316	3111.40717
516.793	3285.65144
517.27	3434.28539
517.747	3672.71163
518.224	3743.89808
518.701	3875.57162
519.178	3921.43431
519.654	4039.96499
520.131	4247.21209
520.607	4270.0883
521.083	4142.60523
521.56	4107.89919
522.036	4119.35777
522.512	4052.27683
522.987	3943.13817
523.463	3867.04788
523.939	3781.42376
524.414	3657.88731
524.89	3509.21877
525.365	3302.91456
525.84	3265.31999
526.315	3103.38757
526.79	3006.95782
527.265	2813.10453
527.74	2727.37792
528.215	2568.12236
528.689	2416.77896
529.164	2304.65352
529.638	2137.38266
530.112	2119.00313
530.587	2064.57105
531.061	1893.99188
531.534	1853.9411
532.008	1795.93476
532.482	1672.60811
532.956	1612.95316
533.429	1562.73917
533.903	1508.30523
534.376	1425.25716
534.849	1362.31124
535.322	1339.36518
535.795	1256.3333
536.268	1184.24689
536.741	1116.09909
537.213	1119.02116
537.686	997.00255
538.158	1013.85739
538.631	964.92839
539.103	931.72727
539.575	869.46532
540.047	874.57591
540.519	865.74171
540.991	816.70126
541.463	760.5788
541.934	709.38732
542.406	699.47098
542.877	671.32339
543.348	694.47036
543.82	581.27005
544.291	605.25841
544.762	635.34142
545.233	613.39528
545.703	533.06902
546.174	525.1034
546.645	526.15813
547.115	504.11193
547.585	510.06593
548.056	497.12137
548.526	490.06565
548.996	440.97534
549.466	447.00508
549.935	436.96769
550.405	375.77145
550.875	398.88447
551.344	370.8301
551.814	361.77875
552.283	401.8149
552.752	351.77761
553.221	367.76145
553.69	384.81361
554.159	315.74853
554.628	362.77337
555.096	295.71957
555.565	301.63428
556.033	382.85667
556.502	297.68535
556.97	273.58287
557.438	251.56836
557.906	256.58216
558.374	336.73865
558.842	289.66317
559.31	290.62064
559.777	263.61945
560.245	230.51074
560.712	224.49721
561.18	198.42724
561.647	212.45666
562.114	201.44885
562.581	263.6233
563.048	243.53747
563.514	256.62015
563.981	227.50376
564.448	231.50538
564.914	243.54487
565.381	212.47097
565.847	216.48842
566.313	200.45187
566.779	152.33656
567.245	180.40752
567.711	199.46416
568.176	163.35903
568.642	225.54967
569.108	198.47442
569.573	183.41372
570.038	206.41853
570.504	222.48641
570.969	210.50586
571.434	231.49641
571.899	197.45516
572.363	249.55074
572.828	253.56052
573.293	228.50609
573.757	285.63352
574.222	225.48872
574.686	262.57986
575.15	269.62272
575.614	295.66635
576.078	221.50328
576.542	201.44625
577.006	245.53442
577.469	188.4515
577.933	213.47191
578.396	168.39055
578.86	201.46089
579.323	205.48116
579.786	168.35768
580.249	224.51228
580.712	157.37497
581.175	172.41527
581.637	145.32594
582.1	172.36731
582.563	150.3138
583.025	139.33351
583.487	208.41642
583.95	116.24665
584.412	191.39169
584.874	143.34363
585.336	116.27265
585.797	134.28815
586.259	162.37214
586.721	126.29234
587.182	116.26498
587.643	84.19049
588.105	92.21632
588.566	128.26422
589.027	160.38499
589.488	89.20367
589.949	161.38394
590.41	182.35272
590.87	161.3622
591.331	156.3356
591.791	141.32215
592.252	126.29048
592.712	140.33072
593.172	130.29252
593.632	157.34349
594.092	104.23047
594.552	122.26201
595.011	73.16719
595.471	160.35663
595.931	164.36373
596.39	101.24095
596.849	117.27001
597.308	36.07741
597.768	137.34858
598.227	81.19405
598.685	148.33221
599.144	109.25505
599.603	81.18894
600.062	102.21405
600.52	112.2512
600.978	90.2117
601.437	109.24603
601.895	161.33913
602.353	106.23137
602.811	126.28132
603.269	74.17569
603.727	115.2734
604.184	122.27531
604.642	122.29645
605.099	112.25944
605.557	83.20097
606.014	69.14892
606.471	97.24165
606.928	103.22773
607.385	91.22662
607.842	69.15828
608.299	99.22992
608.755	109.26163
609.212	100.22188
609.668	86.19352
610.125	105.25088
610.581	119.27593
611.037	63.14133
611.493	52.1216
611.949	96.23231
612.405	100.2028
612.861	89.20359
613.316	125.29569
613.772	70.16016
614.227	98.23384
614.683	59.12537
615.138	10.02368
615.593	48.11168
616.048	65.14863
616.503	11.02691
616.958	44.11031
617.412	37.0882
617.867	75.16749
618.321	71.14646
618.776	49.10825
619.23	69.1612
619.684	30.06734
620.138	57.13039
620.592	63.15243
621.046	97.22732
621.5	35.08446
621.954	24.05343
622.407	48.10633
622.861	39.09482
623.314	79.17788
623.768	92.21556
624.221	45.08894
624.674	55.12698
625.127	-10.02352
625.58	29.0654
626.033	73.1589
626.485	12.02889
626.938	59.14016
627.39	75.17446
627.843	66.15161
628.295	53.12207
628.747	42.10022
629.199	66.14973
629.651	11.02541
630.103	43.09872
630.555	4.00852
631.006	60.13904
631.458	49.11515
631.909	22.0495
632.361	31.07168
632.812	40.09266
633.263	93.19994
633.714	10.02135
634.165	27.06486
634.616	19.04508
635.067	40.08816
635.518	75.17652
635.968	18.03562
636.419	65.14143
636.869	81.1902
637.319	64.14784
637.769	29.0654
638.219	59.13859
638.669	20.04769
639.119	39.09322
639.569	32.0768
640.019	34.07864
640.468	25.05624
640.918	29.06884
641.367	-1.00226
641.816	46.10215
642.265	94.21697
642.714	-32.07442
643.163	70.16087
643.612	32.07849
644.061	40.08568
644.51	26.0598
644.958	41.09061
645.406	21.05033
645.855	18.04382
646.303	30.06944
646.751	53.12236
647.199	41.09292
647.647	20.04662
648.095	-12.02764
648.543	43.0873
648.99	48.11506
649.438	3.00698
649.885	53.13165
650.333	56.10858
650.78	44.10616
651.227	32.07834
651.674	33.07543
652.121	36.0883
652.568	35.08573
653.015	20.04956
653.461	12.02866
653.908	-6.01389
654.354	23.05487
654.801	-9.02129
655.247	-1.00218
655.693	26.06759
656.139	46.10947
656.585	23.05502
657.031	-3.0071
657.477	18.03954
657.922	-28.06445
658.368	-25.06203
658.813	-31.0714
659.259	64.15423
659.704	31.07356
660.149	-14.03259
660.594	35.08302
661.039	8.01833
661.484	63.14828
661.929	41.09564
662.373	5.01259
662.818	-18.04487
663.262	32.07735
663.707	27.06865
664.151	54.13097
664.595	19.04604
665.039	23.05709
665.483	46.11653
665.927	47.10989
666.371	27.0636
666.814	25.05941
667.258	34.08187
667.701	61.12934
668.145	54.13362
668.588	53.13064
669.031	22.05181
669.474	1.00241
669.917	8.01762
670.36	15.03749
670.803	31.07483
671.245	-25.05183
671.688	18.04384
672.13	33.07464
672.573	17.04293
673.015	46.11048
673.457	14.03058
673.899	22.05322
674.341	18.04339
674.783	-3.00723
675.225	39.09567
675.666	56.13623
676.108	30.06485
676.549	17.03964
676.991	32.07017
677.432	34.06747
677.873	35.07971
678.314	32.07598
678.755	66.16134
679.196	28.06393
679.637	-4.00961
680.078	65.15048
680.518	13.02988
680.959	36.08537
681.399	30.07402
681.839	23.05573
682.28	30.07434
682.72	-28.06463
683.16	46.11408
683.6	71.1598
684.039	5.01037
684.479	24.05915
684.919	54.12618
685.358	-5.01247
685.798	-3.00782
686.237	3.00717
686.676	-10.02273
687.115	26.06111
687.554	53.12586
687.993	67.14665
688.432	46.10427
688.871	39.089
689.309	50.11903
689.748	20.04158
690.186	-26.06121
690.625	35.08183
691.063	55.13
691.501	25.0616
691.939	49.12242
692.377	19.04594
692.815	77.18588
693.253	28.06633
693.69	18.03934
694.128	14.03393
694.565	53.12435
695.003	39.09899
695.44	55.12905
695.877	15.03524
696.314	28.05868
696.751	57.12776
697.188	41.09439
697.625	26.05788
698.061	8.01913
698.498	-10.02367
698.934	9.02146
699.371	1.00235
699.807	30.07038
700.243	14.03367
700.679	16.03555
701.115	7.0163
701.551	4.00928
701.987	20.04347
702.422	40.09471
702.858	21.04987
703.294	83.18719
703.729	9.02182
704.164	-17.04065
704.599	67.14758
705.035	33.07351
705.47	8.01936
705.904	-5.01158
706.339	21.04794
706.774	19.04427
707.209	35.08084
707.643	29.06887
708.078	-1.00243
708.512	-18.04518
708.946	10.02358
709.38	32.07542
709.814	-19.04308
710.248	43.10412
710.682	56.13286
711.116	42.10133
711.549	-40.10244
711.983	19.04362
712.416	51.11962
712.85	-11.02719
713.283	20.0469
713.716	17.04183
714.149	-14.03239
714.582	21.04688
715.015	6.01463
715.448	32.07985
715.881	43.09113
716.313	37.08549
716.746	40.09365
717.178	8.01914
717.61	46.11557
718.043	25.06115
718.475	11.02653
718.907	32.07901
719.339	12.02706
719.77	60.14158
720.202	51.12585
720.634	41.0995
721.065	30.06994
721.497	29.07027
721.928	19.04602
722.359	-4.00971
722.79	59.13903
723.221	-30.07442
723.652	8.02017
724.083	21.04678
724.514	55.12434
724.945	2.00466
725.375	9.02091
725.806	-30.07385
726.236	19.04807
726.666	36.08376
727.096	30.07249
727.526	60.15215
727.956	50.1126
728.386	35.08465
728.816	43.10864
729.246	66.16007
729.675	-58.14199
730.105	25.0604
730.534	42.09637
730.964	-22.05466
731.393	47.1132
731.822	26.06568
732.251	30.07518
732.68	-3.00689
733.109	19.04639
733.537	13.03154
733.966	56.13755
734.395	46.10465
734.823	0
735.251	-12.02867
735.68	6.01465
736.108	30.07391
736.536	30.06922
736.964	-2.0046
737.392	40.09836
737.82	17.04007
738.247	24.05639
738.675	63.14475
739.102	32.07866
739.53	59.14917
739.957	42.10715
740.384	-10.02388
740.811	-28.06931
741.238	39.09429
741.665	36.08349
742.092	-40.0917
742.519	-2.00493
742.945	56.13378
743.372	68.16561
743.798	19.04802
744.225	28.06522
744.651	36.08859
745.077	56.13689
745.503	36.08541
745.929	43.10255
746.355	17.04077
746.781	6.01457
747.207	37.08661
747.632	63.15357
748.058	75.18507
748.483	-1.00228
748.908	14.03449
749.334	34.08262
749.759	37.08688
750.184	72.16989
750.609	28.06753
751.033	7.01612
751.458	42.09175
751.883	-1.00243
752.307	-6.014
752.732	54.13577
753.156	8.01946
753.58	2.00466
754.005	-17.0423
754.429	57.13259
754.853	24.059
755.277	0
755.7	42.1024
756.124	-10.02467
756.548	-15.03515
756.971	51.12195
757.394	9.02271
757.818	20.05093
758.241	37.09254
758.664	-10.02504
759.087	-18.0404
759.51	4.00974
759.933	40.09519
760.356	47.11925
760.778	32.07735
761.201	73.17175
761.623	-32.0756
762.046	13.02988
762.468	59.13784
762.89	36.0861
763.312	45.10814
763.734	-12.0287
764.156	5.0122
764.578	-1.00225
765	37.08851
765.421	8.0202
765.843	15.03871
766.264	4.00933
766.686	-1.00245
767.107	38.09033
767.528	48.12116
767.949	35.08716
768.37	67.16241
768.791	27.06347
769.212	-1.0025
769.632	31.07143
770.053	-31.08041
770.473	16.0379
770.894	10.02418
771.314	4.00928
771.734	53.12051
772.154	-6.01511
772.575	37.08331
772.994	-18.04029
773.414	22.05125
773.834	5.01226
774.254	13.03118
774.673	71.16938
775.093	35.08557
775.512	-5.01221
775.931	3.00751
776.351	27.06621
776.77	18.04353
777.189	-2.00469
777.607	13.03267
778.026	17.04164
778.445	4.01003
778.864	-17.04252
779.282	-16.03761
779.701	20.04924
780.119	17.0424
780.537	-17.04178
780.955	10.02482
781.373	-14.03412
781.791	80.17632
782.209	4.00884
782.627	31.0801
783.045	-6.01341
783.462	14.03512
783.88	-9.02303
784.297	6.01485
784.715	10.0254
785.132	22.05179
785.549	-5.0123
785.966	54.1324
786.383	24.05819
786.8	25.05668
787.217	86.19922
787.633	59.14495
788.05	-29.06645
788.466	1.00228
788.883	30.07564
789.299	-23.05382
789.715	23.05495
790.131	-1.00244
790.547	1.00245
790.963	6.01458
791.379	33.08158
791.795	-17.03768
792.21	40.09027
792.626	-16.03699
793.041	-6.01451
793.457	5.01202
793.872	9.0205
794.287	39.09226
794.702	-26.06202
795.117	23.05617
795.532	49.1206
795.947	6.0139
796.362	-45.10373
796.776	35.0779
797.191	24.05749
797.605	12.02794
798.02	-15.03581
798.434	62.13309
798.848	63.15266
799.262	-42.10301
799.676	32.07598
800.09	-30.07265
800.504	8.01887
800.918	-22.04953
801.331	-36.09087
801.745	-11.02458
802.158	-6.01456
802.572	49.11515
802.985	19.04427
803.398	33.07616
803.811	-23.05686
804.224	-10.02405
804.637	14.03269
805.05	-5.01123
805.462	43.1018
805.875	-2.00511
806.288	22.05209
806.7	-25.06108
807.112	2.00448
807.525	-55.13177
807.937	7.01696
808.349	-3.0073
808.761	33.07924
809.173	21.04979
809.584	-11.02645
809.996	1.00239
810.408	-8.02051
810.819	-6.01382
811.231	30.07844
811.642	53.12789
812.053	48.1137
812.464	-26.06042
812.875	0
813.286	26.06589
813.697	-11.02443
814.108	18.04254
814.519	109.23353
814.929	6.01489
815.34	3.00702
815.75	12.03005
816.16	-7.01682
816.571	21.05296
816.981	-14.03188
817.391	-7.01633
817.801	-24.05878
818.211	31.07137
818.62	64.14937
819.03	41.09695
819.44	-10.02511
819.849	28.06773
820.259	8.01974
820.668	-13.03144
821.077	6.01469
821.486	5.01156
821.895	46.10808
822.304	18.04641
822.713	46.10444
823.122	24.05803
823.531	-22.05019
823.939	38.09008
824.348	-7.01649
824.756	33.07963
825.164	0
825.573	11.0269
825.981	69.16354
826.389	38.09223
826.797	51.12585
827.205	42.09377
827.612	15.03574
828.02	-47.10777
828.428	39.0961
828.835	8.02072
829.243	47.10708
829.65	6.01466
830.057	-7.01647
830.464	43.10262
830.871	40.09292
831.278	-18.04254
831.685	18.03862
832.092	13.03057
832.499	15.03192
832.905	-24.05906
833.312	-18.03917
833.718	50.12122
834.124	44.09706
834.531	6.01456
834.937	17.0426
835.343	16.03708
835.749	1.00223
836.155	33.08391
836.561	-11.02644
836.966	33.07767
837.372	10.02463
837.777	-8.01953
838.183	-10.02146
838.588	33.0799
838.993	50.11738
839.399	-3.00718
839.804	-32.07659
840.209	32.08002
840.613	-1.00215
841.018	-5.01227
841.423	4.01001
841.828	14.03462
842.232	12.02832
842.637	69.1579
843.041	-35.08855
843.445	30.07227
843.849	33.07942
844.253	9.02066
844.657	-22.0546
845.061	65.14389
845.465	-4.00941
845.869	-9.02033
846.272	29.06873
846.676	-31.07191
847.079	33.08203
847.483	22.05302
847.886	46.10669
848.289	19.05008
848.692	-33.08128
849.095	1.00232
849.498	24.05801
849.901	22.04822
850.304	37.08512
850.707	34.08358
851.109	24.05849
851.512	6.01437
851.914	-4.00991
852.316	48.11864
852.718	42.1079
853.121	-11.02629
853.523	24.05374
853.925	4.01029
854.326	17.04156
854.728	7.0176
855.13	10.02539
855.531	5.01163
855.933	-10.0231
856.334	9.022
856.736	14.03062
857.137	41.09266
857.538	22.05408
857.939	74.1782
858.34	-10.02345
858.741	0
859.142	-11.02556
859.542	14.03624
859.943	29.06966
860.343	51.12265
860.744	55.12895
861.144	34.08088
861.544	54.12673
861.945	-9.02234
862.345	22.05177
862.745	-19.04647
863.145	38.08565
863.544	-9.02226
863.944	33.07509
864.344	13.03087
864.743	45.1074
865.143	33.0829
865.542	-38.08488
865.941	25.06014
866.34	25.057
866.74	-5.01313
867.139	37.08671
867.537	1.00245
867.936	43.10014
868.335	25.06146
868.734	12.02987
869.132	6.01331
869.531	-26.06054
869.929	35.07716
870.327	-2.00466
870.726	8.01914
871.124	6.01345
871.522	-3.00741
871.92	23.05489
872.318	-24.05678
872.715	8.0189
873.113	3.00705
873.511	3.00723
873.908	-8.02004
874.306	34.08246
874.703	15.03599
875.1	-26.06403
875.497	-15.03484
875.894	47.11316
876.291	34.08072
876.688	0
877.085	23.05287
877.482	13.03154
877.878	46.10812
878.275	36.08869
878.671	-8.01666
879.068	16.03733
879.464	22.05135
879.86	17.03884
880.256	-24.05678
880.652	22.0542
881.048	27.06389
881.444	-10.02275
881.84	-8.01977
882.236	34.08246
882.631	55.13051
883.027	23.05352
883.422	27.06638
883.817	0
884.213	5.01248
884.608	31.07517
885.003	-12.02788
885.398	16.03886
885.793	-40.09785
886.188	-3.00724
886.582	11.02711
886.977	-9.02058
887.371	5.01219
887.766	-3.0073
888.16	-30.0718
888.554	-13.03104
888.949	31.07514
889.343	34.07957
889.737	-24.06331
890.131	11.02677
890.525	35.08719
890.918	17.04141
891.312	-9.02067
891.706	16.04068
892.099	1.00246
892.492	-5.01034
892.886	-21.04993
893.279	4.00988
893.672	8.01993
894.065	9.02189
894.458	-12.02907
894.851	39.09129
895.244	-17.04234
895.637	48.1115
896.029	26.06183
896.422	-14.03283
896.814	-18.04344
897.206	55.12753
897.599	45.10694
897.991	67.15622
898.383	-23.05304
898.775	55.12023
899.167	37.08433
899.559	10.02432
899.951	11.0248
900.342	0
900.734	54.13225
901.125	9.02279
901.517	-1.00239
901.908	30.06814
902.299	23.05453
902.69	43.09844
903.082	28.0654
903.473	44.10306
903.863	-13.03213
904.254	71.15934
904.645	-6.0143
905.036	39.09293
905.426	12.02605
905.817	22.05177
906.207	-20.0458
906.597	-1.00229
906.987	4.00999
907.378	27.06646
907.768	28.07206
908.158	-13.03074
908.547	33.08376
908.937	-14.03455
909.327	1.00235
909.717	0
910.106	27.06219
910.495	16.03818
910.885	36.0883
911.274	18.04346
911.663	12.02924
912.052	3.00709
912.441	44.10884
912.83	23.05038
913.219	12.03038
913.608	16.03808
913.997	6.01475
914.385	57.13044
914.774	9.02116
915.162	24.05586
915.55	28.06473
915.939	20.04931
916.327	-16.03854
916.715	57.14215
917.103	-25.05884
917.491	45.10666
917.878	-1.00238
918.266	-5.01257
918.654	42.10446
919.041	15.03857
919.429	26.05908
919.816	9.02209
920.203	41.09669
920.591	57.13604
920.978	22.05201
921.365	7.01794
921.752	-20.04558
922.139	77.15848
922.525	31.07205
922.912	39.09111
923.299	6.01449
923.685	-15.03782
924.072	-26.0567
924.458	7.0169
924.844	0
925.231	-18.04025
925.617	35.08703
926.003	31.0763
926.389	7.01712
926.774	-4.00981
927.16	29.06934
927.546	70.17461
927.931	44.10491
928.317	48.10491
928.702	35.07913
929.088	26.06071
929.473	28.06951
929.858	24.05714
930.243	32.07483
930.628	55.1299
931.013	27.06473
931.398	1.00218
931.783	-3.0076
932.167	31.07393
932.552	6.01452
932.937	29.06897
933.321	2.00492
933.705	-12.02908
934.09	-35.08452
934.474	1.00227
934.858	13.03282
935.242	-23.0516
935.626	28.06974
936.009	37.09637
936.393	59.14655
936.777	-17.04275
937.16	27.06865
937.544	15.03347
937.927	45.11076
938.311	37.0862
938.694	14.03609
939.077	2.00463
939.46	12.02781
939.843	-21.0412
940.226	-18.04477
940.609	46.10249
940.991	-17.04189
941.374	29.06884
941.757	-1.00238
942.139	33.07141
942.522	23.05196
942.904	46.10618
943.286	15.03677
943.668	31.0786
944.05	27.06424
944.432	7.01666
944.814	40.09372
945.196	-21.05029
945.578	21.04906
945.959	-31.06989
946.341	17.03947
946.722	12.02699
947.104	49.11236
947.485	37.08266
947.866	5.01234
948.247	29.07146
948.628	15.03459
949.009	-1.00249
949.39	1.0024
949.771	-10.02194
950.152	-5.01193
950.532	62.15077
950.913	25.05799
951.293	32.0847
951.674	13.03038
952.054	77.1863
952.434	35.08391
952.814	11.02494
953.194	-10.02514
953.574	38.08956
953.954	-10.02275
954.334	8.01952
954.714	-8.01904
955.093	61.14357
955.473	-13.03202
955.853	-12.0303
956.232	43.11398
956.611	6.01371
956.99	17.04155
957.37	-9.02215
957.749	-9.02045
958.128	19.04664
958.506	-8.02027
958.885	9.02192
959.264	3.00723
959.643	60.13119
960.021	9.02178
960.4	-28.06151
960.778	2.00469
961.156	-23.05594
961.535	2.00445
961.913	26.05889
962.291	4.01011
962.669	0
963.047	44.10892
963.424	44.10987
963.802	1.00239
964.18	-22.05328
964.557	35.0768
964.935	20.04558
965.312	54.1364
965.69	-7.01685
966.067	-38.08914
966.444	-4.00936
966.821	10.02505
967.198	54.1238
967.575	23.05411
967.952	-5.01136
968.329	75.17549
968.705	43.08858
969.082	39.09804
969.458	15.03529
969.835	21.04929
970.211	0
970.587	-4.00969
970.963	9.02218
971.339	-1.00256
971.715	26.06282
972.091	59.13903
972.467	-33.07903
972.843	17.04133
973.219	12.02749
973.594	-6.0153
973.97	-18.04037
974.345	17.03945
974.721	-23.05325
975.096	40.09387
975.471	29.0658
975.846	-13.03005
976.221	-20.0496
976.596	74.17244
976.971	26.06242
977.346	15.0333
977.72	-45.11162
978.095	19.04752
978.469	24.05485
978.844	50.11995
979.218	0
979.593	-2.00461
979.967	-53.12372
980.341	17.03787
980.715	13.03181
981.089	8.01937
981.463	5.01107
981.837	40.09526
982.21	5.01089
982.584	29.06778
982.957	27.06555
983.331	-2.00449
983.704	86.20426
984.078	-23.05506
984.451	-16.03799
984.824	16.03791
985.197	-25.05806
985.57	-12.02874
985.943	-6.01408
986.316	26.06042
986.688	45.10381
987.061	0
987.434	26.06654
987.806	-52.12132
988.179	22.04971
988.551	29.07064
988.923	-43.10274
989.295	46.10976
989.667	-17.04011
990.039	63.15191
990.411	-49.10807
990.783	37.0803
991.155	-31.07293
991.527	0
991.898	26.06287
992.27	7.01695
992.641	35.08395
993.012	-16.03544
993.384	26.0593
993.755	61.15031
994.126	43.10022
994.497	-33.079
994.868	-27.05937
995.239	20.04655
995.61	-2.00489
995.98	-7.01645
996.351	4.00967
996.722	31.06991
997.092	5.01151
997.462	21.04786
997.833	19.0429
998.203	-26.06028
998.573	-5.01214
998.943	43.09718
999.313	37.08573
999.683	7.0163
1000.053	-19.04125
1000.423	-6.014
1000.792	-30.07502
1001.162	-23.05464
1001.531	40.09501
1001.901	35.0835
1002.27	-9.01897
1002.639	-7.01724
1003.009	-10.02296
1003.378	27.06685
1003.747	-13.02952
1004.116	-7.01618
1004.485	44.10067
1004.853	-8.01939
1005.222	-16.03846
1005.591	36.08164
1005.959	-15.03286
1006.328	11.02391
1006.696	-10.02326
1007.064	2.00482
1007.433	-17.04093
1007.801	-41.09631
1008.169	30.07219
1008.537	30.0634
1008.905	8.01811
1009.273	15.03546
1009.64	56.12962
1010.008	47.10695
1010.375	50.11389
1010.743	29.06195
1011.11	79.18166
1011.478	22.05294
1011.845	5.01126
1012.212	58.12666
1012.579	21.04981
1012.946	3.0068
1013.313	-3.00683
1013.68	14.03
1014.047	11.02526
1014.414	16.0363
1014.78	-9.02181
1015.147	-31.07191
1015.513	24.05564
1015.88	68.16517
1016.246	-6.01415
1016.612	17.03699
1016.978	46.10892
1017.344	23.05493
1017.71	35.08132
1018.076	-2.0045
1018.442	66.16343
1018.808	36.08754
1019.174	-44.10712
1019.539	-81.17429
1019.905	6.01373
1020.27	-15.03585
1020.636	21.04769
1021.001	-5.01162
1021.366	4.00933
1021.731	25.06307
1022.096	-6.01485
1022.461	49.11123
1022.826	53.12148
1023.191	9.02293
1023.556	-9.02026
1023.92	9.02114
1024.285	24.05568
1024.649	20.04688
1025.014	-23.05466
1025.378	16.03916
1025.742	19.04507
1026.107	3.0065
1026.471	28.06218
1026.835	33.0787
1027.199	-13.03041
1027.562	-5.01108
1027.926	10.02343
1028.29	-12.02954
1028.654	27.0592
1029.017	46.10879
1029.381	51.11699
1029.744	10.02472
1030.107	48.1085
1030.471	38.08778
1030.834	-31.06711
1031.197	49.11272
1031.56	10.02258
1031.923	33.08254
1032.286	70.15622
1032.648	13.02946
1033.011	48.10686
1033.374	24.05345
1033.736	-28.07204
1034.099	6.01414
1034.461	43.10545
1034.823	37.08908
1035.185	-4.00966
1035.548	33.07758
1035.91	39.08929
1036.272	75.16284
1036.634	37.08681
1036.995	0
1037.357	44.10326
1037.719	-6.01415
1038.08	65.14845
1038.442	23.05234
1038.803	-30.06872
1039.165	6.01457
1039.526	16.03728
1039.887	17.03909
1040.248	43.10364
1040.609	-2.00472
1040.97	12.02818
1041.331	44.10796
1041.692	82.18535
1042.053	-22.04808
1042.413	2.00446
1042.774	44.10281
1043.134	-28.06373
1043.495	54.13008
1043.855	83.19383
1044.215	4.00954
1044.576	-15.03503
1044.936	21.04583
1045.296	28.06725
1045.656	11.02573
1046.016	14.03233
1046.375	21.04902
1046.735	60.13202
1047.095	27.06064
1047.454	26.05174
1047.814	25.05783
1048.173	27.06089
1048.533	5.01102
1048.892	-26.06092
1049.251	5.01204
1049.61	28.06643
1049.969	5.01131
1050.328	47.09673
1050.687	-10.02339
1051.046	22.05131
1051.405	-10.02386
1051.763	37.08239
1052.122	-1.00241
1052.48	22.05213
1052.839	62.14157
1053.197	5.01132
1053.555	36.07641
1053.914	31.07257
1054.272	22.04991
1054.63	25.059
1054.988	-11.02556
1055.345	-7.01424
1055.703	52.11988
1056.061	34.08542
1056.419	22.05605
1056.776	-11.02533
1057.134	-12.02629
1057.491	33.07957
1057.848	28.06663
1058.206	-22.04922
1058.563	50.10432
1058.92	11.02422
1059.277	44.10406
1059.634	48.10606
1059.991	66.15107
1060.348	8.01745
1060.704	48.11221
1061.061	-4.00876
1061.418	7.01641
1061.774	9.02146
1062.131	15.03911
1062.487	-43.0971
1062.843	9.02166
1063.199	4.00963
1063.555	4.00902
1063.911	24.05803
1064.267	19.03704
1064.623	42.09907
1064.979	-4.00878
1065.335	51.11521
1065.691	-52.1195
1066.046	37.07718
1066.402	-33.07208
1066.757	8.01955
1067.112	54.12608
1067.468	8.01848
1067.823	-29.06615
1068.178	-12.02788
1068.533	17.03965
1068.888	39.08864
1069.243	11.02621
1069.598	13.0302
1069.952	37.08153
1070.307	-9.02173
1070.662	38.08768
1071.016	42.09121
1071.371	42.09172
1071.725	16.03642
1072.079	24.05562
1072.434	-2.00472
1072.788	-9.0204
1073.142	14.03325
1073.496	15.03412
1073.85	31.0686
1074.203	32.07463
1074.557	41.10671
1074.911	34.07707
1075.265	14.03122
1075.618	28.06579
1075.971	17.03881
1076.325	2.00497
1076.678	20.0439
1077.031	-5.01064
1077.385	-7.01474
1077.738	5.01081
1078.091	-6.01329
1078.444	18.03952
1078.796	43.10192
1079.149	48.11475
1079.502	12.02751
1079.855	53.11801
1080.207	6.01421
1080.56	3.00758
1080.912	1.00235
1081.264	38.08813
1081.617	29.06823
1081.969	23.05638
1082.321	-8.01883
1082.673	38.08435
1083.025	-20.04561
1083.377	25.05629
1083.728	25.05553
1084.08	11.02632
1084.432	-24.05588
1084.783	-5.01105
1085.135	15.0365
1085.486	22.04859
1085.838	32.07606
1086.189	43.10101
1086.54	17.03883
1086.891	53.13136
1087.242	97.22839
1087.593	-1.00231
1087.944	77.16668
1088.295	18.03906
1088.646	94.22077
1088.996	45.10455
1089.347	13.03054
1089.698	4.00923
1090.048	-2.00501
1090.398	14.03092
1090.749	-21.04817
1091.099	22.05414
1091.449	41.09856
1091.799	41.09856
1092.149	-4.0096
1092.499	-13.03074
1092.849	24.059
1093.199	-1.0024
1093.548	9.02111
1093.898	-22.05326
1094.248	-2.00493
1094.597	42.10473
1094.947	26.06736
1095.296	46.10964
1095.645	46.11462
1095.994	-15.03488
1096.343	48.11646
1096.692	27.06989
1097.041	36.09605
1097.39	-19.046
1097.739	-5.01262
1098.088	25.06437
1098.437	16.04142
1098.785	-2.0052
1099.134	-6.01523
1099.482	32.08574
1099.83	69.1742
1100.179	20.05158
1100.527	-27.06923
1100.875	14.03623
1101.223	25.06482
1101.571	-17.04578
1101.919	25.0648
1102.267	34.09396
1102.615	-4.01286
1102.962	-9.02891
1103.31	3.00964
1103.658	-6.01925
