Data from N1 R2 sample 12_Subt2__5__13-01-48-748.txt Node

Date: Wed Sep 17 13:01:48 PDT 2025
User: uwsun
Spectrometer: HDX01956
Trigger mode: 0
Integration Time (sec): 5.000000E-1
Scans to average: 1
Nonlinearity correction enabled: true
Boxcar width: 0
Storing dark spectrum: false
XAxis mode: Wavelengths
Number of Pixels in Spectrum: 2068
>>>>>Begin Spectral Data<<<<<
194.03	-6.01743
194.578	8.02599
195.127	-2.00641
195.676	10.03214
196.225	16.04262
196.773	-11.03079
197.321	32.08915
197.87	1.00262
198.418	66.17222
198.966	59.15754
199.513	57.14713
200.061	-9.02348
200.609	6.01618
201.156	-13.02943
201.704	9.02319
202.251	44.11879
202.798	20.0529
203.345	84.21044
203.892	41.10554
204.438	33.07996
204.985	39.09461
205.532	27.07233
206.078	12.03002
206.624	92.2333
207.17	66.15742
207.716	37.09268
208.262	55.11162
208.808	96.24362
209.354	104.25951
209.899	25.06424
210.445	41.10458
210.99	37.09224
211.535	97.23114
212.08	51.12069
212.625	26.06631
213.17	66.17057
213.715	78.18104
214.259	71.16841
214.804	11.02761
215.348	84.1969
215.892	94.23063
216.436	13.03044
216.98	10.02257
217.524	106.25554
218.068	74.18905
218.612	94.24116
219.155	61.14653
219.698	64.15447
220.242	33.08287
220.785	99.23446
221.328	35.08795
221.871	110.28142
222.414	82.20432
222.956	-10.02453
223.499	29.06594
224.041	13.03035
224.583	63.13451
225.126	51.11356
225.668	25.0618
226.21	91.23162
226.751	62.14003
227.293	33.07591
227.835	21.05241
228.376	53.12202
228.918	38.09585
229.459	72.18109
230	42.1024
230.541	33.07716
231.082	91.22274
231.622	-20.04646
232.163	23.0564
232.704	54.13674
233.244	50.12549
233.784	46.11278
234.324	93.21077
234.864	18.04147
235.404	23.05506
235.944	-2.00481
236.484	69.17358
237.023	24.05753
237.563	85.19897
238.102	31.07449
238.641	-6.01538
239.18	21.05023
239.719	73.18397
240.258	69.1565
240.797	49.11855
241.335	33.08137
241.874	104.20387
242.412	99.24151
242.95	63.15392
243.488	6.01377
244.026	114.26565
244.564	92.19076
245.102	79.18071
245.64	41.09916
246.177	24.05431
246.715	57.13848
247.252	44.10124
247.789	91.17008
248.326	53.12934
248.863	35.07848
249.4	43.09896
249.936	125.26225
250.473	82.19544
251.009	27.06293
251.546	68.15377
252.082	21.04628
252.618	37.08423
253.154	69.16763
253.69	51.11596
254.226	62.15009
254.761	58.13185
255.297	12.0268
255.832	81.19413
256.367	52.12375
256.903	94.21048
257.438	52.12341
257.972	51.11521
258.507	31.07234
259.042	61.13448
259.576	117.25976
260.111	29.06775
260.645	46.101
261.179	75.17735
261.713	39.08889
262.247	24.05582
262.781	66.14107
263.315	45.11051
263.849	-8.02048
264.382	42.09795
264.915	62.14851
265.449	-4.00998
265.982	36.0832
266.515	61.15125
267.048	13.02825
267.58	45.09862
268.113	22.04863
268.646	12.02991
269.178	17.03881
269.71	107.23786
270.243	74.17332
270.775	85.21948
271.307	27.06525
271.838	23.05529
272.37	43.10677
272.902	42.09664
273.433	99.22099
273.965	17.04207
274.496	42.10545
275.027	52.13107
275.558	68.16771
276.089	14.03567
276.62	18.04613
277.15	62.15392
277.681	21.04618
278.211	72.17698
278.741	72.16188
279.272	41.09548
279.802	14.03546
280.332	36.08649
280.861	10.0244
281.391	58.13366
281.921	35.08497
282.45	63.15769
282.98	101.26386
283.509	97.22233
284.038	89.20539
284.567	63.14863
285.096	81.19819
285.625	0
286.153	110.26398
286.682	86.19945
287.21	18.04369
287.739	56.13408
288.267	80.19658
288.795	94.24637
289.323	56.13347
289.851	63.15024
290.378	27.06144
290.906	90.22188
291.433	46.11628
291.961	87.20077
292.488	48.12064
293.015	88.20966
293.542	135.34676
294.069	95.23701
294.596	49.12136
295.122	114.27452
295.649	49.10911
296.175	92.2228
296.702	112.275
297.228	23.05644
297.754	40.09178
298.28	83.19322
298.806	46.11266
299.332	49.11182
299.857	60.1386
300.383	66.16773
300.908	40.1001
301.433	75.18596
301.958	73.16947
302.483	24.0606
303.008	82.20595
303.533	61.15904
304.058	42.09964
304.582	36.08676
305.107	18.04771
305.631	43.09939
306.155	90.21179
306.679	92.21851
307.203	51.12055
307.727	81.19413
308.251	106.26296
308.775	92.22606
309.298	108.26204
309.822	54.13752
310.345	138.33029
310.868	80.19527
311.391	88.21871
311.914	86.21747
312.437	70.16254
312.96	92.21902
313.482	31.07441
314.005	48.12164
314.527	18.04767
315.049	83.21216
315.571	113.25662
316.093	107.26665
316.615	58.14136
317.137	88.19461
317.659	113.27525
318.18	29.07059
318.702	122.28764
319.223	56.11684
319.744	105.23893
320.265	71.17552
320.786	147.36739
321.307	73.18265
321.828	128.2905
322.348	82.19566
322.869	158.37628
323.389	44.08907
323.909	73.16954
324.43	116.27891
324.95	83.19292
325.47	115.28711
325.989	95.22811
326.509	145.32634
327.029	125.28789
327.548	119.2721
328.067	88.21639
328.587	137.34463
329.106	80.18326
329.625	146.37965
330.144	130.30448
330.662	143.33735
331.181	149.35273
331.7	112.26284
332.218	133.29123
332.736	121.28579
333.255	105.2503
333.773	126.29961
334.291	109.27508
334.808	107.24457
335.326	115.26137
335.844	131.31072
336.361	203.51868
336.879	160.37767
337.396	185.44927
337.913	146.33941
338.43	160.36224
338.947	127.30599
339.464	116.25406
339.981	112.26857
340.497	149.36726
341.014	160.39052
341.53	145.32942
342.046	215.53266
342.562	167.41587
343.078	183.4302
343.594	167.39748
344.11	227.53841
344.626	158.39938
345.141	210.47795
345.657	234.52437
346.172	189.45485
346.687	175.40208
347.202	198.45155
347.717	179.4267
348.232	192.47612
348.747	226.51789
349.261	214.46829
349.776	226.53283
350.29	184.45978
350.805	214.52445
351.319	191.44322
351.833	186.42863
352.347	201.47306
352.861	207.48377
353.374	195.44264
353.888	278.6671
354.401	212.48015
354.915	221.49697
355.428	233.57429
355.941	176.4106
356.454	186.41424
356.967	200.46475
357.48	177.40211
357.993	264.63808
358.505	214.51627
359.018	251.60632
359.53	249.5999
360.042	273.6018
360.554	301.71994
361.066	186.45144
361.578	241.52815
362.09	228.53754
362.602	250.55168
363.113	276.63854
363.625	241.54217
364.136	245.53284
364.647	269.62766
365.158	261.59869
365.669	280.65576
366.18	247.57407
366.691	278.59882
367.201	256.60449
367.712	297.66594
368.222	323.72453
368.733	292.62303
369.243	302.66112
369.753	284.64216
370.263	288.68135
370.773	236.5674
371.282	326.75719
371.792	337.75841
372.301	282.66716
372.811	331.84177
373.32	348.7309
373.829	253.58801
374.338	305.66275
374.847	338.75708
375.356	373.84628
375.865	366.75853
376.373	374.81941
376.882	393.95352
377.39	394.91075
377.898	342.81314
378.407	444.95674
378.915	477.98347
379.423	422.93467
379.93	529.14355
380.438	431.98378
380.946	493.07423
381.453	542.20637
381.96	555.22591
382.468	609.30889
382.975	649.44335
383.482	647.31005
383.989	674.56723
384.495	689.44355
385.002	753.38883
385.509	785.64779
386.015	872.51708
386.521	894.7363
387.028	918.76776
387.534	916.64929
388.04	1003.01831
388.546	960.77015
389.051	1018.84275
389.557	1115.08237
390.063	1138.05091
390.568	1256.36434
391.073	1276.17265
391.578	1362.54331
392.084	1407.38103
392.589	1393.22113
393.093	1599.73565
393.598	1710.69405
394.103	1889.96527
394.607	1932.04585
395.112	2199.31568
395.616	2281.30433
396.12	2499.09853
396.624	2793.32009
397.128	3007.46906
397.632	3402.30303
398.136	3588.12873
398.639	3788.20703
399.143	4266.38299
399.646	4813.76452
400.15	5219.40612
400.653	5767.00527
401.156	6640.68342
401.659	7628.22478
402.162	9360.1753
402.664	12392.75934
403.167	17432.15736
403.67	32597.19552
404.172	60138.57178
404.674	63858.43483
405.176	63738.15102
405.678	63977.72923
406.18	64011.81569
406.682	63863.44694
407.184	63926.60148
407.686	63841.39382
408.187	55490.14217
408.688	32350.08177
409.19	22441.64834
409.691	17944.48179
410.192	15205.04167
410.693	13158.06033
411.194	11952.96105
411.694	11322.54395
412.195	10471.10804
412.696	9393.25398
413.196	8733.89029
413.696	8508.8296
414.196	8619.77984
414.696	8491.91729
415.196	7967.21544
415.696	7377.73588
416.196	5848.12572
416.695	4634.81042
417.195	3937.28372
417.694	3775.48342
418.194	3525.64117
418.693	3266.14555
419.192	3175.33395
419.691	2980.26181
420.19	3037.45189
420.688	2913.56173
421.187	2832.59021
421.685	2639.21222
422.184	2455.2356
422.682	2092.72745
423.18	1742.71545
423.678	1532.50745
424.176	1427.39568
424.674	1340.22871
425.172	1304.33936
425.669	1261.40553
426.167	1197.17132
426.664	1027.89349
427.161	993.87449
427.659	893.83519
428.156	853.52973
428.652	803.75878
429.149	786.6575
429.646	773.48921
430.143	712.50526
430.639	654.38311
431.135	616.3911
431.632	604.24322
432.128	527.16155
432.624	581.36594
433.12	514.07668
433.616	451.9211
434.111	473.04147
434.607	452.00741
435.103	440.85806
435.598	478.91757
436.093	388.85294
436.588	406.85872
437.083	356.75759
437.578	375.82177
438.073	326.78076
438.568	401.93005
439.062	297.61072
439.557	309.69199
440.051	266.57765
440.546	241.53171
441.04	317.728
441.534	286.69281
442.028	293.678
442.522	232.54123
443.015	201.4217
443.509	269.63087
444.002	269.63456
444.496	234.49278
444.989	275.64216
445.482	245.58714
445.975	255.5699
446.468	221.46591
446.961	249.52333
447.454	175.38546
447.947	216.50193
448.439	255.60411
448.931	288.6342
449.424	247.60789
449.916	227.53758
450.408	207.46148
450.9	208.49192
451.392	208.51409
451.884	169.38129
452.375	171.4148
452.867	194.42578
453.358	168.37787
453.849	176.36917
454.341	204.44886
454.832	137.29264
455.323	175.42674
455.814	150.3378
456.304	169.38347
456.795	183.40866
457.285	174.37529
457.776	217.47997
458.266	131.30688
458.756	127.29623
459.247	112.2653
459.737	222.52075
460.226	190.4228
460.716	163.38199
461.206	149.35028
461.695	104.25451
462.185	146.34088
462.674	145.32621
463.163	217.47215
463.653	153.32043
464.142	156.3708
464.63	153.3636
465.119	151.34485
465.608	183.41844
466.096	130.27847
466.585	145.32554
467.073	93.21769
467.561	127.30019
468.05	136.30816
468.538	122.29378
469.026	117.27387
469.513	110.23002
470.001	142.3207
470.489	105.24703
470.976	167.3817
471.463	131.32076
471.951	92.2264
472.438	111.25759
472.925	164.37763
473.412	121.28922
473.899	133.30019
474.385	129.31069
474.872	79.18318
475.359	127.30738
475.845	131.26743
476.331	105.22146
476.817	98.23599
477.303	151.34402
477.789	38.0906
478.275	95.2333
478.761	72.17002
479.247	100.22096
479.732	102.25156
480.218	81.21045
480.703	111.26977
481.188	88.1894
481.673	86.19637
482.158	90.19337
482.643	107.26984
483.128	109.25134
483.612	153.3573
484.097	51.12274
484.581	82.18852
485.066	107.25898
485.55	118.25779
486.034	56.12151
486.518	115.27183
487.002	46.11169
487.486	54.13072
487.969	49.11887
488.453	54.13391
488.936	64.14378
489.42	96.21061
489.903	62.15353
490.386	18.03757
490.869	81.17669
491.352	89.21216
491.835	42.08631
492.318	96.2138
492.8	93.19132
493.283	93.23496
493.765	53.12963
494.247	113.25963
494.73	140.30442
495.212	111.25962
495.694	93.21735
496.175	85.20278
496.657	126.29373
497.139	93.15861
497.62	142.33532
498.102	138.33746
498.583	97.23557
499.064	146.31936
499.545	163.36309
500.026	150.33282
500.507	155.34928
500.988	231.55738
501.469	193.46729
501.949	244.57973
502.43	220.51284
502.91	340.67786
503.39	259.61595
503.87	313.7021
504.35	303.67296
504.83	329.67773
505.31	381.85916
505.79	359.79666
506.269	413.8783
506.749	444.93373
507.228	505.08087
507.707	596.17937
508.187	614.30521
508.666	699.51993
509.145	727.47093
509.623	786.57123
510.102	856.74922
510.581	980.94147
511.059	1105.23916
511.538	1160.39068
512.016	1177.20606
512.494	1285.35268
512.972	1438.52323
513.45	1501.50174
513.928	1632.78143
514.406	1830.99668
514.884	1898.28375
515.361	1973.99569
515.839	2135.91721
516.316	2358.28074
516.793	2404.50721
517.27	2573.29042
517.747	2705.72012
518.224	2803.0812
518.701	2802.85398
519.178	2979.60097
519.654	3012.24392
520.131	3068.53387
520.607	3067.43898
521.083	3002.97966
521.56	3031.21379
522.036	3042.7514
522.512	3062.5139
522.987	2975.3563
523.463	2976.25223
523.939	2971.54891
524.414	2768.04322
524.89	2783.28666
525.365	2701.96984
525.84	2626.30483
526.315	2510.31847
526.79	2509.93891
527.265	2486.05962
527.74	2284.24018
528.215	2245.02286
528.689	2176.71167
529.164	2176.61726
529.638	2031.30811
530.112	1964.91321
530.587	1964.52727
531.061	1849.9578
531.534	1838.92932
532.008	1806.94403
532.482	1670.60644
532.956	1647.99139
533.429	1568.74549
533.903	1506.30349
534.376	1436.26762
534.849	1376.32639
535.322	1370.40085
535.795	1262.34102
536.268	1275.36696
536.741	1241.26391
537.213	1160.07373
537.686	1100.15778
538.158	1118.99658
538.631	993.9732
539.103	1012.84022
539.575	938.55251
540.047	927.64915
540.519	867.74494
540.991	875.80058
541.463	794.63705
541.934	753.45827
542.406	778.60906
542.877	712.3909
543.348	688.45954
543.82	675.44656
544.291	655.34744
544.762	605.28633
545.233	658.48422
545.703	556.10933
546.174	566.179
546.645	560.22434
547.115	550.20194
547.585	515.07521
548.056	527.1819
548.526	524.13151
548.996	452.99943
549.466	441.99483
549.935	456.00586
550.405	424.86262
550.875	424.93715
551.344	385.86109
551.814	402.85956
552.283	348.71574
552.752	368.81238
553.221	365.75764
553.69	379.8039
554.159	347.81947
554.628	349.7477
555.096	351.84718
555.565	279.59077
556.033	374.84011
556.502	281.6505
556.97	302.64073
557.438	260.58766
557.906	291.65705
558.374	293.64994
558.842	262.60447
559.31	285.6106
559.777	278.65286
560.245	203.45332
560.712	227.50355
561.18	227.48676
561.647	227.48739
562.114	249.55051
562.581	235.55996
563.048	281.61658
563.514	275.66378
563.981	251.55424
564.448	224.49079
564.914	264.5894
565.381	267.58636
565.847	215.48626
566.313	212.47781
566.779	248.5381
567.245	224.50258
567.711	215.4999
568.176	241.52213
568.642	261.63333
569.108	212.50661
569.573	190.42893
570.038	220.44555
570.504	234.51141
570.969	204.49196
571.434	264.56329
571.899	250.57151
572.363	269.59249
572.828	305.66839
573.293	219.48702
573.757	271.60415
574.222	235.50935
574.686	269.59448
575.15	264.61176
575.614	281.63654
576.078	263.59383
576.542	202.44838
577.006	273.59196
577.469	268.6338
577.933	263.5766
578.396	200.46199
578.86	224.51125
579.323	218.51037
579.786	224.4711
580.249	253.57522
580.712	198.46918
581.175	165.3989
581.637	162.36288
582.1	200.42452
582.563	194.40189
583.025	233.54901
583.487	266.52539
583.95	173.36328
584.412	231.46943
584.874	227.53674
585.336	163.3796
585.797	199.42193
586.259	188.42961
586.721	113.26285
587.182	206.46201
587.643	216.47666
588.105	193.44485
588.566	160.3279
589.027	256.60472
589.488	210.46885
589.949	246.57705
590.41	220.42249
590.87	258.56886
591.331	217.4607
591.791	224.5032
592.252	246.55353
592.712	189.44223
593.172	248.54452
593.632	300.63648
594.092	208.45093
594.552	243.50824
595.011	177.39689
595.471	233.51148
595.931	230.50309
596.39	216.50391
596.849	189.42989
597.308	210.43465
597.768	222.55632
598.227	184.43213
598.685	184.40995
599.144	201.46181
599.603	222.50342
600.062	206.42236
600.52	195.42987
600.978	168.38916
601.437	222.48949
601.895	191.39966
602.353	205.43807
602.811	226.49413
603.269	173.40289
603.727	201.46993
604.184	229.50545
604.642	187.44884
605.099	212.48133
605.557	225.53016
606.014	157.33245
606.471	191.46766
606.928	233.50114
607.385	198.48345
607.842	174.39073
608.299	207.47045
608.755	149.35491
609.212	136.2995
609.668	200.43951
610.125	185.43524
610.581	160.36798
611.037	120.26604
611.493	137.31502
611.949	162.38714
612.405	217.4283
612.861	148.33453
613.316	138.32562
613.772	159.35726
614.227	176.41367
614.683	177.36643
615.138	126.29164
615.593	138.31536
616.048	149.33493
616.503	134.32035
616.958	90.22376
617.412	115.27003
617.867	125.27625
618.321	172.34674
618.776	130.28232
619.23	104.2413
619.684	136.29862
620.138	131.2952
620.592	97.23318
621.046	149.34563
621.5	122.28954
621.954	108.23624
622.407	151.32729
622.861	116.27795
623.314	93.2088
623.768	152.35196
624.221	114.22168
624.674	124.28234
625.127	124.28405
625.58	85.1895
626.033	114.24599
626.485	77.18306
626.938	109.25645
627.39	114.26313
627.843	106.24155
628.295	115.26158
628.747	140.32777
629.199	125.28018
629.651	97.22019
630.103	98.22251
630.555	88.18393
631.006	76.17556
631.458	89.20752
631.909	92.20405
632.361	49.1129
632.812	76.1748
633.263	168.35535
633.714	79.16611
634.165	53.12668
634.616	94.21982
635.067	85.18558
635.518	55.12995
635.968	105.20354
636.419	134.28728
636.869	77.18095
637.319	108.2473
637.769	99.22007
638.219	98.22845
638.669	52.12322
639.119	37.08847
639.569	51.12195
640.019	83.19009
640.468	26.05848
640.918	69.16253
641.367	84.18638
641.816	74.16337
642.265	73.1692
642.714	32.07348
643.163	89.20375
643.612	74.18008
644.061	107.22588
644.51	72.16407
644.958	93.2033
645.406	89.21053
645.855	75.18064
646.303	102.23272
646.751	109.24884
647.199	36.08167
647.647	62.14334
648.095	55.125
648.543	79.15908
648.99	134.31594
649.438	61.14038
649.885	91.22447
650.333	79.15233
650.78	55.13242
651.227	62.15094
651.674	44.10035
652.121	72.17541
652.568	71.17275
653.015	30.07421
653.461	72.16996
653.908	63.14388
654.354	95.22351
654.801	26.06109
655.247	53.11444
655.693	39.10116
656.139	13.03113
656.585	77.18229
657.031	49.11488
657.477	110.23695
657.922	31.07051
658.368	60.14656
658.813	13.02968
659.259	68.16375
659.704	82.19266
660.149	26.06004
660.594	56.13229
661.039	74.16733
661.484	91.21301
661.929	97.22376
662.373	-12.03031
662.818	65.15957
663.262	69.16562
663.707	50.12661
664.151	47.11414
664.595	11.02669
665.039	68.1674
665.483	65.1641
665.927	48.11221
666.371	39.09165
666.814	50.11826
667.258	97.23079
667.701	67.14187
668.145	51.12627
668.588	39.09638
669.031	16.03772
669.474	11.02646
669.917	37.08099
670.36	97.23883
670.803	64.15353
671.245	19.039
671.688	104.2492
672.13	56.12606
672.573	53.13299
673.015	103.24469
673.457	34.07396
673.899	47.11316
674.341	47.11269
674.783	31.07418
675.225	28.06883
675.666	57.13864
676.108	45.09696
676.549	-2.00468
676.991	29.06364
677.432	25.04971
677.873	-10.02298
678.314	18.04285
678.755	118.28565
679.196	56.12715
679.637	-26.06273
680.078	47.1092
680.518	41.09371
680.959	2.00477
681.399	51.12534
681.839	24.05814
682.28	57.14055
682.72	-4.00919
683.16	37.09191
683.6	51.11525
684.039	57.11679
684.479	45.11047
684.919	45.10534
685.358	-13.03248
685.798	7.01821
686.237	16.03812
686.676	41.09224
687.115	38.08911
687.554	63.14932
687.993	35.07713
688.432	27.06144
688.871	90.20326
689.309	44.10487
689.748	37.07663
690.186	-3.00703
690.625	28.06556
691.063	8.01908
691.501	47.11534
691.939	49.12242
692.377	7.01696
692.815	105.25212
693.253	17.04035
693.69	27.0589
694.128	42.10125
694.565	30.07071
695.003	45.1141
695.44	43.10113
695.877	38.08886
696.314	3.00632
696.751	26.05865
697.188	84.19173
697.625	48.10637
698.061	6.01435
698.498	-18.04267
698.934	11.02622
699.371	1.00235
699.807	34.0797
700.243	5.01205
700.679	31.06866
701.115	80.18355
701.551	50.11491
701.987	30.06507
702.422	35.08295
702.858	35.08289
703.294	67.1516
703.729	-10.02433
704.164	12.02854
704.599	84.18436
705.035	62.13728
705.47	9.02178
705.904	20.04607
706.339	56.12694
706.774	44.10201
707.209	30.06936
707.643	59.1393
708.078	33.07957
708.512	4.01
708.946	4.00944
709.38	42.0988
709.814	-10.02263
710.248	54.13048
710.682	100.23523
711.116	74.17745
711.549	-10.02548
711.983	46.10504
712.416	96.22318
712.85	7.01725
713.283	40.09343
713.716	44.10772
714.149	4.00922
714.582	55.12191
715.015	-1.00244
715.448	44.10955
715.881	50.10581
716.313	24.0556
716.746	43.10062
717.178	29.06911
717.61	61.15285
718.043	-2.00492
718.475	36.08643
718.907	33.08146
719.339	34.07632
719.77	32.07592
720.202	9.02238
720.634	26.06327
721.065	-6.01409
721.497	37.08952
721.928	-12.02924
722.359	39.0939
722.79	43.10164
723.221	4.00986
723.652	55.13751
724.083	48.10633
724.514	56.12658
724.945	33.07634
725.375	9.02091
725.806	11.02687
726.236	39.09832
726.666	49.11371
727.096	24.05806
727.526	42.10685
727.956	84.18785
728.386	63.15156
728.816	71.17848
729.246	56.13608
729.675	-39.09514
730.105	47.11307
730.534	33.07585
730.964	2.00495
731.393	34.08209
731.822	28.0707
732.251	14.03519
732.68	26.05937
733.109	14.03421
733.537	45.10851
733.966	71.17391
734.395	87.19629
734.823	-12.02637
735.251	-17.04065
735.68	-7.01713
736.108	19.0469
736.536	41.09439
736.964	27.06171
737.392	20.04936
737.82	41.0962
738.247	21.04937
738.675	42.09691
739.102	20.04927
739.53	41.10399
739.957	70.1777
740.384	11.02616
740.811	-40.09923
741.238	38.09189
741.665	62.14305
742.092	-19.04338
742.519	12.02951
742.945	112.26468
743.372	49.11976
743.798	23.05809
744.225	29.06754
744.651	0
745.077	-2.00494
745.503	16.03811
745.929	65.15436
746.355	26.06225
746.781	20.04843
747.207	51.11905
747.632	39.09549
748.058	93.22873
748.483	42.09482
748.908	32.07857
749.334	64.15464
749.759	44.10318
750.184	58.13723
750.609	42.10102
751.033	47.10738
751.458	67.1456
751.883	4.00973
752.307	25.05799
752.732	58.14572
753.156	4.00974
753.58	74.16992
754.005	19.04697
754.429	54.12569
754.853	76.18502
755.277	33.07719
755.7	68.16499
756.124	28.0686
756.548	3.00701
756.971	33.07918
757.394	-12.0304
757.818	34.08637
758.241	44.10991
758.664	22.05478
759.087	54.11942
759.51	13.03161
759.933	25.05967
760.356	81.20427
760.778	36.08695
761.201	21.04991
761.623	-10.02352
762.046	39.08918
762.468	14.033
762.89	9.02164
763.312	72.17213
763.734	60.14152
764.156	25.06078
764.578	50.11122
765	79.18746
765.421	32.08046
765.843	81.20661
766.264	57.13154
766.686	1.00245
767.107	18.04295
767.528	48.12116
767.949	22.05492
768.37	77.1863
768.791	-9.02131
769.212	36.08924
769.632	-17.03954
770.053	-27.06998
770.473	8.01898
770.894	3.00726
771.314	39.08986
771.734	31.0708
772.154	-10.02521
772.575	36.08107
772.994	7.01559
773.414	35.08132
773.834	20.04891
774.254	45.10727
774.673	54.12925
775.093	19.04659
775.512	41.09924
775.931	12.02999
776.351	44.10756
776.77	72.17233
777.189	49.11367
777.607	14.03517
778.026	22.05384
778.445	26.06492
778.864	23.05711
779.282	-17.03997
779.701	22.05414
780.119	23.0573
780.537	13.03177
780.955	16.03966
781.373	34.08212
781.791	70.15461
782.209	-8.01773
782.627	-7.01821
783.045	25.05551
783.462	-3.00755
783.88	3.00766
784.297	-5.0124
784.715	0
785.132	-41.0977
785.549	4.00982
785.966	26.06408
786.383	33.07987
786.8	37.08368
787.217	40.0935
787.633	6.01488
788.05	17.03859
788.466	25.0567
788.883	94.2343
789.299	-5.01166
789.715	70.16575
790.131	42.10187
790.547	43.10439
790.963	19.04606
791.379	33.08158
791.795	8.01764
792.21	26.05884
792.626	30.06872
793.041	22.05294
793.457	22.05274
793.872	-25.05733
794.287	18.04275
794.702	-22.05243
795.117	34.08287
795.532	46.11328
795.947	25.05772
796.362	17.0387
796.776	37.08232
797.191	44.10499
797.605	18.04186
798.02	11.02613
798.434	53.114
798.848	52.12626
799.262	34.08222
799.676	14.03335
800.09	23.05514
800.504	11.02593
800.918	-11.02471
801.331	-24.06045
801.745	3.00669
802.158	-30.07314
802.572	57.13374
802.985	57.1318
803.398	43.09904
803.811	8.01967
804.224	-6.01442
804.637	42.09752
805.05	12.02685
805.462	29.06884
805.875	25.06352
806.288	14.0332
806.7	0
807.112	-29.06535
807.525	13.03074
807.937	26.06278
808.349	13.03152
808.761	18.04335
809.173	25.05923
809.584	72.17042
809.996	-31.07452
810.408	-6.01538
810.819	-35.08109
811.231	49.12771
811.642	49.11833
812.053	35.08312
812.464	9.02077
812.875	23.05763
813.286	55.13866
813.697	4.00886
814.108	8.01894
814.519	100.21467
814.929	2.00497
815.34	4.00935
815.75	52.12928
816.16	-28.06755
816.571	14.03535
816.981	29.06546
817.391	14.03253
817.801	47.11359
818.211	11.02543
818.62	24.05645
819.03	-10.02388
819.44	-21.05283
819.849	-22.05372
820.259	13.03204
820.668	26.06242
821.077	46.11178
821.486	4.00925
821.895	4.00948
822.304	-2.00517
822.713	11.02515
823.122	-2.00486
823.531	-36.08237
823.939	57.13463
824.348	16.03752
824.756	47.11311
825.164	35.08487
825.573	10.02446
825.981	52.12365
826.389	22.05356
826.797	68.16728
827.205	32.07159
827.612	8.01909
828.02	-48.11009
828.428	3.00744
828.835	-14.03639
829.243	17.03897
829.65	18.04389
830.057	-20.04717
830.464	20.04794
830.871	54.12509
831.278	-6.01415
831.685	-36.07815
832.092	13.03057
832.499	33.06994
832.905	5.01224
833.312	6.01299
833.718	43.10439
834.124	18.03992
834.531	-27.06594
834.937	30.07499
835.343	-19.04434
835.749	15.03337
836.155	2.00511
836.561	25.05969
836.966	42.09868
837.372	-10.02472
837.777	-9.02197
838.183	14.02989
838.588	35.08471
838.993	58.13595
839.399	36.08554
839.804	-9.02145
840.209	24.0601
840.613	-7.01508
841.018	5.01225
841.423	16.03995
841.828	6.01486
842.232	-20.04749
842.637	90.20509
843.041	19.04761
843.445	18.04346
843.849	22.05306
844.253	28.06404
844.657	6.01481
845.061	113.24765
845.465	3.00705
845.869	27.06054
846.272	4.00953
846.676	-31.07191
847.079	43.10669
847.483	51.12223
847.886	39.09058
848.289	23.06058
848.692	7.01711
849.095	32.07383
849.498	28.06763
849.901	34.07434
850.304	70.15997
850.707	-14.03472
851.109	51.12367
851.512	42.09991
851.914	-4.00991
852.316	37.09164
852.718	43.11045
853.121	24.05698
853.523	-8.01803
853.925	25.06408
854.326	21.05131
854.728	-7.01764
855.13	33.08343
855.531	41.09469
855.933	26.05963
856.334	7.01712
856.736	16.03498
857.137	22.04991
857.538	31.07608
857.939	48.11616
858.34	13.03035
858.741	-6.01525
859.142	56.12838
859.542	14.03624
859.943	3.00724
860.343	2.00485
860.744	24.05661
861.144	72.17002
861.544	24.05665
861.945	-17.04226
862.345	28.06581
862.745	1.00244
863.145	-17.03875
863.544	65.15857
863.944	9.02058
864.344	10.02376
864.743	55.13101
865.143	76.18943
865.542	-37.08263
865.941	-7.01694
866.34	18.0411
866.74	21.05492
867.139	64.1492
867.537	-28.06898
867.936	23.05378
868.335	20.04922
868.734	18.04475
869.132	-31.06928
869.531	27.06221
869.929	25.05523
870.327	8.01858
870.726	31.07384
871.124	18.04025
871.522	-12.0297
871.92	-11.02642
872.318	-13.03069
872.715	-11.02608
873.113	14.03283
873.511	11.02648
873.908	5.0125
874.306	31.07523
874.703	8.01922
875.1	9.02202
875.497	23.05302
875.894	49.11793
876.291	25.05946
876.688	-13.03279
877.085	-21.04869
877.482	17.04121
877.878	41.09646
878.275	4.00991
878.671	-24.05016
879.068	35.08135
879.464	9.02106
879.86	-12.02758
880.256	-9.02123
880.652	23.05665
881.048	-12.02861
881.444	11.02492
881.84	6.01479
882.236	59.14243
882.631	41.09755
883.027	3.00701
883.422	-9.02227
883.817	10.02461
884.213	8.01996
884.608	37.08962
885.003	-33.07697
885.398	29.07027
885.793	-8.01945
886.188	-13.03142
886.582	-3.00741
886.977	35.07932
887.371	-6.01466
887.766	14.03398
888.16	-38.09109
888.554	46.10858
888.949	12.02919
889.343	4.00942
889.737	-7.01841
890.131	31.07517
890.525	54.13406
890.918	-2.00489
891.312	35.07968
891.706	-26.06659
892.099	4.00985
892.492	19.03907
892.886	31.07296
893.279	13.03204
893.672	26.06457
894.065	-5.01219
894.458	-39.09496
894.851	21.04933
895.244	-22.05484
895.637	43.09998
896.029	65.1534
896.422	-13.03048
896.814	8.01921
897.206	31.07222
897.599	73.17255
897.991	25.05877
898.383	10.02291
898.775	74.16112
899.167	40.09111
899.559	19.04613
899.951	12.02705
900.342	-3.00734
900.734	62.15161
901.125	18.0455
901.517	36.08537
901.908	2.00457
902.299	-7.01669
902.69	51.11657
903.082	52.12089
903.473	51.11929
903.863	-26.06441
904.254	13.02952
904.645	36.08511
905.036	42.10003
905.426	61.13103
905.817	45.10542
906.207	1.00228
906.597	23.05244
906.987	-12.03005
907.378	17.04192
907.768	38.09763
908.158	67.15597
908.547	53.13404
908.937	-4.00985
909.327	7.01642
909.717	-15.03646
910.106	4.00925
910.495	17.04056
910.885	33.08098
911.274	13.03142
911.663	16.03895
912.052	11.02594
912.441	35.08672
912.83	-18.03977
913.219	23.05811
913.608	55.1299
913.997	24.05882
914.385	42.0964
914.774	31.07257
915.162	60.13866
915.55	17.03939
915.939	15.03701
916.327	22.05262
916.715	49.12238
917.103	7.01637
917.491	52.12308
917.878	-10.02382
918.266	11.02757
918.654	39.09705
919.041	8.0206
919.429	14.03189
919.816	-5.01231
920.203	40.09435
920.591	32.07674
920.978	23.05437
921.365	31.07913
921.752	-36.0823
922.139	60.12396
922.525	-11.02578
922.912	47.10963
923.299	38.09119
923.685	-17.04287
924.072	-11.02391
924.458	11.02653
924.844	18.04312
925.231	-8.01785
925.617	27.06724
926.003	21.05178
926.389	6.01468
926.774	1.00245
927.16	32.07647
927.546	44.11027
927.931	3.00721
928.317	-2.00442
928.702	28.06339
929.088	46.10698
929.473	59.14564
929.858	31.0737
930.243	13.03051
930.628	31.07356
931.013	16.03844
931.398	1.00218
931.783	3.0076
932.167	50.1188
932.552	14.03384
932.937	11.02625
933.321	20.04902
933.705	-49.11958
934.09	8.01916
934.474	1.00227
934.858	22.05545
935.242	-14.03135
935.626	0
936.009	35.09119
936.393	80.19796
936.777	9.02253
937.16	34.08634
937.544	24.05345
937.927	5.0124
938.311	43.10006
938.694	26.06689
939.077	-15.03488
939.46	-23.05367
939.843	2.0039
940.226	32.07886
940.609	39.08702
940.991	8.01962
941.374	3.00716
941.757	-2.00476
942.139	10.02174
942.522	39.08781
942.904	-7.01633
943.286	-7.01723
943.668	63.15882
944.05	0
944.432	-17.04063
944.814	1.00236
945.196	14.0333
945.578	16.03742
945.959	-58.13147
946.341	-10.02334
946.722	54.12042
947.104	54.1237
947.485	36.08044
947.866	12.02957
948.247	26.0641
948.628	-2.00463
949.009	-2.00498
949.39	26.06202
949.771	-6.01315
950.152	7.01666
950.532	71.17236
950.913	23.05337
951.293	39.1031
951.674	4.00937
952.054	63.15283
952.434	28.06722
952.814	-20.04563
953.194	-9.02262
953.574	50.11757
953.954	32.07218
954.334	27.06565
954.714	18.04262
955.093	39.09219
955.473	70.16978
955.853	42.10503
956.232	24.06382
956.611	31.07046
956.99	27.06587
957.37	14.03431
957.749	-4.00908
958.128	29.07106
958.506	34.08549
958.885	11.02678
959.264	57.13593
959.643	77.16775
960.021	39.09383
960.4	-2.00437
960.778	9.02109
961.156	-34.08287
961.535	6.01334
961.913	41.09258
962.291	41.10296
962.669	-34.08469
963.047	43.10646
963.424	38.09499
963.802	26.06185
964.18	35.08385
964.557	10.02206
964.935	49.11101
965.312	-2.0051
965.69	47.11196
966.067	-5.01165
966.444	-18.04224
966.821	23.05749
967.198	38.0874
967.575	37.08681
967.952	48.10788
968.329	11.02606
968.705	62.12718
969.082	48.12047
969.458	12.02825
969.835	20.04695
970.211	10.0252
970.587	47.11277
970.963	6.01479
971.339	21.05345
971.715	57.13692
972.091	54.12737
972.467	-57.13713
972.843	32.07758
973.219	70.15848
973.594	-18.04599
973.97	13.02897
974.345	-2.00466
974.721	6.01381
975.096	42.09853
975.471	37.08382
975.846	-10.0231
976.221	12.02958
976.596	36.08452
976.971	27.06481
977.346	22.04877
977.72	12.02945
978.095	8.02005
978.469	56.12715
978.844	-3.00727
979.218	58.13537
979.593	36.08237
979.967	-15.03475
980.341	-7.01567
980.715	34.08287
981.089	7.01696
981.463	29.0639
981.837	-6.01442
982.21	6.01306
982.584	7.01643
982.957	32.07761
983.331	13.02913
983.704	34.08156
984.078	37.08756
984.451	-45.10744
984.824	3.00713
985.197	27.06206
985.57	-1.00239
985.943	20.0467
986.316	21.04885
986.688	22.05098
987.061	74.16576
987.434	87.22027
987.806	-21.04869
988.179	-3.00681
988.551	36.08758
988.923	32.07536
989.295	-24.05803
989.667	11.02581
990.039	47.11367
990.411	-31.06811
990.783	15.03271
991.155	13.03032
991.527	10.02328
991.898	13.03151
992.27	29.06993
992.641	14.03371
993.012	-29.06441
993.384	13.02973
993.755	41.1014
994.126	52.12098
994.497	-10.02383
994.868	3.00656
995.239	17.03959
995.61	9.02196
995.98	37.0862
996.351	23.05542
996.722	18.0407
997.092	-12.02771
997.462	-6.01375
997.833	1.00227
998.203	26.05966
998.573	12.02904
998.943	17.03862
999.313	20.0465
999.683	20.04644
1000.053	-29.0631
1000.423	58.13366
1000.792	-16.03991
1001.162	-9.02132
1001.531	50.11853
1001.901	10.02397
1002.27	-58.12354
1002.639	-19.04689
1003.009	-3.00688
1003.378	19.04711
1003.747	-20.04548
1004.116	-20.04635
1004.485	9.02074
1004.853	-14.03397
1005.222	-52.12584
1005.591	50.11306
1005.959	9.01962
1006.328	18.03907
1006.696	2.00464
1007.064	-33.08011
1007.433	-22.05302
1007.801	5.01164
1008.169	-11.02667
1008.537	18.03814
1008.905	26.05865
1009.273	22.05193
1009.64	33.07673
1010.008	9.02064
1010.375	30.06861
1010.743	-4.00861
1011.11	65.14988
1011.478	32.07685
1011.845	25.05608
1012.212	21.04622
1012.579	8.01902
1012.946	-28.06388
1013.313	37.08355
1013.68	84.17729
1014.047	19.04357
1014.414	-1.00228
1014.78	-12.02909
1015.147	-4.00923
1015.513	22.05102
1015.88	-9.02218
1016.246	4.00941
1016.612	18.03916
1016.978	69.16265
1017.344	-9.02163
1017.71	32.07439
1018.076	-3.00675
1018.442	50.12418
1018.808	70.16914
1019.174	-14.03389
1019.539	9.01899
1019.905	48.10894
1020.27	-25.05987
1020.636	17.03864
1021.001	75.17156
1021.366	31.07191
1021.731	78.19491
1022.096	21.05173
1022.461	40.09097
1022.826	52.11921
1023.191	-7.01789
1023.556	20.04475
1023.92	-16.03777
1024.285	-43.10109
1024.649	-4.00942
1025.014	-19.04512
1025.378	30.07323
1025.742	-1.00238
1026.107	45.09662
1026.471	43.09519
1026.835	25.05971
1027.199	18.04185
1027.562	-4.00886
1027.926	-7.01646
1028.29	0
1028.654	22.04829
1029.017	77.18102
1029.381	20.04616
1029.744	22.05426
1030.107	18.04094
1030.471	30.06941
1030.834	-16.03452
1031.197	27.06238
1031.56	-30.06828
1031.923	17.04264
1032.286	68.15182
1032.648	-19.04334
1033.011	59.13105
1033.374	19.04236
1033.736	-50.12913
1034.099	21.04935
1034.461	29.0713
1034.823	31.07472
1035.185	-8.01934
1035.548	27.06355
1035.91	35.08019
1036.272	37.08099
1036.634	46.10774
1036.995	16.03583
1037.357	-26.06185
1037.719	0
1038.08	74.1687
1038.442	-4.00915
1038.803	-57.13128
1039.165	-29.0709
1039.526	57.13175
1039.887	30.06881
1040.248	42.10125
1040.609	4.00944
1040.97	-21.04964
1041.331	80.19498
1041.692	57.1295
1042.053	34.07343
1042.413	38.08403
1042.774	31.07262
1043.134	29.06524
1043.495	8.01944
1043.855	45.10587
1044.215	3.00715
1044.576	-16.03737
1044.936	33.07183
1045.296	45.10773
1045.656	-13.03055
1046.016	35.08048
1046.375	-9.02113
1046.735	22.04879
1047.095	28.06288
1047.454	22.04382
1047.814	52.11964
1048.173	29.06538
1048.533	-7.01546
1048.892	-19.04446
1049.251	-12.02898
1049.61	35.08292
1049.969	12.02711
1050.328	21.04347
1050.687	-4.00934
1051.046	9.02104
1051.405	26.06161
1051.763	42.09342
1052.122	40.09567
1052.48	66.15507
1052.839	39.08946
1053.197	0
1053.555	20.0426
1053.914	33.07722
1054.272	-31.07108
1054.63	-5.01187
1054.988	60.13744
1055.345	-37.07577
1055.703	52.11988
1056.061	22.05539
1056.419	61.15433
1056.776	20.04578
1057.134	-27.05935
1057.491	27.06518
1057.848	-27.06493
1058.206	-9.02008
1058.563	11.02315
1058.92	7.01543
1059.277	20.04752
1059.634	-2.00447
1059.991	80.1826
1060.348	-11.0241
1060.704	29.06804
1061.061	69.14886
1061.418	-3.00705
1061.774	6.01432
1062.131	24.06248
1062.487	-24.05398
1062.843	22.05282
1063.199	22.05278
1063.555	34.07619
1063.911	-15.03654
1064.267	-2.00392
1064.623	25.05916
1064.979	7.01533
1065.335	20.04547
1065.691	-37.08477
1066.046	31.06475
1066.402	-14.03046
1066.757	19.04633
1067.112	18.04232
1067.468	-1.00231
1067.823	-3.00681
1068.178	-14.03253
1068.533	13.03035
1068.888	8.0183
1069.243	17.04046
1069.598	-37.08681
1069.952	54.11857
1070.307	27.06473
1070.662	37.08539
1071.016	61.13194
1071.371	64.13911
1071.725	12.02733
1072.079	7.01628
1072.434	-34.08072
1072.788	-11.02494
1073.142	24.05689
1073.496	-51.11756
1073.85	-14.03127
1074.203	21.04908
1074.557	55.1428
1074.911	25.05677
1075.265	11.02454
1075.618	58.13547
1075.971	10.02286
1076.325	25.06185
1076.678	-29.06431
1077.031	-51.1096
1077.385	45.0937
1077.738	-19.04127
1078.091	10.02208
1078.444	4.00881
1078.796	43.10192
1079.149	31.07435
1079.502	-8.01841
1079.855	7.01574
1080.207	8.01894
1080.56	36.09038
1080.912	20.04673
1081.264	30.06969
1081.617	8.0189
1081.969	22.05394
1082.321	19.04448
1082.673	14.03123
1083.025	-7.01592
1083.377	45.10091
1083.728	6.01338
1084.08	-1.0024
1084.432	-6.01392
1084.783	-22.04877
1085.135	37.08965
1085.486	-9.02001
1085.838	26.06187
1086.189	6.0142
1086.54	39.08867
1086.891	46.11416
1087.242	32.0763
1087.593	13.02997
1087.944	47.1024
1088.295	37.07996
1088.646	41.09729
1088.996	1.00234
1089.347	-38.09015
1089.698	-18.04173
1090.048	-8.02006
1090.398	3.00664
1090.749	-6.01372
1091.099	42.10297
1091.449	43.10333
1091.799	4.00968
1092.149	27.06439
1092.499	23.05401
1092.849	2.00494
1093.199	28.06689
1093.548	36.08399
1093.898	7.01685
1094.248	43.10513
1094.597	32.07994
1094.947	30.07767
1095.296	15.03596
1095.645	-9.02265
1095.994	-4.00928
1096.343	13.03175
1096.692	53.13657
1097.041	35.0934
1097.39	32.07674
1097.739	23.05776
1098.088	15.03869
1098.437	17.044
1098.785	0
1099.134	-38.09701
1099.482	13.03494
1099.83	38.09647
1100.179	66.16885
1100.527	-10.02557
1100.875	20.05171
1101.223	51.13164
1101.571	-44.11902
1101.919	26.06738
1102.267	22.06091
1102.615	-5.01607
1102.962	-12.03856
1103.31	-1.00321
1103.658	-15.04818
