Data from N1 R2 sample 12_Subt2__1__13-01-44-748.txt Node

Date: Wed Sep 17 13:01:44 PDT 2025
User: uwsun
Spectrometer: HDX01956
Trigger mode: 0
Integration Time (sec): 5.000000E-1
Scans to average: 1
Nonlinearity correction enabled: true
Boxcar width: 0
Storing dark spectrum: false
XAxis mode: Wavelengths
Number of Pixels in Spectrum: 2068
>>>>>Begin Spectral Data<<<<<
194.03	-14.04073
194.578	1.00325
195.127	-5.01604
195.676	-6.01932
196.225	0
196.773	10.0279
197.321	-15.0421
197.87	-1.00262
198.418	31.08137
198.966	25.06713
199.513	38.09841
200.061	35.09063
200.609	47.12587
201.156	19.04273
201.704	14.03604
202.251	52.1402
202.798	27.07133
203.345	48.12103
203.892	15.03879
204.438	29.07032
204.985	29.07048
205.532	6.01613
206.078	28.06984
206.624	88.22332
207.17	127.29937
207.716	53.13237
208.262	47.09556
208.808	53.13552
209.354	93.23252
209.899	50.12792
210.445	-2.00514
210.99	19.04752
211.535	71.17003
212.08	24.05709
212.625	11.02813
213.17	65.16801
213.715	57.13285
214.259	72.17075
214.804	43.10732
215.348	56.13198
215.892	70.17251
216.436	10.02343
216.98	38.08526
217.524	57.13869
218.068	34.08747
218.612	82.21082
219.155	65.15602
219.698	62.1497
220.242	20.05034
220.785	106.2507
221.328	37.09294
221.871	91.23359
222.414	53.13275
222.956	-32.07881
223.499	-20.04593
224.041	-9.0211
224.583	-4.00866
225.126	46.10253
225.668	22.05442
226.21	68.17379
226.751	65.14671
227.293	37.08505
227.835	14.03498
228.376	57.13112
228.918	15.03799
229.459	18.04571
230	55.13377
230.541	84.19443
231.082	35.08656
231.622	50.11454
232.163	27.06616
232.704	67.16927
233.244	37.09308
233.784	63.15397
234.324	50.11431
234.864	11.02538
235.404	29.06934
235.944	11.0264
236.484	83.20827
237.023	42.10033
237.563	91.21276
238.102	61.14575
238.641	10.02557
239.18	34.08113
239.719	27.0686
240.258	52.11835
240.797	51.12335
241.335	13.03217
241.874	67.13249
242.412	51.12553
242.95	49.12003
243.488	29.06623
244.026	79.18536
244.564	83.17244
245.102	76.17396
245.64	26.06306
246.177	16.03627
246.715	86.2078
247.252	42.09668
247.789	73.13704
248.326	65.15827
248.863	21.04723
249.4	41.09439
249.936	98.20683
250.473	40.0961
251.009	28.06525
251.546	46.10448
252.082	3.00664
252.618	9.0206
253.154	31.07585
253.69	39.08889
254.226	85.20488
254.761	42.09579
255.297	18.04016
255.832	87.20827
256.367	94.22189
256.903	66.14864
257.438	71.16789
257.972	34.07707
258.507	23.05375
259.042	44.09734
259.576	83.18558
260.111	10.02345
260.645	69.15077
261.179	69.16335
261.713	78.17638
262.247	19.04423
262.781	46.09875
263.315	17.04197
263.849	32.08135
264.382	43.10026
264.915	77.18391
265.449	3.00748
265.982	60.138
266.515	65.16105
267.048	33.07141
267.58	48.10513
268.113	53.1164
268.646	20.04978
269.178	8.0183
269.71	82.18323
270.243	112.26037
270.775	82.21184
271.307	51.12269
271.838	40.09585
272.37	41.10184
272.902	34.07835
273.433	115.25585
273.965	67.1643
274.496	36.09048
275.027	45.11357
275.558	78.19202
276.089	66.1666
276.62	42.10719
277.15	39.09723
277.681	31.06802
278.211	21.05211
278.741	84.1884
279.272	37.08624
279.802	64.16068
280.332	33.07933
280.861	43.10427
281.391	38.08792
281.921	39.09461
282.45	61.15274
282.98	67.17605
283.509	76.17494
284.038	50.11628
284.567	123.28679
285.096	67.16436
285.625	7.01613
286.153	84.20258
286.682	64.14908
287.21	15.03643
287.739	22.05302
288.267	63.15529
288.795	51.13464
289.323	37.08851
289.851	119.28074
290.378	-14.03212
290.906	55.13647
291.433	60.15129
291.961	50.11624
292.488	2.00507
293.015	66.15791
293.542	108.27872
294.069	120.29802
294.596	19.04732
295.122	105.25327
295.649	44.09808
296.175	87.21089
296.702	89.21946
297.228	43.10513
297.754	63.14388
298.28	94.21835
298.806	54.13205
299.332	88.19923
299.857	42.09737
300.383	65.16521
300.908	57.14221
301.433	82.20305
301.958	94.21732
302.483	26.06563
303.008	91.22818
303.533	52.13578
304.058	-5.01197
304.582	58.13919
305.107	32.08461
305.631	63.14504
306.155	83.19558
306.679	42.10072
307.203	87.20421
307.727	51.12293
308.251	102.25322
308.775	137.33383
309.298	86.20952
309.822	37.09451
310.345	112.26939
310.868	79.19286
311.391	101.25042
311.914	86.21747
312.437	101.23308
312.96	51.12237
313.482	15.03611
314.005	51.12917
314.527	79.20709
315.049	93.2373
315.571	138.3118
316.093	48.1209
316.615	27.06619
317.137	73.16194
317.659	78.19124
318.18	90.21656
318.702	129.30373
319.223	63.13124
319.744	81.18521
320.265	87.21445
320.786	116.29154
321.307	97.24165
321.828	69.15847
322.348	82.19566
322.869	78.18861
323.389	156.30769
323.909	56.13049
324.43	95.22933
324.95	67.15622
325.47	128.31881
325.989	53.12828
326.509	100.22714
327.029	126.29014
327.548	97.22278
328.067	94.23089
328.587	175.43721
329.106	74.16972
329.625	110.28781
330.144	165.3838
330.662	136.32127
331.181	124.29497
331.7	91.21443
332.218	130.28484
332.736	145.34087
333.255	158.37281
333.773	70.16824
334.291	127.31948
334.808	126.28689
335.326	135.30558
335.844	158.37281
336.361	151.38935
336.879	142.33636
337.396	146.35715
337.913	137.31905
338.43	126.28724
338.947	132.31774
339.464	108.23694
339.981	159.37786
340.497	88.21934
341.014	137.33582
341.53	132.30067
342.046	226.55878
342.562	144.36009
343.078	163.38468
343.594	127.3046
344.11	216.51341
344.626	155.392
345.141	124.28713
345.657	203.45781
346.172	163.39421
346.687	146.3374
347.202	223.50599
347.717	201.47711
348.232	176.43772
348.747	190.43855
349.261	219.47873
349.776	207.48984
350.29	195.48629
350.805	229.55965
351.319	192.44546
351.833	243.5536
352.347	209.49113
352.861	232.53953
353.374	166.37903
353.888	214.51978
354.401	170.38832
354.915	228.51198
355.428	201.49834
355.941	195.45322
356.454	233.51385
356.967	161.37701
357.48	210.47388
357.993	217.52914
358.505	168.40883
359.018	272.65444
359.53	250.6022
360.042	200.44763
360.554	285.68376
361.066	183.44441
361.578	274.59628
362.09	211.49911
362.602	285.6243
363.113	300.69075
363.625	288.64165
364.136	219.47893
364.647	220.51828
365.158	220.5088
365.669	229.54168
366.18	221.51628
366.691	235.51087
367.201	239.56621
367.712	289.64907
368.222	276.62509
368.733	251.54031
369.243	272.59922
369.753	279.6315
370.263	316.74353
370.773	253.60631
371.282	344.79615
371.792	297.67388
372.301	281.66492
372.811	337.85611
373.32	316.66838
373.829	291.67124
374.338	298.64851
374.847	313.7047
375.356	331.7574
375.865	378.78129
376.373	368.80728
376.882	396.96026
377.39	380.88084
377.898	405.95121
378.407	436.94111
378.915	477.98347
379.423	478.04435
379.93	585.24969
380.438	464.04998
380.946	501.08985
381.453	528.17857
381.96	604.32067
382.468	585.26371
382.975	657.45874
383.482	599.226
383.989	665.54902
384.495	748.54695
385.002	711.32498
385.509	815.69955
386.015	857.49681
386.521	833.6411
387.028	859.67734
387.534	830.52694
388.04	964.95857
388.546	953.76028
389.051	1039.87085
389.557	1056.00047
390.063	1107.01056
390.568	1302.42379
391.073	1192.07456
391.578	1354.53327
392.084	1427.40214
392.589	1422.24917
393.093	1545.68047
393.598	1719.70146
394.103	1723.82986
394.607	2005.09767
395.112	2138.27936
395.616	2324.32476
396.12	2393.06907
396.624	2710.30918
397.128	3003.469
397.632	3345.31437
398.136	3518.14944
398.639	3750.22059
399.143	4136.44147
399.646	4821.76001
400.15	5221.40501
400.653	5853.96678
401.156	6405.72147
401.659	7561.19935
402.162	9308.06577
402.664	12112.57821
403.167	17060.72613
403.67	31989.56269
404.172	60034.20575
404.674	63858.43483
405.176	63738.15102
405.678	63977.72923
406.18	64011.81569
406.682	63863.44694
407.184	63926.60148
407.686	63841.39382
408.187	55172.30818
408.688	32079.54215
409.19	22219.41569
409.691	17785.49394
410.192	15109.11888
410.693	13082.51383
411.194	11728.76531
411.694	11162.84456
412.195	10257.44665
412.696	9278.01513
413.196	8606.68311
413.696	8255.55984
414.196	8470.57143
414.696	8226.65903
415.196	7934.19097
415.696	7162.67423
416.196	5830.13382
416.695	4474.89727
417.195	3917.2916
417.694	3711.51117
418.194	3448.66767
418.693	3292.14066
419.192	3108.33975
419.691	2949.26211
420.19	2994.45166
420.688	2895.55997
421.187	2758.5959
421.685	2565.19732
422.184	2424.22536
422.682	2049.70787
423.18	1791.75366
423.678	1537.51223
424.176	1440.40917
424.674	1407.29823
425.172	1283.31384
425.669	1205.32938
426.167	1149.1092
426.664	1012.87275
427.161	969.83981
427.659	906.8565
428.156	856.53395
428.652	764.68701
429.149	785.65575
429.646	703.37686
430.143	692.46931
430.639	627.33375
431.135	629.41673
431.632	559.16207
432.128	560.22588
432.624	549.29864
433.12	519.08598
433.616	486.9847
434.111	485.06526
434.607	463.02963
435.103	430.84055
435.598	430.83498
436.093	408.89313
436.588	430.90469
437.083	366.77717
437.578	434.9392
438.073	350.83439
438.568	348.81562
439.062	350.7111
439.557	287.64564
440.051	302.65079
440.546	217.48117
441.04	296.68263
441.534	257.62596
442.028	279.64741
442.522	259.601
443.015	246.51098
443.509	209.49591
444.002	241.57161
444.496	264.55228
444.989	204.48302
445.482	206.49735
445.975	244.54655
446.468	252.52765
446.961	221.46735
447.454	190.41718
447.947	172.40316
448.439	220.52472
448.931	238.5296
449.424	246.60554
449.916	247.58267
450.408	191.42722
450.9	164.39117
451.392	204.50458
451.884	181.40736
452.375	156.37948
452.867	184.40469
453.358	149.33644
453.849	166.34897
454.341	174.38527
454.832	162.34416
455.323	224.54121
455.814	152.34217
456.304	151.34388
456.795	153.34378
457.285	157.33986
457.776	190.42262
458.266	151.35235
458.756	105.24598
459.247	170.39816
459.737	210.49376
460.226	187.41638
460.716	185.43168
461.206	141.33199
461.695	109.2665
462.185	175.40626
462.674	153.34364
463.163	162.3566
463.653	165.34465
464.142	144.34307
464.63	145.34512
465.119	130.29815
465.608	212.48191
466.096	126.27013
466.585	106.23989
467.073	98.22917
467.561	81.19317
468.05	77.17656
468.538	154.36858
469.026	92.21641
469.513	82.17253
470.001	132.29873
470.489	132.30892
470.976	143.32843
471.463	124.30401
471.951	129.31527
472.438	76.17759
472.925	86.20111
473.412	85.20457
473.899	173.38728
474.385	91.22075
474.872	123.28272
475.359	134.3239
475.845	85.17534
476.331	92.1946
476.817	78.18854
477.303	98.22566
477.789	72.17055
478.275	95.2333
478.761	95.22333
479.247	95.21013
479.732	101.24914
480.218	124.31979
480.703	76.18592
481.188	135.28761
481.673	111.25218
482.158	91.19547
482.643	127.31913
483.128	126.28956
483.612	125.29351
484.097	33.07969
484.581	89.20433
485.066	126.30387
485.55	108.23644
486.034	96.20653
486.518	146.34302
487.002	84.20251
487.486	74.17847
487.969	44.10684
488.453	73.1804
488.936	70.15706
489.42	70.15441
489.903	68.1682
490.386	10.02091
490.869	103.22363
491.352	71.16984
491.835	50.10256
492.318	59.13241
492.8	89.18326
493.283	114.28693
493.765	104.25195
494.247	99.2281
494.73	89.19563
495.212	88.20676
495.694	110.25623
496.175	112.26581
496.657	146.33901
497.139	123.20808
497.62	153.36052
498.102	179.43437
498.583	109.26411
499.064	144.31512
499.545	140.31335
500.026	177.39052
500.507	143.32303
500.988	265.6353
501.469	213.51376
501.949	240.57066
502.43	300.68827
502.91	329.6576
503.39	284.67215
503.87	341.76049
504.35	337.74318
504.83	356.7289
505.31	382.86124
505.79	405.89012
506.269	484.01149
506.749	500.03668
507.228	548.16219
507.707	646.26356
508.187	700.46049
508.666	764.63852
509.145	791.57722
509.623	870.70567
510.102	973.9361
510.581	1046.03914
511.059	1168.33325
511.538	1243.51465
512.016	1373.45178
512.494	1408.49981
512.972	1574.66626
513.45	1652.64319
513.928	1770.90858
514.406	2015.13659
514.884	2151.48337
515.361	2218.13638
515.839	2432.02715
516.316	2572.35348
516.793	2685.60678
517.27	2813.33141
517.747	2961.76969
518.224	3122.06554
518.701	3184.80931
519.178	3239.59783
519.654	3310.20919
520.131	3345.51185
520.607	3376.40604
521.083	3413.9009
521.56	3403.15814
522.036	3458.64655
522.512	3416.47853
522.987	3318.32703
523.463	3250.22738
523.939	3316.53446
524.414	3207.01254
524.89	3150.28606
525.365	2967.96841
525.84	2902.34002
526.315	2842.38333
526.79	2763.96631
527.265	2698.0962
527.74	2517.32917
528.215	2482.1027
528.689	2381.77152
529.164	2316.65637
529.638	2284.47166
530.112	2227.05566
530.587	2176.61172
531.061	2153.16171
531.534	1975.02958
532.008	1942.04974
532.482	1893.77187
532.956	1778.12424
533.429	1776.94565
533.903	1631.406
534.376	1554.3735
534.849	1547.49805
535.322	1470.51029
535.795	1397.50628
536.268	1418.54088
536.741	1306.34416
537.213	1281.22026
537.686	1241.35478
538.158	1203.10092
538.631	1174.23432
539.103	1127.99053
539.575	997.62375
540.047	959.69215
540.519	1016.97547
540.991	921.8758
541.463	880.77965
541.934	830.57816
542.406	811.66503
542.877	850.60686
543.348	830.70676
543.82	712.51379
544.291	776.55336
544.762	688.43669
545.233	760.67887
545.703	626.229
546.174	621.27798
546.645	617.33293
547.115	568.23662
547.585	591.21342
548.056	591.30825
548.526	543.16785
548.996	487.06697
549.466	530.17183
549.935	488.06939
550.405	483.96944
550.875	494.07391
551.344	438.96889
551.814	437.92731
552.283	440.8862
552.752	400.8771
553.221	426.87221
553.69	438.91706
554.159	443.0245
554.628	408.86295
555.096	377.90545
555.565	323.67735
556.033	375.84218
556.502	332.76076
556.97	341.7173
557.438	309.69142
557.906	339.75791
558.374	335.7366
558.842	304.69549
559.31	273.58641
559.777	296.69268
560.245	264.58209
560.712	274.60186
561.18	275.58357
561.647	269.57234
562.114	307.6705
562.581	269.63678
563.048	273.60004
563.514	309.74104
563.981	313.68216
564.448	346.73855
564.914	285.63352
565.381	231.51115
565.847	284.63326
566.313	224.50362
566.779	294.63165
567.245	246.54944
567.711	243.56187
568.176	268.57728
568.642	262.63563
569.108	227.5409
569.573	240.53626
570.038	247.49714
570.504	289.62425
570.969	220.52894
571.434	294.62321
571.899	271.61689
572.363	302.66056
572.828	328.7153
573.293	288.63127
573.757	315.69583
574.222	249.53808
574.686	299.65663
575.15	287.66201
575.614	334.74843
576.078	241.54661
576.542	301.65434
577.006	275.59604
577.469	259.61358
577.933	292.63626
578.396	281.63861
578.86	263.59553
579.323	283.65409
579.786	303.62614
580.249	288.65014
580.712	216.51005
581.175	223.5332
581.637	196.43597
582.1	252.52881
582.563	235.48236
583.025	233.54901
583.487	231.46001
583.95	155.32678
584.412	237.48097
584.874	217.51409
585.336	244.55914
585.797	211.4462
586.259	209.47557
586.721	202.4616
587.182	211.47274
587.643	189.41944
588.105	197.45371
588.566	196.3984
589.027	276.64943
589.488	211.47098
589.949	223.52545
590.41	250.47663
590.87	242.53537
591.331	284.59412
591.791	210.47311
592.252	221.49982
592.712	214.49826
593.172	231.50901
593.632	320.67595
594.092	222.47984
594.552	271.56328
595.011	206.45916
595.471	281.61061
595.931	235.51348
596.39	226.5262
596.849	247.55521
597.308	218.4504
597.768	253.63045
598.227	174.40944
598.685	220.4865
599.144	229.52319
599.603	217.49258
600.062	211.43212
600.52	244.53236
600.978	214.49118
601.437	224.49369
601.895	247.51042
602.353	191.40939
602.811	242.52732
603.269	224.5164
603.727	220.51243
604.184	224.49493
604.642	228.54297
605.099	206.46827
605.557	201.47582
606.014	223.46538
606.471	210.51236
606.928	236.50726
607.385	227.55125
607.842	205.4574
608.299	215.48784
608.755	196.46264
609.212	186.4053
609.668	255.55388
610.125	191.44883
610.581	173.39685
611.037	186.40668
611.493	125.28812
611.949	218.51537
612.405	219.43205
612.861	165.37166
613.316	204.47517
613.772	150.33766
614.227	211.49254
614.683	150.31241
615.138	136.31416
615.593	105.24154
616.048	234.51681
616.503	157.37368
616.958	167.40935
617.412	147.34301
617.867	118.26117
618.321	168.33899
618.776	139.30128
619.23	143.32922
619.684	137.30075
620.138	153.34322
620.592	141.33612
621.046	221.50532
621.5	130.30805
621.954	93.20407
622.407	131.28515
622.861	135.32231
623.314	154.34141
623.768	160.3699
624.221	64.12593
624.674	112.25563
625.127	95.21889
625.58	126.27852
626.033	130.27955
626.485	83.1971
626.938	160.37269
627.39	183.41658
627.843	117.26602
628.295	138.31243
628.747	107.25213
629.199	95.21425
629.651	109.24683
630.103	116.26241
630.555	91.19008
631.006	112.25687
631.458	122.28261
631.909	54.12071
632.361	95.21688
632.812	111.2535
633.263	107.22935
633.714	75.15784
634.165	39.09347
634.616	70.16447
635.067	95.20697
635.518	43.10184
635.968	50.0982
636.419	113.24336
636.869	90.21096
637.319	136.30966
637.769	91.20263
638.219	122.28306
638.669	46.10913
639.119	93.22
639.569	78.18555
640.019	86.19685
640.468	28.06295
640.918	106.24788
641.367	76.16891
641.816	98.21527
642.265	103.23732
642.714	79.1797
643.163	96.21947
643.612	81.19686
644.061	95.20107
644.51	67.15283
644.958	84.18397
645.406	45.10736
645.855	33.08011
646.303	75.17205
646.751	102.23319
647.199	81.18208
647.647	63.14562
648.095	38.08666
648.543	82.165
648.99	66.15767
649.438	-6.01399
649.885	109.26798
650.333	123.23467
650.78	123.29231
651.227	81.19649
651.674	55.12516
652.121	115.27792
652.568	70.17035
653.015	48.11834
653.461	44.10443
653.908	82.18656
654.354	80.18877
654.801	18.04236
655.247	34.07371
655.693	36.09342
656.139	46.10947
656.585	58.13781
657.031	33.07761
657.477	75.16277
657.922	-16.03674
658.368	22.05412
658.813	69.15574
659.259	75.18036
659.704	72.1695
660.149	63.1444
660.594	79.18579
661.039	44.1001
661.484	40.09457
661.929	89.20564
662.373	16.04021
662.818	43.10599
663.262	68.16325
663.707	70.17663
664.151	59.14296
664.595	82.19634
665.039	31.07683
665.483	58.14661
665.927	53.12377
666.371	49.11492
666.814	46.10888
667.258	81.19331
667.701	29.06192
668.145	50.12381
668.588	73.17928
669.031	36.08455
669.474	71.16886
669.917	39.08533
670.36	62.15364
670.803	80.19133
671.245	21.04309
671.688	60.14498
672.13	64.14384
672.573	38.09561
673.015	64.15318
673.457	43.09336
673.899	53.12746
674.341	58.13877
674.783	54.12865
675.225	48.11755
675.666	61.14825
676.108	12.02604
676.549	54.12499
676.991	10.02203
677.432	27.05367
677.873	44.10002
678.314	41.09718
678.755	70.17099
679.196	39.08885
679.637	-12.02887
680.078	29.06762
680.518	60.13662
680.959	7.01669
681.399	24.05928
681.839	15.0364
682.28	93.2278
682.72	38.08656
683.16	37.09191
683.6	46.10406
684.039	61.12487
684.479	60.14689
684.919	59.13773
685.358	20.04967
685.798	5.01301
686.237	5.01194
686.676	-5.01135
687.115	90.2089
687.554	28.06681
687.993	35.07713
688.432	66.149
688.871	54.12286
689.309	57.13551
689.748	61.12566
690.186	-12.02817
690.625	49.11425
691.063	45.10657
691.501	73.17828
691.939	82.20365
692.377	9.0218
692.815	87.20962
693.253	15.03562
693.69	34.07406
694.128	-5.01216
694.565	52.12203
695.003	65.16422
695.44	47.11045
695.877	49.11434
696.314	19.0399
696.751	35.07881
697.188	60.13761
697.625	2.00447
698.061	33.07852
698.498	8.01887
698.934	66.15567
699.371	21.04923
699.807	66.15374
700.243	35.08385
700.679	15.03333
701.115	33.07643
701.551	54.124
701.987	0
702.422	74.17407
702.858	64.15072
703.294	95.21373
703.729	19.04597
704.164	-5.01193
704.599	42.093
705.035	13.02908
705.47	-9.02185
705.904	37.08494
706.339	41.09322
706.774	36.08359
707.209	48.11057
707.643	43.10184
708.078	14.03388
708.512	-4.01001
708.946	4.00944
709.38	6.01421
709.814	20.04499
710.248	23.0559
710.682	78.18426
711.116	91.21751
711.549	-17.04336
711.983	4.00921
712.416	80.18657
712.85	31.07605
713.283	4.00941
713.716	12.02955
714.149	-7.01617
714.582	48.10655
715.015	-13.03182
715.448	50.12436
715.881	19.04048
716.313	55.12662
716.746	42.0983
717.178	52.12337
717.61	28.07058
718.043	-2.00492
718.475	45.10785
718.907	4.00993
719.339	-8.01811
719.77	16.03808
720.202	30.07432
720.634	28.06811
721.065	14.03274
721.497	54.13023
721.928	-4.00973
722.359	4.00969
722.79	38.08991
723.221	43.10525
723.652	-1.00253
724.083	29.06449
724.514	36.0817
724.945	8.0186
725.375	39.09007
725.806	-18.04421
726.236	13.03293
726.666	43.09991
727.096	25.06046
727.526	52.13205
727.956	70.157
728.386	39.09425
728.816	76.19088
729.246	48.11681
729.675	-31.07551
730.105	54.12974
730.534	22.05068
730.964	22.05422
731.393	30.07249
731.822	33.08325
732.251	38.0951
732.68	-2.00459
733.109	23.05611
733.537	78.1869
733.966	26.06422
734.395	17.0389
734.823	6.01314
735.251	6.01428
735.68	-9.02203
736.108	-14.03477
736.536	31.07151
736.964	38.08666
737.392	62.15184
737.82	24.0565
738.247	63.14689
738.675	67.15382
739.102	12.02961
739.53	39.09895
739.957	45.11474
740.384	15.03565
740.811	-18.04448
741.238	14.03401
741.665	50.11564
742.092	-61.14044
742.519	55.13417
742.945	50.11958
743.372	41.10035
743.798	-17.04324
744.225	34.0791
744.651	-19.04723
745.077	71.17307
745.503	10.02384
745.929	95.22429
746.355	23.0551
746.781	18.04361
747.207	52.12136
747.632	10.02462
748.058	83.20451
748.483	43.09706
748.908	13.03203
749.334	61.14748
749.759	71.16561
750.184	53.12552
750.609	33.07951
751.033	58.13222
751.458	52.11336
751.883	51.12293
752.307	14.03255
752.732	104.25913
753.156	42.10152
753.58	42.09706
754.005	39.09606
754.429	88.20345
754.853	57.13926
755.277	55.12809
755.7	44.10724
756.124	45.1099
756.548	20.04655
756.971	29.06964
757.394	17.04284
757.818	70.17669
758.241	55.13712
758.664	48.11895
759.087	30.06668
759.51	26.06306
759.933	34.081
760.356	73.18436
760.778	17.04121
761.201	62.14618
761.623	-8.01881
762.046	29.06645
762.468	45.10542
762.89	-19.04592
763.312	69.16505
763.734	32.07589
764.156	3.00732
764.578	-4.009
765	27.06471
765.421	21.0529
765.843	69.17637
766.264	9.02097
766.686	43.10439
767.107	32.07615
767.528	54.13616
767.949	13.0325
768.37	55.13362
768.791	2.00472
769.212	1.00249
769.632	34.07829
770.053	-20.05178
770.473	15.03554
770.894	-11.0267
771.314	31.07154
771.734	25.05717
772.154	0
772.575	53.11894
772.994	30.06648
773.414	39.09054
773.834	22.05378
774.254	-1.0024
774.673	98.23259
775.093	42.10255
775.512	19.04618
775.931	42.10438
776.351	17.04177
776.77	37.08915
777.189	11.02571
777.607	-2.00504
778.026	24.05871
778.445	4.01003
778.864	12.02986
779.282	7.01638
779.701	-8.0198
780.119	22.05482
780.537	53.12857
780.955	9.02234
781.373	47.11324
781.791	63.13935
782.209	18.03967
782.627	-8.02081
783.045	-34.07641
783.462	42.10484
783.88	12.03059
784.297	15.03707
784.715	14.03553
785.132	25.05882
785.549	12.02942
785.966	34.08367
786.383	27.06542
786.8	42.0949
787.217	45.10509
787.633	40.09862
788.05	49.11051
788.466	29.06572
788.883	48.12064
789.299	-2.00466
789.715	49.1165
790.131	35.085
790.547	30.07301
790.963	22.0533
791.379	14.03473
791.795	2.00442
792.21	3.00682
792.626	7.01611
793.041	30.07208
793.457	18.04318
793.872	17.03865
794.287	25.0593
794.702	-3.00712
795.117	32.07802
795.532	37.09127
795.947	28.0646
796.362	29.06586
796.776	11.02461
797.191	44.10499
797.605	24.05575
798.02	23.05451
798.434	87.18575
798.848	83.20036
799.262	14.03398
799.676	71.1673
800.09	50.11926
800.504	2.00472
800.918	-24.05405
801.331	-47.11887
801.745	-2.00446
802.158	-14.03403
802.572	81.18916
802.985	13.03032
803.398	43.09904
803.811	28.06857
804.224	-8.01924
804.637	56.12967
805.05	12.02685
805.462	16.03808
805.875	-9.02301
806.288	3.00713
806.7	-12.02925
807.112	-5.01121
807.525	4.00948
807.937	24.05797
808.349	4.00972
808.761	42.10068
809.173	66.15513
809.584	18.04305
809.996	2.00478
810.408	38.09664
810.819	-11.02537
811.231	33.08624
811.642	73.17549
812.053	76.17905
812.464	2.00462
812.875	30.07508
813.286	42.10613
813.697	2.00443
814.108	23.0543
814.519	86.18517
814.929	46.11332
815.34	-37.08722
815.75	41.10214
816.16	-26.0627
816.571	-20.05081
816.981	36.08114
817.391	-4.00933
817.801	8.01948
818.211	-11.02554
818.62	23.05411
819.03	39.09226
819.44	-2.00501
819.849	3.00729
820.259	29.07127
820.668	84.19944
821.077	10.02446
821.486	24.05527
821.895	7.01657
822.304	5.01292
822.713	-25.05758
823.122	18.04357
823.531	-1.00227
823.939	35.08302
824.348	57.13259
824.756	12.02907
825.164	17.04136
825.573	10.02446
825.981	13.03114
826.389	0
826.797	91.2229
827.205	43.09599
827.612	4.00955
828.02	-19.04332
828.428	-6.01491
828.835	34.08766
829.243	26.05949
829.65	33.08023
830.057	-36.08518
830.464	39.09315
830.871	60.13882
831.278	-23.05441
831.685	30.06421
832.092	17.03995
832.499	39.08255
832.905	-16.03932
833.312	-12.02608
833.718	23.05605
834.124	26.05757
834.531	15.03635
834.937	59.14671
835.343	17.03939
835.749	-1.00223
836.155	46.11669
836.561	-18.04333
836.966	21.04954
837.372	13.032
837.777	31.07512
838.183	-3.00643
838.588	8.01946
838.993	6.01421
839.399	21.05004
839.804	-8.01906
840.209	45.11227
840.613	-2.0043
841.018	11.02692
841.423	18.04493
841.828	9.02227
842.232	3.00709
842.637	59.13529
843.041	-8.02014
843.445	-46.1124
843.849	9.02176
844.253	66.14979
844.657	2.00494
845.061	72.15916
845.465	27.06313
845.869	32.07168
846.272	25.0593
846.676	14.03219
847.079	53.13127
847.483	58.13882
847.886	13.03035
848.289	58.15186
848.692	-7.01716
849.095	20.04626
849.498	49.11788
849.901	-2.00441
850.304	43.0988
850.707	8.01976
851.109	39.09479
851.512	5.01198
851.914	27.0665
852.316	44.10884
852.718	51.13082
853.121	30.07115
853.523	19.04259
853.925	31.07938
854.326	26.06346
854.728	-9.02269
855.13	34.08595
855.531	18.04176
855.933	-1.00231
856.334	-3.00735
856.736	37.08054
857.137	62.13951
857.538	17.04183
857.939	59.14248
858.34	4.00935
858.741	29.07327
859.142	21.04848
859.542	-5.01299
859.943	2.00483
860.343	12.02907
860.744	-1.00237
861.144	67.15837
861.544	38.08946
861.945	-4.00992
862.345	26.06114
862.745	44.10636
863.145	35.07894
863.544	39.0956
863.944	34.07735
864.344	-47.1129
864.743	15.036
865.143	4.0101
865.542	-44.0984
865.941	43.1031
866.34	38.08642
866.74	34.08872
867.139	48.11225
867.537	-30.07393
867.936	49.11398
868.335	12.02957
868.734	18.04475
869.132	-34.07604
869.531	-26.06054
869.929	18.03982
870.327	0
870.726	44.10455
871.124	49.10888
871.522	-9.02227
871.92	44.10459
872.318	-13.03069
872.715	41.09624
873.113	14.03283
873.511	-1.00241
873.908	38.09441
874.306	6.01463
874.703	15.03599
875.1	16.0391
875.497	42.09644
875.894	20.0484
876.291	45.10661
876.688	27.0676
877.085	43.09844
877.482	-4.00973
877.878	23.0543
878.275	-10.02484
878.671	14.02902
879.068	68.15702
879.464	50.11605
879.86	27.06156
880.256	4.00941
880.652	16.03946
881.048	14.03321
881.444	-31.07083
881.84	-9.02225
882.236	25.06074
882.631	37.0881
883.027	40.09277
883.422	3.00741
883.817	17.04178
884.213	-23.05771
884.608	38.09203
885.003	-19.0442
885.398	0
885.793	21.05079
886.188	18.04325
886.582	36.08833
886.977	34.07707
887.371	1.00244
887.766	19.04607
888.16	-15.0358
888.554	29.06868
888.949	18.04374
889.343	7.01647
889.737	-1.00263
890.131	28.06794
890.525	44.10943
890.918	3.00733
891.312	40.09097
891.706	-8.02042
892.099	36.08817
892.492	15.03087
892.886	32.0753
893.279	-14.03468
893.672	36.08924
894.065	42.10152
894.458	-10.02422
894.851	16.03762
895.244	-36.08996
895.637	26.06066
896.029	29.06892
896.422	-27.06347
896.814	-2.00481
897.206	-1.00234
897.599	69.16322
897.991	24.05643
898.383	35.07977
898.775	72.15683
899.167	51.11591
899.559	-5.01219
899.951	33.07406
900.342	15.03659
900.734	16.03946
901.125	34.0857
901.517	9.02145
901.908	17.03872
902.299	2.00476
902.69	41.0939
903.082	38.08859
903.473	26.06111
903.863	-35.08684
904.254	51.11493
904.645	-7.01669
905.036	24.05736
905.426	25.05412
905.817	-28.06653
906.207	-53.12217
906.597	52.11787
906.987	6.01498
907.378	64.15645
907.768	13.03354
908.158	10.02354
908.547	55.13905
908.937	-27.0668
909.327	-4.0094
909.717	-10.02428
910.106	9.0208
910.495	-18.04323
910.885	44.10776
911.274	7.01694
911.663	46.11136
912.052	32.07516
912.441	31.07686
912.83	16.0351
913.219	10.02532
913.608	48.11352
913.997	26.0637
914.385	55.12592
914.774	62.14425
915.162	55.12723
915.55	43.09912
915.939	14.03455
916.327	11.02636
916.715	28.0702
917.103	11.02571
917.491	55.13011
917.878	2.00475
918.266	-9.02264
918.654	41.10199
919.041	10.02574
919.429	26.05908
919.816	32.07822
920.203	45.10604
920.591	25.06003
920.978	-3.00713
921.365	31.07913
921.752	-44.10075
922.139	33.06859
922.525	9.02101
922.912	42.09806
923.299	7.0169
923.685	-33.08346
924.072	-34.07428
924.458	17.04096
924.844	10.02399
925.231	35.07742
925.617	35.08703
926.003	17.04195
926.389	42.10206
926.774	29.07072
927.16	13.03118
927.546	46.11524
927.931	55.13086
928.317	0
928.702	23.05213
929.088	19.04442
929.473	51.12608
929.858	26.06187
930.243	40.09339
930.628	16.03808
931.013	15.03605
931.398	39.08432
931.783	-25.06361
932.167	65.154
932.552	48.11528
932.937	25.05951
933.321	19.04658
933.705	-37.09009
934.09	8.01916
934.474	-5.01138
934.858	29.07301
935.242	-31.06966
935.626	32.07965
936.009	40.10413
936.393	79.19552
936.777	50.12422
937.16	40.10147
937.544	31.06894
937.927	7.01735
938.311	65.1506
938.694	29.07457
939.077	-7.01625
939.46	-38.08893
939.843	8.01559
940.226	25.06169
940.609	45.10028
940.991	34.08299
941.374	37.0877
941.757	40.09453
942.139	20.0434
942.522	18.0407
942.904	24.05564
943.286	11.02698
943.668	90.22579
944.05	28.06661
944.432	22.05219
944.814	-28.06648
945.196	14.0333
945.578	9.02108
945.959	-29.06535
946.341	-6.01399
946.722	-6.01355
947.104	42.09644
947.485	16.0359
947.866	37.09077
948.247	36.08859
948.628	-41.0956
949.009	21.05209
949.39	-4.0096
949.771	-14.03074
950.152	58.1367
950.532	59.14355
950.913	-5.01167
951.293	10.02656
951.674	9.02105
952.054	37.09019
952.434	40.09581
952.814	13.02946
953.194	-22.05543
953.574	-14.03333
953.954	-9.02047
954.334	28.06806
954.714	28.06617
955.093	32.07574
955.473	52.12655
955.853	-19.04804
956.232	45.11924
956.611	46.10423
956.99	-2.00491
957.37	-26.06419
957.749	-11.025
958.128	-10.02468
958.506	17.04287
958.885	2.00488
959.264	-1.00241
959.643	44.09653
960.021	10.02419
960.4	31.06725
960.778	6.01407
961.156	-26.06327
961.535	-12.02678
961.913	63.14162
962.291	36.09048
962.669	19.04687
963.047	53.13098
963.424	89.22043
963.802	25.05948
964.18	-26.06301
964.557	38.08333
964.935	36.08177
965.312	45.11385
965.69	-1.0024
966.067	23.05331
966.444	-4.00936
966.821	44.10955
967.198	-32.07463
967.575	74.17237
967.952	37.08334
968.329	33.07785
968.705	55.113
969.082	39.09804
969.458	16.03764
969.835	37.08658
970.211	29.07282
970.587	45.10801
970.963	-16.03961
971.339	24.06106
971.715	43.10357
972.091	-11.02627
972.467	-23.05498
972.843	51.12321
973.219	55.1249
973.594	12.0305
973.97	-23.05164
974.345	59.13578
974.721	40.09145
975.096	36.08455
975.471	16.0364
975.846	23.05278
976.221	18.04433
976.596	69.16095
976.971	45.10764
977.346	16.03552
977.72	25.06121
978.095	7.01755
978.469	33.07528
978.844	56.13419
979.218	69.16069
979.593	24.05504
979.967	9.02075
980.341	40.08868
980.715	42.10221
981.089	31.07475
981.463	12.02654
981.837	20.04781
982.21	10.02175
982.584	24.05615
982.957	-30.07361
983.331	18.04029
983.704	55.13141
984.078	53.12503
984.451	30.0706
984.824	15.03555
985.197	-2.00462
985.57	-16.03835
985.943	5.01171
986.316	18.0419
986.688	36.0832
987.061	34.07679
987.434	32.08181
987.806	10.02305
988.179	2.00454
988.551	72.17397
988.923	-10.02374
989.295	15.036
989.667	-8.01884
990.039	62.14953
990.411	-24.05265
990.783	16.03488
991.155	-12.02813
991.527	14.03257
991.898	49.11797
992.27	41.09864
992.641	-8.01934
993.012	11.02423
993.384	30.06836
993.755	3.00747
994.126	94.21689
994.497	0
994.868	-48.10602
995.239	-11.02576
995.61	-3.00734
995.98	16.03743
996.351	17.04101
996.722	43.09674
997.092	34.07779
997.462	14.03195
997.833	22.04965
998.203	-24.05562
998.573	30.07235
998.943	65.14623
999.313	25.05806
999.683	8.01862
1000.053	-38.08284
1000.423	31.07183
1000.792	-27.06748
1001.162	12.02832
1001.531	11.02627
1001.901	-1.0024
1002.27	40.08338
1002.639	-22.05432
1003.009	-18.0414
1003.378	35.08653
1003.747	-13.02952
1004.116	-17.03937
1004.485	44.10067
1004.853	0
1005.222	-26.06261
1005.591	52.11754
1005.959	30.0651
1006.328	30.06496
1006.696	-22.05129
1007.064	-31.07523
1007.433	-11.02645
1007.801	-8.01867
1008.169	-25.06078
1008.537	37.07807
1008.905	23.05191
1009.273	-34.08113
1009.64	36.08366
1010.008	11.02521
1010.375	27.06179
1010.743	-2.0043
1011.11	51.11793
1011.478	22.05294
1011.845	39.08724
1012.212	45.09854
1012.579	11.02614
1012.946	3.0068
1013.313	63.1415
1013.68	30.06407
1014.047	-23.05318
1014.414	-4.00911
1014.78	-7.01696
1015.147	25.05735
1015.513	-2.00466
1015.88	18.04413
1016.246	31.07257
1016.612	21.04565
1016.978	22.05233
1017.344	39.09286
1017.71	46.10664
1018.076	13.02915
1018.442	25.06237
1018.808	38.09237
1019.174	-41.09976
1019.539	-7.01482
1019.905	52.11792
1020.27	-1.00238
1020.636	14.03184
1021.001	33.07613
1021.366	-3.00701
1021.731	73.18258
1022.096	-3.00742
1022.461	-4.00918
1022.826	13.03004
1023.191	17.04326
1023.556	31.0692
1023.92	11.02583
1024.285	-18.04211
1024.649	32.07483
1025.014	-16.03797
1025.378	41.09987
1025.742	3.00714
1026.107	39.08385
1026.471	22.04892
1026.835	42.09999
1027.199	-6.01401
1027.562	-21.0467
1027.926	28.06538
1028.29	9.02207
1028.654	-4.00883
1029.017	16.03806
1029.381	13.03005
1029.744	25.06162
1030.107	24.05451
1030.471	18.04175
1030.834	0
1031.197	61.13999
1031.56	37.08307
1031.923	25.06262
1032.286	71.15842
1032.648	34.07673
1033.011	65.14419
1033.374	-4.00896
1033.736	1.00256
1034.099	22.05169
1034.461	-9.02228
1034.823	21.05071
1035.185	-32.0777
1035.548	36.08458
1035.91	8.01843
1036.272	35.07664
1036.634	62.14476
1036.995	39.08691
1037.357	27.06357
1037.719	17.03992
1038.08	41.09409
1038.442	2.00457
1038.803	-1.00228
1039.165	-14.03413
1039.526	15.03496
1039.887	17.03909
1040.248	17.04118
1040.609	3.00708
1040.97	-15.03541
1041.331	-10.02478
1041.692	16.03665
1042.053	1.00217
1042.413	39.08623
1042.774	54.12593
1043.134	14.03159
1043.495	16.03882
1043.855	68.15927
1044.215	1.00239
1044.576	34.07864
1044.936	19.04148
1045.296	52.12432
1045.656	-10.02349
1046.016	-10.0232
1046.375	13.03039
1046.735	36.07961
1047.095	43.09626
1047.454	36.07147
1047.814	-36.08429
1048.173	0
1048.533	-13.02875
1048.892	-13.03038
1049.251	7.01685
1049.61	-3.00716
1049.969	1.00226
1050.328	56.11502
1050.687	-6.01402
1051.046	-31.07305
1051.405	-34.0815
1051.763	39.0868
1052.122	-19.04595
1052.48	13.03086
1052.839	46.10537
1053.197	-3.0068
1053.555	-1.00214
1053.914	16.03756
1054.272	-49.11276
1054.63	2.00474
1054.988	6.01389
1055.345	-17.03466
1055.703	39.09015
1056.061	77.19196
1056.419	33.08391
1056.776	15.03437
1057.134	-7.01532
1057.491	-8.01944
1057.848	-11.02637
1058.206	-3.00669
1058.563	-10.02114
1058.92	43.09404
1059.277	25.05935
1059.634	25.05551
1059.991	56.12844
1060.348	40.08668
1060.704	66.15374
1061.061	8.01748
1061.418	1.00235
1061.774	11.02622
1062.131	33.08577
1062.487	-13.02917
1062.843	44.10519
1063.199	27.06471
1063.555	39.08731
1063.911	34.08206
1064.267	10.01954
1064.623	33.07797
1064.979	-61.13549
1065.335	24.05451
1065.691	17.03853
1066.046	31.06475
1066.402	11.0238
1066.757	27.06574
1067.112	3.00707
1067.468	26.05985
1067.823	-59.1354
1068.178	-26.06056
1068.533	15.035
1068.888	17.03881
1069.243	0
1069.598	-30.07029
1069.952	36.07935
1070.307	5.01204
1070.662	65.14917
1071.016	40.0869
1071.371	33.0722
1071.725	-3.00685
1072.079	17.03945
1072.434	-6.01417
1072.788	-3.00679
1073.142	64.15055
1073.496	16.03639
1073.85	-22.04922
1074.203	-26.06133
1074.557	28.07304
1074.911	41.09281
1075.265	24.05341
1075.618	28.06579
1075.971	15.03426
1076.325	12.02976
1076.678	-3.00662
1077.031	-45.09658
1077.385	-7.01474
1077.738	-1.00216
1078.091	31.06814
1078.444	-15.03316
1078.796	47.11131
1079.149	17.04088
1079.502	31.0708
1079.855	14.03143
1080.207	4.00948
1080.56	-14.03546
1080.912	6.01406
1081.264	42.09733
1081.617	-9.02133
1081.969	6.01475
1082.321	-24.05665
1082.673	37.08215
1083.025	23.052
1083.377	37.0831
1083.728	16.0356
1084.08	-9.02162
1084.432	-22.05121
1084.783	-24.05323
1085.135	13.03164
1085.486	10.02214
1085.838	7.01672
1086.189	46.10799
1086.54	-24.05527
1086.891	72.17783
1087.242	51.12116
1087.593	53.12119
1087.944	16.03509
1088.295	-11.02402
1088.646	55.13016
1088.996	10.02339
1089.347	3.00706
1089.698	18.04143
1090.048	-16.04017
1090.398	3.00664
1090.749	-14.03207
1091.099	29.07127
1091.449	19.04587
1091.799	-2.00485
1092.149	1.0024
1092.499	-5.0118
1092.849	-13.03217
1093.199	31.07401
1093.548	29.06775
1093.898	-15.03626
1094.248	25.06133
1094.597	-17.04284
1094.947	6.0156
1095.296	94.22197
1095.645	21.05256
1095.994	32.07372
1096.343	55.13327
1096.692	43.11099
1097.041	49.13045
1097.39	-15.03629
1097.739	-12.03032
1098.088	2.00517
1098.437	12.03109
1098.785	-6.01562
1099.134	-19.04834
1099.482	58.15474
1099.83	42.10655
1100.179	36.09259
1100.527	-36.09246
1100.875	17.04397
1101.223	40.10345
1101.571	-17.04578
1101.919	16.04154
1102.267	6.01665
1102.615	8.02568
1102.962	3.00962
1103.31	11.0353
1103.658	-4.01283
