Data from N1 R2 sample 5_Subt2__2__13-54-39-177.txt Node

Date: Wed Sep 17 13:54:39 PDT 2025
User: uwsun
Spectrometer: HDX01956
Trigger mode: 0
Integration Time (sec): 5.000000E-1
Scans to average: 1
Nonlinearity correction enabled: true
Boxcar width: 0
Storing dark spectrum: false
XAxis mode: Wavelengths
Number of Pixels in Spectrum: 2068
>>>>>Begin Spectral Data<<<<<
194.03	1.0029
194.578	5.01625
195.127	2.00641
195.676	-4.01288
196.225	3.00801
196.773	-11.03079
197.321	11.03075
197.87	8.02093
198.418	-4.01056
198.966	21.05643
199.513	29.07522
200.061	6.01561
200.609	8.02156
201.156	9.02028
201.704	16.04118
202.251	31.08387
202.798	-13.03457
203.345	65.1634
203.892	21.05424
204.438	-23.05632
204.985	27.06565
205.532	35.09364
206.078	15.0375
206.624	91.23081
207.17	89.21135
207.716	63.15706
208.262	51.10359
208.808	67.1709
209.354	50.12598
209.899	-10.02585
210.445	8.02052
210.99	37.09224
211.535	75.17947
212.08	36.08544
212.625	44.11186
213.17	34.08836
213.715	36.08425
214.259	35.0836
214.804	-18.04542
215.348	32.07577
215.892	51.12613
216.436	-17.04004
216.98	18.04055
217.524	52.12664
218.068	79.20165
218.612	50.12926
219.155	51.12274
219.698	48.1162
220.242	45.11276
220.785	107.25301
221.328	13.0328
221.871	67.1727
222.414	60.1501
222.956	20.04878
223.499	15.0342
224.041	21.04895
224.583	4.00865
225.126	55.12237
225.668	23.05688
226.21	40.10273
226.751	76.17116
227.293	18.04153
227.835	45.11182
228.376	36.08316
228.918	12.03041
229.459	-11.02808
230	63.153
230.541	31.07251
231.082	31.07672
231.622	-18.0418
232.163	56.13648
232.704	69.17426
233.244	36.09058
233.784	25.06153
234.324	79.17955
234.864	-25.05808
235.404	34.08122
235.944	77.1825
236.484	62.15616
237.023	9.02164
237.563	37.08742
238.102	53.12683
238.641	7.01791
239.18	16.03831
239.719	31.07871
240.258	41.09352
240.797	47.11376
241.335	21.0519
241.874	33.06578
242.412	68.16684
242.95	57.13941
243.488	-2.0046
244.026	43.1016
244.564	77.16019
245.102	43.09908
245.64	2.00487
246.177	31.07006
246.715	59.14329
247.252	-13.03025
247.789	120.22266
248.326	11.02705
248.863	41.09182
249.4	28.06463
249.936	112.23566
250.473	33.07939
251.009	-1.00234
251.546	49.11123
252.082	-15.0333
252.618	20.04569
253.154	6.01475
253.69	22.05032
254.226	21.05123
254.761	48.10934
255.297	15.03348
255.832	56.13485
256.367	51.12139
256.903	40.09056
257.438	44.10459
257.972	47.10626
258.507	10.02343
259.042	59.13012
259.576	65.14587
260.111	30.07007
260.645	30.06609
261.179	53.12586
261.713	40.09115
262.247	0
262.781	75.15999
263.315	-21.0522
263.849	21.05349
264.382	30.07013
264.915	51.12242
265.449	-6.01498
265.982	33.07631
266.515	64.1586
267.048	46.09926
267.58	43.09428
268.113	43.09464
268.646	0
269.178	27.06151
269.71	66.14797
270.243	62.14556
270.775	74.19144
271.307	19.04599
271.838	54.12905
272.37	14.03495
272.902	26.06001
273.433	46.10381
273.965	39.09613
274.496	2.00506
275.027	56.14105
275.558	42.10408
276.089	22.05597
276.62	18.04613
277.15	50.1244
277.681	27.0593
278.211	54.13318
278.741	19.04318
279.272	34.07929
279.802	27.06824
280.332	29.06977
280.861	5.01221
281.391	89.20383
281.921	33.08014
282.45	35.08805
282.98	52.13698
283.509	106.24252
284.038	65.15072
284.567	58.13696
285.096	38.09372
285.625	-4.00924
286.153	62.15015
286.682	44.1029
287.21	20.04853
287.739	39.09368
288.267	5.01246
288.795	20.05308
289.323	41.098
289.851	82.19484
290.378	37.08403
290.906	46.11433
291.433	9.0229
291.961	76.17577
292.488	14.0354
293.015	49.11761
293.542	83.21513
294.069	47.11828
294.596	33.08197
295.122	80.19388
295.649	42.09366
296.175	37.09053
296.702	72.17809
297.228	13.03196
297.754	73.16638
298.28	65.15185
298.806	-4.00989
299.332	19.04362
299.857	52.12031
300.383	60.15264
300.908	47.11747
301.433	78.19329
301.958	60.13965
302.483	18.0455
303.008	105.26262
303.533	18.04727
304.058	39.09258
304.582	32.07717
305.107	26.06882
305.631	65.14959
306.155	59.13968
306.679	57.1363
307.203	54.12757
307.727	43.1038
308.251	67.1674
308.775	118.28855
309.298	43.1056
309.822	8.02054
310.345	79.19121
310.868	77.18805
311.391	103.25529
311.914	38.09691
312.437	71.16483
312.96	41.09856
313.482	5.01206
314.005	9.02296
314.527	14.0371
315.049	67.17174
315.571	96.21876
316.093	46.11591
316.615	21.05153
317.137	-5.01127
317.659	76.1864
318.18	-10.02452
318.702	44.10531
319.223	23.04834
319.744	74.16945
320.265	62.15353
320.786	74.18739
321.307	48.12064
321.828	65.14941
322.348	28.0675
322.869	108.25967
323.389	146.28864
323.909	36.08422
324.43	55.13377
324.95	40.09376
325.47	78.19604
325.989	42.10187
326.509	80.18245
327.029	58.13537
327.548	78.17983
328.067	47.11645
328.587	83.21081
329.106	60.138
329.625	84.22076
330.144	116.27244
330.662	74.17691
331.181	101.24132
331.7	51.12111
332.218	76.16842
332.736	72.17167
333.255	66.15851
333.773	46.11106
334.291	93.23538
334.808	75.17253
335.326	39.09
335.844	59.14189
336.361	145.37427
336.879	129.30633
337.396	141.34524
337.913	83.19535
338.43	53.1226
338.947	46.11253
339.464	62.13734
339.981	56.13572
340.497	89.2218
341.014	50.12454
341.53	94.21576
342.046	134.3369
342.562	71.17989
343.078	103.24591
343.594	59.14334
344.11	148.35638
344.626	139.35254
345.141	105.24405
345.657	109.25054
346.172	118.2878
346.687	60.14103
347.202	140.32302
347.717	118.28458
348.232	93.23479
348.747	128.29909
349.261	70.15784
349.776	85.20588
350.29	94.23871
350.805	104.26007
351.319	103.24318
351.833	110.25734
352.347	109.26113
352.861	140.33149
353.374	96.22229
353.888	113.27966
354.401	78.18147
354.915	156.35548
355.428	107.26984
355.941	72.17141
356.454	128.2885
356.967	95.22534
357.48	80.18532
357.993	105.26138
358.505	58.14404
359.018	117.28977
359.53	127.31304
360.042	111.25299
360.554	151.37151
361.066	70.17359
361.578	164.36525
362.09	125.3006
362.602	153.34449
363.113	166.39244
363.625	131.30135
364.136	125.27879
364.647	137.32796
365.158	130.30603
365.669	107.25907
366.18	136.32302
366.691	163.35978
367.201	121.29319
367.712	151.34874
368.222	136.31679
368.733	137.30214
369.243	195.43653
369.753	162.37541
370.263	179.43241
370.773	76.18826
371.282	204.48526
371.792	182.42259
372.301	155.37571
372.811	179.46745
373.32	164.35843
373.829	162.38328
374.338	181.40369
374.847	187.43188
375.356	126.30019
375.865	253.53759
376.373	194.44118
376.882	174.4395
377.39	174.41978
377.898	206.5026
378.407	204.46223
378.915	250.54175
379.423	210.48567
379.93	308.69841
380.438	181.43394
380.946	286.65169
381.453	273.6425
381.96	277.64836
382.468	286.65826
382.975	303.72306
383.482	277.60908
383.989	362.8946
384.495	399.89055
385.002	366.74123
385.509	431.97625
386.015	447.86571
386.521	439.94576
387.028	442.94916
387.534	438.88582
388.04	491.10375
388.546	532.08496
389.051	530.07745
389.557	568.20363
390.063	597.2241
390.568	595.30069
391.073	598.20323
391.578	660.44507
392.084	711.42866
392.589	751.41559
393.093	805.66829
393.598	817.61632
394.103	899.8119
394.607	1063.08945
395.112	1081.16761
395.616	1172.27136
396.12	1235.201
396.624	1376.46154
397.128	1550.73208
397.632	1751.8527
398.136	1815.82986
398.639	1904.98489
399.143	2110.36076
399.646	2384.29333
400.15	2662.2808
400.653	2967.20909
401.156	3424.08495
401.659	3922.41365
402.162	4785.65136
402.664	6297.54809
403.167	9184.89265
403.67	17234.78611
404.172	54085.71127
404.674	62477.1979
405.176	63738.15102
405.678	63977.72923
406.18	64011.81569
406.682	63863.44694
407.184	63926.60148
407.686	63841.39382
408.187	27151.23066
408.688	16347.33997
409.19	11086.67802
409.691	8946.49229
410.192	7532.14386
410.693	6532.51053
411.194	5849.96851
411.694	5463.47016
412.195	5093.04458
412.696	4583.84739
413.196	4266.3021
413.696	4102.20531
414.196	4152.65063
414.696	4128.42405
415.196	3850.13316
415.696	3504.02341
416.196	2791.33146
416.695	2270.20794
417.195	1886.04976
417.694	1880.52249
418.194	1773.49328
418.693	1579.5914
419.192	1561.67163
419.691	1476.53666
420.19	1442.60246
420.688	1443.66543
421.187	1400.08349
421.685	1271.28979
422.184	1193.22629
422.682	1030.82014
423.18	855.67425
423.678	726.45382
424.176	704.4136
424.674	669.31697
425.172	640.34284
425.669	572.27219
426.167	627.30134
426.664	553.13936
427.161	464.98996
427.659	465.04648
428.156	458.90547
428.652	365.87397
429.149	371.85436
429.646	364.7709
430.143	346.79092
430.639	331.7504
431.135	333.79646
431.632	312.68532
432.128	262.61049
432.624	307.76136
433.12	263.58243
433.616	267.56808
434.111	261.60133
434.607	244.56833
435.103	194.40045
435.598	264.53295
436.093	213.48546
436.588	217.47796
437.083	210.46109
437.578	206.46752
438.073	216.52818
438.568	198.47768
439.062	165.34939
439.557	153.35364
440.051	136.30352
440.546	123.27808
441.04	158.3744
441.534	157.38954
442.028	149.35464
442.522	92.22053
443.015	72.15536
443.509	148.3553
444.002	121.29363
444.496	68.14843
444.989	100.24153
445.482	104.25593
445.975	87.20117
446.468	102.22066
446.961	135.29086
447.454	74.16645
447.947	115.27256
448.439	105.25595
448.931	150.33988
449.424	110.27756
449.916	110.26639
450.408	120.27235
450.9	81.19627
451.392	104.26195
451.884	96.21982
452.375	68.16814
452.867	86.19304
453.358	118.26813
453.849	95.20284
454.341	71.16058
454.832	92.19843
455.323	125.30766
455.814	58.13308
456.304	87.20069
456.795	73.16672
457.285	84.18467
457.776	72.16407
458.266	67.15892
458.756	43.10196
459.247	97.23043
459.737	107.25663
460.226	73.16638
460.716	82.19521
461.206	29.06977
461.695	55.13582
462.185	104.24483
462.674	80.18238
463.163	96.21425
463.653	94.19944
464.142	104.24968
464.63	61.14753
465.119	62.14413
465.608	129.29817
466.096	65.14119
466.585	54.1235
467.073	52.1227
467.561	58.13893
468.05	62.1426
468.538	91.22042
469.026	69.16303
469.513	90.18903
470.001	68.1559
470.489	75.17748
470.976	110.25431
471.463	67.166
471.951	70.17296
472.438	42.0988
472.925	57.13405
473.412	90.2164
473.899	76.17354
474.385	59.14398
474.872	65.15114
475.359	65.15916
475.845	25.05227
476.331	20.04297
476.817	54.13112
477.303	33.07697
477.789	27.06451
478.275	54.13362
478.761	-6.01438
479.247	59.13148
479.732	60.14912
480.218	66.17192
480.703	34.08382
481.188	28.06104
481.673	33.07616
482.158	68.14679
482.643	54.13747
483.128	94.2174
483.612	61.14502
484.097	35.08449
484.581	61.14083
485.066	109.26372
485.55	96.2107
486.034	72.15569
486.518	74.1763
487.002	27.06579
487.486	-8.01959
487.969	63.15243
488.453	13.03248
488.936	70.15706
489.42	5.01118
489.903	-3.00752
490.386	-38.08031
490.869	27.05957
491.352	34.08191
491.835	20.0413
492.318	11.02493
492.8	7.01468
493.283	48.12224
493.765	26.06391
494.247	50.11633
494.73	51.113
495.212	-7.01675
495.694	47.11084
496.175	41.09864
496.657	67.158
497.139	43.07433
497.62	64.15341
498.102	52.12919
498.583	-32.07959
499.064	27.06054
499.545	25.05728
500.026	42.09528
500.507	20.04631
500.988	67.16667
501.469	-19.04783
501.949	29.07175
502.43	89.21281
502.91	93.19607
503.39	43.1065
503.87	72.1695
504.35	45.1053
504.83	-16.03552
505.31	32.07729
505.79	15.03566
506.269	87.19813
506.749	73.16605
507.228	82.19183
507.707	142.31127
508.187	154.36055
508.666	128.31231
509.145	108.24968
509.623	81.18849
510.102	165.39016
510.581	171.40293
511.059	142.35111
511.538	145.36685
512.016	185.43185
512.494	187.43737
512.972	256.58875
513.45	198.44863
513.928	250.58482
514.406	262.61697
514.884	310.76192
515.361	294.67072
515.839	338.73461
516.316	341.78341
516.793	332.79452
517.27	353.79961
517.747	373.90162
518.224	404.86533
518.701	396.81299
519.178	403.94319
519.654	432.94725
520.131	447.02354
520.607	375.85978
521.083	406.85383
521.56	421.92061
522.036	413.83124
522.512	450.0265
522.987	431.96355
523.463	372.82704
523.939	417.96524
524.414	311.67493
524.89	377.84355
525.365	301.64599
525.84	261.60253
526.315	297.68617
526.79	301.64515
527.265	304.66803
527.74	245.57279
528.215	194.43993
528.689	143.30783
529.164	168.35177
529.638	161.39961
530.112	164.37733
530.587	169.35331
531.061	152.36102
531.534	181.4255
532.008	187.44337
532.482	149.33617
532.956	119.29967
533.429	169.40471
533.903	137.2953
534.376	124.27043
534.849	115.26126
535.322	132.30674
535.795	47.11359
536.268	118.28221
536.741	73.17262
537.213	121.27456
537.686	95.23063
538.158	104.2345
538.631	68.16424
539.103	97.21751
539.575	65.13378
540.047	25.05493
540.519	78.18555
540.991	92.22271
541.463	25.06046
541.934	21.04783
542.406	41.09882
542.877	30.06814
543.348	66.15911
543.82	84.20312
544.291	91.21118
544.762	46.1098
545.233	97.24401
545.703	23.05164
546.174	15.03511
546.645	18.0439
547.115	49.11855
547.585	14.03252
548.056	59.14522
548.526	97.22892
548.996	18.04339
549.466	5.01228
549.935	18.04341
550.405	64.14088
550.875	28.06699
551.344	3.00724
551.814	12.02782
552.283	20.04417
552.752	77.18031
553.221	24.05361
553.69	51.11591
554.159	21.05271
554.628	39.08914
555.096	43.1098
555.565	13.02913
556.033	50.11976
556.502	-5.01223
556.97	54.12076
557.438	-15.0358
557.906	17.04053
558.374	58.13494
558.842	8.01939
559.31	50.11256
559.777	23.05669
560.245	-13.03032
560.712	37.08532
561.18	21.04703
561.647	20.04486
562.114	13.03016
562.581	40.09887
563.048	12.02782
563.514	39.09832
563.981	34.07848
564.448	47.10682
564.914	36.08415
565.381	41.09432
565.847	43.10066
566.313	3.00705
566.779	33.07488
567.245	-2.0047
567.711	25.0603
568.176	23.05215
568.642	48.12112
569.108	44.10852
569.573	4.00937
570.038	29.0613
570.504	58.13147
570.969	39.09698
571.434	108.23824
571.899	18.04307
572.363	82.18769
572.828	100.22861
573.293	50.11509
573.757	125.28709
574.222	116.25781
574.686	103.23552
575.15	142.33701
575.614	166.38483
576.078	129.29924
576.542	100.22668
577.006	138.30785
577.469	100.24417
577.933	132.29739
578.396	108.25404
578.86	117.2728
579.323	147.34894
579.786	125.26862
580.249	132.30747
580.712	74.17954
581.175	108.2639
581.637	122.27554
582.1	144.30939
582.563	88.18663
583.025	116.27954
583.487	114.2332
583.95	64.13763
584.412	117.24395
584.874	125.3014
585.336	143.33434
585.797	114.2462
586.259	106.24623
586.721	82.19191
587.182	93.21342
587.643	100.22603
588.105	82.19319
588.566	83.17306
589.027	133.32166
589.488	119.27068
589.949	129.30952
590.41	126.24746
590.87	98.22332
591.331	123.26649
591.791	105.24164
592.252	125.28824
592.712	108.25671
593.172	72.16394
593.632	136.29887
594.092	102.22613
594.552	111.23895
595.011	43.09908
595.471	163.36309
595.931	109.24452
596.39	116.27594
596.849	83.19284
597.308	51.10932
597.768	104.26616
598.227	101.24104
598.685	90.20443
599.144	68.16039
599.603	71.16594
600.062	57.1208
600.52	82.18505
600.978	81.19087
601.437	37.08474
601.895	68.14616
602.353	27.05992
602.811	130.29001
603.269	69.16398
603.727	68.16313
604.184	78.1776
604.642	73.17901
605.099	79.1842
605.557	39.09521
606.014	37.0804
606.471	33.08316
606.928	39.08738
607.385	65.16263
607.842	6.01394
608.299	35.08231
608.755	40.09727
609.212	8.01809
609.668	26.05922
610.125	35.08474
610.581	73.17081
611.037	61.1369
611.493	28.06579
611.949	69.16782
612.405	105.2127
612.861	42.09698
613.316	41.09856
613.772	27.06231
614.227	114.27118
614.683	36.07688
615.138	7.01658
615.593	10.02344
616.048	57.13055
616.503	24.05858
616.958	28.0704
617.412	57.13536
617.867	1.00227
618.321	36.07485
618.776	43.09511
619.23	63.14736
619.684	32.0718
620.138	46.10546
620.592	75.18105
621.046	55.12995
621.5	14.03392
621.954	10.02233
622.407	36.07994
622.861	12.02932
623.314	34.07726
623.768	58.1368
624.221	77.15105
624.674	18.04186
625.127	27.06305
625.58	7.01586
626.033	57.1245
626.485	14.03369
626.938	64.15189
627.39	78.18133
627.843	46.10609
628.295	45.10381
628.747	87.2058
629.199	72.16314
629.651	30.06903
630.103	30.06905
630.555	49.1033
631.006	45.10459
631.458	11.02604
631.909	20.04502
632.361	13.03017
632.812	40.09266
633.263	83.17883
633.714	31.06587
634.165	32.0768
634.616	11.02614
635.067	43.09471
635.518	54.12762
635.968	16.03168
636.419	43.094
636.869	50.11812
637.319	52.12041
637.769	57.12782
638.219	61.14324
638.669	17.04056
639.119	-27.06535
639.569	33.07918
640.019	24.05562
640.468	33.07412
640.918	39.0924
641.367	23.05168
641.816	-12.02697
642.265	72.16692
642.714	4.00924
643.163	30.06949
643.612	51.12465
644.061	63.13428
644.51	53.12124
644.958	51.11248
645.406	39.09315
645.855	-26.06382
646.303	29.06714
646.751	21.04879
647.199	63.14214
647.647	51.11816
648.095	-7.01611
648.543	28.05704
648.99	24.05779
649.438	15.03484
649.885	71.17578
650.333	54.10475
650.78	20.04847
651.227	52.12683
651.674	18.04127
652.121	62.15133
652.568	68.16554
653.015	2.00497
653.461	21.05006
653.908	13.02999
654.354	35.08331
654.801	-14.03315
655.247	19.04132
655.693	-33.08665
656.139	-8.01924
656.585	45.10719
657.031	23.0542
657.477	36.07878
657.922	12.0274
658.368	17.04186
658.813	21.04786
659.259	60.1447
659.704	72.1695
660.149	-5.01162
660.594	60.14163
661.039	30.06845
661.484	52.12265
661.929	31.07245
662.373	10.02516
662.818	-19.04737
663.262	35.08455
663.707	29.07371
664.151	49.11896
664.595	18.04362
665.039	43.10634
665.483	14.03567
665.927	39.09133
666.371	35.08231
666.814	43.10184
667.258	30.0723
667.701	55.11677
668.145	12.02992
668.588	41.10129
669.031	-21.04987
669.474	20.04803
669.917	45.09833
670.36	59.14629
670.803	71.1701
671.245	-63.13171
671.688	42.10183
672.13	20.04535
672.573	17.04293
673.015	64.15318
673.457	15.03276
673.899	18.04357
674.341	-16.03882
674.783	-12.02895
675.225	69.16832
675.666	64.15546
676.108	40.08628
676.549	20.04661
676.991	48.10491
677.432	13.02592
677.873	-9.02068
678.314	16.03811
678.755	68.16616
679.196	60.13612
679.637	0
680.078	34.0792
680.518	47.1073
680.959	38.09008
681.399	39.09606
681.839	25.06055
682.28	41.1014
682.72	39.08882
683.16	45.11162
683.6	60.13534
684.039	33.06798
684.479	40.09829
684.919	81.18827
685.358	-7.01747
685.798	-22.05752
686.237	20.04761
686.676	-5.01135
687.115	44.10306
687.554	55.13056
687.993	61.13369
688.432	28.0637
688.871	69.1565
689.309	66.15664
689.748	40.08279
690.186	33.07679
690.625	66.15337
691.063	49.11596
691.501	39.09585
691.939	58.14467
692.377	33.07957
692.815	119.28498
693.253	15.03562
693.69	8.01752
694.128	71.17023
694.565	-20.04759
695.003	55.1392
695.44	70.16376
695.877	54.12588
696.314	61.12691
696.751	43.09666
697.188	71.16248
697.625	20.04458
698.061	10.0239
698.498	34.07979
698.934	40.09482
699.371	-17.04015
699.807	56.1307
700.243	42.10049
700.679	22.04881
701.115	31.07183
701.551	18.04163
701.987	30.06507
702.422	35.08295
702.858	51.12041
703.294	87.19605
703.729	40.0964
704.164	30.07109
704.599	57.12582
705.035	59.13072
705.47	25.0603
705.904	4.00924
706.339	45.10223
706.774	71.16372
707.209	31.07165
707.643	43.10184
708.078	31.07478
708.512	16.03991
708.946	50.11697
709.38	49.1151
709.814	3.00677
710.248	64.15435
710.682	38.09047
711.116	81.19398
711.549	23.05825
711.983	9.0207
712.416	66.15434
712.85	7.01725
713.283	44.10269
713.716	24.05897
714.149	11.02532
714.582	33.07348
715.015	33.08008
715.448	74.18324
715.881	29.06165
716.313	26.0602
716.746	98.22683
717.178	-2.00479
717.61	61.15285
718.043	47.11449
718.475	50.11972
718.907	73.17888
719.339	22.0495
719.77	60.14158
720.202	19.04716
720.634	63.15225
721.065	49.1138
721.497	18.04371
721.928	-21.05125
722.359	-2.00485
722.79	27.06402
723.221	23.05651
723.652	43.10774
724.083	48.10633
724.514	88.19761
724.945	-8.01866
725.375	51.11751
725.806	38.09237
726.236	49.12331
726.666	24.05597
727.096	40.09647
727.526	73.18469
727.956	55.12374
728.386	56.1349
728.816	59.14863
729.246	36.08781
729.675	3.00726
730.105	27.0652
730.534	21.04839
730.964	22.05422
731.393	34.08209
731.822	54.13572
732.251	61.15202
732.68	63.14278
733.109	19.04639
733.537	61.14664
733.966	90.21968
734.395	31.07074
734.823	24.05234
735.251	32.0758
735.68	25.06081
736.108	15.03706
736.536	11.02548
736.964	1.0023
737.392	55.13487
737.82	6.01417
738.247	55.12844
738.675	45.10377
739.102	32.07866
739.53	52.13163
739.957	51.1299
740.384	54.12737
740.811	23.0564
741.238	75.18009
741.665	95.21775
742.092	-14.03193
742.519	15.03687
742.945	46.1101
743.372	56.13669
743.798	-4.01015
744.225	45.10447
744.651	44.10812
745.077	61.14898
745.503	2.00478
745.929	89.21037
746.355	29.0694
746.781	28.06771
747.207	65.15132
747.632	82.19918
748.058	57.14112
748.483	74.16597
748.908	57.13931
749.334	95.2282
749.759	35.08222
750.184	51.12083
750.609	35.0843
751.033	16.03678
751.458	92.19886
751.883	-1.00243
752.307	39.09022
752.732	84.21006
753.156	30.07268
753.58	6.01397
754.005	33.08137
754.429	28.0655
754.853	53.12958
755.277	105.24212
755.7	60.1458
756.124	48.11716
756.548	10.02332
756.971	30.07202
757.394	2.00505
757.818	64.16172
758.241	85.21075
758.664	48.11895
759.087	14.03122
759.51	36.08715
759.933	-8.01921
760.356	61.15439
760.778	28.06773
761.201	61.14385
761.623	6.01407
762.046	19.04362
762.468	87.20213
762.89	46.1098
763.312	43.10337
763.734	62.14618
764.156	-4.00978
764.578	36.08031
765	46.10985
765.421	17.04286
765.843	35.09
766.264	11.02562
766.686	7.01711
767.107	-3.00719
767.528	18.04568
767.949	18.04496
768.37	82.19821
768.791	16.0377
769.212	2.00499
769.632	43.09884
770.053	4.01031
770.473	8.01898
770.894	-14.03401
771.314	37.08529
771.734	41.09345
772.154	45.11231
772.575	43.0967
772.994	1.00223
773.414	45.10435
773.834	2.00491
774.254	6.01441
774.673	67.15996
775.093	28.06855
775.512	25.06069
775.931	44.10931
776.351	51.12451
776.77	38.09154
777.189	26.06059
777.607	35.0876
778.026	63.153
778.445	43.10704
778.864	39.09656
779.282	27.06293
779.701	20.04924
780.119	10.02497
780.537	11.02689
780.955	23.05694
781.373	-6.0146
781.791	53.11748
782.209	-13.02884
782.627	26.06724
783.045	-21.04707
783.462	16.04013
783.88	27.06865
784.297	-1.00248
784.715	35.08849
785.132	-16.03794
785.549	0
785.966	28.06898
786.383	57.13734
786.8	25.05668
787.217	41.09582
787.633	51.12548
788.05	17.03859
788.466	49.1106
788.883	60.15048
789.299	-4.00932
789.715	53.12591
790.131	48.11629
790.547	14.03417
790.963	50.12049
791.379	14.03473
791.795	13.02863
792.21	38.08579
792.626	-30.06955
793.041	19.04574
793.457	28.06704
793.872	-6.01371
794.287	-14.03346
794.702	4.00949
795.117	39.09496
795.532	3.00745
795.947	-14.03257
796.362	-34.0782
796.776	48.10655
797.191	12.02881
797.605	26.06037
798.02	-21.0502
798.434	39.08414
798.848	45.10941
799.262	17.04124
799.676	51.12064
800.09	-27.06535
800.504	-4.00946
800.918	-30.06764
801.331	-15.03772
801.745	13.02891
802.158	9.02178
802.572	53.12445
802.985	7.01635
803.398	5.0116
803.811	-2.00493
804.224	-10.02405
804.637	5.01169
805.05	-33.07452
805.462	16.03808
805.875	-18.04608
806.288	-22.05254
806.7	-40.098
807.112	24.0535
807.525	-18.04282
807.937	-5.01214
808.349	14.03394
808.761	52.12441
809.173	19.04507
809.584	10.02395
809.996	-43.10361
810.408	39.09916
810.819	26.05951
811.231	48.12512
811.642	85.20387
812.053	43.10196
812.464	12.02768
812.875	32.08005
813.286	-14.03573
813.697	65.14209
814.108	7.01658
814.519	82.17671
814.929	6.01489
815.34	-3.00703
815.75	21.05251
816.16	-14.03369
816.571	-3.0076
816.981	15.03395
817.391	27.06258
817.801	28.06791
818.211	6.01388
818.62	33.07749
819.03	11.02616
819.44	-20.0503
819.849	-4.00973
820.259	-1.00247
820.668	14.03369
821.077	34.0828
821.486	22.05068
821.895	17.04017
822.304	24.06181
822.713	-4.00917
823.122	38.09165
823.531	-14.03189
823.939	22.05231
824.348	18.04219
824.756	58.1393
825.164	32.07764
825.573	40.09731
825.981	29.06926
826.389	48.11629
826.797	90.22049
827.205	33.07382
827.612	32.07601
828.02	-11.02504
828.428	-7.01739
828.835	36.09278
829.243	-42.09741
829.65	43.10435
830.057	30.07007
830.464	71.16854
830.871	58.13425
831.278	-41.09733
831.685	31.06633
832.092	-3.00708
832.499	32.06783
832.905	24.05854
833.312	-23.05011
833.718	84.20235
834.124	71.15573
834.531	16.03876
834.937	48.1196
835.343	-12.02796
835.749	7.0156
836.155	6.01533
836.561	28.06681
836.966	-3.00711
837.372	5.01232
837.777	59.14221
838.183	6.01283
838.588	3.0073
838.993	50.11738
839.399	55.13021
839.804	-14.03339
840.209	63.15666
840.613	20.04284
841.018	19.04644
841.423	12.02999
841.828	-5.01241
842.232	-15.03558
842.637	72.16467
843.041	2.00503
843.445	-11.0267
843.849	4.00968
844.253	5.01149
844.657	-9.02228
845.061	60.13296
845.465	6.01409
845.869	27.06054
846.272	10.02379
846.676	-22.05094
847.079	24.05976
847.483	11.02656
847.886	9.02103
848.289	39.10244
848.692	4.00979
849.095	20.04626
849.498	26.06282
849.901	18.03949
850.304	8.01851
850.707	11.02715
851.109	33.08029
851.512	21.05016
851.914	3.00742
852.316	26.06452
852.718	33.08492
853.121	33.07821
853.523	12.02694
853.925	16.04108
854.326	-1.00245
854.728	42.10492
855.13	0
855.531	18.04176
855.933	36.0824
856.334	36.08758
856.736	36.07838
857.137	27.06119
857.538	17.04183
857.939	26.06318
858.34	1.00234
858.741	-2.00508
859.142	9.02083
859.542	22.05688
859.943	24.05771
860.343	13.03149
860.744	16.0378
861.144	83.19558
861.544	-13.03091
861.945	-2.00496
862.345	23.05411
862.745	50.12072
863.145	34.0767
863.544	13.03202
863.944	19.04336
864.344	37.08746
864.743	48.11449
865.143	44.11031
865.542	-28.06241
865.941	7.0169
866.34	24.05474
866.74	18.0471
867.139	8.01885
867.537	-15.03687
867.936	34.07932
868.335	38.0932
868.734	21.05218
869.132	11.02437
869.531	19.04385
869.929	62.13591
870.327	12.02785
870.726	36.08567
871.124	59.13083
871.522	37.09077
871.92	3.00719
872.318	-1.00236
872.715	33.07758
873.113	-13.03065
873.511	28.0672
873.908	40.09934
874.306	52.12569
874.703	64.15213
875.1	-1.00245
875.497	-15.03484
875.894	42.10122
876.291	25.05946
876.688	19.04764
877.085	25.05744
877.482	43.10372
877.878	23.0543
878.275	38.09358
878.671	-53.11149
879.068	75.17294
879.464	25.05831
879.86	0
880.256	-12.02833
880.652	21.05174
881.048	40.09442
881.444	-26.05934
881.84	31.07608
882.236	45.10892
882.631	32.07627
883.027	59.13632
883.422	-7.01732
883.817	-2.00493
884.213	20.0498
884.608	77.1851
885.003	25.05765
885.398	2.00487
885.793	12.02907
886.188	-46.11186
886.582	8.01973
886.977	60.13529
887.371	-4.00977
887.766	16.03882
888.16	-5.01191
888.554	32.07574
888.949	17.04132
889.343	43.10046
889.737	-1.00263
890.131	11.02677
890.525	44.10943
890.918	37.08979
891.312	34.07742
891.706	-3.00765
892.099	61.1487
892.492	36.07374
892.886	5.01183
893.279	13.03204
893.672	25.0621
894.065	17.04129
894.458	-24.05827
894.851	24.05634
895.244	10.02478
895.637	74.17101
896.029	76.17898
896.422	-8.01874
896.814	-9.02168
897.206	38.08841
897.599	76.17954
897.991	54.12623
898.383	35.07977
898.775	88.19103
899.167	9.02063
899.559	-2.00487
899.951	21.04724
900.342	22.0536
900.734	36.08846
901.125	-19.04834
901.517	15.03572
901.908	32.07266
902.299	55.1296
902.69	57.13013
903.082	27.06308
903.473	84.1952
903.863	32.07843
904.254	72.16155
904.645	23.05451
905.036	43.10239
905.426	49.10553
905.817	-18.04269
906.207	-39.08964
906.597	31.07057
906.987	-24.06023
907.378	15.037
907.768	42.10783
908.158	17.03997
908.547	9.02294
908.937	-30.07426
909.327	40.09321
909.717	-26.06332
910.106	-5.01159
910.495	19.04531
910.885	55.13442
911.274	37.08901
911.663	16.03895
912.052	29.06815
912.441	78.19173
912.83	19.04166
913.219	26.06565
913.608	43.1018
913.997	46.11228
914.385	16.03692
914.774	31.07257
915.162	49.11349
915.55	38.08768
915.939	9.02223
916.327	37.08824
916.715	26.06521
917.103	17.03968
917.491	44.10431
917.878	49.11542
918.266	15.03757
918.654	17.04247
919.041	50.12778
919.429	38.08614
919.816	17.04167
920.203	76.17801
920.591	53.12659
920.978	11.02606
921.365	57.14483
921.752	-17.03872
922.139	28.05827
922.525	32.07436
922.912	41.09575
923.299	22.05296
923.685	-47.11917
924.072	0
924.458	13.03135
924.844	-14.03374
925.231	-23.05149
925.617	2.005
926.003	15.03703
926.389	-13.03191
926.774	21.05129
927.16	42.10018
927.546	64.15981
927.931	35.0836
928.317	17.0374
928.702	14.03179
929.088	55.12768
929.473	48.11873
929.858	46.10905
930.243	60.13954
930.628	61.14391
931.013	-6.01448
931.398	-12.02623
931.783	-3.0076
932.167	59.13995
932.552	68.16269
932.937	45.1067
933.321	57.13874
933.705	11.02654
934.09	-15.03609
934.474	13.02947
934.858	11.02778
935.242	-4.00894
935.626	19.0474
936.009	57.14795
936.393	53.13179
936.777	63.15615
937.16	37.09391
937.544	13.02902
937.927	10.02477
938.311	39.09083
938.694	51.13064
939.077	24.05538
939.46	-5.01163
939.843	-10.01957
940.226	43.10576
940.609	54.12012
940.991	-10.02461
941.374	30.0712
941.757	33.07809
942.139	69.14815
942.522	-4.00909
942.904	21.04871
943.286	31.07577
943.668	41.10377
944.05	48.11374
944.432	30.07106
944.814	24.05641
945.196	-14.03348
945.578	36.08386
945.959	-21.04724
946.341	9.02093
946.722	32.07168
947.104	36.08277
947.485	17.03814
947.866	50.12236
948.247	57.13972
948.628	-27.06278
949.009	10.02485
949.39	24.05727
949.771	-48.10615
950.152	1.00238
950.532	67.16277
950.913	28.06491
951.293	17.04511
951.674	29.06756
952.054	63.15283
952.434	49.11717
952.814	-28.06399
953.194	-23.05796
953.574	5.01186
953.954	-29.06623
954.334	54.13063
954.714	-4.00951
955.093	29.06868
955.473	38.09272
955.853	42.10503
956.232	21.05587
956.611	81.18223
956.99	38.09251
957.37	5.01227
957.749	-9.02045
958.128	50.12204
958.506	9.02273
958.885	17.04135
959.264	44.10519
959.643	34.07475
960.021	6.01452
960.4	19.04132
960.778	-18.04241
961.156	0
961.535	17.03771
961.913	61.13718
962.291	35.08798
962.669	43.1056
963.047	8.01993
963.424	41.10244
963.802	16.03813
964.18	30.07194
964.557	20.04403
964.935	60.13562
965.312	33.08367
965.69	-12.02891
966.067	36.08323
966.444	-44.10378
966.821	56.13913
967.198	-15.03486
967.575	14.033
967.952	33.07439
968.329	26.06142
968.705	34.07018
969.082	52.13041
969.458	26.06104
969.835	3.00707
970.211	37.09278
970.587	27.06503
970.963	-14.03464
971.339	36.09139
971.715	49.11788
972.091	-2.00477
972.467	10.02375
972.843	7.01705
973.219	57.12939
973.594	13.03303
973.97	3.0067
974.345	35.08093
974.721	-13.03004
975.096	7.01653
975.471	33.07482
975.846	11.0253
976.221	14.0345
976.596	69.16095
976.971	52.12422
977.346	44.0971
977.72	21.05146
978.095	0
978.469	33.07528
978.844	23.05546
979.218	23.05405
979.593	19.04362
979.967	2.00462
980.341	14.03121
980.715	73.17662
981.089	24.05795
981.463	-11.02444
981.837	49.1165
982.21	-2.00436
982.584	52.12098
982.957	18.04377
983.331	8.01794
983.704	65.15501
984.078	-1.00238
984.451	3.0071
984.824	7.01662
985.197	20.04604
985.57	-38.09147
985.943	12.02806
986.316	10.02331
986.688	12.02786
987.061	62.13923
987.434	17.04358
987.806	-31.07202
988.179	6.0136
988.551	21.05123
988.923	-32.0763
989.295	43.10266
989.667	54.12564
990.039	61.14714
990.411	-27.05927
990.783	4.00874
991.155	-27.06347
991.527	9.02096
991.898	19.046
992.27	33.07951
992.641	50.11958
993.012	-9.01991
993.384	-13.02988
993.755	45.11121
994.126	85.19647
994.497	17.04031
994.868	34.07381
995.239	-43.10133
995.61	-10.02449
995.98	2.00469
996.351	-35.08525
996.722	77.17202
997.092	10.02299
997.462	9.02056
997.833	17.0384
998.203	-16.03702
998.573	-7.017
998.943	53.11953
999.313	20.0465
999.683	41.09481
1000.053	-54.11812
1000.423	-6.014
1000.792	-16.03991
1001.162	13.03067
1001.531	52.12322
1001.901	-4.00961
1002.27	3.00631
1002.639	-20.04936
1003.009	13.02971
1003.378	-6.01494
1003.747	-51.11671
1004.116	19.04369
1004.485	-15.03473
1004.853	-2.00484
1005.222	-26.06261
1005.591	45.10186
1005.959	7.01526
1006.328	36.07785
1006.696	7.01623
1007.064	-16.03872
1007.433	6.01438
1007.801	-25.05854
1008.169	-1.00242
1008.537	42.08853
1008.905	17.03842
1009.273	8.01894
1009.64	24.0559
1010.008	15.03435
1010.375	9.02067
1010.743	-1.00215
1011.11	66.15216
1011.478	58.13861
1011.845	4.00901
1012.212	53.11586
1012.579	37.08749
1012.946	-32.07307
1013.313	16.03628
1013.68	36.07678
1014.047	0
1014.414	13.02951
1014.78	47.11269
1015.147	4.00921
1015.513	15.03484
1015.88	9.0221
1016.246	-8.01887
1016.612	45.09733
1016.978	75.17659
1017.344	56.13291
1017.71	35.08132
1018.076	6.01347
1018.442	47.11679
1018.808	44.10684
1019.174	-19.04604
1019.539	-8.01694
1019.905	-7.01606
1020.27	13.03091
1020.636	40.09049
1021.001	33.07613
1021.366	29.0673
1021.731	59.14794
1022.096	21.05173
1022.461	47.10673
1022.826	65.14863
1023.191	16.04072
1023.556	-3.00674
1023.92	4.00941
1024.285	-20.04681
1024.649	9.02114
1025.014	-16.03797
1025.378	40.09745
1025.742	10.02376
1026.107	39.08385
1026.471	64.14106
1026.835	6.01438
1027.199	-10.02338
1027.562	-6.0133
1027.926	10.02343
1028.29	-21.05178
1028.654	1.0022
1029.017	29.06881
1029.381	-23.05354
1029.744	9.02225
1030.107	38.08607
1030.471	42.09695
1030.834	8.01717
1031.197	54.1241
1031.56	5.0113
1031.923	26.06511
1032.286	57.12755
1032.648	26.05877
1033.011	84.18561
1033.374	29.06452
1033.736	-10.02565
1034.099	21.04935
1034.461	31.07619
1034.823	38.09147
1035.185	31.07438
1035.548	22.05183
1035.91	26.05968
1036.272	67.14572
1036.634	43.10077
1036.995	13.02913
1037.357	21.0495
1037.719	23.05394
1038.08	89.20228
1038.442	2.00457
1038.803	0
1039.165	0
1039.526	22.05121
1039.887	14.03221
1040.248	61.14653
1040.609	28.06576
1040.97	34.07951
1041.331	74.18056
1041.692	17.03893
1042.053	50.10761
1042.413	12.02668
1042.774	36.08425
1043.134	2.00452
1043.495	34.08222
1043.855	82.19153
1044.215	-10.02391
1044.576	70.16074
1044.936	23.05017
1045.296	88.20893
1045.656	8.01872
1046.016	32.07363
1046.375	26.06063
1046.735	64.1407
1047.095	18.0405
1047.454	12.02396
1047.814	33.07622
1048.173	52.11668
1048.533	28.0614
1048.892	21.04875
1049.251	37.08854
1049.61	-15.03588
1049.969	23.05185
1050.328	31.06403
1050.687	-1.00233
1051.046	5.0117
1051.405	27.06397
1051.763	24.05358
1052.122	-13.03141
1052.48	3.00714
1052.839	86.19542
1053.197	50.11219
1053.555	19.04048
1053.914	44.10273
1054.272	-33.0757
1054.63	-5.01187
1054.988	40.092
1055.345	-31.0634
1055.703	23.05333
1056.061	33.08293
1056.419	41.1041
1056.776	-34.07867
1057.134	-83.18458
1057.491	4.0097
1057.848	-2.00479
1058.206	-23.05147
1058.563	1.00211
1058.92	75.16291
1059.277	21.04989
1059.634	-28.06285
1059.991	52.11936
1060.348	21.04569
1060.704	77.17897
1061.061	2.00438
1061.418	39.09086
1061.774	15.03573
1062.131	33.08577
1062.487	-14.03143
1062.843	23.05521
1063.199	58.13818
1063.555	62.13814
1063.911	5.01213
1064.267	53.10249
1064.623	14.0332
1064.979	-17.03741
1065.335	-20.04583
1065.691	22.04981
1066.046	15.03144
1066.402	-15.03264
1066.757	48.11642
1067.112	46.10757
1067.468	20.04609
1067.823	-10.02272
1068.178	6.01389
1068.533	34.07904
1068.888	35.07961
1069.243	15.03572
1069.598	-9.021
1069.952	28.06182
1070.307	22.0528
1070.662	16.03708
1071.016	4.00876
1071.371	37.08088
1071.725	5.01141
1072.079	41.09469
1072.434	0
1072.788	-3.00679
1073.142	56.13193
1073.496	-20.04582
1073.85	39.08616
1074.203	67.15517
1074.557	71.18384
1074.911	24.05451
1075.265	27.06005
1075.618	42.09841
1075.971	44.0999
1076.325	34.08398
1076.678	34.0744
1077.031	-54.11612
1077.385	19.03979
1077.738	-1.00216
1078.091	23.05064
1078.444	-51.11361
1078.796	34.08072
1079.149	32.07674
1079.502	9.02065
1079.855	27.06044
1080.207	22.05195
1080.56	38.09537
1080.912	30.06996
1081.264	27.06276
1081.617	15.03539
1081.969	0
1082.321	-20.04717
1082.673	24.05343
1083.025	52.11687
1083.377	15.03384
1083.728	-22.04934
1084.08	0
1084.432	-13.0302
1084.783	-10.02211
1085.135	20.04862
1085.486	4.00887
1085.838	27.06424
1086.189	31.07299
1086.54	45.10219
1086.891	24.0598
1087.242	81.19131
1087.593	-38.08848
1087.944	57.12392
1088.295	52.11201
1088.646	86.20229
1088.996	18.04204
1089.347	-21.04966
1089.698	-7.01619
1090.048	23.05734
1090.398	20.04412
1090.749	12.02735
1091.099	8.01974
1091.449	20.04827
1091.799	43.10333
1092.149	21.05014
1092.499	22.05167
1092.849	29.07122
1093.199	-4.00961
1093.548	39.09093
1093.898	-11.02657
1094.248	17.04177
1094.597	9.02258
1094.947	29.07509
1095.296	73.17309
1095.645	12.03008
1095.994	40.092
1096.343	42.10202
1096.692	-6.01562
1097.041	29.07746
1097.39	20.04807
1097.739	23.05776
1098.088	29.07462
1098.437	18.04658
1098.785	21.05443
1099.134	-3.00761
1099.482	-6.01618
1099.83	19.0484
1100.179	41.10535
1100.527	4.0102
1100.875	45.11583
1101.223	31.0803
1101.571	-21.05659
1101.919	9.02339
1102.267	14.03881
1102.615	-1.00321
1102.962	-4.01284
1103.31	11.0353
1103.658	-8.02567
