Data from N1 R2 sample 6_Subt2__5__13-56-33-674.txt Node

Date: Wed Sep 17 13:56:33 PDT 2025
User: uwsun
Spectrometer: HDX01956
Trigger mode: 0
Integration Time (sec): 5.000000E-1
Scans to average: 1
Nonlinearity correction enabled: true
Boxcar width: 0
Storing dark spectrum: false
XAxis mode: Wavelengths
Number of Pixels in Spectrum: 2068
>>>>>Begin Spectral Data<<<<<
194.03	571.51325
194.578	556.68295
195.127	531.58678
195.676	546.63496
196.225	570.37351
196.773	696.72702
197.321	1098.52784
197.87	1539.94574
198.418	1681.14079
198.966	1678.23648
199.513	1708.1148
200.061	1617.01192
200.609	1681.24457
201.156	1578.42325
201.704	1601.95548
202.251	1527.08569
202.798	1637.11626
203.345	1695.99299
203.892	1658.0367
204.438	1688.80908
204.985	1746.87034
205.532	1747.30579
206.078	1804.03217
206.624	1741.09732
207.17	1693.77558
207.716	1720.98066
208.262	1712.20024
208.808	1739.10161
209.354	1798.08994
209.899	1770.13246
210.445	1709.05087
210.99	1744.98319
211.535	1814.89874
212.08	1755.78537
212.625	1818.14424
213.17	1732.15252
213.715	1767.73834
214.259	1782.83269
214.804	1707.9572
215.348	1720.74385
215.892	1742.95776
216.436	1747.70697
216.98	1735.55235
217.524	1685.84125
218.068	1725.09989
218.612	1727.13634
219.155	1691.79813
219.698	1659.78959
220.242	1603.86891
220.785	1548.63453
221.328	1480.73469
221.871	1524.90793
222.414	1553.81851
222.956	1408.53315
223.499	1425.32527
224.041	1483.45946
224.583	1467.19144
225.126	1510.35296
225.668	1500.68985
226.21	1490.83338
226.751	1460.35975
227.293	1448.38858
227.835	1523.7486
228.376	1445.40124
228.918	1466.73413
229.459	1454.73157
230	1518.66987
230.541	1467.46194
231.082	1513.71258
231.622	1516.45236
232.163	1484.64079
232.704	1553.8623
233.244	1466.72343
233.784	1488.66012
234.324	1557.48352
234.864	1448.38335
235.404	1474.5439
235.944	1479.55057
236.484	1576.87261
237.023	1531.60888
237.563	1647.6758
238.102	1602.69376
238.641	1496.80253
239.18	1520.58795
239.719	1534.83484
240.258	1614.51957
240.797	1597.72788
241.335	1539.72866
241.874	1657.0958
242.412	1587.78542
242.95	1621.79994
243.488	1546.4554
244.026	1629.66388
244.564	1661.26607
245.102	1627.5685
245.64	1557.68025
246.177	1584.45382
246.715	1564.71576
247.252	1524.47089
247.789	1686.9606
248.326	1615.7822
248.863	1626.46439
249.4	1609.54846
249.936	1656.32541
250.473	1688.78021
251.009	1574.55123
251.546	1658.54454
252.082	1645.40794
252.618	1673.55812
253.154	1672.83198
253.69	1590.49455
254.226	1681.82081
254.761	1658.55638
255.297	1608.41959
255.832	1671.78583
256.367	1715.77501
256.903	1723.57879
257.438	1734.78041
257.972	1718.57502
258.507	1691.66152
259.042	1728.49983
259.576	1757.58986
260.111	1677.65277
260.645	1745.48552
261.179	1707.76041
261.713	1737.61392
262.247	1678.63258
262.781	1778.42477
263.315	1668.85377
263.849	1712.03225
264.382	1799.75331
264.915	1754.84268
265.449	1752.96382
265.982	1801.71319
266.515	1811.03835
267.048	1752.42705
267.58	1726.46487
268.113	1773.51044
268.646	1764.98111
269.178	1733.60012
269.71	1803.61884
270.243	1828.81863
270.775	1801.23404
271.307	1750.8487
271.838	1871.91998
272.37	1746.97247
272.902	1798.69823
273.433	1862.66742
273.965	1785.97275
274.496	1808.07635
275.027	1808.10238
275.558	1864.06547
276.089	1918.2171
276.62	1873.21067
277.15	1924.13946
277.681	1874.55185
278.211	1832.02707
278.741	1901.69843
279.272	1856.78822
279.802	1859.13969
280.332	1968.99756
280.861	1941.02658
281.391	1897.7862
281.921	1878.97876
282.45	1875.13837
282.98	1880.38104
283.509	1936.82144
284.038	1922.83458
284.567	1925.90972
285.096	1959.11429
285.625	1911.75153
286.153	2009.08437
286.682	2009.90778
287.21	1950.01571
287.739	1980.0067
288.267	2008.16919
288.795	2045.53949
289.323	2000.99935
289.851	2075.05391
290.378	2010.77289
290.906	2065.23397
291.433	2073.32581
291.961	2104.93875
292.488	2047.27986
293.015	2082.07632
293.542	2114.52324
294.069	2164.3639
294.596	2144.26982
295.122	2207.22348
295.649	2170.77076
296.175	2167.20933
296.702	2189.31184
297.228	2135.19285
297.754	2226.92304
298.28	2284.05833
298.806	2298.29056
299.332	2266.92092
299.857	2326.01266
300.383	2261.49462
300.908	2292.39974
301.433	2332.40351
301.958	2380.06899
302.483	2331.45388
303.008	2371.50221
303.533	2392.7129
304.058	2314.12574
304.582	2341.21286
305.107	2261.6903
305.631	2369.01285
306.155	2418.16948
306.679	2421.22226
307.203	2510.17969
307.727	2427.26176
308.251	2431.48333
308.775	2521.44688
309.298	2516.3891
309.822	2561.63571
310.345	2658.38075
310.868	2727.4466
311.391	2699.5622
311.914	2637.65227
312.437	2599.12174
312.96	2675.30105
313.482	2648.27597
314.005	2767.65621
314.527	2773.92412
315.049	2750.75061
315.571	2844.06843
316.093	2887.63619
316.615	2880.43161
317.137	2957.88453
317.659	3014.50122
318.18	2955.39234
318.702	3114.29686
319.223	2961.53478
319.744	3032.06336
320.265	3152.54678
320.786	3148.72122
321.307	3267.62679
321.828	3276.03943
322.348	3280.30478
322.869	3342.38045
323.389	3560.17617
323.909	3338.10288
324.43	3435.37306
324.95	3496.08124
325.47	3534.62628
325.989	3530.31283
326.509	3681.8892
327.029	3791.97506
327.548	3731.94075
328.067	3858.37693
328.587	3864.62606
329.106	3811.8682
329.625	3827.9276
330.144	3863.0719
330.662	3949.10721
331.181	4044.10058
331.7	4054.9781
332.218	4125.49443
332.736	4185.97695
333.255	4190.02152
333.773	4231.01333
334.291	4400.38564
334.808	4430.59052
335.326	4547.4975
335.844	4639.78674
336.361	4699.4883
336.879	4736.73868
337.396	4691.02771
337.913	4910.50326
338.43	4913.32854
338.947	4983.71059
339.464	4985.99612
339.981	5031.62281
340.497	5003.9201
341.014	5209.7384
341.53	5082.23604
342.046	5282.90858
342.562	5346.84132
343.078	5469.33253
343.594	5406.43777
344.11	5627.38431
344.626	5521.86052
345.141	5742.99924
345.657	5778.90992
346.172	5649.42998
346.687	5752.01211
347.202	6048.86948
347.717	6009.17439
348.232	6061.48149
348.747	6068.93366
349.261	6144.59271
349.776	6315.04981
350.29	6414.39857
350.805	6469.27323
351.319	6431.86162
351.833	6453.80433
352.347	6525.9495
352.861	6582.89921
353.374	6649.68988
353.888	6783.14263
354.401	6718.69148
354.915	6795.65715
355.428	6947.25639
355.941	7025.82639
356.454	7064.58491
356.967	7031.83153
357.48	7006.67342
357.993	7162.16303
358.505	7256.10173
359.018	7433.18903
359.53	7632.23698
360.042	7529.77331
360.554	7689.27574
361.066	7602.19964
361.578	7500.7043
362.09	7592.08116
362.602	7695.84897
363.113	7836.16301
363.625	7858.02765
364.136	8090.10882
364.647	8146.42619
365.158	8201.40551
365.669	8358.65259
366.18	8370.61575
366.691	8255.27738
367.201	8410.72088
367.712	8443.6204
368.222	8570.79822
368.733	8724.91129
369.243	8936.30886
369.753	9081.60982
370.263	9375.23934
370.773	9123.77055
371.282	9432.34822
371.792	9690.94343
372.301	10029.82456
372.811	10203.26407
373.32	10315.91882
373.829	10441.13607
374.338	10951.27555
374.847	11266.47452
375.356	11416.05473
375.865	12010.7796
376.373	12593.82488
376.882	12811.17208
377.39	13029.10608
377.898	13496.20605
378.407	14171.64466
378.915	14649.46016
379.423	15095.70104
379.93	15720.98521
380.438	16472.45497
380.946	17021.47917
381.453	17747.57044
381.96	18792.15302
382.468	19880.41814
382.975	21247.6439
383.482	21860.13248
383.989	22223.30051
384.495	23106.05885
385.002	24155.04102
385.509	25593.74492
386.015	27371.88259
386.521	28428.46908
387.028	29798.16976
387.534	30532.11005
388.04	31771.38565
388.546	32432.0572
389.051	34242.88337
389.557	37044.79869
390.063	39845.41835
390.568	41004.04834
391.073	42225.6992
391.578	44308.34416
392.084	45483.15586
392.589	46916.70979
393.093	50760.4734
393.598	55627.13639
394.103	60361.03016
394.607	62823.95013
395.112	63611.48832
395.616	63924.59652
396.12	63785.2606
396.624	63862.44451
397.128	63919.58413
397.632	63870.46393
398.136	63823.35069
398.639	63876.47853
399.143	64005.80036
399.646	63896.52744
400.15	63853.42274
400.653	63812.32447
401.156	63789.27002
401.659	63966.70148
402.162	63853.42274
402.664	62441.93235
403.167	63977.72923
403.67	63769.22307
404.172	63919.58413
404.674	63858.43483
405.176	63738.15102
405.678	63977.72923
406.18	64011.81569
406.682	63863.44694
407.184	63926.60148
407.686	63841.39382
408.187	64025.8516
408.688	63892.51763
409.19	63833.37461
409.691	63977.72923
410.192	63945.6488
410.693	63713.09355
411.194	63812.32447
411.694	63919.58413
412.195	64038.8851
412.696	63881.49072
413.196	63630.90911
413.696	63920.58661
414.196	63735.14409
414.696	63998.78251
415.196	63858.43483
415.696	63774.23477
416.196	63867.45664
416.695	63878.48341
417.195	63923.59404
417.694	63607.85849
418.194	63629.9069
418.693	63799.29364
419.192	63868.45907
419.691	63834.37701
420.19	63912.56683
420.688	63959.68387
421.187	63540.71383
421.685	63824.35308
422.184	63856.42999
422.682	63665.98708
423.18	57970.87807
423.678	52070.89349
424.176	48233.26329
424.674	45157.54224
425.172	43241.82691
425.669	40824.14501
426.167	37721.31552
426.664	34762.93051
427.161	32033.91006
427.659	29605.93796
428.156	27941.39301
428.652	25947.37071
429.149	25055.15474
429.646	24253.24842
430.143	23004.19323
430.639	21590.99765
431.135	20669.1126
431.632	19358.35303
432.128	18318.13734
432.624	17404.86846
433.12	16740.94708
433.616	16424.14854
434.111	15722.87649
434.607	15282.26456
435.103	14805.95192
435.598	14325.55778
436.093	13841.78844
436.588	13126.74867
437.083	12472.36388
437.578	12060.609
438.073	11604.68925
438.568	11102.53841
439.062	10960.58572
439.557	10542.56028
440.051	10107.18719
440.546	9905.55782
441.04	9722.01767
441.534	9547.62799
442.028	9368.20349
442.522	9255.9702
443.015	9006.3871
443.509	8924.39699
444.002	8814.24166
444.496	8673.79206
444.989	8623.95221
445.482	8538.91092
445.975	8531.70156
446.468	8337.29752
446.961	8177.10966
447.454	7976.99591
447.947	7954.21072
448.439	7869.27555
448.931	7795.93795
449.424	7681.37684
449.916	7622.11647
450.408	7648.8259
450.9	7301.98403
451.392	7394.27272
451.884	7168.65435
452.375	7060.06599
452.867	7052.51702
453.358	6953.60318
453.849	6902.25642
454.341	6766.51525
454.832	6794.28908
455.323	6831.11357
455.814	6562.59663
456.304	6605.66019
456.795	6439.60558
457.285	6422.39588
457.776	6379.6022
458.266	6330.87111
458.756	6229.86546
459.247	6148.97962
459.737	6017.11382
460.226	5917.7449
460.716	5835.09996
461.206	5861.09127
461.695	5698.41126
462.185	5622.14863
462.674	5495.94565
463.163	5568.78744
463.653	5524.4855
464.142	5429.39846
464.63	5319.45227
465.119	5232.19925
465.608	5196.27443
466.096	4984.87154
466.585	4995.2012
467.073	4846.51301
467.561	4885.61562
468.05	4963.2712
468.538	4829.78573
469.026	4717.6214
469.513	4699.85423
470.001	4684.41496
470.489	4562.72828
470.976	4591.58904
471.463	4519.10518
471.951	4298.19945
472.438	4246.8023
472.925	4233.829
473.412	4101.10677
473.899	4014.7512
474.385	3953.23992
474.872	4021.85999
475.359	3906.29301
475.845	3859.19623
476.331	3706.42222
476.817	3612.31469
477.303	3664.98433
477.789	3493.19631
478.275	3524.47744
478.761	3369.20503
479.247	3386.81138
479.732	3365.54868
480.218	3427.90863
480.703	3276.46882
481.188	3240.68127
481.673	3176.04276
482.158	3175.68967
482.643	3165.73391
483.128	3134.13811
483.612	3084.27676
484.097	2935.34598
484.581	2942.10243
485.066	2892.44688
485.55	2814.86051
486.034	2799.75528
486.518	2820.30407
487.002	2728.37579
487.486	2752.37033
487.969	2641.35696
488.453	2630.49283
488.936	2554.93177
489.42	2585.84867
489.903	2528.46222
490.386	2412.51276
490.869	2479.79039
491.352	2393.22886
491.835	2464.47215
492.318	2389.88774
492.8	2488.53029
493.283	2460.58906
493.765	2282.28294
494.247	2346.04555
494.73	2330.80247
495.212	2238.08961
495.694	2301.09472
496.175	2190.1397
496.657	2171.05594
497.139	2133.80093
497.62	2142.11799
498.102	2159.29789
498.583	2015.13301
499.064	2033.72139
499.545	2018.80531
500.026	2080.80852
500.507	2068.87465
500.988	1983.19889
501.469	1953.15858
501.949	1981.13741
502.43	1971.02335
502.91	1959.49279
503.39	1863.06297
503.87	1877.87438
504.35	1894.83781
504.83	1837.53659
505.31	1779.87485
505.79	1777.79368
506.269	1731.64329
506.749	1722.62093
507.228	1789.79041
507.707	1787.5826
508.187	1784.84707
508.666	1711.93174
509.145	1673.66887
509.623	1708.70309
510.102	1677.80196
510.581	1734.8442
511.059	1734.01977
511.538	1730.11754
512.016	1736.81945
512.494	1645.74658
512.972	1684.77054
513.45	1646.63793
513.928	1622.7716
514.406	1642.82531
514.884	1675.06419
515.361	1576.66682
515.839	1650.59705
516.316	1636.78534
516.793	1551.84026
517.27	1572.67991
517.747	1502.84804
518.224	1544.50081
518.701	1598.40722
519.178	1518.77199
519.654	1518.57078
520.131	1481.69135
520.607	1477.63566
521.083	1453.35818
521.56	1431.46343
522.036	1486.26461
522.512	1485.68513
522.987	1486.5998
523.463	1502.55847
523.939	1492.71346
524.414	1481.41867
524.89	1483.56289
525.365	1427.32469
525.84	1447.54897
526.315	1387.50596
526.79	1381.27421
527.265	1410.38038
527.74	1386.50983
528.215	1387.38224
528.689	1303.10958
529.164	1301.04759
529.638	1342.59912
530.112	1348.36457
530.587	1307.05003
531.061	1361.47246
531.534	1299.38196
532.008	1326.44558
532.482	1361.31015
532.956	1290.55136
533.429	1408.56652
533.903	1313.11994
534.376	1335.16777
534.849	1256.19103
535.322	1312.33342
535.795	1236.30735
536.268	1345.45433
536.741	1236.25758
537.213	1252.18631
537.686	1280.40613
538.158	1276.18658
538.631	1263.3527
539.103	1275.16572
539.575	1245.89034
540.047	1230.01908
540.519	1266.31604
540.991	1267.37873
541.463	1239.30105
541.934	1227.11059
542.406	1288.36231
542.877	1215.09427
543.348	1233.30681
543.82	1204.28715
544.291	1218.19118
544.762	1269.31169
545.233	1281.52239
545.703	1315.1696
546.174	1366.3466
546.645	1295.39473
547.115	1398.51254
547.585	1326.27753
548.056	1407.58843
548.526	1503.57448
548.996	1461.55119
549.466	1556.71166
549.935	1570.66654
550.405	1482.29962
550.875	1606.67879
551.344	1504.58916
551.814	1530.4807
552.283	1565.35206
552.752	1596.62456
553.221	1624.44106
553.69	1751.62283
554.159	1666.92415
554.628	1691.589
555.096	1704.05191
555.565	1536.37047
556.033	1531.62413
556.502	1444.56796
556.97	1350.21366
557.438	1301.31437
557.906	1303.33221
558.374	1259.23016
558.842	1208.25714
559.31	1126.97485
559.777	1078.13039
560.245	1040.91894
560.712	1003.86389
561.18	1028.82319
561.647	1008.79964
562.114	1069.95736
562.581	1010.04218
563.048	1018.88574
563.514	1069.18574
563.981	1004.86622
564.448	1044.89088
564.914	987.87223
565.381	966.80788
565.847	954.83016
566.313	996.88246
566.779	975.78667
567.245	923.77103
567.711	960.90004
568.176	952.74837
568.642	967.02843
569.108	942.93206
569.573	944.80052
570.038	918.56288
570.504	998.82753
570.969	937.94121
571.434	1040.84548
571.899	1106.08834
572.363	1009.87599
572.828	1047.93429
573.293	1077.9671
573.757	1037.9434
574.222	1008.82368
574.686	1008.88201
575.15	1034.0252
575.614	1050.00258
576.078	1014.93612
576.542	1077.95426
577.006	1037.8815
577.469	1117.20094
577.933	1092.97504
578.396	989.92245
578.86	995.91489
579.323	1059.06503
579.786	998.7415
580.249	1082.0429
580.712	969.94955
581.175	1042.09454
581.637	935.7588
582.1	986.73405
582.563	909.58204
583.025	984.97568
583.487	968.59881
583.95	949.65185
584.412	1017.69811
584.874	996.9998
585.336	969.89422
585.797	971.7116
586.259	1028.94871
586.721	934.81668
587.182	951.80383
587.643	1020.87072
588.105	985.90831
588.566	971.62636
589.027	962.95716
589.488	969.82198
589.949	996.98971
590.41	971.53011
590.87	1011.876
591.331	1006.7684
591.791	876.7021
592.252	931.79841
592.712	962.90577
593.172	951.77757
593.632	1025.83054
594.092	935.7115
594.552	951.67713
595.011	932.76301
595.471	1022.8697
595.931	968.78582
596.39	997.96463
596.849	954.83104
597.308	931.61617
597.768	978.10766
598.227	914.83669
598.685	901.70717
599.144	948.84919
599.603	873.71518
600.062	956.62865
600.52	967.78531
600.978	886.75668
601.437	867.65143
601.895	909.59954
602.353	891.62014
602.811	920.71487
603.269	937.84972
603.727	931.86102
604.184	894.69677
604.642	867.80728
605.099	921.78755
605.557	886.81548
606.014	909.60787
606.471	904.91483
606.928	1050.86135
607.385	1149.29893
607.842	1205.13082
608.299	1285.27993
608.755	1186.25504
609.212	1087.91569
609.668	1091.94773
610.125	1054.0538
610.581	1087.03192
611.037	951.74172
611.493	932.79905
611.949	937.90238
612.405	855.43539
612.861	801.56689
613.316	860.74075
613.772	843.62585
614.227	861.74953
614.683	849.49292
615.138	851.68289
615.593	846.65465
616.048	801.55728
616.503	821.70072
616.958	847.80924
617.412	802.62693
617.867	795.50894
618.321	822.40953
618.776	766.4365
619.23	783.5692
619.684	730.40052
620.138	782.52498
620.592	687.4628
621.046	751.53133
621.5	684.44411
621.954	673.2944
622.407	703.34247
622.861	732.54421
623.314	711.39124
623.768	698.43827
624.221	643.09218
624.674	666.34765
625.127	586.21532
625.58	604.19969
626.033	603.16288
626.485	592.26493
626.938	597.2682
627.39	613.27168
627.843	607.24071
628.295	568.17111
628.747	566.21191
629.199	572.16193
629.651	585.19406
630.103	586.19637
630.555	499.94795
631.006	468.99632
631.458	460.99376
631.909	416.86022
632.361	405.86653
632.812	446.9495
633.263	461.91247
633.714	408.79566
634.165	399.89018
634.616	412.90302
635.067	411.83522
635.518	410.90167
635.968	358.65207
636.419	407.82105
636.869	346.77021
637.319	354.77036
637.769	362.76063
638.219	382.84046
638.669	289.65333
639.119	283.64472
639.569	318.72137
640.019	330.71814
640.468	303.64271
640.918	286.6451
641.367	255.54562
641.816	241.51343
642.265	298.6598
642.714	215.47555
643.163	312.68214
643.612	256.60167
644.061	222.45681
644.51	255.55954
644.958	254.53631
645.406	229.52698
645.855	219.51302
646.303	219.48783
646.751	257.56915
647.199	250.54244
647.647	285.62957
648.095	212.46646
648.543	203.39709
648.99	191.44533
649.438	226.5029
649.885	236.56654
650.333	237.43966
650.78	184.43213
651.227	214.50611
651.674	206.4544
652.121	206.48926
652.568	216.51123
653.015	197.4723
653.461	202.46476
653.908	207.459
654.354	234.53558
654.801	199.45172
655.247	227.47183
655.693	168.42601
656.139	207.47731
656.585	233.5349
657.031	191.43532
657.477	205.43256
657.922	179.39493
658.368	170.40672
658.813	186.40977
659.259	207.48529
659.704	193.44361
660.149	161.36176
660.594	156.36136
661.039	178.39396
661.484	178.40954
661.929	203.45837
662.373	138.33921
662.818	121.29396
663.262	128.30378
663.707	171.42366
664.151	189.44673
664.595	149.35219
665.039	210.50337
665.483	180.44506
665.927	164.37462
666.371	190.43331
666.814	140.32533
667.258	174.40785
667.701	193.3974
668.145	181.43741
668.588	188.45184
669.031	128.29521
669.474	147.3445
669.917	156.33286
670.36	171.41527
670.803	171.40184
671.245	76.15399
671.688	224.52442
672.13	177.38856
672.573	177.43419
673.015	148.34854
673.457	146.31003
673.899	162.3815
674.341	163.38214
674.783	132.30977
675.225	147.35337
675.666	178.42309
676.108	137.28934
676.549	119.27188
676.991	122.26246
677.432	147.284
677.873	102.22914
678.314	157.36375
678.755	170.40749
679.196	125.27983
679.637	128.2998
680.078	153.34801
680.518	171.3806
680.959	115.26856
681.399	90.21959
681.839	107.25517
682.28	129.31387
682.72	93.20948
683.16	153.37198
683.6	130.28905
684.039	119.2404
684.479	163.39139
684.919	137.3149
685.358	86.21101
685.798	83.21313
686.237	90.21137
686.676	97.21572
687.115	163.37286
687.554	163.37885
687.993	150.32256
688.432	106.23735
688.871	149.33246
689.309	160.37283
689.748	118.23996
690.186	107.24535
690.625	125.28709
691.063	124.28918
691.501	159.38207
691.939	170.41539
692.377	71.16997
692.815	173.41002
693.253	110.25643
693.69	91.19581
694.128	84.2009
694.565	141.32513
695.003	123.30753
695.44	154.35433
695.877	154.35192
696.314	97.20018
696.751	135.29773
697.188	109.24753
697.625	98.21491
698.061	80.18862
698.498	100.23165
698.934	87.20437
699.371	85.19678
699.807	105.2427
700.243	196.4551
700.679	111.24172
701.115	135.30633
701.551	69.15797
701.987	77.16533
702.422	121.28201
702.858	143.33158
703.294	161.3573
703.729	116.27552
704.164	90.2108
704.599	131.28467
705.035	109.23898
705.47	107.25409
705.904	100.22668
706.339	123.27501
706.774	113.25838
707.209	97.22126
707.643	120.27996
708.078	85.20294
708.512	35.087
708.946	91.21118
709.38	140.32302
709.814	115.25362
710.248	151.35816
710.682	125.2926
711.116	135.31996
711.549	82.2055
711.983	98.22142
712.416	141.32487
712.85	85.20643
713.283	93.21496
713.716	118.2849
714.149	97.21948
714.582	140.30481
715.015	127.30274
715.448	100.24645
715.881	154.31846
716.313	102.23262
716.746	130.29899
717.178	83.19573
717.61	130.32167
718.043	58.14099
718.475	147.34544
718.907	98.23902
719.339	55.12292
719.77	121.28213
720.202	116.28282
720.634	126.30088
721.065	103.23666
721.497	122.29044
721.928	59.14183
722.359	73.17462
722.79	98.22917
723.221	47.11496
723.652	104.25772
724.083	98.21482
724.514	147.3261
724.945	75.17205
725.375	94.21472
725.806	62.15003
726.236	125.31026
726.666	81.18678
727.096	64.15365
727.526	114.28631
727.956	83.18566
728.386	118.28091
728.816	98.24516
729.246	143.3418
729.675	71.16964
730.105	108.25681
730.534	114.25778
730.964	54.1323
731.393	109.25944
731.822	128.31742
732.251	81.20113
732.68	51.11587
733.109	59.14296
733.537	159.3751
733.966	138.33382
734.395	113.25359
734.823	100.21458
735.251	73.17155
735.68	47.11384
736.108	29.07146
736.536	66.15119
736.964	87.19645
737.392	102.24794
737.82	116.26818
738.247	104.24053
738.675	103.23476
739.102	97.23557
739.53	89.22381
739.957	87.22019
740.384	69.16228
740.811	40.09778
741.238	144.34123
741.665	108.2469
742.092	70.15693
742.519	90.21812
742.945	112.26468
743.372	121.29176
743.798	55.13811
744.225	78.1799
744.651	89.21687
745.077	70.17067
745.503	61.14402
745.929	140.32764
746.355	63.14978
746.781	64.15371
747.207	93.2153
747.632	101.24445
748.058	115.28169
748.483	85.19021
748.908	75.18269
749.334	113.27051
749.759	127.29297
750.184	95.22316
750.609	103.24488
751.033	78.1771
751.458	122.26201
751.883	83.19884
752.307	85.19483
752.732	89.22236
753.156	52.12546
753.58	89.20375
754.005	93.22679
754.429	99.22838
754.853	94.22807
755.277	107.24663
755.7	103.24826
756.124	112.27011
756.548	51.11798
756.971	116.27392
757.394	84.20915
757.818	87.21894
758.241	102.25211
758.664	56.13857
759.087	120.26171
759.51	16.03888
759.933	121.28346
760.356	128.32008
760.778	80.19162
761.201	108.25236
761.623	62.14379
762.046	57.12986
762.468	100.23174
762.89	107.25243
763.312	107.25409
763.734	100.23403
764.156	70.16876
764.578	93.20502
765	123.28938
765.421	62.15504
765.843	65.16626
766.264	74.1702
766.686	62.14998
767.107	74.17468
767.528	87.21807
767.949	47.11679
768.37	122.29267
768.791	75.17467
769.212	45.11137
769.632	57.13065
770.053	25.06422
770.473	52.12232
770.894	13.03142
771.314	68.15577
771.734	38.08666
772.154	48.11973
772.575	45.10116
772.994	74.16248
773.414	80.18422
773.834	59.14323
774.254	72.17075
774.673	131.30892
775.093	108.26046
775.512	72.17325
775.931	106.26037
776.351	98.23715
776.77	62.14868
777.189	75.17308
777.607	48.11986
778.026	55.13377
778.445	82.20268
778.864	77.18931
779.282	45.10451
779.701	40.09811
780.119	52.12886
780.537	48.11655
780.955	79.19358
781.373	68.16319
781.791	109.23878
782.209	33.0725
782.627	16.04145
783.045	59.13007
783.462	60.14928
783.88	37.09391
784.297	94.22893
784.715	33.08346
785.132	55.12864
785.549	62.1506
785.966	60.14694
786.383	77.18482
786.8	79.17715
787.217	77.17869
787.633	66.16194
788.05	91.20347
788.466	94.21022
788.883	97.24165
789.299	33.07637
789.715	115.26993
790.131	69.1665
790.547	94.22601
790.963	91.21759
791.379	51.12567
791.795	35.07674
792.21	64.14372
792.626	38.08691
793.041	81.19272
793.457	69.16392
793.872	20.04545
794.287	102.23834
794.702	20.04728
795.117	77.18616
795.532	56.13765
795.947	80.18267
796.362	48.10859
796.776	64.14159
797.191	69.16385
797.605	64.14749
798.02	29.06865
798.434	95.20248
798.848	80.19323
799.262	32.07741
799.676	73.17195
800.09	61.14519
800.504	73.17001
800.918	43.09551
801.331	31.07731
801.745	68.1495
802.158	24.05792
802.572	98.22809
802.985	58.13409
803.398	47.10816
803.811	16.03927
804.224	38.09057
804.637	54.12509
805.05	48.10659
805.462	34.08063
805.875	60.1515
806.288	74.17346
806.7	64.15377
807.112	34.07563
807.525	40.09409
807.937	32.07717
808.349	71.17029
808.761	85.20208
809.173	78.1829
809.584	55.13061
809.996	36.08544
810.408	73.18449
810.819	128.28696
811.231	325.80658
811.642	429.96105
812.053	488.055
812.464	446.93918
812.875	384.89891
813.286	262.63587
813.697	191.40639
814.108	81.18909
814.519	128.27312
814.929	98.23911
815.34	21.04895
815.75	74.18324
816.16	58.13765
816.571	67.16758
816.981	73.16329
817.391	63.14498
817.801	95.22751
818.211	61.1396
818.62	54.12628
819.03	106.24749
819.44	37.09211
819.849	46.1109
820.259	48.11755
820.668	57.13604
821.077	79.19078
821.486	52.11907
821.895	44.10342
822.304	49.12565
822.713	89.20031
823.122	52.12508
823.531	37.08341
823.939	46.10888
824.348	27.06318
824.756	58.1393
825.164	69.16625
825.573	73.17649
825.981	41.0977
826.389	51.12349
826.797	69.1697
827.205	91.20111
827.612	76.17898
828.02	43.09682
828.428	51.12539
828.835	79.20207
829.243	103.23201
829.65	93.22357
830.057	70.16222
830.464	73.17322
830.871	87.20021
831.278	62.14425
831.685	75.15895
832.092	68.15821
832.499	65.13679
832.905	59.14296
833.312	26.05605
833.718	93.22365
834.124	115.2499
834.531	39.09407
834.937	107.26374
835.343	33.07622
835.749	54.11917
836.155	57.14431
836.561	42.09995
836.966	43.10101
837.372	49.1198
837.777	54.13028
838.183	116.24214
838.588	41.09912
838.993	78.18212
839.399	43.10203
839.804	26.06154
840.209	58.14436
840.613	29.062
841.018	64.15511
841.423	95.23382
841.828	51.12525
842.232	55.12869
842.637	141.31799
843.041	45.11223
843.445	26.06268
843.849	53.12707
844.253	82.1855
844.657	71.1732
845.061	140.30507
845.465	69.16
845.869	48.10717
846.272	70.16459
846.676	12.0276
847.079	66.16307
847.483	37.08891
847.886	101.23169
848.289	64.1674
848.692	14.03418
849.095	32.07383
849.498	40.0964
849.901	65.14119
850.304	78.17796
850.707	39.09578
851.109	66.15959
851.512	89.2098
851.914	44.10804
852.316	99.24241
852.718	66.16885
853.121	81.1902
853.523	-14.03159
853.925	75.19056
854.326	57.13832
854.728	75.18623
855.13	71.17829
855.531	34.07864
855.933	85.19264
856.334	33.08032
856.736	34.07406
857.137	93.20794
857.538	47.115
857.939	61.14725
858.34	51.11816
858.741	50.12585
859.142	29.06685
859.542	36.09284
859.943	81.19265
860.343	71.1701
860.744	55.12895
861.144	83.19558
861.544	61.14296
861.945	23.05676
862.345	32.07516
862.745	97.23212
863.145	50.11242
863.544	82.1994
863.944	73.16477
864.344	-4.00953
864.743	74.17563
865.143	77.19189
865.542	20.04414
865.941	98.2325
866.34	14.03199
866.74	36.09391
867.139	92.21328
867.537	43.10455
867.936	82.1895
868.335	41.1005
868.734	53.13093
869.132	11.02437
869.531	21.04844
869.929	54.11857
870.327	76.17417
870.726	70.16549
871.124	61.13521
871.522	28.0688
871.92	72.17022
872.318	30.07024
872.715	32.07524
873.113	46.10719
873.511	9.02168
873.908	39.09687
874.306	26.06315
874.703	23.0551
875.1	6.01469
875.497	44.101
875.894	66.15833
876.291	59.13941
876.688	54.13455
877.085	39.08936
877.482	57.13713
877.878	72.16837
878.275	40.09847
878.671	-15.03129
879.068	88.20239
879.464	72.16639
879.86	31.07063
880.256	26.06092
880.652	31.07624
881.048	25.05918
881.444	56.1257
881.84	58.14162
882.236	54.13048
882.631	79.18659
883.027	39.09047
883.422	1.00247
883.817	55.13422
884.213	64.15807
884.608	72.17325
885.003	-2.00464
885.398	61.14692
885.793	20.04838
886.188	-35.08494
886.582	14.03449
886.977	34.07707
887.371	23.05588
887.766	-2.00487
888.16	26.06156
888.554	63.14822
888.949	78.1874
889.343	46.1074
889.737	-11.02895
890.131	14.03406
890.525	76.18792
890.918	18.04384
891.312	33.07515
891.706	52.13135
892.099	42.10275
892.492	38.07781
892.886	61.14273
893.279	31.07616
893.672	34.08432
894.065	42.10152
894.458	18.04336
894.851	38.08897
895.244	3.00744
895.637	50.1161
896.029	54.12772
896.422	-5.0117
896.814	72.17081
897.206	74.17094
897.599	93.21897
897.991	55.12854
898.383	46.10461
898.775	87.1889
899.167	45.1024
899.559	68.16356
899.951	59.1317
900.342	46.11157
900.734	51.12497
901.125	40.10071
901.517	25.05941
901.908	40.09067
902.299	26.06161
902.69	45.10298
903.082	94.21671
903.473	31.07279
903.863	25.06135
904.254	63.14162
904.645	34.08041
905.036	38.09057
905.426	52.11192
905.817	16.0377
906.207	-24.055
906.597	46.1044
906.987	7.01747
907.378	64.15645
907.768	45.11547
908.158	30.07035
908.547	44.11146
908.937	38.09289
909.327	40.09321
909.717	51.12242
910.106	10.02311
910.495	30.07139
910.885	90.21853
911.274	47.11286
911.663	17.04138
912.052	18.04239
912.441	77.18931
912.83	12.02635
913.219	80.20006
913.608	69.16253
913.997	17.04172
914.385	44.10095
914.774	33.07722
915.162	24.05586
915.55	6.01393
915.939	31.07627
916.327	33.07876
916.715	30.07518
917.103	49.11367
917.491	71.16743
917.878	72.16884
918.266	42.10469
918.654	43.10693
919.041	38.09732
919.429	8.01825
919.816	43.1049
920.203	61.14329
920.591	73.17369
920.978	58.13617
921.365	50.1272
921.752	-7.01591
922.139	56.1158
922.525	40.09281
922.912	26.0609
923.299	12.02894
923.685	12.03011
924.072	-21.04575
924.458	48.11497
924.844	21.05027
925.231	-38.08533
925.617	5.0125
926.003	43.1056
926.389	45.10929
926.774	26.06344
927.16	43.10255
927.546	71.17707
927.931	29.06934
928.317	32.07017
928.702	48.10823
929.088	53.12309
929.473	46.11383
929.858	81.19072
930.243	50.11651
930.628	79.18572
931.013	47.11226
931.398	29.06283
931.783	32.0806
932.167	66.15634
932.552	28.0675
932.937	47.1114
933.321	52.12669
933.705	-38.09255
934.09	56.13291
934.474	42.09466
934.858	58.14525
935.242	-33.07418
935.626	48.11912
936.009	17.04443
936.393	103.25379
936.777	55.13652
937.16	40.10147
937.544	18.04014
937.927	35.0863
938.311	55.12768
938.694	77.19634
939.077	17.03928
939.46	10.02318
939.843	26.05044
940.226	41.10088
940.609	49.10911
940.991	-19.04683
941.374	61.14391
941.757	37.08749
942.139	54.11632
942.522	42.09451
942.904	12.02789
943.286	40.0976
943.668	71.17874
944.05	22.05239
944.432	15.03563
944.814	23.05407
945.196	21.04989
945.578	92.21193
945.959	-25.05629
946.341	28.06486
946.722	24.05385
947.104	83.18902
947.485	25.05599
947.866	61.14898
948.247	20.04936
948.628	-8.01853
949.009	19.04714
949.39	45.10694
949.771	2.00438
950.152	43.10164
950.532	66.16038
950.913	72.16546
951.293	27.07152
951.674	34.07914
952.054	50.12159
952.434	44.10531
952.814	70.1568
953.194	32.07985
953.574	74.17319
953.954	1.00227
954.334	39.09461
954.714	19.04498
955.093	29.06868
955.473	22.05384
955.853	58.14462
956.232	37.09818
956.611	12.02738
956.99	61.14786
957.37	-6.01476
957.749	-2.00454
958.128	58.14136
958.506	24.06045
958.885	6.01462
959.264	28.06714
959.643	90.19553
960.021	53.12717
960.4	22.04782
960.778	43.1001
961.156	21.05066
961.535	-10.02231
961.913	64.14384
962.291	52.13032
962.669	39.09585
963.047	33.08185
963.424	65.16169
963.802	3.00717
964.18	59.1407
964.557	87.18882
964.935	48.10876
965.312	17.04323
965.69	39.09304
966.067	24.05562
966.444	-5.0117
966.821	42.10461
967.198	18.04156
967.575	46.10774
967.952	77.17202
968.329	63.14776
968.705	59.1211
969.082	83.20699
969.458	39.09133
969.835	41.09586
970.211	68.16956
970.587	61.14597
970.963	10.02464
971.339	36.09139
971.715	42.10118
972.091	43.10164
972.467	-16.03819
972.843	43.10404
973.219	79.17853
973.594	-8.0204
973.97	1.00223
974.345	23.05331
974.721	23.05276
975.096	51.11943
975.471	19.0432
975.846	23.05278
976.221	29.07127
976.596	65.15174
976.971	49.11712
977.346	56.12327
977.72	13.0319
978.095	11.02755
978.469	16.03662
978.844	18.04344
979.218	38.08904
979.593	36.08237
979.967	-12.02779
980.341	57.12592
980.715	67.16229
981.089	13.03145
981.463	-8.01777
981.837	70.16575
982.21	-7.01528
982.584	25.05847
982.957	7.01706
983.331	-23.05191
983.704	58.1385
984.078	28.06638
984.451	-2.00474
984.824	28.0662
985.197	15.03456
985.57	-8.01915
985.943	-25.05889
986.316	45.10418
986.688	64.14708
987.061	44.09917
987.434	88.22276
987.806	-3.00693
988.179	-14.03186
988.551	45.10929
988.923	7.01657
989.295	31.07418
989.667	33.0771
990.039	78.18754
990.411	3.00654
990.783	42.09106
991.155	7.01635
991.527	23.05342
991.898	25.06046
992.27	64.1533
992.641	36.08633
993.012	-21.04657
993.384	3.00687
993.755	54.13323
994.126	60.13938
994.497	25.05918
994.868	-15.0329
995.239	-1.00234
995.61	12.02927
995.98	34.07926
996.351	41.09845
996.722	73.16322
997.092	11.02528
997.462	29.06599
997.833	41.09216
998.203	19.04366
998.573	10.02421
998.943	20.04541
999.313	34.07882
999.683	67.15413
1000.053	23.04949
1000.423	3.00699
1000.792	-4.00996
1001.162	-43.10255
1001.531	76.17926
1001.901	18.04308
1002.27	3.00631
1002.639	-6.01477
1003.009	51.11568
1003.378	49.12083
1003.747	-6.01361
1004.116	22.05056
1004.485	31.07111
1004.853	25.06021
1005.222	-15.03605
1005.591	76.17095
1005.959	23.04998
1006.328	24.05203
1006.696	23.05314
1007.064	24.05764
1007.433	62.14703
1007.801	47.10851
1008.169	-17.04127
1008.537	86.17951
1008.905	26.05865
1009.273	22.05193
1009.64	31.07211
1010.008	24.05487
1010.375	47.10712
1010.743	7.01502
1011.11	67.15443
1011.478	35.08401
1011.845	1.00225
1012.212	81.17602
1012.579	26.06161
1012.946	0
1013.313	39.08803
1013.68	58.12311
1014.047	29.06637
1014.414	13.02951
1014.78	29.06977
1015.147	38.08694
1015.513	3.00698
1015.88	32.07825
1016.246	18.04224
1016.612	57.12297
1016.978	55.13
1017.344	56.13291
1017.71	67.15468
1018.076	11.02468
1018.442	49.12171
1018.808	67.16198
1019.174	-3.00725
1019.539	4.00845
1019.905	70.15816
1020.27	-14.03346
1020.636	4.00912
1021.001	81.18507
1021.366	35.08113
1021.731	84.20968
1022.096	15.03699
1022.461	31.07063
1022.826	52.11921
1023.191	42.10639
1023.556	-3.00674
1023.92	17.03987
1024.285	9.02094
1024.649	-1.00235
1025.014	-4.00947
1025.378	17.0416
1025.742	-12.02863
1026.107	27.0582
1026.471	6.01339
1026.835	49.1165
1027.199	6.01398
1027.562	-12.02664
1027.926	57.13233
1028.29	-7.01722
1028.654	6.01321
1029.017	54.12752
1029.381	69.15771
1029.744	25.06162
1030.107	48.1085
1030.471	24.0556
1030.834	17.03642
1031.197	64.14678
1031.56	36.08084
1031.923	41.1024
1032.286	82.18255
1032.648	-5.01137
1033.011	83.18343
1033.374	29.06452
1033.736	6.01534
1034.099	-3.00708
1034.461	28.06885
1034.823	21.05071
1035.185	35.08391
1035.548	38.08925
1035.91	14.03221
1036.272	69.15001
1036.634	74.17237
1036.995	6.01346
1037.357	27.06357
1037.719	52.12127
1038.08	102.23121
1038.442	30.06817
1038.803	-64.14761
1039.165	17.04121
1039.526	68.15683
1039.887	17.03909
1040.248	40.09647
1040.609	41.09605
1040.97	10.0235
1041.331	46.11282
1041.692	8.01836
1042.053	66.14156
1042.413	35.07745
1042.774	19.04462
1043.134	27.06077
1043.495	44.1062
1043.855	60.14075
1044.215	-15.0359
1044.576	18.04176
1044.936	3.00657
1045.296	70.16677
1045.656	26.06063
1046.016	28.06448
1046.375	47.10916
1046.735	93.20321
1047.095	24.05394
1047.454	25.04976
1047.814	60.13783
1048.173	37.08327
1048.533	51.1113
1048.892	-4.00933
1049.251	31.07427
1049.61	61.1438
1049.969	38.0854
1050.328	9.01868
1050.687	2.00467
1051.046	18.04201
1051.405	-16.03822
1051.763	32.07133
1052.122	1.00241
1052.48	48.11317
1052.839	98.22215
1053.197	31.06983
1053.555	59.12461
1053.914	73.16947
1054.272	25.05668
1054.63	47.11045
1054.988	50.11477
1055.345	-11.02239
1055.703	20.0464
1056.061	54.13518
1056.419	66.16683
1056.776	28.06399
1057.134	-11.0241
1057.491	15.03629
1057.848	22.05241
1058.206	-15.03351
1058.563	-8.01691
1058.92	45.09837
1059.277	49.11578
1059.634	5.01115
1059.991	91.20724
1060.348	33.07162
1060.704	73.16981
1061.061	24.05228
1061.418	39.09086
1061.774	37.08776
1062.131	10.02609
1062.487	29.06452
1062.843	41.09808
1063.199	-17.04108
1063.555	74.16447
1063.911	18.04357
1064.267	73.14049
1064.623	36.08501
1064.979	-25.05511
1065.335	13.02959
1065.691	-29.06634
1066.046	22.04604
1066.402	-25.05451
1066.757	51.12362
1067.112	39.09133
1067.468	57.13039
1067.823	-29.06615
1068.178	5.01158
1068.533	19.0443
1068.888	78.17588
1069.243	16.03809
1069.598	2.00466
1069.952	95.20679
1070.307	-29.07027
1070.662	35.0808
1071.016	81.17444
1071.371	29.0635
1071.725	61.13757
1072.079	55.12667
1072.434	49.11448
1072.788	-18.04087
1073.142	92.21523
1073.496	25.05675
1073.85	39.08616
1074.203	25.05838
1074.557	37.09637
1074.911	57.1286
1075.265	75.16513
1075.618	73.17001
1075.971	25.05698
1076.325	54.13289
1076.678	17.03734
1077.031	-17.03627
1077.385	76.15716
1077.738	78.16592
1078.091	22.04845
1078.444	71.15416
1078.796	26.06183
1079.149	32.07674
1079.502	12.02751
1079.855	43.09595
1080.207	0
1080.56	63.1574
1080.912	30.06996
1081.264	71.16359
1081.617	36.08458
1081.969	66.1605
1082.321	15.03514
1082.673	31.06891
1083.025	12.02719
1083.377	260.55716
1083.728	13.02895
1084.08	-2.0048
1084.432	-8.01857
1084.783	14.0308
1085.135	15.0365
1085.486	14.03097
1085.838	29.06897
1086.189	40.09402
1086.54	54.12241
1086.891	31.07714
1087.242	91.21451
1087.593	51.11666
1087.944	40.08727
1088.295	49.10562
1088.646	80.1884
1088.996	16.03739
1089.347	4.00941
1089.698	47.10756
1090.048	17.04243
1090.398	32.07041
1090.749	23.0523
1091.099	47.11513
1091.449	-12.02914
1091.799	103.24469
1092.149	0
1092.499	47.10985
1092.849	-12.02969
1093.199	6.01439
1093.548	49.11403
1093.898	7.01685
1094.248	-15.03707
1094.597	1.00251
1094.947	56.14432
1095.296	3.00721
1095.645	19.04757
1095.994	27.06226
1096.343	41.09961
1096.692	51.13146
1097.041	40.10665
1097.39	2.00482
1097.739	20.05025
1098.088	31.07974
1098.437	34.08775
1098.785	18.04668
1099.134	4.01014
1099.482	58.15474
1099.83	32.08132
1100.179	63.16126
1100.527	9.02293
1100.875	26.06715
1101.223	72.18517
1101.571	5.01342
1101.919	67.1724
1102.267	-14.03898
1102.615	20.06411
1102.962	5.01603
1103.31	19.06091
1103.658	3.00961
