Data from N1 R2 sample 1_Subt2__1__13-51-01-675.txt Node

Date: Wed Sep 17 13:51:01 PDT 2025
User: uwsun
Spectrometer: HDX01956
Trigger mode: 0
Integration Time (sec): 5.000000E-1
Scans to average: 1
Nonlinearity correction enabled: true
Boxcar width: 0
Storing dark spectrum: false
XAxis mode: Wavelengths
Number of Pixels in Spectrum: 2068
>>>>>Begin Spectral Data<<<<<
194.03	185.52248
194.578	189.6009
195.127	158.49692
195.676	177.55742
196.225	155.40326
196.773	169.45986
197.321	283.7573
197.87	345.85026
198.418	449.09158
198.966	433.08118
199.513	416.00386
200.061	412.99641
200.609	395.99628
201.156	378.78725
201.704	381.91748
202.251	426.07496
202.798	381.94585
203.345	407.95963
203.892	410.98673
204.438	416.93481
204.985	431.96791
205.532	400.00241
206.078	403.93617
206.624	461.08937
207.17	460.01173
207.716	457.05485
208.262	387.72585
208.808	451.0694
209.354	439.02607
209.899	428.01925
210.445	413.98358
210.99	427.98838
211.535	456.00921
212.08	411.90444
212.625	433.02191
213.17	430.0381
213.715	439.94576
214.259	413.91456
214.804	403.9395
215.348	457.99256
215.892	469.06799
216.436	442.94752
216.98	436.89794
217.524	441.99524
218.068	465.10308
218.612	443.0641
219.155	416.93136
219.698	394.89119
220.242	361.85252
220.785	455.00092
221.328	382.89948
221.871	432.03979
222.414	332.78937
222.956	371.84516
223.499	372.78681
224.041	353.76867
224.583	358.7154
225.126	342.71545
225.668	399.91809
226.21	345.83836
226.751	410.85996
227.293	369.79157
227.835	355.83186
228.376	352.76178
228.918	367.87071
229.459	361.86044
230	360.82523
230.541	430.92658
231.082	432.98983
231.622	339.7313
232.163	364.83574
232.704	428.00872
233.244	322.76825
233.784	372.8565
234.324	387.82445
234.864	387.82552
235.404	333.74972
235.944	389.86609
236.484	422.99363
237.023	403.89576
237.563	352.78064
238.102	433.96043
238.641	371.88766
239.18	396.87893
239.719	368.87796
240.258	397.84023
240.797	375.85116
241.335	372.85957
241.874	399.72769
242.412	477.07879
242.95	433.98436
243.488	361.76906
244.026	414.90741
244.564	432.82766
245.102	447.94646
245.64	399.89938
246.177	390.81657
246.715	395.89836
247.252	375.80548
247.789	476.80523
248.326	431.97704
248.863	416.85945
249.4	389.83302
249.936	484.93491
250.473	431.95798
251.009	381.82576
251.546	453.94364
252.082	429.86424
252.618	407.85687
253.154	406.92356
253.69	434.90989
254.226	462.03144
254.761	441.92436
255.297	393.80847
255.832	403.90616
256.367	457.00028
256.903	429.89405
257.438	450.98546
257.972	406.85045
258.507	445.95334
259.042	456.9218
259.576	459.94636
260.111	441.9464
260.645	422.85307
261.179	468.01988
261.713	430.90231
262.247	437.93297
262.781	465.9079
263.315	392.90037
263.849	411.97394
264.382	460.98398
264.915	435.96727
265.449	417.96065
265.982	478.00511
266.515	433.99988
267.048	408.81192
267.58	451.90355
268.113	426.86195
268.646	392.90901
269.178	402.84616
269.71	513.04211
270.243	475.02268
270.775	503.20115
271.307	424.94731
271.838	442.97733
272.37	458.04814
272.902	491.02592
273.433	506.03231
273.965	475.07383
274.496	437.0162
275.027	471.09498
275.558	456.04147
276.089	463.0827
276.62	416.99091
277.15	467.0707
277.681	404.81669
278.211	438.00108
278.741	422.88044
279.272	478.01482
279.802	448.04408
280.332	499.09055
280.861	448.00095
281.391	477.00499
281.921	450.0046
282.45	461.0679
282.98	453.10912
283.509	531.10868
284.038	492.04187
284.567	496.06912
285.096	514.15341
285.625	469.98044
286.153	563.23168
286.682	552.15948
287.21	470.04112
287.739	506.10471
288.267	502.13428
288.795	484.18098
289.323	460.00877
289.851	522.13248
290.378	451.93781
290.906	509.15502
291.433	542.24517
291.961	560.16804
292.488	497.14506
293.015	483.06086
293.542	585.38069
294.069	556.2677
294.596	510.15332
295.122	536.18462
295.649	511.02671
296.175	564.2414
296.702	550.23785
297.228	538.19103
297.754	497.03343
298.28	585.22431
298.806	542.20189
299.332	557.13836
299.857	572.18412
300.383	538.24926
300.908	570.28606
301.433	590.32149
301.958	517.09229
302.483	522.19725
303.008	585.33255
303.533	574.36072
304.058	555.18346
304.582	546.18564
305.107	517.25153
305.631	551.14236
306.155	558.19064
306.679	599.28074
307.203	598.26067
307.727	618.32626
308.251	555.26058
308.775	647.42283
309.298	630.37526
309.822	593.36221
310.345	670.43737
310.868	663.43853
311.391	651.4478
311.914	625.42434
312.437	695.41123
312.96	625.33237
313.482	627.33086
314.005	627.42085
314.527	632.49603
315.049	687.56448
315.571	695.38941
316.093	684.52157
316.615	677.45521
317.137	666.29291
317.659	704.52141
318.18	675.44033
318.702	740.53175
319.223	692.23884
319.744	721.43347
320.265	679.48702
320.786	771.70425
321.307	753.64714
321.828	727.44676
322.348	768.58764
322.869	774.62147
323.389	1016.60272
323.909	764.52861
324.43	785.64345
324.95	796.5861
325.47	836.80842
325.989	871.7779
326.509	897.70536
327.029	851.67268
327.548	872.68869
328.067	872.82775
328.587	926.9921
329.106	864.66442
329.625	862.95798
330.144	955.87122
330.662	950.88548
331.181	981.94391
331.7	901.78438
332.218	947.71611
332.736	931.84901
333.255	972.9265
333.773	971.92854
334.291	1025.15214
334.808	990.85744
335.326	1025.89733
335.844	1049.04066
336.361	1098.35139
336.879	1084.09347
337.396	1165.29999
337.913	1118.09465
338.43	1096.00508
338.947	1131.19847
339.464	1095.90279
339.981	1139.18897
340.497	1169.32935
341.014	1190.33688
341.53	1124.04309
342.046	1212.44352
342.562	1254.49269
343.078	1272.34915
343.594	1268.3719
344.11	1296.43274
344.626	1244.52066
345.141	1305.30962
345.657	1342.32102
346.172	1313.47735
346.687	1323.33799
347.202	1386.40129
347.717	1373.51564
348.232	1404.69636
348.747	1381.42839
349.261	1370.26899
349.776	1450.5998
350.29	1447.7732
350.805	1464.74374
351.319	1439.51126
351.833	1497.54651
352.347	1508.64123
352.861	1500.61217
353.374	1510.5148
353.888	1552.81316
354.401	1499.50787
354.915	1553.54279
355.428	1617.95575
355.941	1593.67924
356.454	1571.50182
356.967	1571.66043
357.48	1585.57706
357.993	1563.84242
358.505	1554.78997
359.018	1710.98484
359.53	1707.96954
360.042	1740.67193
360.554	1779.04821
361.066	1667.91158
361.578	1746.62998
362.09	1723.88101
362.602	1758.67175
363.113	1791.90247
363.625	1767.74464
364.136	1806.64801
364.647	1900.01841
365.158	1910.94686
365.669	1891.03683
366.18	1919.99763
366.691	1924.71398
367.201	1907.06455
367.712	1981.92927
368.222	2016.97576
368.733	1958.7081
369.243	2060.87764
369.753	2040.99031
370.263	2130.25746
370.773	2016.21067
371.282	2212.25129
371.792	2145.07647
372.301	2182.28281
372.811	2305.79383
373.32	2332.85034
373.829	2313.23129
374.338	2412.98714
374.847	2547.20823
375.356	2585.324
375.865	2762.86764
376.373	2747.16412
376.882	2904.81105
377.39	2893.50687
377.898	2964.62453
378.407	3120.14969
378.915	3208.92758
379.423	3340.25268
379.93	3489.2187
380.438	3605.39918
380.946	3797.1227
381.453	3990.25934
381.96	4176.14218
382.468	4385.92631
382.975	4722.05055
383.482	4828.34201
383.989	4871.35345
384.495	5156.44131
385.002	5406.62654
385.509	5643.33454
386.015	6067.22741
386.521	6296.74782
387.028	6580.67564
387.534	6749.34685
388.04	7034.99393
388.546	7160.55084
389.051	7630.73483
389.557	8104.26793
390.063	8678.88766
390.568	9035.57696
391.073	9275.96795
391.578	9707.98266
392.084	10024.89411
392.589	10212.59888
393.093	11037.37421
393.598	12014.37171
394.103	13194.55536
394.607	14566.40772
395.112	15452.42162
395.616	16528.07893
396.12	17810.75314
396.624	19566.17421
397.128	21361.93741
397.632	23605.07126
398.136	25639.29641
398.639	27015.02782
399.143	29947.91665
399.646	34170.13489
400.15	37377.26057
400.653	41641.9492
401.156	46879.51539
401.659	54682.49778
402.162	62280.81895
402.664	62047.54301
403.167	63977.72923
403.67	63769.22307
404.172	63919.58413
404.674	63858.43483
405.176	63738.15102
405.678	63977.72923
406.18	64011.81569
406.682	63863.44694
407.184	63926.60148
407.686	63841.39382
408.187	64025.8516
408.688	63892.51763
409.19	63833.37461
409.691	63977.72923
410.192	63945.6488
410.693	63713.09355
411.194	63812.32447
411.694	63919.58413
412.195	64038.8851
412.696	63881.49072
413.196	61898.59205
413.696	60617.93944
414.196	61505.87104
414.696	60512.67068
415.196	58086.63476
415.696	52848.69101
416.196	42555.97353
416.695	32847.73577
417.195	27972.64032
417.694	26740.32923
418.194	25194.39983
418.693	23420.26092
419.192	22474.70328
419.691	22418.29647
420.19	21941.41574
420.688	21315.79285
421.187	20266.79045
421.685	19017.11039
422.184	17246.07563
422.682	14944.56589
423.18	12490.20504
423.678	11194.27795
424.176	10295.75905
424.674	9733.09359
425.172	9290.02148
425.669	8801.2318
426.167	8159.29372
426.664	7497.73588
427.161	7033.66318
427.659	6404.04618
428.156	6033.35694
428.652	5653.65605
429.149	5492.44565
429.646	5246.98213
430.143	4957.64976
430.639	4639.74504
431.135	4345.31201
431.632	4108.77374
432.128	3936.19239
432.624	3696.80834
433.12	3613.9671
433.616	3487.76747
434.111	3333.29569
434.607	3167.36767
435.103	3095.61393
435.598	3062.58777
436.093	2985.20617
436.588	2814.01743
437.083	2653.98328
437.578	2573.14064
438.073	2461.52973
438.568	2343.38427
439.062	2282.69414
439.557	2235.07083
440.051	2073.81772
440.546	2012.83019
441.04	1997.06034
441.534	1989.27079
442.028	2002.07611
442.522	1870.96424
443.015	1784.4675
443.509	1830.9852
444.002	1815.9971
444.496	1789.50989
444.989	1789.9377
445.482	1708.94583
445.975	1699.67577
446.468	1741.47205
446.961	1638.40846
447.454	1616.49525
447.947	1632.73133
448.439	1663.86394
448.931	1658.61275
449.424	1542.87494
449.916	1529.70389
450.408	1550.50084
450.9	1478.63006
451.392	1499.81295
451.884	1425.39101
452.375	1388.58694
452.867	1395.29111
453.358	1395.34921
453.849	1363.11771
454.341	1349.25661
454.832	1376.15726
455.323	1372.58711
455.814	1278.21212
456.304	1342.31858
456.795	1293.22468
457.285	1293.12254
457.776	1270.19127
458.266	1280.31835
458.756	1178.17394
459.247	1230.27697
459.737	1213.28817
460.226	1172.07491
460.716	1165.18884
461.206	1085.07897
461.695	1044.09953
462.185	1141.13735
462.674	1078.95954
463.163	1111.95812
463.653	1042.75474
464.142	1013.00401
464.63	1043.04718
465.119	1040.94665
465.608	1052.98172
466.096	973.70444
466.585	978.81779
467.073	916.79429
467.561	959.89673
468.05	941.7805
468.538	905.85069
469.026	916.80441
469.513	881.52753
470.001	928.75714
470.489	900.7853
470.976	928.79303
471.463	821.74762
471.951	823.74658
472.438	767.54559
472.925	733.49323
473.412	785.63404
473.899	770.50936
474.385	724.54333
474.872	802.58994
475.359	739.5784
475.845	690.2289
476.331	626.16774
476.817	656.40912
477.303	645.32029
477.789	576.22858
478.275	647.42283
478.761	606.2798
479.247	691.3361
479.732	602.34453
480.218	629.47545
480.703	584.29032
481.188	556.07439
481.673	587.20248
482.158	552.06614
482.643	599.37381
483.128	578.20564
483.612	604.28281
484.097	520.13724
484.581	509.06783
485.066	536.18955
485.55	511.02151
486.034	452.8978
486.518	565.21628
487.002	470.04761
487.486	438.98302
487.969	457.02089
488.453	452.03646
488.936	424.88186
489.42	460.93159
489.903	398.92438
490.386	352.68024
490.869	467.93517
491.352	381.85706
491.835	408.7692
492.318	377.79058
492.8	391.75037
493.283	400.95464
493.765	386.88517
494.247	393.85213
494.73	413.84579
495.212	341.76144
495.694	385.84795
496.175	350.79233
496.657	351.78182
497.139	355.56292
497.62	388.87226
498.102	392.91296
498.583	304.70945
499.064	319.67221
499.545	319.68757
500.026	367.77743
500.507	292.6395
500.988	332.78573
501.469	306.72505
501.949	308.72274
502.43	317.72479
502.91	357.70894
503.39	298.70337
503.87	300.67474
504.35	285.63536
504.83	270.56358
505.31	263.60739
505.79	226.5154
506.269	251.55261
506.749	269.58752
507.228	258.58267
507.707	299.63367
508.187	349.78573
508.666	309.72834
509.145	261.58499
509.623	286.63851
510.102	282.65165
510.581	318.72781
511.059	291.69974
511.538	303.74486
512.016	343.7757
512.494	260.59938
512.972	316.718
513.45	276.61542
513.928	277.64454
514.406	316.73629
514.884	333.81496
515.361	294.67072
515.839	359.77676
516.316	345.79197
516.793	303.72915
517.27	275.63282
517.747	300.73517
518.224	337.73228
518.701	300.62926
519.178	335.79451
519.654	319.71614
520.131	355.82958
520.607	285.66525
521.083	314.67374
521.56	320.7147
522.036	317.65213
522.512	389.90009
522.987	332.7574
523.463	311.70019
523.939	366.85578
524.414	334.72128
524.89	360.80834
525.365	296.63594
525.84	292.66992
526.315	310.71434
526.79	300.64315
527.265	314.68855
527.74	265.61711
528.215	260.58167
528.689	318.65876
529.164	284.57938
529.638	273.66368
530.112	279.62713
530.587	292.5938
531.061	232.54251
531.534	251.58198
532.008	282.65631
532.482	289.63333
532.956	257.6311
533.429	319.74196
533.903	300.62398
534.376	264.55864
534.849	263.57952
535.322	259.58671
535.795	214.50081
536.268	274.63568
536.741	224.51413
537.213	242.5356
537.686	248.58469
538.158	291.63099
538.631	266.61834
539.103	259.56137
539.575	233.4614
540.047	229.48151
540.519	259.59458
540.991	254.59604
541.463	227.52801
541.934	202.44315
542.406	222.51668
542.877	225.4908
543.348	281.64972
543.82	242.56766
544.291	242.54475
544.762	269.61456
545.233	284.69029
545.703	224.48209
546.174	223.50065
546.645	282.65372
547.115	292.67395
547.585	254.56192
548.056	341.79531
548.526	293.66507
548.996	283.64784
549.466	280.65242
549.935	280.64162
550.405	282.59229
550.875	303.68665
551.344	293.66777
551.814	298.65154
552.283	328.67765
552.752	328.73014
553.221	386.79747
553.69	374.79416
554.159	342.80845
554.628	354.75759
555.096	344.83139
555.565	310.65195
556.033	353.79636
556.502	316.72643
556.97	232.49974
557.438	246.55761
557.906	246.56055
558.374	285.63325
558.842	202.47162
559.31	224.48624
559.777	214.50885
560.245	184.4125
560.712	182.40751
561.18	226.48472
561.647	176.38205
562.114	198.44242
562.581	217.51886
563.048	189.42275
563.514	260.62936
563.981	238.52696
564.448	235.5137
564.914	212.4784
565.381	219.48581
565.847	212.47976
566.313	160.36445
566.779	195.42789
567.245	163.37031
567.711	177.41464
568.176	177.38872
568.642	212.51917
569.108	186.44669
569.573	174.39409
570.038	202.41078
570.504	180.39789
570.969	161.39143
571.434	211.45538
571.899	167.38815
572.363	197.44046
572.828	266.58773
573.293	179.40138
573.757	216.48702
574.222	145.32032
574.686	262.57986
575.15	224.52319
575.614	305.68753
576.078	195.44641
576.542	239.52642
577.006	203.44675
577.469	261.61808
577.933	193.42938
578.396	177.41074
578.86	208.47627
579.323	232.54166
579.786	197.41678
580.249	266.60318
580.712	179.42571
581.175	161.38952
581.637	193.42956
582.1	184.39192
582.563	192.39793
583.025	218.51517
583.487	221.44112
583.95	147.31045
584.412	226.4598
584.874	210.49819
585.336	215.49555
585.797	243.51027
586.259	224.50816
586.721	201.45941
587.182	199.44695
587.643	209.46189
588.105	181.41819
588.566	178.3633
589.027	272.64052
589.488	231.51349
589.949	226.53221
590.41	283.53523
590.87	217.48257
591.331	285.59608
591.791	212.47742
592.252	272.60876
592.712	213.49603
593.172	232.51111
593.632	291.6186
594.092	219.47366
594.552	217.45648
595.011	195.43563
595.471	242.53023
595.931	231.50517
596.39	227.52842
596.849	216.48862
597.308	195.40496
597.768	209.52498
598.227	196.45923
598.685	211.46748
599.144	216.49478
599.603	199.45337
600.062	160.33146
600.52	239.522
600.978	211.48459
601.437	190.42174
601.895	240.49674
602.353	206.44011
602.811	270.58483
603.269	217.50096
603.727	189.44292
604.184	226.49914
604.642	194.46502
605.099	247.5568
605.557	229.53917
606.014	194.40747
606.471	229.55673
606.928	238.51134
607.385	246.59525
607.842	295.64593
608.299	272.61002
608.755	225.5281
609.212	228.49239
609.668	284.61305
610.125	241.56079
610.581	244.55173
611.037	182.39827
611.493	244.54903
611.949	177.42177
612.405	223.43952
612.861	152.34329
613.316	158.37136
613.772	150.33766
614.227	213.49701
614.683	175.36245
615.138	175.40111
615.593	163.37061
616.048	184.41063
616.503	156.37137
616.958	168.41173
617.412	202.46624
617.867	187.40791
618.321	180.3622
618.776	172.37018
619.23	164.37598
619.684	197.42699
620.138	121.27322
620.592	131.31288
621.046	222.5075
621.5	184.43146
621.954	176.37944
622.407	135.29361
622.861	127.30367
623.314	146.32421
623.768	192.44105
624.221	142.27428
624.674	134.30449
625.127	154.35064
625.58	146.32138
626.033	174.37062
626.485	136.31965
626.938	186.43102
627.39	216.48842
627.843	103.23485
628.295	128.29038
628.747	178.41363
629.199	143.31934
629.651	105.23796
630.103	107.2425
630.555	106.22067
631.006	74.17101
631.458	95.22124
631.909	126.27747
632.361	57.13112
632.812	91.20867
633.263	151.32058
633.714	107.2236
634.165	115.27161
634.616	66.15519
635.067	66.14467
635.518	87.20429
635.968	137.26354
636.419	117.25176
636.869	122.28418
637.319	118.26965
637.769	88.19607
638.219	95.22159
638.669	77.18158
639.119	72.17101
639.569	85.20193
640.019	117.26613
640.468	59.13181
640.918	92.21573
641.367	94.20814
641.816	55.12191
642.265	145.33129
642.714	44.10079
643.163	92.21049
643.612	164.39236
644.061	120.2526
644.51	84.19095
644.958	100.21828
645.406	98.23142
645.855	30.07287
646.303	65.14941
646.751	95.21749
647.199	92.20634
647.647	69.1593
648.095	29.06626
648.543	84.16895
648.99	95.22568
649.438	51.1176
649.885	81.20017
650.333	90.17309
650.78	81.19405
651.227	98.23697
651.674	93.21
652.121	80.19461
652.568	69.16795
653.015	44.10856
653.461	75.17694
653.908	59.13486
654.354	72.17015
654.801	61.14234
655.247	61.13148
655.693	41.10631
656.139	53.12596
656.585	78.18462
657.031	57.13343
657.477	92.19894
657.922	22.05013
658.368	58.14173
658.813	14.03195
659.259	41.09924
659.704	110.25703
660.149	12.02779
660.594	51.1206
661.039	85.19178
661.484	99.23138
661.929	102.23506
662.373	24.06023
662.818	36.08885
663.262	57.13713
663.707	84.21142
664.151	75.18119
664.595	37.08935
665.039	64.15767
665.483	63.15911
665.927	104.24044
666.371	74.17271
666.814	60.14163
667.258	79.18861
667.701	79.16684
668.145	62.15319
668.588	104.25394
669.031	47.11015
669.474	66.15712
669.917	78.16925
670.36	82.20246
670.803	137.32408
671.245	16.03286
671.688	58.1402
672.13	60.13496
672.573	59.14789
673.015	56.13424
673.457	30.06532
673.899	99.236
674.341	64.15295
674.783	23.05512
675.225	29.07127
675.666	74.17941
676.108	43.09269
676.549	30.06977
676.991	54.11787
677.432	42.08319
677.873	57.12923
678.314	62.14635
678.755	90.21902
679.196	14.03206
679.637	27.06449
680.078	67.15505
680.518	26.05961
680.959	52.12294
681.399	19.04697
681.839	63.15151
682.28	65.16004
682.72	33.07525
683.16	81.19958
683.6	89.19957
684.039	48.09855
684.479	55.13477
684.919	71.16535
685.358	1.00249
685.798	24.06226
686.237	45.10661
686.676	5.01133
687.115	62.1447
687.554	86.20293
687.993	54.11852
688.432	39.08853
688.871	68.15427
689.309	80.18935
689.748	27.05605
690.186	10.02338
690.625	37.08647
691.063	59.13935
691.501	81.19752
691.939	88.21831
692.377	21.05075
692.815	95.22855
693.253	23.05453
693.69	57.12355
694.128	42.10125
694.565	59.13827
695.003	82.20654
695.44	70.16376
695.877	74.17183
696.314	-1.00211
696.751	82.18285
697.188	115.26084
697.625	14.03124
698.061	-4.00958
698.498	35.08212
698.934	27.06417
699.371	18.04223
699.807	28.06571
700.243	53.12654
700.679	78.17105
701.115	62.14277
701.551	27.06233
701.987	12.02613
702.422	73.17175
702.858	66.15537
703.294	102.22914
703.729	49.11788
704.164	44.10398
704.599	56.12363
705.035	43.09559
705.47	35.08427
705.904	67.15289
706.339	49.11123
706.774	54.12494
707.209	53.12197
707.643	54.12762
708.078	41.09871
708.512	21.05233
708.946	73.17001
709.38	88.20514
709.814	62.13825
710.248	87.2089
710.682	84.19821
711.116	74.17745
711.549	22.05573
711.983	14.03217
712.416	79.18427
712.85	63.15363
713.283	47.10963
713.716	90.21845
714.149	43.09836
714.582	77.16989
715.015	23.05592
715.448	90.22221
715.881	75.15784
716.313	70.16067
716.746	69.16063
717.178	74.17481
717.61	93.23168
718.043	55.13377
718.475	23.05535
718.907	101.2462
719.339	28.06293
719.77	58.13691
720.202	53.13074
720.634	60.14509
721.065	23.05369
721.497	93.22263
721.928	55.13232
722.359	45.10822
722.79	6.01428
723.221	50.12222
723.652	61.15235
724.083	89.19546
724.514	70.15777
724.945	20.04639
725.375	48.11066
725.806	27.06577
726.236	40.10082
726.666	42.0976
727.096	51.12274
727.526	67.16969
727.956	98.21853
728.386	68.16344
728.816	61.15362
729.246	79.19114
729.675	-18.04374
730.105	29.07001
730.534	34.07814
730.964	-12.02976
731.393	74.17732
731.822	56.1407
732.251	69.17171
732.68	57.12934
733.109	9.02201
733.537	94.22455
733.966	88.21487
734.395	68.15402
734.823	50.10845
735.251	65.15299
735.68	35.08497
736.108	-1.00248
736.536	40.09211
736.964	20.04578
737.392	57.13972
737.82	66.1541
738.247	19.04468
738.675	14.03248
739.102	60.14672
739.53	25.06359
739.957	74.18772
740.384	28.06638
740.811	-3.00739
741.238	66.15875
741.665	77.17713
742.092	-40.0917
742.519	68.16548
742.945	80.19023
743.372	34.08333
743.798	40.10071
744.225	25.05827
744.651	52.12759
745.077	61.14898
745.503	40.09482
745.929	80.18943
746.355	61.14508
746.781	20.04843
747.207	55.12829
747.632	82.19918
748.058	115.28169
748.483	58.13051
748.908	52.12721
749.334	74.17847
749.759	72.16791
750.184	82.19311
750.609	84.20043
751.033	94.21273
751.458	50.10905
751.883	58.13961
752.307	40.09251
752.732	91.22727
753.156	34.08231
753.58	24.05566
754.005	19.04697
754.429	99.22838
754.853	91.22092
755.277	78.18083
755.7	86.20795
756.124	58.14131
756.548	17.03959
756.971	71.16912
757.394	27.06792
757.818	40.10151
758.241	74.18385
758.664	42.10419
759.087	47.10409
759.51	4.00974
759.933	56.13286
760.356	64.16189
760.778	54.12999
761.201	17.04043
761.623	33.07697
762.046	25.05733
762.468	106.24535
762.89	54.1287
763.312	72.17213
763.734	66.15549
764.156	61.14731
764.578	75.16596
765	55.13111
765.421	54.13523
765.843	41.10532
766.264	-11.02573
766.686	6.01467
767.107	70.16536
767.528	47.11866
767.949	62.15364
768.37	103.24798
768.791	19.04474
769.212	58.1432
769.632	36.08286
770.053	38.09739
770.473	31.07322
770.894	24.05788
771.314	58.13313
771.734	93.20974
772.154	24.06013
772.575	26.05867
772.994	6.01336
773.414	54.12499
773.834	-2.00491
774.254	32.07647
774.673	51.12214
775.093	29.07098
775.512	36.08722
775.931	26.06481
776.351	79.19186
776.77	36.08676
777.189	55.12743
777.607	60.1495
778.026	22.05384
778.445	17.04252
778.864	15.0373
779.282	-21.04941
779.701	26.06393
780.119	33.08206
780.537	-2.0049
780.955	31.07664
781.373	37.08932
781.791	74.1633
782.209	39.08558
782.627	38.09807
783.045	39.08634
783.462	12.03012
783.88	41.10399
784.297	30.07393
784.715	41.10355
785.132	12.0283
785.549	9.02208
785.966	38.09344
786.383	44.10628
786.8	73.16389
787.217	84.19466
787.633	23.05688
788.05	38.08589
788.466	34.07698
788.883	70.17524
789.299	31.07177
789.715	61.14469
790.131	43.10427
790.547	41.09957
790.963	51.12288
791.379	23.05696
791.795	-9.01992
792.21	2.00455
792.626	6.01381
793.041	32.07685
793.457	5.01202
793.872	19.04318
794.287	84.19697
794.702	13.03078
795.117	42.10221
795.532	40.09862
795.947	26.06001
796.362	-19.04357
796.776	38.08453
797.191	34.08128
797.605	23.05344
798.02	43.10152
798.434	40.08628
798.848	75.18132
799.262	2.00487
799.676	48.11361
800.09	67.15929
800.504	29.06812
800.918	23.0513
801.331	-13.03268
801.745	10.02225
802.158	-3.00728
802.572	40.09416
802.985	24.05586
803.398	67.15357
803.811	35.08561
804.224	-11.02646
804.637	58.13425
805.05	32.0713
805.462	20.04756
805.875	9.02293
806.288	-24.05733
806.7	14.03396
807.112	60.13274
807.525	-7.01662
807.937	53.12731
808.349	0
808.761	36.08639
809.173	16.03797
809.584	38.09053
809.996	8.01909
810.408	37.09411
810.819	45.10261
811.231	95.24564
811.642	73.17549
812.053	130.30305
812.464	80.18201
812.875	133.32662
813.286	126.3136
813.697	70.15286
814.108	62.14527
814.519	103.22097
814.929	53.1304
815.34	-1.00234
815.75	43.10708
816.16	17.04067
816.571	-8.02028
816.981	1.00227
817.391	26.06028
817.801	12.02919
818.211	54.12375
818.62	30.07049
819.03	25.0593
819.44	32.07973
819.849	-8.01948
820.259	10.02466
820.668	34.0815
821.077	33.08038
821.486	17.0392
821.895	-2.00474
822.304	50.12819
822.713	37.08416
823.122	29.07006
823.531	1.00227
823.939	49.11591
824.348	36.08409
824.756	25.06042
825.164	-6.01466
825.573	14.03422
825.981	30.07164
826.389	50.12109
826.797	85.20844
827.205	-4.00902
827.612	11.02623
828.02	-13.02961
828.428	17.04206
828.835	38.0979
829.243	3.0069
829.65	19.04632
830.057	-1.00235
830.464	55.13096
830.871	57.13196
831.278	17.0399
831.685	22.04717
832.092	-22.05209
832.499	69.14508
832.905	28.06824
833.312	-26.05668
833.718	79.19049
834.124	56.12322
834.531	23.05565
834.937	35.08741
835.343	-20.04668
835.749	40.08853
836.155	46.11669
836.561	1.0024
836.966	14.03307
837.372	38.0931
837.777	32.07752
838.183	8.0171
838.588	22.05338
838.993	70.1637
839.399	-23.05527
839.804	-2.00476
840.209	63.15666
840.613	13.02789
841.018	-31.07647
841.423	14.03497
841.828	26.06415
842.232	4.00945
842.637	70.16016
843.041	8.02009
843.445	-9.02184
843.849	57.13656
844.253	43.09805
844.657	-19.04713
845.061	65.14389
845.465	37.08634
845.869	10.0225
846.272	12.02854
846.676	-6.01385
847.079	26.06471
847.483	23.05542
847.886	32.07442
848.289	44.11548
848.692	27.06577
849.095	-31.07242
849.498	27.06523
849.901	58.12617
850.304	44.10108
850.707	-2.00495
851.109	20.04878
851.512	44.10463
851.914	5.01237
852.316	69.16989
852.718	39.10025
853.121	-3.00716
853.523	-2.0045
853.925	17.04364
854.326	39.09496
854.728	37.09251
855.13	50.12603
855.531	29.06714
855.933	18.04135
856.334	26.06337
856.736	47.10209
857.137	42.0949
857.538	27.06631
857.939	78.18769
858.34	8.01869
858.741	21.05313
859.142	-15.03488
859.542	35.09028
859.943	33.07921
860.343	44.10595
860.744	14.03309
861.144	112.26243
861.544	38.08946
861.945	71.17366
862.345	37.08681
862.745	15.03646
863.145	-28.06396
863.544	7.01726
863.944	25.05698
864.344	-15.03581
864.743	38.09081
865.143	54.13514
865.542	-8.01776
865.941	24.05775
866.34	26.05927
866.74	24.06273
867.139	63.14689
867.537	-14.0344
867.936	46.10707
868.335	-4.00989
868.734	16.03979
869.132	-41.09182
869.531	18.04155
869.929	16.03541
870.327	31.07168
870.726	7.01675
871.124	44.09787
871.522	2.00494
871.92	27.06439
872.318	3.00706
872.715	23.05418
873.113	6.01409
873.511	13.03129
873.908	-10.02506
874.306	10.02436
874.703	32.07653
875.1	-10.02455
875.497	4.00925
875.894	14.03392
876.291	36.08544
876.688	18.04514
877.085	32.07342
877.482	18.04362
877.878	70.16376
878.275	38.09358
878.671	3.00623
879.068	48.11128
879.464	32.07454
879.86	-9.02067
880.256	12.02819
880.652	8.01976
881.048	3.00713
881.444	2.00454
881.84	12.02955
882.236	56.13526
882.631	51.12111
883.027	39.09047
883.422	-11.02723
883.817	14.03443
884.213	10.02494
884.608	74.17799
885.003	-38.08872
885.398	6.0146
885.793	28.06763
886.188	14.03366
886.582	17.04186
886.977	30.06806
887.371	7.01706
887.766	-1.00243
888.16	-31.07421
888.554	17.04035
888.949	32.07755
889.343	90.20832
889.737	-7.01841
890.131	20.0486
890.525	81.2001
890.918	14.03412
891.312	11.02516
891.706	1.00255
892.099	35.08573
892.492	40.08186
892.886	11.02599
893.279	9.0222
893.672	21.0522
894.065	35.08471
894.458	39.09358
894.851	24.05634
895.244	7.01736
895.637	51.1184
896.029	63.14874
896.422	-10.02343
896.814	6.01442
897.206	21.04902
897.599	80.18884
897.991	7.01651
898.383	16.03661
898.775	89.19316
899.167	41.09337
899.559	27.06545
899.951	8.01805
900.342	44.10676
900.734	32.07869
901.125	11.02784
901.517	49.11591
901.908	77.17323
902.299	44.1039
902.69	42.09617
903.082	15.03513
903.473	78.18147
903.863	22.05402
904.254	24.05438
904.645	30.07101
905.036	43.10239
905.426	28.06057
905.817	22.05177
906.207	-43.09892
906.597	42.0954
906.987	-6.01501
907.378	46.11282
907.768	26.06694
908.158	53.12372
908.547	7.01785
908.937	-11.02713
909.327	31.07237
909.717	36.08666
910.106	-5.01159
910.495	18.04293
910.885	54.132
911.274	-17.04132
911.663	5.0122
912.052	38.08914
912.441	62.15285
912.83	15.03292
913.219	44.11075
913.608	52.12289
913.997	29.07101
914.385	27.06216
914.774	-11.02596
915.162	90.20675
915.55	-2.00465
915.939	26.06403
916.327	-33.07975
916.715	89.22067
917.103	-1.00234
917.491	41.09725
917.878	29.06857
918.266	3.00753
918.654	37.09211
919.041	19.04882
919.429	2.00457
919.816	18.04412
920.203	28.0662
920.591	49.11712
920.978	21.04966
921.365	52.13224
921.752	-49.11231
922.139	79.16252
922.525	36.08359
922.912	3.00706
923.299	36.08643
923.685	-29.07329
924.072	-1.00217
924.458	12.02894
924.844	16.03834
925.231	15.03332
925.617	28.06972
926.003	25.0616
926.389	18.04394
926.774	-13.03195
927.16	70.16607
927.546	52.13013
927.931	24.05744
928.317	22.04835
928.702	-5.0114
929.088	76.1757
929.473	39.09663
929.858	30.07134
930.243	100.23073
930.628	36.08534
931.013	-8.01931
931.398	-12.02623
931.783	24.06054
932.167	65.154
932.552	48.11528
932.937	34.08079
933.321	52.12669
933.705	-42.10236
934.09	-6.01441
934.474	1.00227
934.858	9.02274
935.242	11.0245
935.626	-13.03262
936.009	79.20427
936.393	64.15883
936.777	12.03002
937.16	49.1241
937.544	-5.0112
937.927	22.05438
938.311	28.06535
938.694	67.17114
939.077	-18.04188
939.46	-11.02561
939.843	-9.0176
940.226	2.00496
940.609	54.12012
940.991	-37.0915
941.374	7.01669
941.757	51.12027
942.139	9.01957
942.522	35.07887
942.904	24.05564
943.286	26.0636
943.668	43.10879
944.05	11.02625
944.432	8.01903
944.814	21.04939
945.196	-21.05029
945.578	43.10002
945.959	6.01342
946.341	30.06947
946.722	41.09167
947.104	-14.03251
947.485	28.06267
947.866	40.09807
948.247	36.08859
948.628	-32.07448
949.009	38.09396
949.39	32.07624
949.771	24.05228
950.152	53.12503
950.532	59.14355
950.913	46.10626
951.293	0
951.674	10.02339
952.054	29.0708
952.434	1.00241
952.814	33.07449
953.194	4.01003
953.574	33.07785
953.954	-26.05934
954.334	74.17833
954.714	17.04026
955.093	44.1039
955.473	27.06601
955.853	32.08017
956.232	3.00801
956.611	13.02965
956.99	30.07314
957.37	3.00737
957.749	-16.0364
958.128	15.03685
958.506	-25.06352
958.885	8.01949
959.264	43.10282
959.643	50.10956
960.021	8.01936
960.4	5.01091
960.778	-1.00235
961.156	-21.05106
961.535	18.03992
961.913	62.1394
962.291	41.10296
962.669	-16.03972
963.047	40.09909
963.424	33.08257
963.802	-6.01436
964.18	1.00241
964.557	38.08333
964.935	86.19336
965.312	44.11134
965.69	31.07407
966.067	8.0186
966.444	23.05354
966.821	15.03754
967.198	37.08512
967.575	40.0938
967.952	45.1012
968.329	36.08488
968.705	144.2899
969.082	38.09554
969.458	33.07737
969.835	64.14896
970.211	35.08779
970.587	55.13177
970.963	15.03692
971.339	29.07371
971.715	33.07963
972.091	16.03802
972.467	-6.01429
972.843	39.09443
973.219	22.0503
973.594	31.07852
973.97	-2.00447
974.345	36.08323
974.721	7.01611
975.096	65.1518
975.471	23.05225
975.846	13.02989
976.221	72.17554
976.596	64.14943
976.971	87.20644
977.346	34.07519
977.72	41.10009
978.095	15.03754
978.469	18.04118
978.844	65.15548
979.218	29.06807
979.593	2.00461
979.967	15.03455
980.341	56.12374
980.715	19.04644
981.089	17.0411
981.463	0
981.837	43.10235
982.21	-3.00654
982.584	35.0817
982.957	38.09206
983.331	-10.02251
983.704	34.08156
984.078	4.00953
984.451	12.02834
984.824	-6.01428
985.197	-18.04175
985.57	22.05235
985.943	61.14128
986.316	20.04653
986.688	38.08778
987.061	36.08127
987.434	67.17024
987.806	-6.01387
988.179	-1.00227
988.551	48.11651
988.923	2.00474
989.295	37.08844
989.667	28.06548
990.039	58.13998
990.411	10.02178
990.783	11.02401
991.155	3.00701
991.527	40.09259
991.898	32.07729
992.27	5.01211
992.641	66.15736
993.012	-31.06888
993.384	6.01374
993.755	-1.00249
994.126	79.18282
994.497	5.01188
994.868	28.06086
995.239	14.03262
995.61	3.00733
995.98	-24.05659
996.351	3.00726
996.722	56.12565
997.092	20.04589
997.462	29.06599
997.833	28.06311
998.203	-1.00231
998.573	8.01937
998.943	63.14179
999.313	55.12698
999.683	29.06722
1000.053	-39.08504
1000.423	-13.03038
1000.792	-1.00249
1001.162	-23.05464
1001.531	35.08321
1001.901	-2.00481
1002.27	12.02517
1002.639	-9.02217
1003.009	-4.00917
1003.378	24.05945
1003.747	-39.08903
1004.116	10.02304
1004.485	22.05056
1004.853	7.01692
1005.222	-50.12095
1005.591	51.1153
1005.959	18.03916
1006.328	31.06711
1006.696	-13.03025
1007.064	17.04088
1007.433	-7.01682
1007.801	5.01164
1008.169	-26.06323
1008.537	31.0655
1008.905	36.08104
1009.273	32.07539
1009.64	44.10209
1010.008	29.06623
1010.375	17.03898
1010.743	11.02359
1011.11	82.18844
1011.478	34.08163
1011.845	17.0382
1012.212	31.06808
1012.579	2.00476
1012.946	-13.02957
1013.313	26.05884
1013.68	32.06831
1014.047	-17.03926
1014.414	35.0791
1014.78	20.0482
1015.147	-19.04397
1015.513	-1.00233
1015.88	31.07582
1016.246	7.01646
1016.612	12.02614
1016.978	24.05707
1017.344	42.09995
1017.71	5.01169
1018.076	-10.02253
1018.442	61.15119
1018.808	27.06577
1019.174	-5.01208
1019.539	-18.03821
1019.905	34.07738
1020.27	18.04275
1020.636	45.1017
1021.001	22.05086
1021.366	4.00933
1021.731	39.09814
1022.096	5.01235
1022.461	37.0842
1022.826	80.18238
1023.191	15.03818
1023.556	-4.00899
1023.92	-34.08054
1024.285	-11.0257
1024.649	20.04688
1025.014	19.04479
1025.378	27.06594
1025.742	-17.0406
1026.107	13.02811
1026.471	31.0688
1026.835	14.03351
1027.199	0
1027.562	9.01989
1027.926	11.02577
1028.29	17.04163
1028.654	26.05702
1029.017	49.11582
1029.381	-10.02322
1029.744	17.04197
1030.107	70.15751
1030.471	43.09923
1030.834	35.0747
1031.197	37.08532
1031.56	22.04955
1031.923	19.04764
1032.286	79.17598
1032.648	11.02494
1033.011	97.21375
1033.374	-9.02018
1033.736	-11.02822
1034.099	39.09133
1034.461	3.00741
1034.823	-3.00728
1035.185	-24.05819
1035.548	29.06823
1035.91	51.11648
1036.272	63.13714
1036.634	1.00236
1036.995	-12.02702
1037.357	27.06357
1037.719	5.01177
1038.08	85.19334
1038.442	-15.0344
1038.803	15.03405
1039.165	-6.01461
1039.526	29.0674
1039.887	43.09836
1040.248	37.08928
1040.609	-14.03315
1040.97	-34.08057
1041.331	51.12497
1041.692	38.08666
1042.053	20.04332
1042.413	-3.00669
1042.774	52.12132
1043.134	-3.00679
1043.495	55.13247
1043.855	31.07313
1044.215	27.06409
1044.576	17.03945
1044.936	28.06101
1045.296	38.09109
1045.656	-5.01173
1046.016	32.07363
1046.375	18.04204
1046.735	44.09714
1047.095	17.03826
1047.454	33.06556
1047.814	18.0417
1048.173	14.03166
1048.533	29.06358
1048.892	28.06491
1049.251	34.08141
1049.61	5.01191
1049.969	-16.03636
1050.328	18.03729
1050.687	-3.00701
1051.046	34.0791
1051.405	-16.03822
1051.763	20.04469
1052.122	-19.04595
1052.48	40.09446
1052.839	75.1708
1053.197	42.09439
1053.555	-6.01285
1053.914	38.08883
1054.272	8.0182
1054.63	7.01658
1054.988	25.05767
1055.345	-1.00203
1055.703	-2.00466
1056.061	69.17227
1056.419	29.07379
1056.776	15.03437
1057.134	-22.04831
1057.491	40.09632
1057.848	46.10909
1058.206	17.03773
1058.563	59.12285
1058.92	30.06579
1059.277	17.04042
1059.634	23.05109
1059.991	71.16235
1060.348	-2.00437
1060.704	56.1307
1061.061	-30.06609
1061.418	22.05143
1061.774	-14.03353
1062.131	49.12701
1062.487	-23.05172
1062.843	25.05998
1063.199	-2.00482
1063.555	40.08953
1063.911	7.01698
1064.267	50.09676
1064.623	36.08501
1064.979	-24.0529
1065.335	17.03867
1065.691	-13.02964
1066.046	19.03979
1066.402	-3.00651
1066.757	42.10198
1067.112	59.13762
1067.468	17.0392
1067.823	9.02037
1068.178	14.03235
1068.533	27.06286
1068.888	32.07283
1069.243	-15.03592
1069.598	-2.00466
1069.952	71.15534
1070.307	4.00963
1070.662	68.15596
1071.016	44.09551
1071.371	32.07003
1071.725	25.0568
1072.079	44.10156
1072.434	4.00943
1072.788	1.00226
1073.142	47.11092
1073.496	12.02731
1073.85	1.00223
1074.203	33.07694
1074.557	49.12736
1074.911	82.18406
1075.265	-14.0314
1075.618	48.11234
1075.971	38.08638
1076.325	23.05692
1076.678	-19.04204
1077.031	-73.15762
1077.385	11.02308
1077.738	-5.01083
1078.091	30.06596
1078.444	-19.04204
1078.796	42.09957
1079.149	4.00964
1079.502	11.02522
1079.855	4.009
1080.207	32.07542
1080.56	13.03277
1080.912	3.00703
1081.264	25.05813
1081.617	10.02361
1081.969	16.03927
1082.321	14.0328
1082.673	51.1129
1083.025	13.02945
1083.377	-14.03177
1083.728	22.0489
1084.08	-18.04331
1084.432	9.02082
1084.783	-42.0935
1085.135	27.06555
1085.486	22.04859
1085.838	12.02863
1086.189	34.08001
1086.54	28.06381
1086.891	72.17783
1087.242	89.20988
1087.593	17.03915
1087.944	53.11532
1088.295	58.12478
1088.646	54.12781
1088.996	-1.00234
1089.347	-1.00236
1089.698	8.01845
1090.048	0
1090.398	22.04851
1090.749	-10.02289
1091.099	33.08104
1091.449	45.1081
1091.799	5.0121
1092.149	32.07624
1092.499	34.07967
1092.849	12.02956
1093.199	-3.00721
1093.548	40.09325
1093.898	-5.01207
1094.248	-27.06687
1094.597	33.08242
1094.947	-2.00521
1095.296	78.18476
1095.645	16.04008
1095.994	28.06455
1096.343	35.08513
1096.692	31.08019
1097.041	56.14891
1097.39	10.02408
1097.739	11.02768
1098.088	0
1098.437	12.03109
1098.785	-8.02084
1099.134	-3.00761
1099.482	52.13887
1099.83	26.06614
1100.179	37.09514
1100.527	-8.02045
1100.875	13.03365
1101.223	26.0674
1101.571	-12.03229
1101.919	23.05964
1102.267	6.01665
1102.615	4.01285
1102.962	1.00321
1103.31	1.00321
1103.658	-1.00321
