Data from N1 R2 sample 8_Subt2__4__12-59-06-751.txt Node

Date: Wed Sep 17 12:59:06 PDT 2025
User: uwsun
Spectrometer: HDX01956
Trigger mode: 0
Integration Time (sec): 5.000000E-1
Scans to average: 1
Nonlinearity correction enabled: true
Boxcar width: 0
Storing dark spectrum: false
XAxis mode: Wavelengths
Number of Pixels in Spectrum: 2068
>>>>>Begin Spectral Data<<<<<
194.03	-5.01453
194.578	9.02923
195.127	-4.01283
195.676	7.0225
196.225	-4.01069
196.773	-1.0028
197.321	1.0028
197.87	12.03138
198.418	55.14379
198.966	66.17603
199.513	34.08811
200.061	-5.01304
200.609	17.04575
201.156	27.06062
201.704	22.05656
202.251	23.06231
202.798	-5.01328
203.345	47.11853
203.892	15.03879
204.438	15.03647
204.985	-9.02203
205.532	-15.04046
206.078	-11.02763
206.624	42.10745
207.17	71.16919
207.716	31.07773
208.262	38.07742
208.808	58.14818
209.354	19.04814
209.899	29.07447
210.445	-22.05674
210.99	28.06992
211.535	37.08918
212.08	16.03812
212.625	22.05615
213.17	55.14241
213.715	13.03056
214.259	35.0836
214.804	-5.01259
215.348	72.16917
215.892	67.16521
216.436	2.00469
216.98	-18.04085
217.524	51.12423
218.068	43.11045
218.612	68.17525
219.155	67.16076
219.698	54.13058
220.242	18.04532
220.785	56.13373
221.328	14.03531
221.871	76.19559
222.414	5.01263
222.956	-44.1086
223.499	11.0251
224.041	-1.00234
224.583	13.02806
225.126	23.05151
225.668	24.05934
226.21	49.12565
226.751	38.08624
227.293	6.01388
227.835	54.13396
228.376	18.04173
228.918	13.03294
229.459	6.01527
230	48.1169
230.541	-11.02594
231.082	59.14527
231.622	41.09409
232.163	8.01967
232.704	74.18672
233.244	5.01265
233.784	22.05418
234.324	79.17955
234.864	29.06666
235.404	-9.02168
235.944	9.02161
236.484	64.16114
237.023	32.07659
237.563	54.12717
238.102	46.11022
238.641	46.11686
239.18	19.04547
239.719	68.17152
240.258	32.07313
240.797	39.09454
241.335	16.03958
241.874	57.11298
242.412	69.16927
242.95	53.12973
243.488	12.0275
244.026	50.11798
244.564	57.11911
245.102	46.10592
245.64	9.0219
246.177	8.01816
246.715	61.14809
247.252	18.04163
247.789	41.07758
248.326	15.03687
248.863	39.08738
249.4	-3.00697
249.936	97.20477
250.473	54.12939
251.009	29.06756
251.546	64.14484
252.082	38.08344
252.618	33.07518
253.154	19.04659
253.69	36.0821
254.226	54.13092
254.761	31.07086
255.297	46.10202
255.832	52.12531
256.367	70.16601
256.903	72.16195
257.438	60.14218
257.972	-7.016
258.507	-4.0094
259.042	77.16918
259.576	79.17678
260.111	22.05147
260.645	36.07921
261.179	40.09523
261.713	56.1272
262.247	-3.00701
262.781	43.09237
263.315	-9.02232
263.849	63.15928
264.382	26.06083
264.915	88.20974
265.449	-5.01248
265.982	19.04406
266.515	36.08967
267.048	-11.02403
267.58	58.12676
268.113	32.07059
268.646	9.02245
269.178	-27.06219
269.71	100.22262
270.243	91.21243
270.775	12.03138
271.307	-22.05366
271.838	53.12668
272.37	10.02498
272.902	24.05542
273.433	70.15719
273.965	55.13517
274.496	38.09547
275.027	60.15102
275.558	42.10408
276.089	4.01021
276.62	-20.0516
277.15	8.02006
277.681	-9.01992
278.211	49.12096
278.741	45.10174
279.272	-4.0094
279.802	34.08582
280.332	35.08411
280.861	-6.01468
281.391	-15.03507
281.921	40.09702
282.45	40.10053
282.98	16.0424
283.509	59.13627
284.038	62.14385
284.567	43.10184
285.096	75.18371
285.625	31.07108
286.153	58.14057
286.682	43.10058
287.21	13.03158
287.739	36.08653
288.267	56.13821
288.795	18.04778
289.323	17.04082
289.851	49.11717
290.378	36.08177
290.906	72.17809
291.433	65.16375
291.961	43.1001
292.488	7.01772
293.015	50.11999
293.542	100.25843
294.069	96.23946
294.596	-7.01751
295.122	74.17954
295.649	67.14863
296.175	49.11962
296.702	46.11433
297.228	57.139
297.754	49.11222
298.28	59.138
298.806	-3.00741
299.332	34.07782
299.857	59.13632
300.383	56.14256
300.908	44.11003
301.433	80.19817
301.958	49.1143
302.483	8.02026
303.008	67.16873
303.533	35.09166
304.058	23.05477
304.582	25.06037
305.107	52.13703
305.631	85.19483
306.155	49.11623
306.679	56.13393
307.203	65.15323
307.727	16.03882
308.251	11.02776
308.775	81.19944
309.298	30.07385
309.822	12.03079
310.345	66.16013
310.868	101.24556
311.391	71.177
311.914	51.12977
312.437	104.23986
312.96	62.14845
313.482	9.02169
314.005	58.14672
314.527	4.01062
315.049	72.1844
315.571	39.0899
316.093	99.24708
316.615	-5.01233
317.137	37.08269
317.659	42.10366
318.18	37.08992
318.702	87.20652
319.223	17.03578
319.744	46.10592
320.265	42.10438
320.786	81.20486
321.307	47.11815
321.828	36.08323
322.348	90.21442
322.869	41.09983
323.389	375.7016
323.909	25.05861
324.43	23.05628
324.95	57.13317
325.47	98.24542
325.989	93.2234
326.509	67.1532
327.029	71.16529
327.548	78.17983
328.067	93.22848
328.587	122.30772
329.106	18.04175
329.625	89.2337
330.144	80.18921
330.662	87.20747
331.181	106.25303
331.7	39.09283
332.218	52.11581
332.736	111.26268
333.255	133.31534
333.773	61.14686
334.291	88.22292
334.808	109.24904
335.326	80.18311
335.844	106.25264
336.361	129.33389
336.879	107.25517
337.396	113.27812
337.913	84.19767
338.43	72.16593
338.947	89.21598
339.464	71.15698
339.981	64.15487
340.497	88.21934
341.014	97.23954
341.53	73.16826
342.046	110.27776
342.562	117.294
343.078	119.28324
343.594	93.2245
344.11	95.23106
344.626	117.29791
345.141	115.26676
345.657	134.30646
346.172	104.25432
346.687	68.15958
347.202	179.40979
347.717	139.33389
348.232	158.39424
348.747	150.34898
349.261	94.21091
349.776	146.34957
350.29	151.37957
350.805	150.37197
351.319	141.33044
351.833	120.28018
352.347	113.27051
352.861	122.28988
353.374	165.37683
353.888	162.39732
354.401	128.29486
354.915	194.43867
355.428	128.32159
355.941	130.30603
356.454	193.4292
356.967	105.24857
357.48	157.35812
357.993	132.32698
358.505	121.29704
359.018	183.44774
359.53	149.36578
360.042	145.32821
360.554	175.42864
361.066	131.32123
361.578	171.38028
362.09	201.47638
362.602	198.44169
363.113	195.45841
363.625	191.43409
364.136	130.28965
364.647	202.47754
365.158	157.36764
365.669	158.37888
366.18	149.35301
366.691	116.25856
367.201	198.4728
367.712	206.47055
368.222	219.50175
368.733	151.33204
369.243	234.51962
369.753	187.43119
370.263	202.48585
370.773	173.42091
371.282	214.50806
371.792	224.51578
372.301	169.40857
372.811	253.6523
373.32	221.47717
373.829	146.3465
374.338	221.48882
374.847	239.54625
375.356	187.44029
375.865	204.43811
376.373	253.56846
376.882	253.62999
377.39	235.56039
377.898	247.59801
378.407	233.52481
378.915	271.58462
379.423	240.55174
379.93	378.84491
380.438	299.70066
380.946	335.75576
381.453	330.768
381.96	352.81175
382.468	367.83098
382.975	429.99891
383.482	403.86263
383.989	446.08286
384.495	477.04546
385.002	390.78549
385.509	560.2331
386.015	577.08122
386.521	632.30327
387.028	598.23914
387.534	597.16177
388.04	665.44226
388.546	641.27538
389.051	700.36872
389.557	725.48427
390.063	775.52597
390.568	794.66341
391.073	808.54818
391.578	890.85484
392.084	939.78881
392.589	949.70319
393.093	1052.05957
393.598	1160.11194
394.103	1204.25736
394.607	1356.485
395.112	1421.62984
395.616	1592.78342
396.12	1609.59905
396.624	1899.95751
397.128	1976.11093
397.632	2211.1638
398.136	2467.17
398.639	2473.2835
399.143	2787.65329
399.646	3182.40439
400.15	3473.24147
400.653	3854.00291
401.156	4323.7166
401.659	5084.82461
402.162	6305.91575
402.664	7839.45877
403.167	11319.41669
403.67	21120.2589
404.172	58754.69202
404.674	63474.27712
405.176	63738.15102
405.678	63977.72923
406.18	64011.81569
406.682	63863.44694
407.184	63926.60148
407.686	63841.39382
408.187	37122.28236
408.688	21385.60357
409.19	14891.84787
409.691	11913.26925
410.192	10094.00526
410.693	8785.02261
411.194	7759.99419
411.694	7355.03436
412.195	6942.29381
412.696	6311.99017
413.196	5847.48076
413.696	5779.31216
414.196	5776.7864
414.696	5644.61462
415.196	5383.33107
415.696	4787.41754
416.196	3985.10335
416.695	3126.36351
417.195	2575.41564
417.694	2544.73469
418.194	2329.74136
418.693	2183.01443
419.192	2104.10209
419.691	1999.97752
420.19	2000.11554
420.688	1958.16764
421.187	1832.38819
421.685	1750.77969
422.184	1627.71923
422.682	1329.16878
423.18	1164.11392
423.678	1058.95805
424.176	959.81373
424.674	951.74959
425.172	827.66435
425.669	836.7584
426.167	799.59541
426.664	742.46467
427.161	645.32029
427.659	606.32504
428.156	635.20184
428.652	508.1809
429.149	550.21915
429.646	505.0347
430.143	473.05148
430.639	460.01343
431.135	388.91822
431.632	414.88981
432.128	410.92737
432.624	360.88411
433.12	360.78109
433.616	362.75426
434.111	324.73707
434.607	290.66933
435.103	319.63998
435.598	320.63768
436.093	313.69892
436.588	252.55097
437.083	286.6179
437.578	276.61746
438.073	227.55393
438.568	247.59035
439.062	233.48603
439.557	205.46893
440.051	149.33163
440.546	158.35465
441.04	169.39961
441.534	169.4184
442.028	217.50972
442.522	176.41512
443.015	125.26666
443.509	175.41796
444.002	184.44122
444.496	156.33416
444.989	159.37975
445.482	115.28242
445.975	205.46289
446.468	161.3439
446.961	176.37586
447.454	99.22154
447.947	131.30952
448.439	170.40936
448.931	185.41619
449.424	172.42917
449.916	169.40471
450.408	134.30325
450.9	122.29333
451.392	175.43515
451.884	118.269
452.375	120.29388
452.867	110.24569
453.358	128.29027
453.849	140.296
454.341	82.18505
454.832	79.17087
455.323	162.396
455.814	111.25197
456.304	125.28617
456.795	145.32634
457.285	89.19546
457.776	123.2774
458.266	63.14955
458.756	63.1488
459.247	138.32524
459.737	112.26837
460.226	181.40352
460.716	117.27666
461.206	90.21401
461.695	104.25451
462.185	96.22634
462.674	99.22482
463.163	89.19891
463.653	114.24081
464.142	135.32218
464.63	103.24713
465.119	75.17391
465.608	127.29367
466.096	61.13261
466.585	69.15733
467.073	48.11335
467.561	58.13893
468.05	72.16526
468.538	120.28907
469.026	51.12092
469.513	15.03203
470.001	42.09679
470.489	51.12125
470.976	145.33289
471.463	63.1562
471.951	111.27219
472.438	51.11976
472.925	55.1294
473.412	103.24704
473.899	88.20045
474.385	58.14157
474.872	59.13735
475.359	109.26471
475.845	80.16521
476.331	50.10673
476.817	99.23835
477.303	66.15295
477.789	31.07401
478.275	76.1873
478.761	16.03819
479.247	83.18405
479.732	74.18344
480.218	86.22325
480.703	35.08627
481.188	73.15762
481.673	74.16938
482.158	59.12761
482.643	96.24258
483.128	84.19466
483.612	123.28893
484.097	28.06768
484.581	72.16586
485.066	76.18502
485.55	114.24926
486.034	82.17694
486.518	124.29259
487.002	16.03907
487.486	64.15464
487.969	56.13567
488.453	39.09698
488.936	36.08134
489.42	75.16527
489.903	45.11178
490.386	26.05418
490.869	120.2596
491.352	49.1177
491.835	54.11067
492.318	43.09682
492.8	55.11412
493.283	100.25233
493.765	89.21622
494.247	85.19639
494.73	119.25991
495.212	80.18825
495.694	128.29709
496.175	127.30054
496.657	161.37272
497.139	88.15028
497.62	117.27762
498.102	145.35411
498.583	139.3349
499.064	168.36577
499.545	189.41874
500.026	222.48518
500.507	240.53139
500.988	302.71888
501.469	222.53456
501.949	298.70064
502.43	351.79702
502.91	401.78814
503.39	384.89117
503.87	431.94327
504.35	417.90416
504.83	472.94103
505.31	550.19535
505.79	582.22958
506.269	683.36539
506.749	656.31345
507.228	763.54315
507.707	957.73603
508.187	1004.95488
508.666	1134.23815
509.145	1173.133
509.623	1293.28475
510.102	1422.53772
510.581	1648.76575
511.059	1750.03521
511.538	1861.24518
512.016	2007.02268
512.494	2205.1473
512.972	2397.21385
513.45	2602.12881
513.928	2885.40577
514.406	3051.46665
514.884	3311.80863
515.361	3506.23565
515.839	3790.88221
516.316	3949.19852
516.793	4116.42029
517.27	4342.93083
517.747	4593.33363
518.224	4742.39661
518.701	4842.05485
519.178	4905.94774
519.654	4964.47259
520.131	5132.73279
520.607	4953.71853
521.083	4964.15278
521.56	4843.50586
522.036	4669.05548
522.512	4696.95419
522.987	4628.79879
523.463	4511.73554
523.939	4357.17935
524.414	4191.65065
524.89	4022.03294
525.365	3786.75343
525.84	3639.23251
526.315	3574.30638
526.79	3313.90432
527.265	3269.06619
527.74	2939.39909
528.215	2837.15393
528.689	2758.81192
529.164	2669.69971
529.638	2480.56532
530.112	2389.1188
530.587	2247.63305
531.061	2202.18809
531.534	2010.05303
532.008	1979.07618
532.482	1950.8079
532.956	1750.09683
533.429	1811.97581
533.903	1575.36164
534.376	1512.33713
534.849	1486.43964
535.322	1445.48373
535.795	1325.42013
536.268	1325.42981
536.741	1255.2815
537.213	1246.17919
537.686	1209.31163
538.158	1112.98889
538.631	1060.07234
539.103	1039.87656
539.575	966.5867
540.047	932.65593
540.519	915.82142
540.991	844.7488
541.463	820.68088
541.934	748.45029
542.406	762.58155
542.877	758.46482
543.348	735.54342
543.82	677.45022
544.291	686.40148
544.762	623.31948
545.233	644.45675
545.703	566.1267
546.174	591.22434
546.645	543.19137
547.115	546.19419
547.585	518.08077
548.056	521.16986
548.526	512.10839
548.996	475.04326
549.466	459.02958
549.935	430.95556
550.405	436.8846
550.875	416.921
551.344	455.00092
551.814	429.91192
552.283	439.88439
552.752	395.86705
553.221	400.8238
553.69	388.82137
554.159	381.89381
554.628	365.77927
555.096	331.80194
555.565	265.56284
556.033	359.8089
556.502	293.67666
556.97	296.62882
557.438	299.67042
557.906	287.64855
558.374	304.6728
558.842	312.71264
559.31	296.63266
559.777	289.67723
560.245	191.42758
560.712	214.476
561.18	230.49288
561.647	245.524
562.114	219.48722
562.581	293.69036
563.048	257.56677
563.514	303.72749
563.981	213.47407
564.448	244.53236
564.914	194.43939
565.381	260.57183
565.847	233.52503
566.313	186.42144
566.779	235.51131
567.245	198.44662
567.711	234.54203
568.176	203.44338
568.642	218.53326
569.108	239.56818
569.573	213.47859
570.038	219.44363
570.504	251.54658
570.969	213.51279
571.434	234.50253
571.899	210.48393
572.363	201.44903
572.828	274.60439
573.293	221.49126
573.757	243.54487
574.222	244.52784
574.686	252.55889
575.15	271.6271
575.614	288.65147
576.078	256.57886
576.542	259.56807
577.006	237.51785
577.469	248.58877
577.933	268.58694
578.396	231.53031
578.86	241.54816
579.323	217.50813
579.786	234.49104
580.249	255.57953
580.712	213.50325
581.175	212.50797
581.637	198.44023
582.1	187.39805
582.563	191.39594
583.025	202.47884
583.487	232.46189
583.95	180.37739
584.412	241.48864
584.874	201.47766
585.336	205.47345
585.797	161.3442
586.259	188.42961
586.721	179.41094
587.182	201.45126
587.643	153.34209
588.105	165.38244
588.566	201.4081
589.027	213.50735
589.488	166.37399
589.949	205.48473
590.41	184.35643
590.87	196.43777
591.331	195.41598
591.791	161.36636
592.252	171.39069
592.712	176.41286
593.172	199.44144
593.632	218.47079
594.092	160.35042
594.552	168.35722
595.011	133.30093
595.471	209.46112
595.931	155.34441
596.39	143.3384
596.849	164.37492
597.308	121.25543
597.768	171.43246
598.227	187.43892
598.685	153.34308
599.144	174.40194
599.603	157.36072
600.062	133.27719
600.52	163.36174
600.978	143.33289
601.437	111.25044
601.895	147.31059
602.353	131.28443
602.811	155.34399
603.269	111.26166
603.727	142.33584
604.184	177.39493
604.642	151.36492
605.099	127.29332
605.557	108.26026
606.014	103.22068
606.471	117.29041
606.928	150.32838
607.385	140.34553
607.842	112.25471
608.299	136.31354
608.755	130.31079
609.212	121.2673
609.668	139.30938
610.125	104.24854
610.581	110.25552
611.037	111.24654
611.493	111.25657
611.949	163.38945
612.405	137.27549
612.861	70.16074
613.316	85.20263
613.772	80.18267
614.227	137.32445
614.683	93.19615
615.138	119.27582
615.593	74.17128
616.048	80.18238
616.503	74.17894
616.958	80.19926
617.412	101.23781
617.867	118.26117
618.321	87.17882
618.776	94.2057
619.23	47.11028
619.684	79.17554
620.138	70.15971
620.592	53.12847
621.046	135.31402
621.5	55.13222
621.954	108.23624
622.407	68.15
622.861	108.25918
623.314	68.15345
623.768	112.2614
624.221	50.09871
624.674	90.20633
625.127	35.08161
625.58	40.09001
626.033	81.17602
626.485	46.11001
626.938	56.13311
627.39	117.2699
627.843	73.16746
628.295	91.208
628.747	78.18483
629.199	53.12056
629.651	40.09185
630.103	37.08505
630.555	32.06772
631.006	49.1138
631.458	42.09883
631.909	30.0674
632.361	10.02322
632.812	38.08806
633.263	81.17459
633.714	58.12252
634.165	-12.02904
634.616	47.11092
635.067	49.10779
635.518	43.10184
635.968	18.03562
636.419	76.16498
636.869	49.11578
637.319	74.1706
637.769	91.20263
638.219	38.08963
638.669	-3.00718
639.119	41.09796
639.569	11.0265
640.019	27.06253
640.468	17.03831
640.918	-20.04792
641.367	24.05392
641.816	79.17423
642.265	87.20109
642.714	9.02076
643.163	59.13589
643.612	34.08336
644.061	35.07505
644.51	19.04376
644.958	38.08403
645.406	61.14508
645.855	0
646.303	44.10156
646.751	76.17466
647.199	27.06137
647.647	76.17521
648.095	30.06853
648.543	53.10736
648.99	63.15059
649.438	5.01164
649.885	54.13411
650.333	48.09325
650.78	29.07016
651.227	73.17735
651.674	63.14313
652.121	25.06144
652.568	35.08573
653.015	32.07912
653.461	4.00957
653.908	35.08039
654.354	67.15849
654.801	-11.02603
655.247	21.04565
655.693	34.08826
656.139	11.02635
656.585	34.08116
657.031	32.07527
657.477	80.17344
657.922	-7.01604
658.368	29.07125
658.813	10.02284
659.259	80.19221
659.704	46.10884
660.149	0
660.594	62.1463
661.039	19.04345
661.484	37.08753
661.929	27.06315
662.373	-5.01261
662.818	17.0421
663.262	-16.03902
663.707	13.03314
664.151	44.10692
664.595	7.017
665.039	12.02985
665.483	23.0585
665.927	44.10294
666.371	63.14736
666.814	18.04284
667.258	73.17449
667.701	58.12306
668.145	79.19459
668.588	18.04465
669.031	-4.00947
669.474	5.01204
669.917	28.0614
670.36	50.12418
670.803	66.15827
671.245	-30.06226
671.688	30.0729
672.13	-17.03884
672.573	33.0831
673.015	39.09379
673.457	37.08044
673.899	56.1346
674.341	39.09365
674.783	27.06466
675.225	49.11998
675.666	70.16984
676.108	26.05625
676.549	-11.02579
676.991	-7.01548
677.432	-9.01804
677.873	-6.01378
678.314	17.04048
678.755	68.16616
679.196	24.05485
679.637	-5.01202
680.078	26.06066
680.518	30.06872
680.959	30.07123
681.399	21.0519
681.839	60.14437
682.28	6.01493
682.72	66.14949
683.16	13.03243
683.6	61.13757
684.039	13.0269
684.479	28.06895
684.919	51.11924
685.358	-5.01247
685.798	-13.03394
686.237	-2.00478
686.676	9.02038
687.115	66.15392
687.554	47.11174
687.993	14.03099
688.432	35.07952
688.871	25.05721
689.309	18.04312
689.748	50.10326
690.186	-24.05648
690.625	12.02818
691.063	-9.02154
691.501	41.10073
691.939	13.03269
692.377	17.04112
692.815	98.23563
693.253	-4.00953
693.69	-4.00878
694.128	17.04118
694.565	28.06602
695.003	32.08132
695.44	58.13601
695.877	4.00942
696.314	16.03362
696.751	55.12333
697.188	20.04624
697.625	8.01788
698.061	-16.03843
698.498	7.01651
698.934	-3.00717
699.371	-19.04489
699.807	10.02355
700.243	2.00482
700.679	-24.05376
701.115	31.07183
701.551	28.06463
701.987	-16.03504
702.422	12.02857
702.858	36.08524
703.294	44.10002
703.729	-12.0292
704.164	-7.01671
704.599	70.15409
705.035	-18.04052
705.47	5.01211
705.904	30.06897
706.339	43.09773
706.774	24.05586
707.209	23.05325
707.643	20.04758
708.078	14.03388
708.512	-19.04769
708.946	-6.01419
709.38	17.04018
709.814	7.01579
710.248	78.18761
710.682	17.04063
711.116	35.08455
711.549	-34.08698
711.983	-13.03004
712.416	34.08001
712.85	-21.05201
713.283	13.03053
713.716	4.00987
714.149	16.0368
714.582	77.16989
715.015	11.0268
715.448	15.03754
715.881	29.06165
716.313	1.00233
716.746	29.06804
717.178	9.02153
717.61	40.10061
718.043	-27.06668
718.475	17.04096
718.907	20.04949
719.339	15.0338
719.77	69.16253
720.202	-20.05
720.634	49.11873
721.065	57.13217
721.497	6.0146
721.928	-25.06106
722.359	-13.03161
722.79	11.02616
723.221	-19.04704
723.652	40.10028
724.083	31.06891
724.514	61.13774
724.945	-12.02801
725.375	28.06481
725.806	17.04149
726.236	25.06318
726.666	44.10221
727.096	39.09407
727.526	67.16969
727.956	15.03402
728.386	25.06058
728.816	34.08604
729.246	66.16007
729.675	-39.09514
730.105	18.04354
730.534	69.15746
730.964	17.04193
731.393	77.1844
731.822	35.08827
732.251	23.05771
732.68	-4.00919
733.109	0
733.537	33.07975
733.966	22.05438
734.395	19.04346
734.823	2.00438
735.251	9.02141
735.68	-13.03184
736.108	-54.13509
736.536	29.06693
736.964	-10.02303
737.392	23.05674
737.82	40.09387
738.247	-6.01418
738.675	24.05557
739.102	9.02222
739.53	7.01786
739.957	33.08432
740.384	-7.01671
740.811	-19.04695
741.238	10.02431
741.665	56.12936
742.092	-59.13578
742.519	30.07353
742.945	64.15265
743.372	51.1246
743.798	-24.06112
744.225	-2.00469
744.651	28.06901
745.077	18.04431
745.503	12.0286
745.929	64.15201
746.355	-18.04346
746.781	4.00972
747.207	-6.01416
747.632	35.08576
748.058	96.23598
748.483	41.09258
748.908	42.10294
749.334	58.1403
749.759	50.11711
750.184	57.13489
750.609	13.03144
751.033	38.08698
751.458	12.02638
751.883	15.0364
752.307	22.05106
752.732	23.05815
753.156	21.05096
753.58	97.22171
754.005	12.0297
754.429	57.13259
754.853	20.0492
755.277	57.13269
755.7	50.12172
756.124	-8.01973
756.548	1.00234
756.971	43.10298
757.394	4.0101
757.818	70.17669
758.241	62.15437
758.664	28.06964
759.087	13.02899
759.51	-9.02197
759.933	21.05016
760.356	46.11673
760.778	22.05328
761.201	-3.00716
761.623	5.01173
762.046	14.03217
762.468	27.06347
762.89	20.04798
763.312	87.20739
763.734	21.04991
764.156	4.00976
764.578	19.04254
765	36.08613
765.421	-4.01012
765.843	25.0644
766.264	22.05112
766.686	8.01955
767.107	33.07852
767.528	10.02541
767.949	25.06237
768.37	66.16001
768.791	16.0377
769.212	1.00249
769.632	23.05308
770.053	8.02061
770.473	3.00712
770.894	18.04346
771.314	-15.03493
771.734	6.01377
772.154	18.04514
772.575	25.05643
772.994	16.03556
773.414	62.14328
773.834	16.03916
774.254	-8.01926
774.673	47.11264
775.093	22.05392
775.512	10.02434
775.931	34.08462
776.351	30.07353
776.77	40.09632
777.189	39.09065
777.607	29.07266
778.026	38.09272
778.445	4.01003
778.864	-8.01998
779.282	1.00234
779.701	-20.0496
780.119	21.05233
780.537	-3.00735
780.955	52.12806
781.373	53.12755
781.791	53.11748
782.209	2.00442
782.627	-14.03646
783.045	8.01782
783.462	27.06758
783.88	1.00255
784.297	30.07393
784.715	17.04312
785.132	-39.0929
785.549	10.02453
785.966	31.07633
786.383	25.0606
786.8	63.14173
787.217	61.14201
787.633	20.04949
788.05	-9.02054
788.466	32.07248
788.883	29.07314
789.299	-13.03036
789.715	23.05495
790.131	13.0317
790.547	11.02686
790.963	40.09658
791.379	17.04215
791.795	-26.05774
792.21	22.04983
792.626	-29.06722
793.041	-7.01694
793.457	4.00962
793.872	-13.02974
794.287	27.06402
794.702	11.02605
795.117	-18.0443
795.532	37.09127
795.947	-22.05127
796.362	9.02052
796.776	-3.00673
797.191	53.12625
797.605	33.07652
798.02	-1.00238
798.434	30.06485
798.848	57.13827
799.262	40.09661
799.676	44.10423
800.09	24.05753
800.504	-2.00473
800.918	46.10211
801.331	-38.09595
801.745	8.01781
802.158	-21.05111
802.572	85.19834
802.985	17.03962
803.398	16.03705
803.811	-7.01725
804.224	-5.01202
804.637	10.02337
805.05	19.04245
805.462	38.09005
805.875	12.03056
806.288	7.01662
806.7	25.06051
807.112	-8.01795
807.525	5.01184
807.937	16.0387
808.349	-11.02679
808.761	33.07924
809.173	60.14119
809.584	24.05733
809.996	-15.03595
810.408	20.05102
810.819	38.08677
811.231	42.10959
811.642	37.08955
812.053	-7.01676
812.464	47.10764
812.875	7.01759
813.286	24.06084
813.697	-43.09614
814.108	-1.00237
814.519	97.20836
814.929	22.05444
815.34	-14.03285
815.75	14.03505
816.16	-19.04576
816.571	17.0429
816.981	22.04973
817.391	11.02558
817.801	22.05342
818.211	-5.01159
818.62	24.05645
819.03	48.11335
819.44	23.0574
819.849	27.06533
820.259	20.04924
820.668	-9.02175
821.077	31.07554
821.486	15.0346
821.895	23.05428
822.304	12.03097
822.713	11.02515
823.122	29.07006
823.531	7.01588
823.939	40.09479
824.348	4.0094
824.756	48.1155
825.164	-18.04408
825.573	-10.02455
825.981	5.012
826.389	57.13786
826.797	63.15512
827.205	30.06715
827.612	5.01194
828.02	-25.05707
828.428	10.02477
828.835	30.0774
829.243	17.03897
829.65	-12.02942
830.057	31.07239
830.464	31.07415
830.871	35.08138
831.278	29.06791
831.685	-1.00215
832.092	38.08893
832.499	30.06362
832.905	-1.00245
833.312	-35.07645
833.718	29.07059
834.124	30.06637
834.531	0
834.937	24.06006
835.343	26.06013
835.749	-25.05608
836.155	20.05097
836.561	-8.01922
836.966	-18.04279
837.372	-1.00247
837.777	2.00487
838.183	36.07648
838.588	35.08471
838.993	58.13595
839.399	27.06427
839.804	-33.079
840.209	22.05512
840.613	7.01504
841.018	-12.0295
841.423	43.10685
841.828	-11.02732
842.232	0
842.637	47.10803
843.041	-19.04793
843.445	-9.02184
843.849	38.09137
844.253	21.0481
844.657	23.05661
845.061	83.18305
845.465	13.03048
845.869	24.05385
846.272	29.06873
846.676	-22.05094
847.079	17.04238
847.483	36.08653
847.886	-5.01171
848.289	37.09722
848.692	-23.05655
849.095	15.03473
849.498	-17.04141
849.901	-7.01544
850.304	2.00463
850.707	57.13952
851.109	8.01956
851.512	34.081
851.914	22.05424
852.316	72.17718
852.718	98.24931
853.121	29.06879
853.523	-14.03159
853.925	4.01029
854.326	24.0586
854.728	32.08008
855.13	-10.02548
855.531	-2.00466
855.933	8.01841
856.334	21.05123
856.736	8.01752
857.137	5.01138
857.538	11.02709
857.939	39.09454
858.34	-6.01406
858.741	17.04304
859.142	-28.06527
859.542	28.07231
859.943	44.10539
860.343	-2.00486
860.744	37.08705
861.144	23.05483
861.544	-8.019
861.945	46.11303
862.345	-12.02843
862.745	9.0219
863.145	28.06324
863.544	13.03202
863.944	13.0297
864.344	31.07336
864.743	52.12394
865.143	35.08789
865.542	-39.08713
865.941	22.05296
866.34	25.057
866.74	-16.04211
867.139	49.11457
867.537	-3.00736
867.936	9.0211
868.335	44.1078
868.734	-2.00499
869.132	-14.03118
869.531	16.03695
869.929	-2.00444
870.327	-9.02098
870.726	13.03107
871.124	12.02687
871.522	-7.01731
871.92	47.11165
872.318	-37.08776
872.715	23.05418
873.113	-4.00941
873.511	-45.10949
873.908	19.04737
874.306	23.0559
874.703	17.04077
875.1	-15.03687
875.497	0
875.894	22.05322
876.291	40.09486
876.688	14.03514
877.085	-15.03474
877.482	34.08215
877.878	60.14064
878.275	22.05434
878.671	-21.04386
879.068	41.09518
879.464	35.08148
879.86	-12.02758
880.256	12.02819
880.652	21.05174
881.048	-12.02861
881.444	-7.01592
881.84	-9.02225
882.236	34.08246
882.631	66.15628
883.027	-22.05165
883.422	1.00247
883.817	-8.01975
884.213	21.05228
884.608	56.13516
885.003	-14.03253
885.398	1.00244
885.793	8.0194
886.188	-36.08738
886.582	28.0688
886.977	51.11521
887.371	6.01462
887.766	12.02914
888.16	-1.00238
888.554	10.02377
888.949	63.15179
889.343	-42.09976
889.737	9.02361
890.131	10.02434
890.525	52.12914
890.918	10.02439
891.312	-8.01837
891.706	-6.01531
892.099	1.00246
892.492	44.08997
892.886	5.01183
893.279	-26.06455
893.672	26.06457
894.065	8.01946
894.458	20.04816
894.851	40.09361
895.244	-19.04733
895.637	51.1184
896.029	10.02385
896.422	-30.07057
896.814	19.04554
897.206	51.11835
897.599	40.09515
897.991	15.03533
898.383	18.04117
898.775	64.13964
899.167	52.11816
899.559	-22.05382
899.951	35.07852
900.342	13.03173
900.734	29.07135
901.125	10.02531
901.517	-13.03112
901.908	21.04779
902.299	21.04981
902.69	73.16612
903.082	57.13238
903.473	55.12854
903.863	-8.01975
904.254	41.09258
904.645	-11.02624
905.036	12.02874
905.426	-4.00871
905.817	-36.08567
906.207	0
906.597	31.07057
906.987	-21.05268
907.378	35.08602
907.768	19.04898
908.158	-6.01417
908.547	14.03565
908.937	-15.03703
909.327	49.11398
909.717	-1.00242
910.106	-17.0395
910.495	-3.00718
910.885	55.13442
911.274	-22.05352
911.663	-2.00489
912.052	-2.00473
912.441	28.06946
912.83	2.0044
913.219	22.05559
913.608	32.07592
913.997	17.04172
914.385	50.11458
914.774	7.01646
915.162	39.0905
915.55	-19.04434
915.939	-16.03971
916.327	4.0096
916.715	55.13722
917.103	-5.01172
917.491	16.03813
917.878	24.05681
918.266	4.01004
918.654	26.06485
919.041	42.10749
919.429	-22.05048
919.816	29.07093
920.203	41.09669
920.591	-3.00724
920.978	42.09891
921.365	22.05624
921.752	-4.00909
922.139	65.13414
922.525	-14.03283
922.912	23.0539
923.299	37.08881
923.685	-65.16533
924.072	-38.08309
924.458	7.0169
924.844	17.04073
925.231	25.05541
925.617	37.09197
926.003	26.06405
926.389	14.0342
926.774	9.02203
927.16	46.10964
927.546	53.13261
927.931	22.05268
928.317	6.01323
928.702	38.08586
929.088	44.10237
929.473	43.10646
929.858	36.08551
930.243	66.15331
930.628	31.07356
931.013	41.09804
931.398	21.04558
931.783	22.05551
932.167	34.08104
932.552	24.0579
932.937	46.10905
933.321	14.03435
933.705	2.00483
934.09	-39.09425
934.474	-9.0205
934.858	70.17492
935.242	-42.09459
935.626	28.06974
936.009	41.10671
936.393	81.20039
936.777	54.13406
937.16	25.06359
937.544	-8.01794
937.927	19.04699
938.311	50.11619
938.694	17.04381
939.077	10.02314
939.46	27.06238
939.843	33.06391
940.226	6.01486
940.609	74.16392
940.991	-22.05426
941.374	1.00239
941.757	21.04981
942.139	47.10139
942.522	26.0587
942.904	38.08785
943.286	40.0976
943.668	67.16879
944.05	54.12781
944.432	-30.07189
944.814	13.03062
945.196	10.02381
945.578	0
945.959	7.01566
946.341	5.01164
946.722	28.06277
947.104	52.11917
947.485	13.02919
947.866	26.06391
948.247	39.09592
948.628	-36.08386
949.009	11.02733
949.39	-11.02642
949.771	-50.11062
950.152	38.08991
950.532	18.04413
950.913	14.03255
951.293	29.07679
951.674	11.02572
952.054	67.16241
952.434	32.07677
952.814	2.00454
953.194	17.04254
953.574	33.07785
953.954	-22.05017
954.334	46.11144
954.714	-16.03813
955.093	39.09219
955.473	37.09029
955.853	25.06271
956.232	0
956.611	18.04102
956.99	22.05372
957.37	-10.02462
957.749	-39.08914
958.128	2.00493
958.506	-7.01773
958.885	27.06555
959.264	47.1123
959.643	88.19127
960.021	30.0723
960.4	12.02614
960.778	18.04211
961.156	17.04104
961.535	16.0355
961.913	15.03405
962.291	37.09298
962.669	3.00742
963.047	26.06457
963.424	57.142
963.802	33.0784
964.18	37.08861
964.557	31.06808
964.935	23.05238
965.312	31.07863
965.69	27.06456
966.067	-18.04206
966.444	29.06743
966.821	25.06246
967.198	6.01389
967.575	28.06581
967.952	33.07439
968.329	34.0802
968.705	85.17345
969.082	59.14778
969.458	21.04935
969.835	21.04929
970.211	41.10273
970.587	64.15306
970.963	33.08095
971.339	5.01276
971.715	26.06282
972.091	33.07815
972.467	-27.06459
972.843	48.11602
973.219	33.07528
973.594	24.06086
973.97	16.03563
974.345	14.03251
974.721	4.00921
975.096	18.04242
975.471	75.16859
975.846	25.05735
976.221	-26.06455
976.596	29.06818
976.971	36.08626
977.346	25.05539
977.72	12.02945
978.095	-4.01005
978.469	9.02063
978.844	41.09852
979.218	10.02356
979.593	7.01611
979.967	-5.01156
980.341	48.10624
980.715	45.10945
981.089	40.09629
981.463	33.07266
981.837	63.14938
982.21	-1.00218
982.584	33.07707
982.957	11.02678
983.331	26.0581
983.704	63.1503
984.078	-6.01432
984.451	14.03305
984.824	-16.03815
985.197	-17.03942
985.57	-12.02874
985.943	-13.03055
986.316	12.02796
986.688	11.02555
987.061	46.10364
987.434	24.06144
987.806	-17.03939
988.179	-59.13551
988.551	-5.01226
988.923	7.01657
989.295	55.13101
989.667	11.02581
990.039	52.12565
990.411	-24.05265
990.783	22.0479
991.155	18.04194
991.527	61.14061
991.898	-13.03167
992.27	18.04349
992.641	12.02891
993.012	-10.02212
993.384	-33.07616
993.755	66.16248
994.126	33.07707
994.497	5.01188
994.868	10.02182
995.239	33.07661
995.61	6.01465
995.98	-7.01645
996.351	-3.00726
996.722	24.0542
997.092	22.05046
997.462	12.0274
997.833	11.02488
998.203	7.01612
998.573	27.06515
998.943	12.02729
999.313	23.05344
999.683	34.07873
1000.053	-23.04998
1000.423	-6.014
1000.792	-36.09012
1001.162	-21.04987
1001.531	-12.02879
1001.901	-20.04822
1002.27	-38.08059
1002.639	-1.00246
1003.009	4.00916
1003.378	22.05452
1003.747	2.00453
1004.116	-8.0185
1004.485	29.06655
1004.853	-21.05102
1005.222	-64.15522
1005.591	31.07037
1005.959	0
1006.328	14.03042
1006.696	-14.03259
1007.064	-14.03387
1007.433	-16.03851
1007.801	-30.07032
1008.169	-1.00242
1008.537	45.09479
1008.905	-6.01362
1009.273	-9.02137
1009.64	32.07442
1010.008	23.05259
1010.375	20.04583
1010.743	-36.07798
1011.11	48.11106
1011.478	43.10306
1011.845	36.08058
1012.212	-6.01328
1012.579	16.03799
1012.946	-4.00908
1013.313	10.0227
1013.68	26.05557
1014.047	2.0046
1014.414	11.02498
1014.78	37.08888
1015.147	40.09148
1015.513	5.01164
1015.88	37.0904
1016.246	5.01176
1016.612	54.11657
1016.978	12.0286
1017.344	10.02394
1017.71	44.10205
1018.076	5.01123
1018.442	65.16099
1018.808	29.07061
1019.174	11.0265
1019.539	-48.10255
1019.905	-6.01377
1020.27	-35.08398
1020.636	-21.0481
1021.001	70.16029
1021.366	18.04186
1021.731	80.19984
1022.096	11.02714
1022.461	13.02973
1022.826	52.11921
1023.191	-5.01277
1023.556	-41.09288
1023.92	23.05388
1024.285	9.02094
1024.649	-16.03777
1025.014	-2.00473
1025.378	2.00491
1025.742	-4.00953
1026.107	34.07318
1026.471	36.07981
1026.835	-1.0024
1027.199	-13.03041
1027.562	17.03751
1027.926	14.03278
1028.29	-11.02707
1028.654	15.03297
1029.017	57.13452
1029.381	-8.01857
1029.744	17.04197
1030.107	45.10178
1030.471	3.00698
1030.834	-13.02803
1031.197	41.09447
1031.56	23.05179
1031.923	30.07508
1032.286	9.02034
1032.648	-23.05251
1033.011	38.08477
1033.374	0
1033.736	-19.04881
1034.099	33.07737
1034.461	65.15874
1034.823	10.0242
1035.185	2.00483
1035.548	27.06355
1035.91	1.00231
1036.272	10.02201
1036.634	17.04004
1036.995	-2.00449
1037.357	43.10093
1037.719	16.03758
1038.08	48.11
1038.442	11.02509
1038.803	-24.05491
1039.165	-7.01704
1039.526	-4.00936
1039.887	5.01153
1040.248	24.05806
1040.609	-5.01182
1040.97	-3.00707
1041.331	28.0689
1041.692	57.1295
1042.053	-13.02836
1042.413	-1.00223
1042.774	27.0633
1043.134	-7.01586
1043.495	37.08942
1043.855	81.18923
1044.215	37.08766
1044.576	0
1044.936	-22.04845
1045.296	25.06008
1045.656	16.03739
1046.016	0
1046.375	40.09303
1046.735	37.08181
1047.095	-2.00452
1047.454	33.06556
1047.814	14.03246
1048.173	19.04292
1048.533	21.04612
1048.892	-32.07507
1049.251	-19.04595
1049.61	-11.02629
1049.969	22.04961
1050.328	31.06403
1050.687	-3.00701
1051.046	32.07448
1051.405	-24.05742
1051.763	-7.01573
1052.122	-69.16845
1052.48	12.02849
1052.839	54.1235
1053.197	-26.05925
1053.555	-35.07544
1053.914	1.00235
1054.272	-16.03658
1054.63	8.01894
1054.988	44.10112
1055.345	0
1055.703	44.1016
1056.061	20.05038
1056.419	16.0408
1056.776	-37.08566
1057.134	-39.08594
1057.491	-12.02918
1057.848	4.00956
1058.206	-38.0853
1058.563	21.0441
1058.92	2.00441
1059.277	17.04042
1059.634	-20.04482
1059.991	48.11026
1060.348	-16.03509
1060.704	50.11683
1061.061	22.04794
1061.418	-38.08987
1061.774	-1.00239
1062.131	33.08577
1062.487	-25.05624
1062.843	20.04803
1063.199	-1.00241
1063.555	29.06506
1063.911	-16.03898
1064.267	43.08335
1064.623	17.04029
1064.979	-80.17839
1065.335	9.0205
1065.691	-24.05485
1066.046	12.02517
1066.402	-22.04794
1066.757	20.04876
1067.112	25.0587
1067.468	0
1067.823	-56.12844
1068.178	-5.0116
1068.533	-2.00468
1068.888	1.00229
1069.243	17.04046
1069.598	0
1069.952	51.11205
1070.307	-15.03625
1070.662	14.03246
1071.016	-2.00438
1071.371	34.07437
1071.725	47.1063
1072.079	31.07174
1072.434	-10.02363
1072.788	-9.0204
1073.142	25.05925
1073.496	-10.02286
1073.85	9.02001
1074.203	8.01874
1074.557	46.11962
1074.911	23.05225
1075.265	47.10409
1075.618	69.16082
1075.971	22.05017
1076.325	15.03718
1076.678	-30.06654
1077.031	-72.15543
1077.385	33.0689
1077.738	1.00216
1078.091	-30.06679
1078.444	7.01541
1078.796	11.02623
1079.149	39.0934
1079.502	-3.0069
1079.855	36.08044
1080.207	-7.01662
1080.56	8.02019
1080.912	-12.02822
1081.264	30.06969
1081.617	56.13106
1081.969	6.01475
1082.321	15.03514
1082.673	25.05564
1083.025	-26.05937
1083.377	239.51448
1083.728	7.01561
1084.08	-23.0554
1084.432	2.00463
1084.783	19.04176
1085.135	56.13521
1085.486	-18.04009
1085.838	28.06661
1086.189	-19.04517
1086.54	25.057
1086.891	45.1117
1087.242	55.13056
1087.593	-2.00462
1087.944	46.10024
1088.295	36.07781
1088.646	68.16052
1088.996	-10.02349
1089.347	9.02116
1089.698	2.00462
1090.048	14.03496
1090.398	31.06823
1090.749	-19.04357
1091.099	22.05414
1091.449	42.10095
1091.799	20.04827
1092.149	-12.02883
1092.499	26.06102
1092.849	26.06389
1093.199	-9.02165
1093.548	69.15993
1093.898	-20.0484
1094.248	12.02951
1094.597	12.03008
1094.947	17.04411
1095.296	43.10255
1095.645	25.06253
1095.994	43.09884
1096.343	-4.0098
1096.692	20.05183
1097.041	27.07214
1097.39	-5.01207
1097.739	19.04775
1098.088	28.07206
1098.437	17.044
1098.785	7.01819
1099.134	-26.06624
1099.482	27.07241
1099.83	23.05854
1100.179	63.16126
1100.527	-48.12353
1100.875	28.07229
1101.223	28.07256
1101.571	-46.12447
1101.919	20.05188
1102.267	45.12414
1102.615	-1.00321
1102.962	-5.01605
1103.31	7.02247
1103.658	-10.0321
