Data from N1 R2 sample 7_Subt2__3__12-58-39-749.txt Node

Date: Wed Sep 17 12:58:39 PDT 2025
User: uwsun
Spectrometer: HDX01956
Trigger mode: 0
Integration Time (sec): 5.000000E-1
Scans to average: 1
Nonlinearity correction enabled: true
Boxcar width: 0
Storing dark spectrum: false
XAxis mode: Wavelengths
Number of Pixels in Spectrum: 2068
>>>>>Begin Spectral Data<<<<<
194.03	-12.0349
194.578	-2.0065
195.127	-1.00321
195.676	2.00643
196.225	-4.01069
196.773	-30.08423
197.321	-40.11269
197.87	22.05743
198.418	51.13342
198.966	21.05643
199.513	45.1164
200.061	9.02341
200.609	33.08858
201.156	24.05392
201.704	-1.00258
202.251	62.16689
202.798	7.01856
203.345	8.02032
203.892	38.09787
204.438	-14.03422
204.985	-17.04167
205.532	-7.01886
206.078	0
206.624	56.14292
207.17	73.17389
207.716	55.13732
208.262	32.06528
208.808	47.12031
209.354	50.12598
209.899	27.06935
210.445	24.0614
210.99	49.12189
211.535	49.11784
212.08	32.07601
212.625	-13.03338
213.17	43.11157
213.715	40.09354
214.259	49.11672
214.804	15.03763
215.348	73.17148
215.892	74.18224
216.436	-17.04004
216.98	8.01806
217.524	33.08065
218.068	64.16379
218.612	87.22347
219.155	50.12036
219.698	41.09938
220.242	4.0101
220.785	81.1925
221.328	4.01011
221.871	99.25376
222.414	18.04537
222.956	-15.03682
223.499	2.00457
224.041	-8.01875
224.583	17.03666
225.126	40.08927
225.668	-4.00994
226.21	70.17883
226.751	67.15117
227.293	3.00694
227.835	36.0896
228.376	2.00465
228.918	1.00254
229.459	21.0533
230	71.17217
230.541	54.12574
231.082	18.04465
231.622	-3.00695
232.163	-6.01479
232.704	94.23634
233.244	16.0404
233.784	-16.03968
234.324	96.21744
234.864	-2.00463
235.404	12.02879
235.944	22.0527
236.484	24.06086
237.023	13.03123
237.563	44.10382
238.102	54.1292
238.641	-4.01025
239.18	-3.00721
239.719	47.119
240.258	16.03668
240.797	54.13053
241.335	17.04204
241.874	98.19238
242.412	72.17653
242.95	39.09571
243.488	-5.0115
244.026	42.09926
244.564	41.08598
245.102	79.18071
245.64	39.09436
246.177	9.02043
246.715	67.16247
247.252	37.08525
247.789	40.0757
248.326	9.02214
248.863	56.12503
249.4	34.07839
249.936	82.17367
250.473	48.11515
251.009	17.0397
251.546	56.12694
252.082	8.01768
252.618	38.08649
253.154	61.14842
253.69	3.00689
254.226	57.13812
254.761	26.05949
255.297	36.08001
255.832	71.17049
256.367	4.00961
256.903	70.15751
257.438	62.14686
257.972	50.11297
258.507	20.04677
259.042	45.09954
259.576	78.17458
260.111	18.04214
260.645	58.12703
261.179	26.06206
261.713	64.14513
262.247	30.06969
262.781	89.18928
263.315	3.00742
263.849	34.0864
264.382	18.04218
264.915	46.11052
265.449	-11.02749
265.982	71.16294
266.515	58.14389
267.048	31.06711
267.58	12.02648
268.113	20.04423
268.646	20.04978
269.178	4.00916
269.71	95.21171
270.243	97.22617
270.775	67.17354
271.307	31.07486
271.838	67.15972
272.37	-5.01252
272.902	22.05082
273.433	61.13723
273.965	27.0667
274.496	89.22156
275.027	36.091
275.558	66.16283
276.089	41.10395
276.62	21.05379
277.15	21.05252
277.681	-8.0177
278.211	22.05458
278.741	70.15745
279.272	69.15981
279.802	30.07578
280.332	61.14586
280.861	27.06567
281.391	29.06722
281.921	24.05838
282.45	33.08305
282.98	51.13437
283.509	62.14311
284.038	37.08627
284.567	36.08537
285.096	73.17888
285.625	-5.01155
286.153	59.14296
286.682	73.16974
287.21	-18.04398
287.739	44.10559
288.267	47.11619
288.795	59.15555
289.323	-10.02414
289.851	37.08868
290.378	16.03649
290.906	46.11433
291.433	68.17121
291.961	69.15981
292.488	40.10068
293.015	64.15318
293.542	65.169
294.069	98.24436
294.596	30.07456
295.122	80.19388
295.649	45.10028
296.175	32.07837
296.702	65.16099
297.228	45.10998
297.754	26.05982
298.28	63.14724
298.806	14.03449
299.332	48.10956
299.857	78.17954
300.383	45.11478
300.908	62.15454
301.433	84.20793
301.958	88.20369
302.483	36.09071
303.008	90.22571
303.533	18.04727
304.058	48.11374
304.582	11.02663
305.107	18.04771
305.631	67.15413
306.155	50.11858
306.679	58.13866
307.203	63.14857
307.727	45.10859
308.251	52.13027
308.775	98.24054
309.298	34.08364
309.822	39.09958
310.345	102.24581
310.868	73.17841
311.391	55.13751
311.914	40.10198
312.437	50.11656
312.96	52.12474
313.482	20.04811
314.005	52.13168
314.527	24.0635
315.049	26.06712
315.571	80.18289
316.093	50.12589
316.615	16.0393
317.137	95.20978
317.659	58.14273
318.18	8.01955
318.702	84.19951
319.223	39.08168
319.744	48.11049
320.265	76.18771
320.786	82.20735
321.307	65.16287
321.828	61.14032
322.348	91.21676
322.869	55.13357
323.389	285.54508
323.909	7.01647
324.43	44.10724
324.95	36.08445
325.47	82.20595
325.989	47.11389
326.509	42.09652
327.029	85.19733
327.548	54.12509
328.067	62.15319
328.587	102.2582
329.106	13.03018
329.625	111.29038
330.144	78.18455
330.662	78.18633
331.181	115.27403
331.7	35.08337
332.218	53.11801
332.736	103.24412
333.255	126.29915
333.773	73.17535
334.291	82.20794
334.808	86.1974
335.326	84.19211
335.844	69.16562
336.361	117.30346
336.879	94.22473
337.396	115.28294
337.913	91.21385
338.43	90.20666
338.947	88.21359
339.464	53.11762
339.981	35.08516
340.497	82.20461
341.014	86.2128
341.53	49.11349
342.046	154.38579
342.562	94.23719
343.078	106.25293
343.594	96.23161
344.11	149.35872
344.626	99.25288
345.141	110.25542
345.657	123.28193
346.172	126.30685
346.687	81.18961
347.202	171.3921
347.717	98.23724
348.232	108.27193
348.747	128.29909
349.261	121.26998
349.776	132.31689
350.29	116.29343
350.805	128.31869
351.319	65.15459
351.833	109.25505
352.347	125.29855
352.861	128.30378
353.374	105.2427
353.888	155.38065
354.401	101.23392
354.915	138.31561
355.428	100.25251
355.941	146.34262
356.454	89.2022
356.967	106.25089
357.48	59.13724
357.993	165.40625
358.505	100.24645
359.018	144.35488
359.53	164.40148
360.042	125.2841
360.554	201.48995
361.066	105.25872
361.578	162.36094
362.09	143.34271
362.602	191.4267
363.113	165.39016
363.625	173.39462
364.136	131.29181
364.647	154.36746
365.158	168.39255
365.669	124.29927
366.18	194.45561
366.691	126.28027
367.201	134.3239
367.712	202.46179
368.222	206.4732
368.733	155.34055
369.243	163.3673
369.753	145.33715
370.263	187.45106
370.773	145.35464
371.282	194.46236
371.792	220.50698
372.301	150.36393
372.811	165.43193
373.32	200.43377
373.829	163.38558
374.338	163.3649
374.847	195.44964
375.356	167.39473
375.865	270.57159
376.373	233.52567
376.882	249.62048
377.39	205.49166
377.898	212.51666
378.407	257.57602
378.915	313.66913
379.423	233.5364
379.93	345.77641
380.438	224.53262
380.946	294.66883
381.453	295.69129
381.96	327.75786
382.468	356.80788
382.975	406.94965
383.482	324.70538
383.989	393.96566
384.495	440.97372
385.002	426.85089
385.509	418.94931
386.015	468.90184
386.521	450.96717
387.028	534.1221
387.534	486.97209
388.04	553.22759
388.546	538.09573
389.051	556.12372
389.557	633.32258
390.063	655.32567
390.568	701.49846
391.073	686.3527
391.578	753.61665
392.084	804.58129
392.589	742.40168
393.093	851.74566
393.598	964.84228
394.103	1043.03184
394.607	1119.17099
395.112	1214.36073
395.616	1351.50851
396.12	1369.35738
396.624	1527.6283
397.128	1641.8258
397.632	1883.95909
398.136	1952.92788
398.639	2107.11864
399.143	2338.49618
399.646	2690.38271
400.15	2902.30668
400.653	3259.17994
401.156	3678.00679
401.659	4257.27
402.162	5196.41893
402.664	6700.83586
403.167	9564.65625
403.67	17610.40375
404.172	53657.84859
404.674	62459.88787
405.176	63738.15102
405.678	63977.72923
406.18	64011.81569
406.682	63863.44694
407.184	63926.60148
407.686	63841.39382
408.187	31133.28515
408.688	18072.97629
409.19	12344.13636
409.691	9948.59369
410.192	8514.86947
410.693	7412.63274
411.194	6579.74837
411.694	6331.0893
412.195	5796.66004
412.696	5236.48023
413.196	4839.98065
413.696	4673.91528
414.196	4789.30358
414.696	4812.07791
415.196	4618.75963
415.696	4130.77152
416.196	3405.29446
416.695	2639.33202
417.195	2169.24283
417.694	2195.66055
418.194	1954.59863
418.693	1801.78046
419.192	1806.8955
419.691	1704.75627
420.19	1700.87211
420.688	1641.88521
421.187	1616.25414
421.685	1479.52642
422.184	1412.49537
422.682	1151.97102
423.18	959.83227
423.678	852.65698
424.176	755.49838
424.674	821.55913
425.172	740.51878
425.669	671.46208
426.167	672.38091
426.664	606.23391
427.161	526.10526
427.659	489.0952
428.156	495.97015
428.652	401.95355
429.149	423.96397
429.646	404.84813
430.143	381.86478
430.639	367.82591
431.135	334.7987
431.632	331.72414
432.128	337.77361
432.624	324.80102
433.12	307.67363
433.616	303.63962
434.111	271.62312
434.607	248.57719
435.103	242.49414
435.598	240.48717
436.093	274.61678
436.588	212.46744
437.083	211.46319
437.578	244.54948
438.073	233.56794
438.568	250.59718
439.062	201.42226
439.557	212.48425
440.051	85.1917
440.546	117.26484
441.04	171.40419
441.534	144.35814
442.028	185.43727
442.522	99.23699
443.015	100.21448
443.509	135.3249
444.002	151.36437
444.496	85.18487
444.989	103.24864
445.482	123.30162
445.975	128.29357
446.468	135.28999
446.961	142.30548
447.454	146.32354
447.947	164.38501
448.439	103.25117
448.931	152.34427
449.424	171.42675
449.916	118.28533
450.408	89.20326
450.9	65.15797
451.392	123.30875
451.884	88.20183
452.375	119.29148
452.867	89.19965
453.358	133.3013
453.849	87.18608
454.341	109.24462
454.832	96.20688
455.323	134.32926
455.814	73.16699
456.304	104.2391
456.795	75.17122
457.285	40.08875
457.776	95.21548
458.266	58.13781
458.756	42.0996
459.247	81.19302
459.737	89.21419
460.226	138.3104
460.716	56.13398
461.206	65.15531
461.695	25.06208
462.185	57.13541
462.674	36.0828
463.163	119.26431
463.653	105.22224
464.142	82.19768
464.63	58.14035
465.119	100.23073
465.608	148.34079
466.096	90.19445
466.585	67.15283
467.073	30.07109
467.561	94.22361
468.05	60.13805
468.538	94.22756
469.026	24.0572
469.513	65.13728
470.001	95.21661
470.489	84.19844
470.976	143.32843
471.463	93.22932
471.951	74.18271
472.438	40.09413
472.925	91.2126
473.412	23.056
473.899	74.16904
474.385	44.10768
474.872	15.03522
475.359	87.21216
475.845	79.16318
476.331	5.01078
476.817	76.18377
477.303	64.14837
477.789	29.06926
478.275	55.13607
478.761	19.04533
479.247	38.08505
479.732	82.20298
480.218	73.18993
480.703	27.06665
481.188	94.20205
481.673	57.13091
482.158	105.22487
482.643	80.20273
483.128	80.18554
483.612	106.24982
484.097	32.07729
484.581	83.19078
485.066	88.21375
485.55	67.14795
486.034	59.12794
486.518	95.22542
487.002	6.01468
487.486	14.03415
487.969	39.09479
488.453	40.09945
488.936	52.11711
489.42	99.21706
489.903	47.1167
490.386	-23.04845
490.869	56.12281
491.352	41.09864
491.835	47.09647
492.318	55.12353
492.8	81.16709
493.283	91.22999
493.765	72.17548
494.247	90.20774
494.73	101.22144
495.212	68.16039
495.694	103.24025
496.175	102.24254
496.657	173.39955
497.139	108.18345
497.62	132.31231
498.102	165.40145
498.583	102.24748
499.064	128.28105
499.545	148.33071
500.026	229.49974
500.507	153.34491
500.988	181.44087
501.469	199.48127
501.949	233.55477
502.43	306.70119
502.91	346.68886
503.39	297.70114
503.87	299.67263
504.35	329.72675
504.83	413.83469
505.31	446.99234
505.79	484.0441
506.269	505.05057
506.749	560.14579
507.228	596.25095
507.707	703.35674
508.187	766.57503
508.666	843.7774
509.145	896.7435
509.623	989.88513
510.102	1084.10044
510.581	1216.27658
511.059	1330.55879
511.538	1410.74528
512.016	1519.61307
512.494	1631.73332
512.972	1838.89978
513.45	1978.88553
513.928	2165.18732
514.406	2354.32597
514.884	2451.65552
515.361	2744.29587
515.839	2865.08482
516.316	3075.40885
516.793	3217.65671
517.27	3390.29499
517.747	3549.73969
518.224	3733.90194
518.701	3906.55737
519.178	4071.37434
519.654	4123.92592
520.131	4113.27373
520.607	4214.1154
521.083	4193.57932
521.56	4185.8615
522.036	4051.39246
522.512	4056.27512
522.987	3988.11922
523.463	3904.03271
523.939	3772.42675
524.414	3605.9058
524.89	3434.23767
525.365	3399.88942
525.84	3219.32634
526.315	3069.38917
526.79	2965.96148
527.265	2822.10485
527.74	2646.36251
528.215	2490.10474
528.689	2406.77692
529.164	2259.64202
529.638	2207.42709
530.112	2158.02309
530.587	2021.5531
531.061	1906.0009
531.534	1855.94266
532.008	1807.94486
532.482	1699.6302
532.956	1621.96309
533.429	1560.73706
533.903	1468.2698
534.376	1406.23885
534.849	1294.23524
535.322	1297.31551
535.795	1219.28501
536.268	1192.25774
536.741	1089.06166
537.213	1064.94965
537.686	1008.01959
538.158	1028.87787
538.631	982.95629
539.103	880.65313
539.575	909.51637
540.047	816.49287
540.519	866.74333
540.991	839.74036
541.463	691.45731
541.934	660.30623
542.406	651.38426
542.877	671.32339
543.348	704.48833
543.82	594.29494
544.291	640.32098
544.762	635.34142
545.233	568.30446
545.703	531.0655
546.174	525.1034
546.645	503.11273
547.115	541.18448
547.585	483.01542
548.056	454.03314
548.526	471.02838
548.996	480.05315
549.466	427.96601
549.935	401.89649
550.405	394.80706
550.875	427.94319
551.344	392.87547
551.814	399.8537
552.283	409.82964
552.752	320.71352
553.221	367.76145
553.69	397.83876
554.159	394.92195
554.628	362.77337
555.096	345.83365
555.565	273.57882
556.033	347.78379
556.502	306.70485
556.97	328.69193
557.438	202.46197
557.906	343.76622
558.374	246.55103
558.842	264.60885
559.31	314.66851
559.777	266.62615
560.245	228.50651
560.712	189.42258
561.18	235.50305
561.647	238.5098
562.114	215.47872
562.581	231.55085
563.048	252.55633
563.514	303.72749
563.981	215.47832
564.448	239.522
564.914	222.49994
565.381	256.5635
565.847	236.53146
566.313	228.51219
566.779	218.47604
567.245	199.44879
567.711	191.4462
568.176	216.47047
568.642	240.58467
569.108	179.43046
569.573	162.36781
570.038	184.37571
570.504	233.50933
570.969	184.44541
571.434	215.46362
571.899	218.50157
572.363	231.51285
572.828	252.55842
573.293	211.47001
573.757	261.58306
574.222	197.43045
574.686	249.55258
575.15	236.54991
575.614	269.61085
576.078	223.50763
576.542	191.42493
577.006	219.48035
577.469	241.57293
577.933	228.50356
578.396	170.39504
578.86	210.48065
579.323	198.46537
579.786	184.39038
580.249	239.54493
580.712	158.37729
581.175	162.39187
581.637	124.27994
582.1	178.37963
582.563	138.28946
583.025	151.36147
583.487	176.35497
583.95	123.26114
584.412	177.36413
584.874	167.39947
585.336	164.38185
585.797	167.35656
586.259	118.27345
586.721	137.31717
587.182	109.24934
587.643	147.32908
588.105	120.28062
588.566	144.29618
589.027	157.37798
589.488	131.29725
589.949	183.43456
590.41	125.24556
590.87	154.34695
591.331	170.36462
591.791	110.25289
592.252	139.31962
592.712	120.28458
593.172	145.32527
593.632	142.31166
594.092	117.25857
594.552	132.28287
595.011	133.30093
595.471	153.34152
595.931	178.39363
596.39	116.27594
596.849	125.28801
597.308	74.15783
597.768	122.31124
598.227	127.30158
598.685	74.16863
599.144	121.28246
599.603	78.18205
600.062	64.13543
600.52	109.24462
600.978	82.19319
601.437	85.1928
601.895	129.27364
602.353	79.17343
602.811	131.29218
603.269	77.18271
603.727	84.2009
604.184	103.23334
604.642	124.30119
605.099	100.2322
605.557	109.26262
606.014	64.13828
606.471	75.18759
606.928	101.2234
607.385	103.25594
607.842	60.13789
608.299	95.22081
608.755	94.22627
609.212	96.21318
609.668	80.18024
610.125	78.18733
610.581	38.08953
611.037	26.05877
611.493	41.09609
611.949	96.23231
612.405	93.18891
612.861	76.17431
613.316	94.22369
613.772	89.20285
614.227	91.21743
614.683	91.19202
615.138	61.14301
615.593	46.10707
616.048	67.15314
616.503	61.14786
616.958	50.12522
617.412	80.18913
617.867	72.16089
618.321	95.19491
618.776	79.17343
619.23	29.06828
619.684	34.07626
620.138	45.10319
620.592	63.15243
621.046	93.21812
621.5	52.12508
621.954	29.06449
622.407	67.14783
622.861	86.20725
623.314	15.03422
623.768	83.19482
624.221	41.08111
624.674	61.14066
625.127	16.03745
625.58	23.05194
626.033	80.17388
626.485	28.0672
626.938	62.1472
627.39	65.1515
627.843	68.15615
628.295	74.16972
628.747	46.10968
629.199	43.09801
629.651	46.1055
630.103	44.101
630.555	49.1033
631.006	29.06762
631.458	13.03076
631.909	-1.00226
632.361	35.08087
632.812	-17.03983
633.263	59.12777
633.714	3.00641
634.165	-7.01692
634.616	25.05925
635.067	42.09253
635.518	38.09008
635.968	10.01983
636.419	64.13928
636.869	28.06643
637.319	75.17287
637.769	9.02038
638.219	46.10833
638.669	-29.06979
639.119	-10.02413
639.569	20.04811
640.019	47.10842
640.468	52.11634
640.918	7.01669
641.367	2.00451
641.816	3.00672
642.265	77.17833
642.714	8.01846
643.163	59.13589
643.612	30.07361
644.061	-1.00216
644.51	44.10083
644.958	50.11029
645.406	37.08841
645.855	6.01464
646.303	5.01163
646.751	73.16786
647.199	8.01825
647.647	41.09518
648.095	9.02065
648.543	61.12334
648.99	45.10793
649.438	-13.03036
649.885	64.15865
650.333	47.09133
650.78	-8.01949
651.227	35.08564
651.674	49.11164
652.121	40.09803
652.568	43.10517
653.015	14.03473
653.461	-15.036
653.908	50.11449
654.354	75.17714
654.801	29.0681
655.247	24.05214
655.693	29.07535
656.139	9.02157
656.585	34.08116
657.031	26.06123
657.477	50.10909
657.922	-12.02753
658.368	14.03449
658.813	-4.00916
659.259	49.11842
659.704	53.12523
660.149	-29.0677
660.594	34.08066
661.039	-6.01379
661.484	41.09691
661.929	53.12333
662.373	5.01259
662.818	-23.05738
663.262	29.07014
663.707	86.21638
664.151	6.01468
664.595	17.04121
665.039	9.0224
665.483	27.06863
665.927	2.00472
666.371	60.14042
666.814	28.0665
667.258	13.03143
667.701	70.14813
668.145	38.0943
668.588	26.06441
669.031	8.01889
669.474	-6.01448
669.917	35.07664
670.36	44.10939
670.803	58.1393
671.245	-30.06226
671.688	55.13302
672.13	20.04535
672.573	4.01013
673.015	63.15082
673.457	38.08259
673.899	50.12031
674.341	26.06259
674.783	-10.02412
675.225	32.0786
675.666	62.15066
676.108	22.04763
676.549	-14.03284
676.991	25.0549
677.432	14.02791
677.873	7.01603
678.314	14.03335
678.755	50.12259
679.196	36.08207
679.637	-27.06515
680.078	12.02807
680.518	50.11408
680.959	36.08537
681.399	13.03217
681.839	33.07981
682.28	33.08173
682.72	1.00229
683.16	54.13372
683.6	79.17751
684.039	4.00829
684.479	22.05424
684.919	70.16305
685.358	-26.06511
685.798	2.00521
686.237	34.08072
686.676	-51.1169
687.115	35.08212
687.554	44.10467
687.993	-10.02224
688.432	35.07952
688.871	86.19439
689.309	42.10014
689.748	16.03329
690.186	14.0327
690.625	70.16254
691.063	38.09012
691.501	45.11047
691.939	47.11747
692.377	-27.06584
692.815	79.19063
693.253	34.08044
693.69	35.07622
694.128	50.12036
694.565	-15.03566
695.003	37.09394
695.44	41.09646
695.877	25.05861
696.314	-9.01902
696.751	67.14987
697.188	61.13988
697.625	-23.05172
698.061	3.00718
698.498	-2.00473
698.934	36.08541
699.371	31.07254
699.807	39.09133
700.243	2.00482
700.679	20.0444
701.115	50.11541
701.551	4.00928
701.987	-29.06369
702.422	14.03332
702.858	36.08524
703.294	89.20047
703.729	7.01697
704.164	-7.01671
704.599	41.0908
705.035	41.09118
705.47	-34.08293
705.904	8.01847
706.339	-3.00688
706.774	15.03497
707.209	25.05785
707.643	-7.01674
708.078	13.03146
708.512	-16.04014
708.946	-16.03791
709.38	27.0637
709.814	16.03602
710.248	24.05832
710.682	17.04063
711.116	27.06533
711.549	17.0431
711.983	-8.01847
712.416	55.1289
712.85	24.05895
713.283	23.0539
713.716	27.06631
714.149	-6.01386
714.582	18.0402
715.015	-20.04902
715.448	43.10708
715.881	68.14333
716.313	7.01627
716.746	41.09597
717.178	-2.00479
717.61	42.1056
718.043	0
718.475	16.03856
718.907	13.03221
719.339	-41.09345
719.77	1.00239
720.202	-18.04498
720.634	54.13072
721.065	-35.08263
721.497	43.10392
721.928	-47.11525
722.359	-23.05602
722.79	32.0758
723.221	-1.00247
723.652	6.01513
724.083	1.00224
724.514	12.02737
724.945	-3.00699
725.375	14.0325
725.806	-3.00735
726.236	28.07073
726.666	39.09068
727.096	42.10125
727.526	31.07902
727.956	-3.00683
728.386	51.12297
728.816	38.09609
729.246	73.17682
729.675	-38.09268
730.105	19.04595
730.534	-22.05112
730.964	-19.04718
731.393	23.05565
731.822	35.08827
732.251	5.01259
732.68	24.05482
733.109	11.02689
733.537	79.18926
733.966	32.07895
734.395	35.07981
734.823	23.05017
735.251	9.02141
735.68	-2.00489
736.108	-29.07222
736.536	17.03933
736.964	18.04122
737.392	-1.00248
737.82	12.02832
738.247	42.09833
738.675	63.14475
739.102	-12.02974
739.53	42.10651
739.957	5.01284
740.384	-76.18377
740.811	-46.11424
741.238	53.1278
741.665	55.12708
742.092	-43.09864
742.519	0
742.945	35.08395
743.372	51.1246
743.798	-12.0305
744.225	24.05595
744.651	29.07146
745.077	16.0394
745.503	0
745.929	47.112
746.355	16.03838
746.781	5.01214
747.207	38.08893
747.632	53.12944
748.058	36.08947
748.483	-27.06181
748.908	-1.00247
749.334	6.01466
749.759	65.1518
750.184	56.13255
750.609	46.11056
751.033	-5.01154
751.458	79.17123
751.883	14.03398
752.307	22.05106
752.732	50.1258
753.156	21.05096
753.58	25.05797
754.005	3.00744
754.429	23.05386
754.853	54.132
755.277	54.12578
755.7	31.07574
756.124	47.11474
756.548	17.03959
756.971	15.03611
757.394	10.02523
757.818	39.09899
758.241	40.09999
758.664	18.04485
759.087	38.08432
759.51	18.04372
759.933	48.11405
760.356	31.07888
760.778	50.12045
761.201	47.11114
761.623	-15.03532
762.046	19.04362
762.468	55.12859
762.89	14.03362
763.312	57.13666
763.734	27.06409
764.156	27.06562
764.578	-13.02929
765	50.11931
765.421	19.04788
765.843	46.11806
766.264	14.03259
766.686	20.04876
767.107	1.00239
767.528	90.22547
767.949	40.09952
768.37	77.1863
768.791	28.06581
769.212	22.05468
769.632	44.10112
770.053	-38.09868
770.473	6.01424
770.894	16.03865
771.314	-15.03493
771.734	32.07307
772.154	15.03764
772.575	20.04519
772.994	5.01114
773.414	62.14328
773.834	-3.00737
774.254	21.05029
774.673	46.11027
775.093	49.11949
775.512	12.0292
775.931	-10.02509
776.351	47.11483
776.77	37.08915
777.189	66.15258
777.607	28.07017
778.026	2.00491
778.445	43.10704
778.864	0
779.282	-3.00703
779.701	25.06149
780.119	19.04737
780.537	-27.06648
780.955	37.09137
781.373	41.0989
781.791	31.06903
782.209	12.02648
782.627	20.05178
783.045	-36.08094
783.462	10.02511
783.88	-20.05128
784.297	3.00743
784.715	4.01017
785.132	5.01181
785.549	-6.01476
785.966	38.09344
786.383	57.13734
786.8	46.10385
787.217	74.17183
787.633	23.05688
788.05	21.04763
788.466	15.03409
788.883	46.11566
789.299	-34.07973
789.715	38.09053
790.131	24.05841
790.547	31.07543
790.963	48.11572
791.379	22.0545
791.795	-38.0846
792.21	7.0159
792.626	33.07555
793.041	-2.00483
793.457	22.05274
793.872	-3.00685
794.287	1.00238
794.702	-39.09326
795.117	4.0098
795.532	4.00993
795.947	-3.00696
796.362	-21.04817
796.776	48.10655
797.191	50.11917
797.605	14.03259
798.02	21.04979
798.434	70.15001
798.848	82.19798
799.262	24.05814
799.676	62.14635
800.09	34.08135
800.504	9.02122
800.918	-39.0881
801.331	-20.05034
801.745	-28.0628
802.158	-31.0756
802.572	59.13838
802.985	23.05354
803.398	-28.0654
803.811	-9.02219
804.224	-19.04578
804.637	1.00234
805.05	-6.01347
805.462	8.01907
805.875	-8.02045
806.288	33.07797
806.7	-23.05617
807.112	-9.0202
807.525	6.01421
807.937	4.0097
808.349	-20.0488
808.761	52.12441
809.173	51.12022
809.584	50.11885
809.996	-15.03595
810.408	35.08906
810.819	-59.13735
811.231	59.15351
811.642	45.10875
812.053	52.12308
812.464	0
812.875	2.00503
813.286	31.07849
813.697	-1.00222
814.108	34.0801
814.519	57.1235
814.929	46.11332
815.34	9.02103
815.75	50.12436
816.16	-25.06028
816.571	-1.00253
816.981	0
817.391	21.04873
817.801	27.0655
818.211	4.00926
818.62	8.01888
819.03	15.03565
819.44	-44.11114
819.849	-32.07828
820.259	5.01234
820.668	17.04088
821.077	58.14062
821.486	-1.00231
821.895	13.03074
822.304	-26.06754
822.713	-13.02987
823.122	9.02182
823.531	-26.05937
823.939	26.06178
824.348	15.03518
824.756	46.11073
825.164	12.02922
825.573	6.01469
825.981	-10.02406
826.389	18.04385
826.797	73.17941
827.205	24.05378
827.612	11.02623
828.02	-20.04561
828.428	0
828.835	27.06969
829.243	-27.06243
829.65	13.03173
830.057	10.02345
830.464	63.14978
830.871	77.17756
831.278	13.03054
831.685	40.08542
832.092	0
832.499	38.08045
832.905	17.04152
833.312	-7.0152
833.718	33.08026
834.124	12.02665
834.531	15.03635
834.937	40.09981
835.343	-10.02329
835.749	1.00223
836.155	1.00256
836.561	15.03588
836.966	15.03543
837.372	30.07361
837.777	-7.01708
838.183	51.10799
838.588	47.1135
838.993	52.12203
839.399	19.04529
839.804	-14.03339
840.209	33.08251
840.613	-21.04538
841.018	-8.01965
841.423	24.05984
841.828	40.09843
842.232	17.04007
842.637	56.12849
843.041	2.00503
843.445	-4.0097
843.849	-11.02669
844.253	32.07313
844.657	6.01481
845.061	78.1722
845.465	9.02112
845.869	14.03148
846.272	0
846.676	-17.03933
847.079	18.04487
847.483	51.12223
847.886	24.0559
848.289	30.07892
848.692	23.05607
849.095	9.02086
849.498	18.04356
849.901	5.011
850.304	26.05994
850.707	3.00742
851.109	18.04392
851.512	65.15394
851.914	-23.05717
852.316	66.1626
852.718	51.13082
853.121	13.03093
853.523	5.01124
853.925	11.02827
854.326	25.06103
854.728	35.08754
855.13	39.0985
855.531	1.00233
855.933	-4.00923
856.334	9.022
856.736	45.09779
857.137	48.10832
857.538	63.15369
857.939	54.13053
858.34	26.06054
858.741	24.06069
859.142	-29.06762
859.542	51.13119
859.943	20.04812
860.343	-25.06099
860.744	57.13358
861.144	32.07615
861.544	-22.05239
861.945	-14.03478
862.345	-7.01657
862.745	57.13744
863.145	20.04524
863.544	31.0761
863.944	37.08413
864.344	-12.02863
864.743	50.11922
865.143	86.21397
865.542	-14.03112
865.941	15.03616
866.34	2.00458
866.74	53.13785
867.139	38.08904
867.537	-6.01472
867.936	54.12549
868.335	7.01727
868.734	21.05218
869.132	-23.05132
869.531	31.07137
869.929	12.02658
870.327	31.07168
870.726	13.03107
871.124	50.11108
871.522	-1.00247
871.92	28.06676
872.318	-10.0236
872.715	-15.03559
873.113	-28.0662
873.511	38.09102
873.908	15.03742
874.306	21.05106
874.703	1.00241
875.1	3.00735
875.497	4.00925
875.894	45.10838
876.291	28.06656
876.688	-15.03784
877.085	6.01384
877.482	16.03879
877.878	30.07073
878.275	81.19789
878.671	20.0414
879.068	7.01636
879.464	26.06063
879.86	-26.05992
880.256	-21.04966
880.652	31.07624
881.048	-15.03579
881.444	2.00454
881.84	32.07851
882.236	7.01706
882.631	50.11876
883.027	2.00467
883.422	-20.0496
883.817	2.00493
884.213	12.02992
884.608	60.1447
885.003	-33.07697
885.398	-6.01463
885.793	2.00485
886.188	-11.02657
886.582	17.04186
886.977	1.00228
887.371	-19.04652
887.766	16.03882
888.16	-13.03101
888.554	15.03562
888.949	37.08959
889.343	22.05161
889.737	-14.03687
890.131	15.03648
890.525	54.13406
890.918	8.01952
891.312	35.07968
891.706	22.05587
892.099	22.05402
892.492	18.03702
892.886	8.01891
893.279	10.02466
893.672	10.02491
894.065	-5.01219
894.458	6.01449
894.851	75.17432
895.244	-10.02487
895.637	72.16646
896.029	45.10661
896.422	6.01401
896.814	-24.05799
897.206	52.12065
897.599	62.14686
897.991	9.02122
898.383	9.02062
898.775	72.15683
899.167	69.15625
899.559	-9.02196
899.951	6.01354
900.342	-4.00979
900.734	9.02223
901.125	7.01773
901.517	15.03572
901.908	51.11535
902.299	5.0119
902.69	80.18179
903.082	67.1553
903.473	27.06345
903.863	-2.00493
904.254	8.01819
904.645	-21.0502
905.036	24.05736
905.426	47.10126
905.817	-8.01894
906.207	-21.0481
906.597	3.00687
906.987	3.00749
907.378	57.13952
907.768	25.06437
908.158	-5.0118
908.547	39.09888
908.937	0
909.327	40.09321
909.717	-11.02671
910.106	-37.0863
910.495	3.00718
910.885	32.07854
911.274	33.07945
911.663	-21.05148
912.052	16.0377
912.441	56.13821
912.83	-5.01102
913.219	38.09575
913.608	18.04282
913.997	21.0515
914.385	26.05987
914.774	23.05392
915.162	56.12952
915.55	-17.03965
915.939	-7.01734
916.327	35.0835
916.715	46.11495
917.103	36.08372
917.491	13.031
917.878	5.01188
918.266	22.05504
918.654	38.09458
919.041	38.09732
919.429	-1.00228
919.816	17.04167
920.203	29.06855
920.591	23.05525
920.978	45.10591
921.365	20.05115
921.752	-35.08
922.139	20.04169
922.525	1.00234
922.912	2.00471
923.299	-26.06315
923.685	-18.0454
924.072	-2.00434
924.458	30.07211
924.844	22.05266
925.231	3.00668
925.617	27.06724
926.003	7.01731
926.389	-11.02699
926.774	42.10217
927.16	26.06221
927.546	7.01766
927.931	-30.07254
928.317	-18.03989
928.702	29.06564
929.088	63.14603
929.473	24.05963
929.858	28.06661
930.243	33.07716
930.628	49.11587
931.013	-2.00482
931.398	10.02175
931.783	1.00253
932.167	55.13056
932.552	15.03625
932.937	39.09258
933.321	10.02455
933.705	-19.04611
934.09	15.03588
934.474	5.01135
934.858	27.06799
935.242	11.0245
935.626	10.02499
936.009	24.06265
936.393	50.1244
936.777	24.05991
937.16	34.08634
937.544	-2.00448
937.927	4.00992
938.311	28.06535
938.694	30.07713
939.077	-19.04421
939.46	-20.04664
939.843	-29.057
940.226	15.03708
940.609	52.11572
940.991	8.01962
941.374	10.02382
941.757	58.13659
942.139	13.02825
942.522	34.07663
942.904	-10.02334
943.286	60.14585
943.668	24.06093
944.05	32.07606
944.432	3.00714
944.814	-36.0856
945.196	15.03568
945.578	44.10233
945.959	-11.0247
946.341	18.04178
946.722	14.03148
947.104	-15.03484
947.485	6.01349
947.866	38.0932
948.247	24.05919
948.628	-24.05577
949.009	24.0595
949.39	-5.012
949.771	-18.03956
950.152	23.05458
950.532	13.0319
950.913	40.09251
951.293	51.13455
951.674	23.05365
952.054	10.0245
952.434	36.0863
952.814	9.02041
953.194	-6.01507
953.574	26.06142
953.954	17.03847
954.334	71.1712
954.714	10.02372
955.093	61.14357
955.473	60.1458
955.853	13.03268
956.232	1.00267
956.611	0
956.99	12.02936
957.37	11.02697
957.749	-43.09836
958.128	12.0295
958.506	3.00758
958.885	-7.0171
959.264	14.03366
959.643	71.15488
960.021	53.12717
960.4	34.07371
960.778	-8.01881
961.156	-23.05594
961.535	-17.03798
961.913	55.12384
962.291	43.10794
962.669	9.02224
963.047	33.08185
963.424	68.16906
963.802	38.09019
964.18	4.00964
964.557	23.0506
964.935	20.04558
965.312	10.02546
965.69	79.18702
966.067	-8.01866
966.444	-40.09427
966.821	46.11449
967.198	16.03696
967.575	10.02359
967.952	21.04746
968.329	57.13384
968.705	109.22121
969.082	71.17745
969.458	6.01414
969.835	38.0889
970.211	34.0853
970.587	30.07221
970.963	-10.02473
971.339	-28.07189
971.715	23.05561
972.091	30.07109
972.467	-41.09834
972.843	45.10883
973.219	23.05257
973.594	-9.02296
973.97	2.00447
974.345	18.04176
974.721	0
975.096	43.10085
975.471	37.08382
975.846	8.01841
976.221	7.01727
976.596	27.0635
976.971	25.06003
977.346	-17.03799
977.72	22.0539
978.095	10.02505
978.469	26.05939
978.844	49.11757
979.218	30.0704
979.593	1.0023
979.967	-43.10018
980.341	-20.04489
980.715	12.02937
981.089	-26.06337
981.463	31.06828
981.837	64.15172
982.21	-63.13918
982.584	58.13478
982.957	4.00975
983.331	23.05143
983.704	54.12905
984.078	-12.02867
984.451	-14.03323
984.824	40.09435
985.197	-39.09083
985.57	22.05235
985.943	14.03273
986.316	45.10418
986.688	27.06251
987.061	84.18778
987.434	36.09197
987.806	-38.08841
988.179	-5.01136
988.551	25.06094
988.923	-7.01661
989.295	41.09793
989.667	22.05151
990.039	27.06555
990.411	14.03047
990.783	-8.01753
991.155	-17.03989
991.527	46.10635
991.898	19.046
992.27	54.12959
992.641	83.19725
993.012	-74.1659
993.384	-16.0368
993.755	30.07434
994.126	68.15771
994.497	6.01426
994.868	59.12739
995.239	27.06276
995.61	11.02683
995.98	-28.06607
996.351	50.11986
996.722	52.11677
997.092	25.0573
997.462	11.02512
997.833	12.02714
998.203	-1.00231
998.573	26.06275
998.943	72.16175
999.313	32.07422
999.683	14.03255
1000.053	-26.05654
1000.423	-1.00233
1000.792	7.01739
1001.162	12.02832
1001.531	64.15131
1001.901	-8.01924
1002.27	-19.04013
1002.639	4.00983
1003.009	44.09994
1003.378	16.03969
1003.747	43.09654
1004.116	9.02074
1004.485	36.0825
1004.853	-33.08035
1005.222	-41.09901
1005.591	33.07488
1005.959	-1.00218
1006.328	45.09712
1006.696	-53.12431
1007.064	-9.02175
1007.433	3.0072
1007.801	48.11079
1008.169	7.01692
1008.537	65.13631
1008.905	-7.0159
1009.273	19.04488
1009.64	27.06286
1010.008	52.11821
1010.375	44.10035
1010.743	-12.02586
1011.11	33.07658
1011.478	24.05773
1011.845	24.05385
1012.212	39.08551
1012.579	15.03562
1012.946	24.05418
1013.313	25.05659
1013.68	29.06195
1014.047	-32.07413
1014.414	-5.01139
1014.78	40.09603
1015.147	-17.03933
1015.513	-41.09627
1015.88	-7.01724
1016.246	0
1016.612	26.05646
1016.978	23.0547
1017.344	33.07867
1017.71	66.1524
1018.076	-17.03836
1018.442	74.18297
1018.808	46.11165
1019.174	-14.03389
1019.539	-1.00211
1019.905	4.00916
1020.27	-17.04065
1020.636	-7.01599
1021.001	28.06466
1021.366	-4.00934
1021.731	54.13553
1022.096	36.08843
1022.461	32.07289
1022.826	52.11921
1023.191	55.139
1023.556	-26.05872
1023.92	1.00235
1024.285	-19.04446
1024.649	2.0047
1025.014	-4.00947
1025.378	48.11677
1025.742	-24.0574
1026.107	55.11784
1026.471	8.01784
1026.835	30.07158
1027.199	-21.0492
1027.562	11.0243
1027.926	10.02343
1028.29	30.07328
1028.654	65.14137
1029.017	18.0428
1029.381	18.04156
1029.744	14.03458
1030.107	46.10402
1030.471	41.09466
1030.834	-14.0302
1031.197	34.07845
1031.56	-18.04087
1031.923	16.04014
1032.286	61.13639
1032.648	8.01815
1033.011	26.05815
1033.374	17.03792
1033.736	-42.10832
1034.099	-18.04262
1034.461	9.02221
1034.823	-9.02186
1035.185	-13.03145
1035.548	40.09391
1035.91	17.03909
1036.272	18.03956
1036.634	84.19528
1036.995	9.02018
1037.357	22.05185
1037.719	27.06328
1038.08	29.06671
1038.442	-14.0321
1038.803	-1.00228
1039.165	10.02427
1039.526	-11.02577
1039.887	10.02303
1040.248	43.10364
1040.609	-32.07603
1040.97	24.05623
1041.331	9.02223
1041.692	28.06399
1042.053	-17.03712
1042.413	23.05102
1042.774	36.08425
1043.134	9.02033
1043.495	37.08942
1043.855	63.1477
1044.215	39.09236
1044.576	44.10156
1044.936	27.05885
1045.296	35.08395
1045.656	-17.03998
1046.016	49.11236
1046.375	1.00234
1046.735	78.17098
1047.095	62.13825
1047.454	15.02993
1047.814	11.02552
1048.173	24.05416
1048.533	-1.00221
1048.892	-2.00466
1049.251	17.04084
1049.61	15.03568
1049.969	-25.05691
1050.328	29.05993
1050.687	3.007
1051.046	-4.00938
1051.405	-6.01431
1051.763	48.10664
1052.122	-22.05324
1052.48	34.08038
1052.839	80.18201
1053.197	-5.01135
1053.555	10.02135
1053.914	26.06092
1054.272	6.01366
1054.63	-20.04761
1054.988	20.04618
1055.345	-19.03875
1055.703	7.01628
1056.061	43.10786
1056.419	54.13679
1056.776	-3.0069
1057.134	-46.10151
1057.491	23.05556
1057.848	-9.02157
1058.206	-9.02008
1058.563	-4.00845
1058.92	42.09187
1059.277	63.14845
1059.634	16.03559
1059.991	14.03238
1060.348	2.00437
1060.704	61.14223
1061.061	-20.04397
1061.418	-11.02588
1061.774	-29.06966
1062.131	36.09352
1062.487	-5.0112
1062.843	19.04564
1063.199	7.01684
1063.555	20.04495
1063.911	0
1064.267	-14.02751
1064.623	61.14335
1064.979	15.03279
1065.335	13.02959
1065.691	-29.06634
1066.046	46.09576
1066.402	-32.06988
1066.757	32.07785
1067.112	19.04467
1067.468	5.01156
1067.823	-33.07534
1068.178	27.06224
1068.533	33.07673
1068.888	33.07509
1069.243	32.07595
1069.598	3.00698
1069.952	22.04863
1070.307	21.05041
1070.662	10.0232
1071.016	32.06964
1071.371	41.08955
1071.725	18.04095
1072.079	31.07174
1072.434	31.07268
1072.788	-16.03631
1073.142	19.04508
1073.496	-24.05502
1073.85	10.02223
1074.203	38.08852
1074.557	55.1428
1074.911	35.07932
1075.265	30.06668
1075.618	31.07279
1075.971	12.02742
1076.325	29.07169
1076.678	-11.0243
1077.031	-55.1183
1077.385	23.04813
1077.738	31.06662
1078.091	-6.01329
1078.444	14.03077
1078.796	-15.03595
1079.149	13.03129
1079.502	2.00459
1079.855	-29.06567
1080.207	5.01185
1080.56	3.00758
1080.912	43.10002
1081.264	23.0535
1081.617	2.00473
1081.969	39.09532
1082.321	0
1082.673	18.04012
1083.025	-9.02048
1083.377	31.06971
1083.728	24.05332
1084.08	28.06679
1084.432	-25.05822
1084.783	-7.01547
1085.135	26.06313
1085.486	-9.02001
1085.838	42.09964
1086.189	-8.01898
1086.54	3.00687
1086.891	57.14117
1087.242	77.18201
1087.593	-10.02316
1087.944	44.09592
1088.295	19.04122
1088.646	93.21846
1088.996	11.02573
1089.347	-34.0806
1089.698	3.00693
1090.048	-14.03514
1090.398	-5.01109
1090.749	-6.01372
1091.099	-19.04711
1091.449	34.08184
1091.799	44.10571
1092.149	-22.05296
1092.499	20.04699
1092.849	9.02218
1093.199	-2.00481
1093.548	25.05845
1093.898	3.00723
1094.248	-5.01233
1094.597	9.02258
1094.947	-14.03652
1095.296	17.04074
1095.645	-16.04031
1095.994	31.07143
1096.343	21.05121
1096.692	50.12891
1097.041	25.06682
1097.39	0
1097.739	27.06775
1098.088	36.09252
1098.437	17.044
1098.785	11.02856
1099.134	-29.07392
1099.482	9.02421
1099.83	24.06108
1100.179	67.17138
1100.527	-35.08987
1100.875	21.05428
1101.223	36.09317
1101.571	-35.09454
1101.919	9.02339
1102.267	-10.02783
1102.615	11.0353
1102.962	1.00321
1103.31	-2.00643
1103.658	-3.00962
