Data from N1 R2 sample 4_Subt2__3__13-53-30-678.txt Node

Date: Wed Sep 17 13:53:30 PDT 2025
User: uwsun
Spectrometer: HDX01956
Trigger mode: 0
Integration Time (sec): 5.000000E-1
Scans to average: 1
Nonlinearity correction enabled: true
Boxcar width: 0
Storing dark spectrum: false
XAxis mode: Wavelengths
Number of Pixels in Spectrum: 2068
>>>>>Begin Spectral Data<<<<<
194.03	4.01161
194.578	0
195.127	6.01922
195.676	9.02893
196.225	-1.00267
196.773	13.03626
197.321	16.04469
197.87	38.09892
198.418	50.13083
198.966	64.17075
199.513	89.22845
200.061	49.12657
200.609	52.13915
201.156	17.03825
201.704	53.13552
202.251	50.13485
202.798	49.12897
203.345	67.16836
203.892	49.12595
204.438	36.08718
204.985	52.12584
205.532	21.05632
206.078	44.10943
206.624	110.27805
207.17	102.24161
207.716	31.07773
208.262	37.0754
208.808	85.21612
209.354	81.20296
209.899	63.16081
210.445	47.11976
210.99	51.12682
211.535	53.12736
212.08	11.02623
212.625	62.15711
213.17	62.16034
213.715	69.16044
214.259	93.21965
214.804	63.15666
215.348	112.26109
215.892	100.24508
216.436	68.15752
216.98	34.07635
217.524	49.1194
218.068	93.2368
218.612	95.24368
219.155	64.15365
219.698	97.23265
220.242	30.07537
220.785	88.20885
221.328	56.14019
221.871	118.30146
222.414	39.09793
222.956	14.03418
223.499	25.05689
224.041	52.12046
224.583	49.10494
225.126	33.07375
225.668	55.13522
226.21	37.09508
226.751	103.23068
227.293	27.06219
227.835	54.13396
228.376	37.08546
228.918	56.1408
229.459	85.21329
230	73.17695
230.541	62.14413
231.082	76.18654
231.622	18.0415
232.163	37.0905
232.704	61.15428
233.244	38.09558
233.784	48.11764
234.324	117.26387
234.864	62.14157
235.404	38.09071
235.944	55.13091
236.484	78.1959
237.023	36.0861
237.563	51.12018
238.102	54.1292
238.641	55.1395
239.18	31.07401
239.719	45.11397
240.258	69.1565
240.797	61.14725
241.335	49.12047
241.874	72.14221
242.412	105.25586
242.95	75.18282
243.488	5.01147
244.026	91.21301
244.564	66.13764
245.102	68.1559
245.64	42.10156
246.177	18.04079
246.715	74.17921
247.252	43.09896
247.789	82.1536
248.326	55.13417
248.863	89.19735
249.4	67.15345
249.936	119.25
250.473	63.1507
251.009	-11.02583
251.546	109.24442
252.082	-15.0333
252.618	47.10678
253.154	47.11466
253.69	97.21849
254.226	86.20725
254.761	58.13185
255.297	-20.04497
255.832	78.18704
256.367	51.12139
256.903	119.26508
257.438	60.14218
257.972	25.05677
258.507	75.1735
259.042	76.16702
259.576	109.2424
260.111	35.08167
260.645	13.02874
261.179	51.12116
261.713	84.18971
262.247	21.04887
262.781	67.14318
263.315	23.05671
263.849	54.13674
264.382	71.16463
264.915	76.18155
265.449	31.07689
265.982	42.09695
266.515	75.18548
267.048	96.20493
267.58	9.01987
268.113	64.14023
268.646	34.08441
269.178	70.1581
269.71	99.22044
270.243	135.31241
270.775	136.34805
271.307	42.10122
271.838	93.22059
272.37	39.09691
272.902	67.15339
273.433	99.22099
273.965	95.23175
274.496	52.13032
275.027	89.22284
275.558	98.24036
276.089	70.17657
276.62	51.12995
277.15	73.18087
277.681	65.14161
278.211	52.12829
278.741	94.21039
279.272	58.13462
279.802	78.19534
280.332	54.1293
280.861	27.06567
281.391	46.10626
281.921	81.19494
282.45	55.13786
282.98	87.22783
283.509	105.24028
284.038	100.23027
284.567	87.20429
285.096	88.21503
285.625	2.00461
286.153	114.27337
286.682	63.14678
287.21	47.11346
287.739	68.16244
288.267	88.21591
288.795	81.21277
289.323	36.08613
289.851	91.21585
290.378	41.09303
290.906	72.17809
291.433	81.20347
291.961	124.28405
292.488	87.21713
293.015	75.17913
293.542	129.3317
294.069	96.23946
294.596	59.14586
295.122	132.31677
295.649	72.15956
296.175	72.17502
296.702	92.22673
297.228	91.2205
297.754	97.22001
298.28	136.31329
298.806	50.12236
299.332	77.17472
299.857	92.21117
300.383	66.16773
300.908	112.27663
301.433	106.26133
301.958	69.16031
302.483	49.12318
303.008	122.3042
303.533	104.26914
304.058	78.18376
304.582	110.26137
305.107	41.10824
305.631	73.16773
306.155	66.15604
306.679	103.24412
307.203	70.16485
307.727	81.19413
308.251	89.22147
308.775	166.4023
309.298	100.24299
309.822	96.24267
310.345	136.32563
310.868	115.27886
311.391	95.2358
311.914	112.2819
312.437	129.29604
312.96	104.24702
313.482	110.26006
314.005	58.14672
314.527	62.163
315.049	131.33202
315.571	111.25218
316.093	116.28861
316.615	87.21089
317.137	126.27643
317.659	92.22498
318.18	80.19286
318.702	142.3335
319.223	121.24881
319.744	135.30533
320.265	125.30595
320.786	165.41104
321.307	132.32674
321.828	139.31476
322.348	114.27035
322.869	152.36241
323.389	451.82797
323.909	92.21286
324.43	134.32108
324.95	153.35069
325.47	134.33339
325.989	141.3356
326.509	120.27146
327.029	157.35928
327.548	135.30769
328.067	197.47464
328.587	162.40569
329.106	120.27268
329.625	152.39485
330.144	194.44867
330.662	146.34423
331.181	174.40992
331.7	142.33128
332.218	138.30186
332.736	153.35912
333.255	177.4161
333.773	128.30425
334.291	206.51083
334.808	174.39233
335.326	173.38856
335.844	179.42063
336.361	218.55553
336.879	218.50877
337.396	188.45629
337.913	187.43119
338.43	184.41454
338.947	214.50709
339.464	153.33248
339.981	175.4146
340.497	225.5468
341.014	203.4915
341.53	175.39515
342.046	236.58243
342.562	258.6318
343.078	219.51121
343.594	199.47073
344.11	263.61945
344.626	234.58343
345.141	221.50186
345.657	205.46213
346.172	312.73326
346.687	215.49002
347.202	253.57056
347.717	262.61457
348.232	236.5805
348.747	240.54843
349.261	221.48289
349.776	269.62889
350.29	287.70371
350.805	290.70064
351.319	273.6232
351.833	305.68612
352.347	272.63129
352.861	289.6645
353.374	302.6706
353.888	280.67164
354.401	244.54903
354.915	244.5461
355.428	311.75547
355.941	256.58781
356.454	309.67059
356.967	281.64249
357.48	286.63534
357.993	288.69293
358.505	267.63766
359.018	368.86922
359.53	338.80054
360.042	342.74298
360.554	369.87107
361.066	315.74593
361.578	355.75924
362.09	335.77333
362.602	335.72608
363.113	333.76167
363.625	357.78398
364.136	362.76767
364.647	348.79933
365.158	330.74646
365.669	331.76744
366.18	359.81584
366.691	322.68703
367.201	378.87135
367.712	367.81102
368.222	410.90318
368.733	338.71397
369.243	348.75441
369.753	367.81576
370.263	413.95333
370.773	357.8385
371.282	422.9615
371.792	399.8865
372.301	403.93099
372.811	457.13379
373.32	485.98784
373.829	423.94995
374.338	450.9476
374.847	482.04556
375.356	436.97653
375.865	539.07211
376.373	553.16388
376.882	554.30113
377.39	565.25946
377.898	527.20608
378.407	624.29079
378.915	604.20806
379.423	626.32556
379.93	717.48839
380.438	633.38386
380.946	719.49255
381.453	750.59811
381.96	760.60753
382.468	837.71152
382.975	906.90823
383.482	881.68951
383.989	908.01242
384.495	977.91798
385.002	1045.7889
385.509	1097.14433
386.015	1235.94737
386.521	1237.20797
387.028	1293.26825
387.534	1257.06879
388.04	1345.49733
388.546	1372.27357
389.051	1472.36337
389.557	1532.57386
390.063	1627.57726
390.568	1692.85391
391.073	1747.6121
391.578	1924.11024
392.084	2020.87883
392.589	2035.68359
393.093	2203.19054
393.598	2385.07671
394.103	2556.29697
394.607	2814.41095
395.112	3038.55121
395.616	3197.47464
396.12	3482.05879
396.624	3855.14246
397.128	4198.15832
397.632	4693.75376
398.136	5083.39343
398.639	5316.42102
399.143	5910.50418
399.646	6702.94602
400.15	7436.91675
400.653	8235.38488
401.156	9190.80451
401.659	10742.10632
402.162	13225.86473
402.664	17578.93852
403.167	24433.67496
403.67	45086.93304
404.172	61445.62254
404.674	63858.43483
405.176	63738.15102
405.678	63977.72923
406.18	64011.81569
406.682	63863.44694
407.184	63926.60148
407.686	63841.39382
408.187	64025.8516
408.688	45322.70204
409.19	31311.53041
409.691	25249.1608
410.192	21214.50053
410.693	18454.8338
411.194	16655.53383
411.694	15680.99118
412.195	14519.12155
412.696	13110.91906
413.196	12141.67085
413.696	11876.23158
414.196	12036.68133
414.696	11695.11615
415.196	11007.29776
415.696	10086.07816
416.196	8178.4073
416.695	6437.94799
417.195	5485.47044
417.694	5274.67971
418.194	4823.98693
418.693	4538.63002
419.192	4385.91451
419.691	4335.84075
420.19	4197.13819
420.688	4158.29495
421.187	3952.22337
421.685	3708.09161
422.184	3332.28024
422.682	2914.86711
423.18	2486.09952
423.678	2164.95322
424.176	2019.86941
424.674	1939.71943
425.172	1800.83268
425.669	1697.90451
426.167	1587.60178
426.664	1516.46055
427.161	1393.37616
427.659	1229.33533
428.156	1203.96742
428.652	1133.30846
429.149	1097.15541
429.646	1038.87428
430.143	994.9729
430.639	910.81774
431.135	918.94619
431.632	840.63825
432.128	777.62382
432.624	731.66875
433.12	730.45712
433.616	717.37454
434.111	659.39522
434.607	663.41409
435.103	585.10002
435.598	607.12747
436.093	571.20499
436.588	587.19055
437.083	543.10668
437.578	520.10271
438.073	506.16791
438.568	500.1348
439.062	486.95678
439.557	450.9784
440.051	369.78371
440.546	440.93021
441.04	393.88875
441.534	409.96771
442.028	427.96169
442.522	329.75283
443.015	342.69516
443.509	359.82707
444.002	358.82986
444.496	306.63419
444.989	371.84993
445.482	302.71585
445.975	348.76277
446.468	325.66949
446.961	405.8219
447.454	273.58893
447.947	293.67046
448.439	305.71556
448.931	334.72839
449.424	325.78829
449.916	322.74849
450.408	298.65181
450.9	279.65073
451.392	271.66202
451.884	280.61736
452.375	305.72114
452.867	281.60541
453.358	303.66261
453.849	271.5565
454.341	289.62451
454.832	261.5425
455.323	304.72337
455.814	250.55145
456.304	268.59586
456.795	238.52542
457.285	219.46778
457.776	274.59882
458.266	237.54364
458.756	221.50593
459.247	216.50133
459.737	246.57434
460.226	265.5805
460.716	254.58462
461.206	156.36623
461.695	197.47374
462.185	221.50837
462.674	197.43846
463.163	226.49079
463.653	215.4441
464.142	235.55006
464.63	202.47551
465.119	194.43921
465.608	235.5317
466.096	176.37325
466.585	191.42476
467.073	148.3427
467.561	179.41883
468.05	171.3847
468.538	147.3523
469.026	131.3058
469.513	155.32088
470.001	182.40768
470.489	193.44627
470.976	200.45408
471.463	158.38492
471.951	186.44975
472.438	166.38102
472.925	125.29007
473.412	143.34036
473.899	143.32211
474.385	143.3435
474.872	117.26925
475.359	169.40579
475.845	118.2416
476.331	88.1863
476.817	162.38536
477.303	130.29743
477.789	59.14011
478.275	103.25258
478.761	118.27616
479.247	92.20362
479.732	92.22731
480.218	112.28944
480.703	120.29115
481.188	138.29381
481.673	149.33589
482.158	109.23323
482.643	125.31422
483.128	112.25811
483.612	163.3799
484.097	114.27108
484.581	153.34674
485.066	151.36244
485.55	117.25565
486.034	86.18541
486.518	153.35898
487.002	41.09965
487.486	66.15941
487.969	71.17152
488.453	47.1167
488.936	101.22517
489.42	89.19554
489.903	77.19015
490.386	13.02717
490.869	107.23212
491.352	57.13671
491.835	68.13891
492.318	67.15012
492.8	98.20138
493.283	75.19009
493.765	65.15863
494.247	79.18275
494.73	57.12613
495.212	19.04524
495.694	50.11784
496.175	99.23555
496.657	77.18123
497.139	81.13859
497.62	83.19824
498.102	92.2269
498.583	11.02714
499.064	69.15339
499.545	94.21239
500.026	87.19557
500.507	54.1242
500.988	124.30525
501.469	3.00752
501.949	87.21295
502.43	44.10612
502.91	114.23923
503.39	56.13837
503.87	72.1695
504.35	21.04937
504.83	39.08558
505.31	57.13703
505.79	8.01905
506.269	31.0714
506.749	85.19287
507.228	72.16877
507.707	108.23844
508.187	102.24124
508.666	65.16046
509.145	82.19055
509.623	66.15404
510.102	79.18991
510.581	109.25994
511.059	106.26383
511.538	112.28502
512.016	148.34799
512.494	102.24254
512.972	164.38411
513.45	96.22203
513.928	155.36935
514.406	193.46059
514.884	155.39186
515.361	150.35215
515.839	175.39354
516.316	249.5826
516.793	187.4599
517.27	182.4266
517.747	234.58046
518.224	203.45369
518.701	242.51411
519.178	216.52405
519.654	209.47981
520.131	253.60307
520.607	174.41502
521.083	232.50661
521.56	236.53625
522.036	253.52798
522.512	255.60574
522.987	227.52884
523.463	217.49797
523.939	247.59103
524.414	235.51826
524.89	265.60664
525.365	195.42807
525.84	191.44708
526.315	176.41641
526.79	204.44641
527.265	213.47702
527.74	156.37109
528.215	142.32541
528.689	150.32242
529.164	138.29087
529.638	158.39238
530.112	68.15946
530.587	154.32303
531.061	151.35871
531.534	138.32714
532.008	170.40439
532.482	115.26126
532.956	119.29967
533.429	187.44628
533.903	110.23848
534.376	102.22349
534.849	86.19653
535.322	110.25673
535.795	84.20159
536.268	123.29388
536.741	98.23061
537.213	136.30765
537.686	106.2568
538.158	111.24993
538.631	53.12838
539.103	89.1999
539.575	84.17215
540.047	69.1502
540.519	108.25543
540.991	107.25829
541.463	54.12989
541.934	24.05462
542.406	86.20552
542.877	61.13768
543.348	98.23482
543.82	64.15534
544.291	86.19977
544.762	73.17335
545.233	129.32264
545.703	103.22744
546.174	74.17122
546.645	99.23781
547.115	74.1782
547.585	87.19917
548.056	98.23947
548.526	137.32081
548.996	72.1718
549.466	110.26488
549.935	73.17422
550.405	57.12566
550.875	52.12384
551.344	10.02409
551.814	69.15816
552.283	95.20653
552.752	98.22854
553.221	73.1614
553.69	98.22061
554.159	89.22067
554.628	71.16124
555.096	118.29732
555.565	47.10457
556.033	120.28359
556.502	56.13541
556.97	79.17576
557.438	21.04977
557.906	63.14886
558.374	60.13954
558.842	21.05077
559.31	53.11924
559.777	113.27391
560.245	1.00233
560.712	-7.01628
561.18	12.02693
561.647	45.10041
562.114	72.16507
562.581	26.06443
563.048	38.08764
563.514	74.18539
563.981	61.14004
564.448	61.13825
564.914	62.14419
565.381	39.08975
565.847	33.0774
566.313	16.0375
566.779	15.03416
567.245	11.02576
567.711	17.04107
568.176	-3.00684
568.642	38.09606
569.108	9.02234
569.573	-33.07788
570.038	24.05079
570.504	63.14266
570.969	-46.11615
571.434	89.19711
571.899	36.08584
572.363	20.04635
572.828	90.20617
573.293	9.02089
573.757	62.14419
574.222	33.07461
574.686	29.0673
575.15	36.08718
575.614	114.26701
576.078	18.04267
576.542	63.14388
577.006	33.07522
577.469	44.10856
577.933	72.1642
578.396	61.1448
578.86	58.1368
579.323	40.09691
579.786	79.17145
580.249	91.21368
580.712	13.0319
581.175	24.05956
581.637	12.02771
582.1	17.03752
582.563	0
583.025	7.01722
583.487	61.12628
583.95	10.02175
584.412	89.18673
584.874	67.16332
585.336	30.07169
585.797	58.12676
586.259	64.1499
586.721	-1.00238
587.182	18.04193
587.643	35.08016
588.105	42.09972
588.566	35.07376
589.027	79.19301
589.488	61.14038
589.949	72.17463
590.41	31.06225
590.87	65.14911
591.331	92.20065
591.791	70.16222
592.252	69.16088
592.712	35.08436
593.172	47.10756
593.632	135.29673
594.092	70.15622
594.552	64.13917
595.011	22.0509
595.471	103.23229
595.931	25.05705
596.39	34.08215
596.849	50.11693
597.308	37.07955
597.768	87.22332
598.227	70.16805
598.685	31.07126
599.144	93.21829
599.603	2.00474
600.062	30.06396
600.52	88.19834
600.978	6.01434
601.437	60.13678
601.895	41.08864
602.353	27.05992
602.811	108.24202
603.269	46.1098
603.727	39.09407
604.184	53.12129
604.642	50.12313
605.099	63.14736
605.557	50.12182
606.014	26.05663
606.471	2.00507
606.928	85.18864
607.385	79.19716
607.842	26.06016
608.299	37.08698
608.755	73.17642
609.212	32.07201
609.668	68.15358
610.125	60.14459
610.581	52.12218
611.037	43.09686
611.493	18.04237
611.949	49.11962
612.405	63.12885
612.861	7.01628
613.316	44.10571
613.772	49.11258
614.227	82.19626
614.683	41.08746
615.138	19.04491
615.593	17.03979
616.048	60.13733
616.503	19.04642
616.958	36.09038
617.412	31.07398
617.867	42.09443
618.321	70.14443
618.776	51.11262
619.23	-5.01185
619.684	55.12282
620.138	63.14394
620.592	57.13806
621.046	47.11122
621.5	40.09643
621.954	-2.00448
622.407	44.09755
622.861	21.05123
623.314	2.00457
623.768	91.21326
624.221	-26.05225
624.674	7.01632
625.127	15.03511
625.58	24.05418
626.033	27.05935
626.485	29.06958
626.938	51.12134
627.39	65.1515
627.843	26.0602
628.295	45.10381
628.747	48.1144
629.199	43.09801
629.651	36.08273
630.103	40.09189
630.555	3.00639
631.006	32.07457
631.458	35.08247
631.909	25.05622
632.361	17.03942
632.812	7.01632
633.263	63.13632
633.714	-1.00214
634.165	24.05768
634.616	16.03799
635.067	41.09035
635.518	4.00954
635.968	8.01587
636.419	36.07881
636.869	36.08528
637.319	24.05588
637.769	56.1256
638.219	21.0497
638.669	17.04056
639.119	-33.07996
639.569	44.10535
640.019	64.14714
640.468	32.07189
640.918	1.00239
641.367	-18.04079
641.816	10.02237
642.265	16.0375
642.714	27.06206
643.163	41.09477
643.612	80.19447
644.061	25.05373
644.51	50.11445
644.958	43.09499
645.406	4.00962
645.855	9.02195
646.303	41.09469
646.751	72.1656
647.199	45.1019
647.647	21.04895
648.095	-9.02072
648.543	8.01637
648.99	50.11981
649.438	9.02093
649.885	50.12427
650.333	104.19934
650.78	38.09178
651.227	28.0686
651.674	60.1364
652.121	55.13442
652.568	50.12213
653.015	29.07175
653.461	30.07139
653.908	4.00924
654.354	44.10455
654.801	29.0681
655.247	20.04349
655.693	25.065
656.139	39.09293
656.585	15.03594
657.031	12.02834
657.477	52.11341
657.922	-2.00458
658.368	34.08345
658.813	16.0365
659.259	48.11602
659.704	26.06175
660.149	-25.05831
660.594	62.1463
661.039	15.03433
661.484	77.18074
661.929	40.09332
662.373	-11.02778
662.818	-13.03237
663.262	48.11567
663.707	23.05852
664.151	33.08035
664.595	14.03396
665.039	29.0719
665.483	11.02804
665.927	74.1721
666.371	17.04012
666.814	23.05468
667.258	29.0699
667.701	62.13143
668.145	90.22123
668.588	69.16958
669.031	-4.00947
669.474	13.03126
669.917	34.07447
670.36	16.03998
670.803	123.29175
671.245	-8.01652
671.688	41.09942
672.13	57.12829
672.573	21.053
673.015	78.18619
673.457	5.01094
673.899	65.15596
674.341	46.11031
674.783	19.04557
675.225	22.05414
675.666	70.16984
676.108	11.02387
676.549	18.04196
676.991	13.02862
677.432	-4.00801
677.873	16.03658
678.314	57.13468
678.755	88.21423
679.196	1.0023
679.637	-8.01924
680.078	56.12988
680.518	-6.01384
680.959	20.04758
681.399	36.08872
681.839	58.13961
682.28	51.1259
682.72	2.00459
683.16	14.03492
683.6	57.12866
684.039	-6.01247
684.479	29.0714
684.919	64.14925
685.358	-23.05757
685.798	8.02081
686.237	-2.00478
686.676	-29.06618
687.115	46.1077
687.554	53.12586
687.993	-3.00666
688.432	43.09753
688.871	63.14307
689.309	46.10959
689.748	49.10121
690.186	-33.07779
690.625	35.08183
691.063	9.02146
691.501	61.14931
691.939	68.16931
692.377	3.00727
692.815	59.14291
693.253	44.1039
693.69	54.11712
694.128	16.03876
694.565	-23.05477
695.003	70.17669
695.44	51.11976
695.877	-4.00943
696.314	72.14942
696.751	67.14987
697.188	70.16022
697.625	19.04236
698.061	0
698.498	14.03298
698.934	20.04759
699.371	7.01646
699.807	48.11221
700.243	66.15718
700.679	18.03997
701.115	61.14049
701.551	8.01854
701.987	-36.07918
702.422	105.24549
702.858	54.12742
703.294	72.16275
703.729	55.13217
704.164	35.08286
704.599	50.11053
705.035	29.06465
705.47	-1.00242
705.904	-5.01158
706.339	41.09322
706.774	37.0859
707.209	31.07165
707.643	6.01431
708.078	13.03146
708.512	-8.02004
708.946	12.02828
709.38	64.1499
709.814	28.06288
710.248	54.13048
710.682	55.13051
711.116	76.18218
711.549	-21.0536
711.983	0
712.416	77.17968
712.85	9.02217
713.283	60.1396
713.716	38.09313
714.149	17.03909
714.582	69.15249
715.015	19.04623
715.448	107.26336
715.881	-1.00214
716.313	7.01627
716.746	31.07271
717.178	21.05012
717.61	78.19484
718.043	45.10965
718.475	46.11022
718.907	67.16436
719.339	36.08078
719.77	35.08299
720.202	15.03726
720.634	60.14509
721.065	62.14362
721.497	57.13739
721.928	24.05808
722.359	15.03628
722.79	-3.00715
723.221	10.02463
723.652	42.10526
724.083	44.09755
724.514	70.15777
724.945	13.03019
725.375	39.09007
725.806	23.05607
726.236	19.04807
726.666	66.15265
727.096	38.09168
727.526	54.13708
727.956	30.06784
728.386	45.10863
728.816	52.13116
729.246	79.19114
729.675	-7.01697
730.105	16.03872
730.534	30.069
730.964	46.11286
731.393	28.06768
731.822	60.15064
732.251	35.08764
732.68	45.10236
733.109	50.12136
733.537	78.1869
733.966	76.18599
734.395	65.14731
734.823	17.03713
735.251	21.04985
735.68	10.02439
736.108	5.01237
736.536	45.10352
736.964	38.08666
737.392	55.13487
737.82	20.04712
738.247	37.08671
738.675	54.1243
739.102	21.05173
739.53	44.11154
739.957	60.15259
740.384	18.04275
740.811	-1.00246
741.238	47.11346
741.665	97.22225
742.092	-41.09401
742.519	8.01969
742.945	55.13141
743.372	57.1391
743.798	33.08319
744.225	2.00468
744.651	64.15668
745.077	85.20666
745.503	16.03811
745.929	87.20572
746.355	26.06225
746.781	29.07011
747.207	41.0959
747.632	81.19679
748.058	48.11903
748.483	51.11493
748.908	56.13689
749.334	42.1019
749.759	73.17021
750.184	54.12786
750.609	53.12722
751.033	46.10512
751.458	94.20309
751.883	16.03882
752.307	43.09939
752.732	49.12331
753.156	15.03644
753.58	34.0787
754.005	19.04697
754.429	72.16699
754.853	73.17782
755.277	24.05623
755.7	67.16259
756.124	17.04173
756.548	7.01633
756.971	25.06008
757.394	16.04033
757.818	39.09899
758.241	46.11487
758.664	52.12877
759.087	67.14776
759.51	9.0219
759.933	49.11641
760.356	52.13182
760.778	42.10133
761.201	59.13919
761.623	3.00704
762.046	23.05276
762.468	71.16548
762.89	53.12634
763.312	76.18155
763.734	18.0428
764.156	35.08494
764.578	36.08031
765	43.10274
765.421	-5.01265
765.843	73.18647
766.264	6.01399
766.686	-19.04666
767.107	33.07852
767.528	51.12866
767.949	18.04496
768.37	78.18868
768.791	16.0377
769.212	56.13832
769.632	45.10339
770.053	10.02575
770.473	18.04262
770.894	13.03142
771.314	29.06695
771.734	45.10248
772.154	25.06262
772.575	68.15214
772.994	14.03113
773.414	27.06283
773.834	14.03427
774.254	47.112
774.673	67.15996
775.093	40.09771
775.512	7.01705
775.931	39.09698
776.351	33.08083
776.77	-5.01214
777.189	35.08141
777.607	14.03517
778.026	26.06358
778.445	40.09963
778.864	15.0373
779.282	-27.0636
779.701	9.0222
780.119	-16.04014
780.537	46.11174
780.955	8.01986
781.373	27.0653
781.791	39.0867
782.209	32.07032
782.627	15.03887
783.045	11.02449
783.462	22.05512
783.88	9.02296
784.297	19.04692
784.715	18.04565
785.132	-1.00236
785.549	17.04164
785.966	42.1032
786.383	8.01945
786.8	82.18376
787.217	43.10046
787.633	75.18371
788.05	1.00228
788.466	28.06347
788.883	24.06058
789.299	-26.06087
789.715	56.13296
790.131	34.08259
790.547	37.08992
790.963	-5.01217
791.379	14.03473
791.795	45.09845
792.21	20.04532
792.626	-7.01615
793.041	12.02893
793.457	14.03361
793.872	37.08379
794.287	40.0946
794.702	8.01896
795.117	-9.02211
795.532	14.03468
795.947	22.05082
796.362	22.05003
796.776	27.0602
797.191	-7.01687
797.605	61.14066
798.02	45.1062
798.434	62.13309
798.848	60.14547
799.262	11.02671
799.676	49.11596
800.09	21.05037
800.504	39.09144
800.918	-30.06764
801.331	-8.02009
801.745	4.00891
802.158	-5.01213
802.572	90.20981
802.985	-5.0117
803.398	28.06468
803.811	-20.04942
804.224	-22.05304
804.637	3.00702
805.05	1.00224
805.462	38.09005
805.875	29.07363
806.288	13.03084
806.7	-5.01217
807.112	-17.03821
807.525	-18.04282
807.937	-19.04626
808.349	15.03636
808.761	22.05294
809.173	89.20825
809.584	15.0359
809.996	-32.07694
810.408	39.09916
810.819	8.01838
811.231	28.07324
811.642	60.14459
812.053	74.17441
812.464	2.00462
812.875	26.06511
813.286	58.14614
813.697	16.03534
814.108	12.02839
814.519	74.15975
814.929	59.145
815.34	-3.00703
815.75	34.08481
816.16	0
816.571	4.01012
816.981	-6.01364
817.391	47.10851
817.801	-5.0122
818.211	45.10331
818.62	33.07749
819.03	14.03328
819.44	-27.06799
819.849	-16.03902
820.259	41.10054
820.668	23.05525
821.077	33.08038
821.486	-6.0139
821.895	22.05193
822.304	10.02582
822.713	6.01373
823.122	11.02666
823.531	-12.02732
823.939	60.14163
824.348	46.10723
824.756	12.02907
825.164	7.01706
825.573	24.05856
825.981	21.05023
826.389	59.14264
826.797	42.10381
827.205	72.15976
827.612	-6.01436
828.02	-43.09852
828.428	12.02972
828.835	1.00259
829.243	22.05038
829.65	27.06572
830.057	-25.05902
830.464	36.08603
830.871	88.20248
831.278	23.05392
831.685	7.01506
832.092	-19.04496
832.499	41.08674
832.905	26.06339
833.312	-20.04354
833.718	68.16431
834.124	41.0905
834.531	-8.01947
834.937	25.06255
835.343	8.01857
835.749	29.06433
836.155	12.03063
836.561	33.07867
836.966	-20.04756
837.372	14.03445
837.777	-5.0122
838.183	63.13305
838.588	30.07268
838.993	68.15908
839.399	-10.02397
839.804	-11.02622
840.209	35.08748
840.613	-3.00646
841.018	38.09255
841.423	-20.05027
841.828	11.02721
842.232	40.09387
842.637	62.14208
843.041	-33.08346
843.445	0
843.849	4.00968
844.253	45.10257
844.657	37.09083
845.061	80.17655
845.465	48.11176
845.869	25.05608
846.272	14.03328
846.676	-6.01385
847.079	41.10177
847.483	19.04581
847.886	55.12733
848.289	49.12849
848.692	-20.04914
849.095	21.04856
849.498	22.0532
849.901	36.07868
850.304	83.18918
850.707	47.11525
851.109	54.13087
851.512	19.0454
851.914	-6.01487
852.316	58.1431
852.718	27.06955
853.121	12.02856
853.523	33.07375
853.925	-2.00515
854.326	29.07075
854.728	8.02011
855.13	-13.03314
855.531	6.01395
855.933	-1.00231
856.334	26.06337
856.736	20.04369
857.137	55.12394
857.538	59.14404
857.939	55.13292
858.34	29.06748
858.741	13.03294
859.142	2.00463
859.542	0
859.943	7.01689
860.343	48.1155
860.744	51.11966
861.144	36.0856
861.544	18.04254
861.945	28.06903
862.345	26.06114
862.745	19.04614
863.145	-20.04561
863.544	51.12474
863.944	36.08187
864.344	-1.00238
864.743	40.09556
865.143	35.08789
865.542	12.02653
865.941	31.07449
866.34	7.01602
866.74	0
867.139	47.10993
867.537	11.0269
867.936	42.09783
868.335	8.01973
868.734	39.09659
869.132	18.03982
869.531	27.06221
869.929	16.03541
870.327	30.06938
870.726	2.00479
871.124	51.11328
871.522	25.06146
871.92	49.11636
872.318	18.04224
872.715	-22.05227
873.113	-11.02592
873.511	2.00482
873.908	24.05978
874.306	30.07282
874.703	14.0336
875.1	-27.0665
875.497	15.03463
875.894	37.08925
876.291	27.06419
876.688	39.09744
877.085	-21.04869
877.482	17.04121
877.878	78.18219
878.275	3.00744
878.671	30.06195
879.068	40.09288
879.464	25.05831
879.86	55.1247
880.256	-6.01415
880.652	37.0909
881.048	-11.02622
881.444	-2.00454
881.84	7.01725
882.236	26.06315
882.631	19.0454
883.027	35.08125
883.422	-9.02227
883.817	-23.05694
884.213	63.15563
884.608	52.1256
885.003	-24.05588
885.398	-23.05628
885.793	11.02665
886.188	-16.03869
886.582	37.09077
886.977	19.0432
887.371	22.05346
887.766	9.02187
888.16	-10.02384
888.554	42.09922
888.949	5.01218
889.343	24.05628
889.737	-17.04479
890.131	-16.03914
890.525	71.17572
890.918	6.01465
891.312	22.05021
891.706	-13.03322
892.099	37.0906
892.492	18.03702
892.886	37.08698
893.279	11.02712
893.672	19.04725
894.065	28.06786
894.458	-11.02664
894.851	24.05634
895.244	-3.00745
895.637	64.1482
896.029	56.13239
896.422	35.08129
896.814	-6.01445
897.206	27.06295
897.599	85.20045
897.991	42.09841
898.383	11.02519
898.775	80.17396
899.167	-2.00459
899.559	7.01703
899.951	8.01805
900.342	25.06087
900.734	54.13225
901.125	11.02784
901.517	6.01431
901.908	5.01141
902.299	4.00952
902.69	51.11657
903.082	48.11168
903.473	32.07513
903.863	-22.05446
904.254	36.08137
904.645	58.13654
905.036	12.02874
905.426	22.04765
905.817	9.02123
906.207	-29.06653
906.597	3.00687
906.987	18.04483
907.378	26.06401
907.768	0
908.158	3.00707
908.547	24.06101
908.937	-40.0992
909.327	34.07932
909.717	15.03625
910.106	17.03923
910.495	21.05006
910.885	20.0492
911.274	-6.01455
911.663	3.00732
912.052	6.01416
912.441	37.09164
912.83	-11.02427
913.219	18.04552
913.608	54.12757
913.997	12.02948
914.385	53.12139
914.774	52.12122
915.162	72.16599
915.55	8.01857
915.939	17.04193
916.327	-13.0313
916.715	44.10999
917.103	2.00468
917.491	54.12776
917.878	20.04738
918.266	38.09479
918.654	40.09952
919.041	35.08968
919.429	12.02735
919.816	-17.04193
920.203	46.10837
920.591	73.17369
920.978	35.08254
921.365	4.01026
921.752	2.00454
922.139	-2.00419
922.525	16.0373
922.912	18.04223
923.299	37.08881
923.685	-36.0911
924.072	-24.05232
924.458	65.15519
924.844	7.0168
925.231	-23.05149
925.617	-6.01503
926.003	26.06405
926.389	31.07548
926.774	32.07799
927.16	26.06221
927.546	32.08037
927.931	4.00961
928.317	-2.00442
928.702	45.10153
929.088	54.12539
929.473	35.08678
929.858	48.11374
930.243	81.1876
930.628	58.13691
931.013	21.05041
931.398	4.00871
931.783	18.04545
932.167	80.18899
932.552	26.0627
932.937	-7.01676
933.321	5.01229
933.705	-14.03394
934.09	17.04065
934.474	18.04077
934.858	9.02274
935.242	-20.04484
935.626	42.10435
936.009	31.08082
936.393	76.1882
936.777	2.00501
937.16	32.08129
937.544	-32.0721
937.927	26.06422
938.311	47.10929
938.694	44.11285
939.077	11.02545
939.46	21.04858
939.843	29.05622
940.226	11.02721
940.609	64.14206
940.991	-11.02707
941.374	37.0877
941.757	18.04272
942.139	23.04987
942.522	5.01134
942.904	8.01861
943.286	14.03432
943.668	59.14885
944.05	7.01672
944.432	24.05692
944.814	10.02357
945.196	11.02618
945.578	55.12763
945.959	34.07563
946.341	26.06025
946.722	46.10275
947.104	13.03002
947.485	-3.00676
947.866	23.05657
948.247	75.18323
948.628	1.00231
949.009	-19.04747
949.39	21.05014
949.771	-9.01974
950.152	16.03802
950.532	23.05634
950.913	1.00233
951.293	6.01595
951.674	37.08607
952.054	58.14083
952.434	35.08391
952.814	18.04075
953.194	-8.02011
953.574	26.06142
953.954	22.04973
954.334	32.07773
954.714	8.01898
955.093	40.09453
955.473	30.07331
955.853	29.07269
956.232	-8.02139
956.611	2.00457
956.99	-11.02702
957.37	16.0392
957.749	26.05865
958.128	12.0295
958.506	26.06546
958.885	16.03892
959.264	26.06237
959.643	76.16561
960.021	35.08427
960.4	20.04349
960.778	-15.03532
961.156	-36.08777
961.535	37.08174
961.913	65.14605
962.291	51.12784
962.669	-4.00991
963.047	6.01496
963.424	71.17643
963.802	26.06185
964.18	3.00723
964.557	68.14818
964.935	104.23297
965.312	27.06853
965.69	26.06218
966.067	21.04869
966.444	-51.12046
966.821	34.08481
967.198	-18.04186
967.575	24.05645
967.952	39.08781
968.329	65.15239
968.705	85.17345
969.082	47.11798
969.458	37.08668
969.835	30.07029
970.211	22.05531
970.587	20.04823
970.963	20.04918
971.339	49.1241
971.715	48.1155
972.091	62.14601
972.467	-31.07421
972.843	40.09683
973.219	25.05712
973.594	0
973.97	-35.07877
974.345	20.04639
974.721	11.02529
975.096	70.16331
975.471	40.09056
975.846	43.09828
976.221	18.04433
976.596	45.10546
976.971	30.07197
977.346	22.04877
977.72	-25.06178
978.095	-15.03775
978.469	12.02749
978.844	21.05066
979.218	48.11225
979.593	28.06417
979.967	-2.00462
980.341	41.09088
980.715	27.06589
981.089	7.01696
981.463	35.07703
981.837	23.05495
982.21	-2.00436
982.584	7.01643
982.957	3.00732
983.331	-1.00225
983.704	44.10535
984.078	-13.03106
984.451	20.04716
984.824	22.05207
985.197	-5.01157
985.57	-1.00239
985.943	24.05599
986.316	34.07889
986.688	39.09007
987.061	40.09023
987.434	46.11731
987.806	-17.03939
988.179	7.01586
988.551	-10.02454
988.923	8.01893
989.295	36.08607
989.667	13.03049
990.039	66.15905
990.411	-2.00437
990.783	2.00437
991.155	17.03962
991.527	26.06035
991.898	15.03635
992.27	30.07232
992.641	12.02891
993.012	-3.00663
993.384	-9.02067
993.755	31.07681
994.126	90.20782
994.497	-4.00952
994.868	-10.02191
995.239	30.06969
995.61	42.10187
995.98	-31.07319
996.351	43.10321
996.722	40.09005
997.092	-16.03698
997.462	16.0365
997.833	-15.03411
998.203	-38.08831
998.573	0
998.943	44.09942
999.313	56.12926
999.683	26.0603
1000.053	-2.00433
1000.423	-7.01634
1000.792	5.01242
1001.162	34.07988
1001.531	67.15831
1001.901	2.0048
1002.27	25.05229
1002.639	-23.0568
1003.009	30.06834
1003.378	30.07423
1003.747	48.10766
1004.116	7.01614
1004.485	3.00692
1004.853	-11.02667
1005.222	-5.01199
1005.591	45.10186
1005.959	-10.02188
1006.328	5.01088
1006.696	31.07151
1007.064	-49.11931
1007.433	-15.0361
1007.801	14.03253
1008.169	7.01692
1008.537	6.01275
1008.905	26.05865
1009.273	28.06602
1009.64	46.10669
1010.008	29.06623
1010.375	22.0504
1010.743	6.01288
1011.11	64.14761
1011.478	65.15513
1011.845	53.11821
1012.212	39.08551
1012.579	47.11092
1012.946	27.06092
1013.313	22.04983
1013.68	28.05982
1014.047	-8.01844
1014.414	-28.06409
1014.78	13.03137
1015.147	27.06191
1015.513	47.10846
1015.88	-1.00246
1016.246	4.00941
1016.612	54.11657
1016.978	35.08305
1017.344	46.10938
1017.71	51.11812
1018.076	-6.01351
1018.442	61.15119
1018.808	51.12367
1019.174	-30.07284
1019.539	-30.06385
1019.905	34.07738
1020.27	-16.03825
1020.636	32.07251
1021.001	18.04165
1021.366	25.05806
1021.731	68.17023
1022.096	37.09087
1022.461	52.11797
1022.826	40.09192
1023.191	7.01784
1023.556	11.02466
1023.92	13.03051
1024.285	-25.05857
1024.649	-13.03067
1025.014	8.0189
1025.378	31.07565
1025.742	-29.06942
1026.107	11.02379
1026.471	24.05334
1026.835	27.06446
1027.199	5.01165
1027.562	10.0221
1027.926	14.03278
1028.29	17.04163
1028.654	15.03297
1029.017	63.14851
1029.381	12.02774
1029.744	28.06898
1030.107	11.02505
1030.471	13.03018
1030.834	-27.0584
1031.197	14.03243
1031.56	-2.00453
1031.923	53.13208
1032.286	54.12091
1032.648	13.02946
1033.011	44.09803
1033.374	18.04014
1033.736	-9.02308
1034.099	16.03764
1034.461	5.01235
1034.823	12.02903
1035.185	11.02649
1035.548	36.08458
1035.91	45.1029
1036.272	58.12639
1036.634	63.14707
1036.995	6.01346
1037.357	12.02834
1037.719	2.00471
1038.08	61.13943
1038.442	-11.0252
1038.803	-45.10339
1039.165	8.01942
1039.526	22.05121
1039.887	-3.00693
1040.248	76.18204
1040.609	-24.05694
1040.97	16.03755
1041.331	52.1274
1041.692	48.10925
1042.053	19.04117
1042.413	-11.02457
1042.774	36.08425
1043.134	19.04283
1043.495	30.0726
1043.855	75.17542
1044.215	-8.01912
1044.576	2.00466
1044.936	12.02624
1045.296	44.10535
1045.656	20.0467
1046.016	33.07591
1046.375	18.04204
1046.735	89.19464
1047.095	15.03377
1047.454	42.08327
1047.814	34.07851
1048.173	10.02263
1048.533	11.02421
1048.892	-38.08925
1049.251	18.04323
1049.61	32.07586
1049.969	39.08763
1050.328	46.0947
1050.687	-28.06571
1051.046	5.0117
1051.405	-54.12994
1051.763	41.09122
1052.122	-9.02173
1052.48	3.00714
1052.839	44.10083
1053.197	12.02714
1053.555	41.08693
1053.914	22.05159
1054.272	-10.02283
1054.63	-15.03568
1054.988	45.10339
1055.345	-1.00203
1055.703	43.09931
1056.061	81.20179
1056.419	49.12424
1056.776	39.08893
1057.134	-22.04831
1057.491	-1.00243
1057.848	35.08318
1058.206	-11.02455
1058.563	-3.00633
1058.92	4.00882
1059.277	42.09937
1059.634	21.04666
1059.991	50.11481
1060.348	14.03051
1060.704	50.11683
1061.061	71.15311
1061.418	3.00704
1061.774	-10.02393
1062.131	25.06507
1062.487	5.01118
1062.843	39.09333
1063.199	47.11221
1063.555	9.02027
1063.911	-8.01946
1064.267	0
1064.623	60.14103
1064.979	-34.07509
1065.335	19.0432
1065.691	9.02043
1066.046	36.07511
1066.402	-49.10739
1066.757	26.06332
1067.112	20.04701
1067.468	35.08042
1067.823	-24.05469
1068.178	10.02313
1068.533	49.11358
1068.888	25.05698
1069.243	4.00954
1069.598	30.06947
1069.952	19.04203
1070.307	1.00241
1070.662	56.12875
1071.016	27.05882
1071.371	29.0635
1071.725	7.01596
1072.079	-4.00932
1072.434	19.04465
1072.788	-17.03859
1073.142	24.05689
1073.496	17.03865
1073.85	29.0642
1074.203	24.05606
1074.557	48.12478
1074.911	23.05225
1075.265	4.00894
1075.618	45.10538
1075.971	30.06831
1076.325	23.05692
1076.678	5.01101
1077.031	-17.03627
1077.385	51.10605
1077.738	31.06662
1078.091	3.00663
1078.444	-7.01545
1078.796	24.05709
1079.149	34.0815
1079.502	10.02294
1079.855	32.07156
1080.207	-9.02138
1080.56	35.08789
1080.912	14.03275
1081.264	52.12027
1081.617	0
1081.969	9.02212
1082.321	6.01408
1082.673	52.11509
1083.025	35.07894
1083.377	296.62937
1083.728	-25.05611
1084.08	-8.01921
1084.432	-6.01392
1084.783	-32.07109
1085.135	4.00975
1085.486	13.02877
1085.838	42.09964
1086.189	25.05893
1086.54	23.05246
1086.891	67.16564
1087.242	38.0905
1087.593	-24.05573
1087.944	50.10886
1088.295	16.03473
1088.646	41.09729
1088.996	-11.02584
1089.347	16.03756
1089.698	6.01384
1090.048	6.015
1090.398	13.02872
1090.749	-17.03897
1091.099	20.04924
1091.449	54.12949
1091.799	31.07466
1092.149	14.03347
1092.499	43.10058
1092.849	25.06144
1093.199	29.06926
1093.548	15.03514
1093.898	-39.09471
1094.248	2.00493
1094.597	6.01506
1094.947	-11.02868
1095.296	6.01441
1095.645	5.01255
1095.994	21.04848
1096.343	0
1096.692	1.0026
1097.041	25.06682
1097.39	3.00723
1097.739	-11.02779
1098.088	7.01808
1098.437	31.08005
1098.785	-7.01823
1099.134	-16.04069
1099.482	58.15474
1099.83	33.08385
1100.179	44.113
1100.527	-10.02557
1100.875	10.0259
1101.223	25.06482
1101.571	-59.15998
1101.919	-1.0026
1102.267	1.00278
1102.615	-3.00964
1102.962	-9.02891
1103.31	11.0353
1103.658	-3.00962
