Data from N1 R2 sample 8_Subt2__0__12-59-02-737.txt Node

Date: Wed Sep 17 12:59:02 PDT 2025
User: uwsun
Spectrometer: HDX01956
Trigger mode: 0
Integration Time (sec): 5.000000E-1
Scans to average: 1
Nonlinearity correction enabled: true
Boxcar width: 0
Storing dark spectrum: false
XAxis mode: Wavelengths
Number of Pixels in Spectrum: 2068
>>>>>Begin Spectral Data<<<<<
194.03	-7.02034
194.578	5.01625
195.127	-8.02567
195.676	-1.00322
196.225	-8.02139
196.773	-2.00559
197.321	-20.05617
197.87	-34.0896
198.418	33.08659
198.966	40.10714
199.513	37.09584
200.061	15.03897
200.609	13.03501
201.156	20.04497
201.704	14.03604
202.251	45.12147
202.798	-37.0988
203.345	40.101
203.892	24.06196
204.438	13.03162
204.985	-3.00733
205.532	-17.04587
206.078	-12.03015
206.624	33.08456
207.17	35.08398
207.716	48.11999
208.262	63.12762
208.808	28.07191
209.354	68.17078
209.899	-9.02326
210.445	16.04099
210.99	50.12436
211.535	49.11784
212.08	4.00955
212.625	-5.01282
213.17	67.17312
213.715	76.17647
214.259	61.14497
214.804	26.06509
215.348	81.18998
215.892	72.17738
216.436	4.00938
216.98	6.01355
217.524	47.11457
218.068	32.08236
218.612	59.15229
219.155	72.17259
219.698	43.10419
220.242	10.02521
220.785	64.1526
221.328	59.14762
221.871	72.18543
222.414	71.17726
222.956	-40.09865
223.499	4.00914
224.041	-10.02345
224.583	-6.013
225.126	35.07819
225.668	53.13035
226.21	56.14342
226.751	41.093
227.293	-6.01391
227.835	70.17315
228.376	12.02785
228.918	20.05061
229.459	26.06593
230	49.11931
230.541	43.10034
231.082	25.06194
231.622	13.03
232.163	-7.01726
232.704	15.03825
233.244	-1.00253
233.784	17.0419
234.324	67.15265
234.864	11.02538
235.404	12.02879
235.944	66.15676
236.484	28.07095
237.023	14.03362
237.563	60.14114
238.102	25.06014
238.641	25.06375
239.18	-4.00961
239.719	-2.00511
240.258	2.0046
240.797	83.19953
241.335	12.0297
241.874	34.06775
242.412	55.13527
242.95	42.10301
243.488	5.01147
244.026	67.15757
244.564	58.12118
245.102	48.11049
245.64	31.07512
246.177	26.05882
246.715	75.1816
247.252	-10.02326
247.789	43.08132
248.326	-16.03955
248.863	42.09404
249.4	37.08525
249.936	78.16535
250.473	55.13177
251.009	-4.00938
251.546	63.14261
252.082	13.02869
252.618	41.09326
253.154	13.03191
253.69	30.0685
254.226	51.12372
254.761	20.04582
255.297	30.06676
255.832	32.07741
256.367	84.19867
256.903	70.15751
257.438	51.12106
257.972	23.05225
258.507	-1.00235
259.042	51.11267
259.576	58.13035
260.111	7.01642
260.645	58.12703
261.179	42.09995
261.713	44.10019
262.247	-10.02341
262.781	76.16209
263.315	-2.00495
263.849	25.06363
264.382	32.07477
264.915	48.11528
265.449	-21.05258
265.982	44.10152
266.515	46.11437
267.048	3.00653
267.58	36.07905
268.113	-31.06928
268.646	31.077
269.178	-16.03677
269.71	63.14133
270.243	113.26264
270.775	66.17098
271.307	9.02182
271.838	33.07918
272.37	5.0125
272.902	8.01853
273.433	71.1594
273.965	25.06178
274.496	19.0479
275.027	53.13357
275.558	48.11882
276.089	65.1641
276.62	5.01284
277.15	30.07491
277.681	29.06366
278.211	9.02238
278.741	27.06127
279.272	27.06305
279.802	30.07578
280.332	33.07933
280.861	9.02196
281.391	45.10397
281.921	49.11864
282.45	46.11549
282.98	28.07406
283.509	47.10881
284.038	76.17584
284.567	68.16027
285.096	92.22464
285.625	2.00461
286.153	73.17642
286.682	90.20857
287.21	7.01703
287.739	40.09607
288.267	46.11374
288.795	49.12941
289.323	28.06709
289.851	73.17375
290.378	4.00914
290.906	47.11679
291.433	42.10624
291.961	93.21436
292.488	12.03036
293.015	54.12949
293.542	95.24572
294.069	65.16304
294.596	14.0349
295.122	73.17715
295.649	15.03364
296.175	78.18939
296.702	90.22188
297.228	5.01231
297.754	73.16638
298.28	45.10554
298.806	28.0688
299.332	55.12536
299.857	-10.02342
300.383	61.15516
300.908	62.15454
301.433	75.18596
301.958	26.06092
302.483	2.00507
303.008	92.23065
303.533	18.04727
304.058	39.09258
304.582	29.06998
305.107	46.12134
305.631	89.20383
306.155	41.0974
306.679	64.15283
307.203	54.12757
307.727	81.19413
308.251	58.14515
308.775	114.27898
309.298	37.09097
309.822	22.05634
310.345	98.23635
310.868	55.13487
311.391	76.1893
311.914	69.17501
312.437	63.14649
312.96	34.08184
313.482	39.09347
314.005	46.11661
314.527	46.12126
315.049	59.15145
315.571	96.21876
316.093	75.18799
316.615	29.07106
317.137	68.15101
317.659	56.13786
318.18	10.02443
318.702	78.18548
319.223	5.01055
319.744	72.16493
320.265	28.06977
320.786	29.07402
321.307	42.10567
321.828	40.0924
322.348	48.11528
322.869	90.21713
323.389	327.61905
323.909	34.07957
324.43	84.20319
324.95	45.10538
325.47	88.22078
325.989	97.23283
326.509	111.25156
327.029	112.25862
327.548	26.06056
328.067	75.18487
328.587	116.2929
329.106	37.08549
329.625	69.1818
330.144	74.17522
330.662	77.18398
331.181	146.34583
331.7	56.13286
332.218	71.1575
332.736	96.22784
333.255	60.14426
333.773	83.199
334.291	103.26022
334.808	121.27579
335.326	100.22797
335.844	86.20576
336.361	144.37175
336.879	72.17285
337.396	106.26123
337.913	100.23458
338.43	130.29612
338.947	79.19207
339.464	93.20468
339.981	57.13812
340.497	93.2316
341.014	70.17372
341.53	104.23824
342.046	166.41495
342.562	108.27183
343.078	108.2576
343.594	79.19121
344.11	146.3517
344.626	124.31534
345.141	95.22124
345.657	103.23703
346.172	143.34715
346.687	85.19881
347.202	150.3454
347.717	142.3409
348.232	125.31377
348.747	135.31501
349.261	145.32193
349.776	148.35422
350.29	159.39911
350.805	118.29433
351.319	147.34409
351.833	157.3639
352.347	108.25879
352.861	169.39791
353.374	118.27204
353.888	180.43999
354.401	101.23392
354.915	119.2732
355.428	141.35342
355.941	119.28074
356.454	117.2643
356.967	104.24625
357.48	105.24202
357.993	152.37514
358.505	118.28984
359.018	170.41694
359.53	169.41334
360.042	137.31061
360.554	199.48525
361.066	150.36653
361.578	212.46744
362.09	178.42374
362.602	169.37926
363.113	205.48097
363.625	180.41
364.136	163.36069
364.647	134.32096
365.158	176.4106
365.669	159.3812
366.18	159.37597
366.691	123.27377
367.201	187.44747
367.712	195.44641
368.222	199.45776
368.733	169.37021
369.243	190.42578
369.753	199.45776
370.263	227.54338
370.773	168.40913
371.282	204.48526
371.792	237.5443
372.301	185.44589
372.811	229.5929
373.32	197.42754
373.829	180.42439
374.338	200.44431
374.847	273.61968
375.356	196.46067
375.865	282.59542
376.373	267.59819
376.882	245.61096
377.39	262.62153
377.898	270.65086
378.407	246.55262
378.915	302.64716
379.423	286.65142
379.93	417.92456
380.438	312.72926
380.946	332.74945
381.453	332.77234
381.96	368.84594
382.468	388.87477
382.975	409.9561
383.482	406.86848
383.989	442.07394
384.495	504.09847
385.002	460.91156
385.509	526.16636
386.015	531.00612
386.521	569.18973
387.028	556.16276
387.534	582.13656
388.04	639.39346
388.546	608.21889
389.051	707.38014
389.557	730.49284
390.063	740.46891
390.568	757.59874
391.073	808.54818
391.578	883.84309
392.084	999.87573
392.589	975.73834
393.093	993.97228
393.598	1114.05139
394.103	1180.22521
394.607	1399.53666
395.112	1404.60916
395.616	1560.7498
396.12	1585.57706
396.624	1807.88662
397.128	1984.11666
397.632	2185.15048
398.136	2394.14708
398.639	2459.27894
399.143	2727.6402
399.646	3182.40439
400.15	3418.2546
400.653	3828.01336
401.156	4251.7538
401.659	5072.83143
402.162	6253.93127
402.664	7893.56915
403.167	11219.98536
403.67	20662.6882
404.172	58824.59492
404.674	63497.81226
405.176	63738.15102
405.678	63977.72923
406.18	64011.81569
406.682	63863.44694
407.184	63926.60148
407.686	63841.39382
408.187	36219.10279
408.688	21183.69081
409.19	14470.99349
409.691	11811.74774
410.192	9902.47595
410.693	8690.87069
411.194	7805.02305
411.694	7288.01945
412.195	6824.30645
412.696	6338.98231
413.196	5715.53319
413.696	5588.40731
414.196	5705.81766
414.696	5620.62716
415.196	5290.38171
415.696	4803.40846
416.196	3936.124
416.695	3035.36797
417.195	2598.422
417.694	2497.72921
418.194	2352.74698
418.693	2263.0498
419.192	2141.12306
419.691	1993.97371
420.19	2027.134
420.688	1955.16535
421.187	1847.39619
421.685	1763.79032
422.184	1618.71064
422.682	1316.15517
423.18	1174.12677
423.678	1010.89132
424.176	916.7504
424.674	838.58491
425.172	851.70329
425.669	759.62325
426.167	807.60842
426.664	755.48584
427.161	608.25484
427.659	573.2615
428.156	627.18899
428.652	497.15779
429.149	523.16571
429.646	501.02742
430.143	489.08351
430.639	427.94909
431.135	435.0179
431.632	413.88785
432.128	348.79709
432.624	377.92294
433.12	362.78509
433.616	367.76383
434.111	320.72856
434.607	296.68236
435.103	290.5857
435.598	328.65241
436.093	289.64854
436.588	313.6755
437.083	274.5935
437.578	256.57508
438.073	261.63285
438.568	246.58807
439.062	252.52344
439.557	194.44475
440.051	150.33379
440.546	149.33507
441.04	217.50833
441.534	204.5018
442.028	201.47362
442.522	175.41284
443.015	117.25002
443.509	170.40641
444.002	145.35028
444.496	130.28003
444.989	160.38206
445.482	114.28001
445.975	171.3888
446.468	171.36447
446.961	145.31174
447.454	152.33642
447.947	106.25167
448.439	180.43261
448.931	155.35085
449.424	186.46292
449.916	153.36752
450.408	152.34273
450.9	104.25091
451.392	132.3308
451.884	155.35071
452.375	126.30823
452.867	114.25442
453.358	111.25258
453.849	108.22994
454.341	145.323
454.832	45.09804
455.323	188.45732
455.814	130.29396
456.304	54.12539
456.795	101.22936
457.285	109.23838
457.776	120.2708
458.266	104.24492
458.756	86.20222
459.247	111.26298
459.737	145.34525
460.226	163.36475
460.716	54.12925
461.206	98.23267
461.695	68.16752
462.185	89.21013
462.674	97.22037
463.163	123.27297
463.653	92.19528
464.142	108.25908
464.63	82.19753
465.119	109.25104
465.608	113.26202
466.096	81.17534
466.585	65.14833
467.073	46.10867
467.561	47.11281
468.05	54.1244
468.538	67.16302
469.026	46.10917
469.513	55.11641
470.001	79.18071
470.489	89.21004
470.976	143.32843
471.463	76.18799
471.951	67.16564
472.438	95.22116
472.925	91.2126
473.412	65.15703
473.899	103.23391
474.385	76.18488
474.872	60.13965
475.359	82.20015
475.845	57.11832
476.331	74.15714
476.817	65.1575
477.303	91.20984
477.789	41.0977
478.275	38.0943
478.761	32.07615
479.247	100.22096
479.732	50.12449
480.218	80.20789
480.703	79.19315
481.188	82.17671
481.673	101.22992
482.158	49.10621
482.643	92.23264
483.128	135.30968
483.612	134.31409
484.097	68.16313
484.581	84.19304
485.066	137.32971
485.55	86.18915
486.034	70.15143
486.518	116.27414
487.002	45.10929
487.486	42.1019
487.969	40.0972
488.453	53.13146
488.936	70.15706
489.42	69.15224
489.903	75.18528
490.386	3.00628
490.869	144.30992
491.352	41.09864
491.835	35.07204
492.318	102.22688
492.8	99.20339
493.283	86.21754
493.765	47.11508
494.247	116.26636
494.73	100.21929
495.212	62.14641
495.694	110.25623
496.175	93.22153
496.657	198.45501
497.139	103.17519
497.62	128.30308
498.102	172.41793
498.583	119.2878
499.064	167.36367
499.545	188.41661
500.026	196.43072
500.507	228.50609
500.988	277.66255
501.469	263.62835
501.949	313.73375
502.43	367.83064
502.91	441.85858
503.39	394.91256
503.87	461.00056
504.35	506.07438
504.83	543.06302
505.31	582.25642
505.79	647.34769
506.269	684.36707
506.749	774.50793
507.228	870.7169
507.707	992.78374
508.187	1124.12552
508.666	1220.36011
509.145	1263.24534
509.623	1404.41096
510.102	1510.63516
510.581	1700.81392
511.059	1849.12596
511.538	2043.39897
512.016	2257.16064
512.494	2431.24231
512.972	2607.27425
513.45	2714.14495
513.928	3055.40948
514.406	3357.43849
514.884	3544.77692
515.361	3817.13467
515.839	4121.73354
516.316	4314.03102
516.793	4474.25046
517.27	4756.7065
517.747	4935.1466
518.224	5102.19304
518.701	5234.83757
519.178	5317.71476
519.654	5496.18043
520.131	5334.61941
520.607	5483.42344
521.083	5283.97644
521.56	5331.23271
522.036	5242.73715
522.512	5121.71453
522.987	5007.58528
523.463	4790.58022
523.939	4818.93208
524.414	4592.435
524.89	4401.84729
525.365	4143.58797
525.84	4057.07177
526.315	3870.20722
526.79	3648.79994
527.265	3497.00967
527.74	3324.37301
528.215	3159.13736
528.689	3074.78417
529.164	2923.68653
529.638	2725.64436
530.112	2683.18812
530.587	2530.68546
531.061	2380.26914
531.534	2323.22153
532.008	2202.21312
532.482	2129.9051
532.956	1985.3067
533.429	1984.10961
533.903	1795.52161
534.376	1732.51183
534.849	1642.58286
535.322	1558.59955
535.795	1507.62921
536.268	1493.62499
536.741	1376.42645
537.213	1341.28819
537.686	1288.4165
538.158	1290.20248
538.631	1191.25748
539.103	1101.95757
539.575	1081.71995
540.047	1072.83674
540.519	1006.96063
540.991	973.9585
541.463	848.72739
541.934	877.6487
542.406	837.70843
542.877	838.58877
543.348	756.58025
543.82	727.54069
544.291	762.53023
544.762	688.43669
545.233	715.59419
545.703	676.31173
546.174	657.34125
546.645	632.361
547.115	583.26529
547.585	566.16855
548.056	601.32765
548.526	559.19819
548.996	526.14311
549.466	502.11629
549.935	525.14166
550.405	480.96409
550.875	410.90886
551.344	405.90207
551.814	489.02399
552.283	434.87532
552.752	395.86705
553.221	415.85181
553.69	427.89621
554.159	409.95423
554.628	382.81256
555.096	368.88535
555.565	354.73727
556.033	396.8855
556.502	353.80546
556.97	365.76373
557.438	287.64511
557.906	330.73916
558.374	284.63116
558.842	273.62847
559.31	317.67445
559.777	280.6573
560.245	284.62356
560.712	251.55401
561.18	269.57159
561.647	198.42779
562.114	226.50206
562.581	264.62555
563.048	308.67198
563.514	291.70027
563.981	237.52486
564.448	275.59604
564.914	284.63142
565.381	275.60291
565.847	262.58687
566.313	218.49073
566.779	247.53605
567.245	203.45743
567.711	206.47983
568.176	259.55897
568.642	214.52387
569.108	221.52721
569.573	223.50003
570.038	215.43592
570.504	234.51141
570.969	208.50123
571.434	268.57132
571.899	251.57368
572.363	238.52762
572.828	270.59606
573.293	246.54399
573.757	258.57672
574.222	260.56053
574.686	280.61736
575.15	274.63367
575.614	314.70651
576.078	247.55953
576.542	224.49493
577.006	298.64272
577.469	291.68512
577.933	270.59107
578.396	230.52812
578.86	287.6467
579.323	287.6628
579.786	292.6049
580.249	248.56442
580.712	239.56183
581.175	195.46875
581.637	207.45938
582.1	193.41028
582.563	226.46483
583.025	251.58935
583.487	239.47505
583.95	158.33288
584.412	277.557
584.874	224.52996
585.336	260.59388
585.797	199.42193
586.259	221.50166
586.721	174.39986
587.182	207.46416
587.643	208.45978
588.105	190.4382
588.566	176.35938
589.027	247.58448
589.488	200.44745
589.949	213.50286
590.41	235.44967
590.87	210.46769
591.331	246.51896
591.791	214.48173
592.252	201.45645
592.712	183.42869
593.172	173.38585
593.632	248.53213
594.092	164.35888
594.552	155.33051
595.011	125.28329
595.471	232.50939
595.931	175.38724
596.39	188.44101
596.849	138.31713
597.308	140.29431
597.768	180.45449
598.227	171.40262
598.685	138.3104
599.144	171.39525
599.603	133.30705
600.062	150.31144
600.52	193.42564
600.978	152.35322
601.437	167.37247
601.895	147.31059
602.353	137.29707
602.811	205.45021
603.269	174.40514
603.727	136.32202
604.184	127.2863
604.642	133.32251
605.099	167.38262
605.557	199.47127
606.014	143.30373
606.471	137.33881
606.928	223.48066
607.385	172.422
607.842	156.3516
608.299	163.37376
608.755	137.32708
609.212	130.28664
609.668	124.27685
610.125	131.31144
610.581	107.2487
611.037	103.22916
611.493	115.2656
611.949	136.32662
612.405	170.33924
612.861	127.28829
613.316	127.30031
613.772	125.28283
614.227	129.30598
614.683	78.16506
615.138	125.28939
615.593	86.19859
616.048	111.25146
616.503	79.19085
616.958	124.30638
617.412	59.14005
617.867	81.18066
618.321	87.17882
618.776	109.23777
619.23	95.22081
619.684	62.13825
620.138	76.17319
620.592	97.23318
621.046	135.31402
621.5	66.15833
621.954	26.05786
622.407	48.10633
622.861	82.19776
623.314	88.19777
623.768	133.30913
624.221	56.1104
624.674	52.12012
625.127	75.1735
625.58	33.07436
626.033	70.15247
626.485	66.15724
626.938	110.25875
627.39	98.22692
627.843	95.21696
628.295	73.16746
628.747	112.26366
629.199	59.13404
629.651	62.14174
630.103	47.10782
630.555	24.05088
631.006	42.09768
631.458	48.11282
631.909	75.16693
632.361	57.13112
632.812	71.16346
633.263	73.15762
633.714	18.03836
634.165	49.11721
634.616	37.08749
635.067	101.21976
635.518	97.22732
635.968	90.17509
636.419	69.15001
636.869	75.17632
637.319	81.18648
637.769	74.16535
638.219	32.07557
638.669	1.00239
639.119	13.03123
639.569	33.07918
640.019	64.14714
640.468	70.15603
640.918	21.04993
641.367	33.074
641.816	39.08673
642.265	86.19882
642.714	8.01846
643.163	66.1518
643.612	56.13674
644.061	40.08568
644.51	59.1348
644.958	29.06425
645.406	30.07178
645.855	13.03168
646.303	12.02788
646.751	31.07188
647.199	60.13546
647.647	44.10209
648.095	32.07307
648.543	73.1472
648.99	44.10555
649.438	-1.00233
649.885	93.22932
650.333	78.15044
650.78	38.09178
651.227	29.07104
651.674	79.1789
652.121	42.1029
652.568	40.09789
653.015	9.02235
653.461	20.04769
653.908	8.01847
654.354	24.05725
654.801	15.03532
655.247	55.1187
655.693	20.05205
656.139	67.1588
656.585	-16.03856
657.031	13.03069
657.477	39.08529
657.922	-4.00916
658.368	7.01727
658.813	9.02056
659.259	45.10883
659.704	30.0712
660.149	-1.00232
660.594	33.07831
661.039	57.12934
661.484	74.1738
661.929	61.14173
662.373	-2.00504
662.818	36.08885
663.262	49.11806
663.707	30.07624
664.151	58.14057
664.595	9.02185
665.039	50.1235
665.483	22.05597
665.927	21.04935
666.371	52.12189
666.814	12.02859
667.258	50.12004
667.701	45.09575
668.145	54.13362
668.588	58.14283
669.031	-15.03558
669.474	13.03126
669.917	17.03737
670.36	46.11433
670.803	73.17482
671.245	13.02672
671.688	63.15214
672.13	36.08137
672.573	19.04797
673.015	59.14135
673.457	2.00438
673.899	25.06044
674.341	38.09126
674.783	35.08369
675.225	3.00741
675.666	80.19374
676.108	17.03685
676.549	-3.00702
676.991	1.00221
677.432	27.05367
677.873	16.03658
678.314	26.0618
678.755	54.1323
679.196	25.05712
679.637	-3.00721
680.078	12.02807
680.518	12.02759
680.959	29.06887
681.399	25.06174
681.839	20.04849
682.28	22.0546
682.72	-10.023
683.16	40.0993
683.6	72.16201
684.039	12.02484
684.479	1.00247
684.919	65.15156
685.358	-29.07266
685.798	0
686.237	6.01432
686.676	14.03167
687.115	41.09609
687.554	39.09286
687.993	48.10548
688.432	56.12668
688.871	36.0822
689.309	21.05027
689.748	65.13378
690.186	-13.03053
690.625	20.0469
691.063	-1.00239
691.501	15.03703
691.939	70.17423
692.377	-14.03406
692.815	65.15726
693.253	24.05689
693.69	10.02189
694.128	19.046
694.565	17.04017
695.003	38.09647
695.44	1.00237
695.877	23.05394
696.314	-19.04023
696.751	54.12111
697.188	42.09668
697.625	19.04236
698.061	15.03581
698.498	-11.02604
698.934	12.0286
699.371	2.00471
699.807	-1.00236
700.243	40.09574
700.679	15.03333
701.115	33.07643
701.551	6.01391
701.987	-8.01749
702.422	-10.02391
702.858	3.00715
703.294	46.10453
703.729	38.09161
704.164	20.04749
704.599	34.07541
705.035	6.01344
705.47	-10.02428
705.904	-25.05811
706.339	35.07968
706.774	25.05818
707.209	13.03016
707.643	17.04046
708.078	18.04353
708.512	10.02497
708.946	10.02358
709.38	26.06135
709.814	14.03153
710.248	40.09691
710.682	37.0881
711.116	29.07014
711.549	-26.06642
711.983	17.03904
712.416	80.18657
712.85	-3.00741
713.283	10.0235
713.716	28.06875
714.149	-24.05564
714.582	-8.01796
715.015	-24.05886
715.448	39.09719
715.881	49.10371
716.313	33.07631
716.746	39.09133
717.178	-4.00959
717.61	18.04545
718.043	5.01227
718.475	13.03135
718.907	28.06918
719.339	-8.01811
719.77	33.07828
720.202	-22.05502
720.634	-6.01469
721.065	25.05834
721.497	45.10871
721.928	-36.0881
722.359	6.01454
722.79	14.03328
723.221	-8.01977
723.652	23.05784
724.083	-11.02467
724.514	44.0997
724.945	3.00698
725.375	9.02091
725.806	16.03905
726.236	81.20267
726.666	3.00703
727.096	3.00729
727.526	65.16469
727.956	-12.02737
728.386	58.13967
728.816	33.08352
729.246	45.10957
729.675	-20.04862
730.105	19.04595
730.534	33.07585
730.964	-9.02231
731.393	25.06046
731.822	57.14318
732.251	36.09012
732.68	14.03204
733.109	31.07551
733.537	34.08215
733.966	87.21247
734.395	6.01376
734.823	22.048
735.251	-9.02149
735.68	30.0729
736.108	25.06165
736.536	5.01159
736.964	3.00689
737.392	18.04444
737.82	-7.01658
738.247	-13.03076
738.675	27.06248
739.102	-21.05213
739.53	63.15917
739.957	18.04612
740.384	10.02379
740.811	-15.03704
741.238	34.08228
741.665	38.0881
742.092	-38.08708
742.519	-16.03955
742.945	64.15265
743.372	12.02953
743.798	6.0152
744.225	-12.02817
744.651	-23.05721
745.077	9.02219
745.503	-10.02393
745.929	44.10491
746.355	-13.03136
746.781	-15.03657
747.207	36.08429
747.632	68.16561
748.058	54.13377
748.483	47.106
748.908	45.11023
749.334	27.06569
749.759	39.09154
750.184	52.12318
750.609	-3.00728
751.033	14.0322
751.458	17.03734
751.883	23.05573
752.307	48.11084
752.732	58.14572
753.156	8.01946
753.58	-13.03037
754.005	7.01734
754.429	33.07713
754.853	15.03693
755.277	22.05157
755.7	47.11449
756.124	-3.00739
756.548	-37.08709
756.971	60.14322
757.394	10.02523
757.818	11.02806
758.241	51.12724
758.664	3.0075
759.087	8.01786
759.51	5.01217
759.933	56.13286
760.356	28.07128
760.778	21.05087
761.201	32.07589
761.623	-12.02824
762.046	8.01841
762.468	79.18384
762.89	7.01683
763.312	56.13429
763.734	39.09236
764.156	33.08011
764.578	18.0403
765	53.12639
765.421	-11.02787
765.843	23.05927
766.264	-4.00934
766.686	-16.03927
767.107	3.00718
767.528	55.13866
767.949	24.05989
768.37	12.02939
768.791	10.02359
769.212	-7.01749
769.632	5.01158
770.053	-26.06738
770.473	8.01898
770.894	-12.02914
771.314	-1.00232
771.734	-11.02533
772.154	32.08005
772.575	38.08554
772.994	-8.01787
773.414	-20.04697
773.834	-22.05422
774.254	52.12379
774.673	79.18818
775.093	36.088
775.512	-22.05388
775.931	32.07968
776.351	17.04177
776.77	16.0387
777.189	42.09756
777.607	47.11738
778.026	31.07574
778.445	17.04252
778.864	3.00748
779.282	-50.1183
779.701	-29.07204
780.119	-16.04014
780.537	-18.04425
780.955	15.03719
781.373	7.01699
781.791	70.15461
782.209	-25.0556
782.627	59.15171
783.045	-6.01341
783.462	17.04263
783.88	7.01786
784.297	16.03953
784.715	25.06332
785.132	16.03771
785.549	14.03431
785.966	41.10076
786.383	63.15162
786.8	10.02274
787.217	69.16038
787.633	39.09617
788.05	8.01819
788.466	1.00228
788.883	11.02783
789.299	-23.05382
789.715	42.09999
790.131	34.08259
790.547	36.08751
790.963	30.07257
791.379	15.03721
791.795	-15.03323
792.21	23.05208
792.626	-4.00923
793.041	-23.05582
793.457	-16.03863
793.872	-32.07348
794.287	26.06166
794.702	-6.01426
795.117	27.06589
795.532	3.00745
795.947	8.01853
796.362	17.0387
796.776	8.01791
797.191	29.0694
797.605	27.06268
798.02	29.06865
798.434	58.12462
798.848	59.14307
799.262	7.01701
799.676	67.158
800.09	37.08847
800.504	37.08678
800.918	-23.05179
801.331	-41.10358
801.745	21.04662
802.158	-12.02916
802.572	70.16382
802.985	14.03265
803.398	44.10132
803.811	-12.02961
804.224	-21.05062
804.637	4.00936
805.05	-11.02473
805.462	71.16717
805.875	-39.10021
806.288	14.0332
806.7	-20.04882
807.112	11.02458
807.525	-28.06674
807.937	-8.01944
808.349	-4.00973
808.761	7.01689
809.173	20.04743
809.584	4.00959
809.996	-33.07936
810.408	10.02556
810.819	-19.04388
811.231	66.17151
811.642	23.05582
812.053	75.17673
812.464	-29.06743
812.875	24.06013
813.286	34.08604
813.697	15.03314
814.108	18.04254
814.519	75.16187
814.929	29.07167
815.34	-40.09435
815.75	26.06495
816.16	-15.0361
816.571	24.06049
816.981	23.05198
817.391	-11.02569
817.801	2.00487
818.211	61.1396
818.62	39.09147
819.03	0
819.44	11.02751
819.849	-20.04882
820.259	30.07372
820.668	26.06242
821.077	55.13342
821.486	-20.04646
821.895	24.05663
822.304	-9.02331
822.713	22.05019
823.122	52.12508
823.531	-32.07316
823.939	61.14396
824.348	5.01175
824.756	3.00728
825.164	24.05832
825.573	-26.06403
825.981	39.09297
826.389	22.05356
826.797	80.19636
827.205	17.03815
827.612	11.02623
828.02	8.01814
828.428	14.03466
828.835	23.05941
829.243	14.03211
829.65	3.00733
830.057	-37.08756
830.464	39.09315
830.871	51.11821
831.278	3.00706
831.685	25.05356
832.092	16.03761
832.499	16.03404
832.905	-5.01226
833.312	-54.11842
833.718	55.13322
834.124	20.04434
834.531	5.01214
834.937	-2.00503
835.343	-14.03264
835.749	1.00223
836.155	8.02043
836.561	22.05256
836.966	6.0142
837.372	7.01725
837.777	13.03161
838.183	44.09331
838.588	28.06786
838.993	60.14059
839.399	7.01673
839.804	1.00238
840.209	4.01005
840.613	6.01289
841.018	45.10945
841.423	14.03497
841.828	9.02227
842.232	-9.02132
842.637	89.20285
843.041	-14.03529
843.445	-19.04619
843.849	-14.03399
844.253	22.05038
844.657	-2.00495
845.061	57.12639
845.465	20.04683
845.869	20.04491
846.272	30.07109
846.676	-26.06025
847.079	26.06471
847.483	18.04341
847.886	24.0559
848.289	19.05008
848.692	-18.04421
849.095	32.07383
849.498	40.0964
849.901	10.02198
850.304	-17.03953
850.707	5.01236
851.109	29.07061
851.512	41.09755
851.914	2.00495
852.316	41.10147
852.718	65.16632
853.121	24.05698
853.523	-35.07932
853.925	31.07938
854.326	39.09496
854.728	11.02763
855.13	25.0633
855.531	25.05792
855.933	-18.04165
856.334	16.03907
856.736	55.11926
857.137	36.08144
857.538	37.0907
857.939	60.14487
858.34	28.06517
858.741	-7.0178
859.142	7.01621
859.542	14.03624
859.943	24.05771
860.343	43.10357
860.744	32.07536
861.144	86.20253
861.544	2.00474
861.945	5.01238
862.345	23.05411
862.745	59.14221
863.145	11.02493
863.544	-14.03466
863.944	4.00916
864.344	22.05215
864.743	36.08607
865.143	30.0754
865.542	-77.17337
865.941	21.05056
866.34	-6.01377
866.74	25.06534
867.139	51.11919
867.537	-15.03687
867.936	32.07469
868.335	43.10537
868.734	11.02738
869.132	-36.08054
869.531	27.06221
869.929	16.03541
870.327	-17.03968
870.726	10.02392
871.124	40.08905
871.522	-10.02474
871.92	-4.0096
872.318	10.0235
872.715	-7.01658
873.113	3.00705
873.511	-15.03629
873.908	17.0424
874.306	34.08246
874.703	8.01922
875.1	6.01469
875.497	1.00232
875.894	72.17253
876.291	28.06656
876.688	10.02512
877.085	-2.00462
877.482	-10.02436
877.878	35.08244
878.275	20.04942
878.671	9.01867
879.068	-3.00703
879.464	9.02106
879.86	30.06836
880.256	-5.01179
880.652	-6.01486
881.048	25.05918
881.444	-19.04331
881.84	-8.01977
882.236	-4.00977
882.631	29.06916
883.027	18.04193
883.422	-44.10959
883.817	10.02461
884.213	32.0795
884.608	73.17562
885.003	-35.08167
885.398	7.01703
885.793	-7.01702
886.188	-8.01932
886.582	31.07613
886.977	3.00684
887.371	22.05346
887.766	8.01944
888.16	-24.05738
888.554	2.00476
888.949	34.08237
889.343	23.05394
889.737	1.00263
890.131	10.02434
890.525	37.09214
890.918	24.05838
891.312	-8.01837
891.706	18.04574
892.099	-5.01234
892.492	38.07781
892.886	26.06125
893.279	16.03942
893.672	27.06704
894.065	23.05579
894.458	2.00483
894.851	19.04465
895.244	-42.10507
895.637	28.0653
896.029	15.03574
896.422	-22.05167
896.814	-29.07014
897.206	-2.00469
897.599	27.06439
897.991	37.08678
898.383	21.048
898.775	67.14609
899.167	32.07301
899.559	24.05821
899.951	5.01129
900.342	-19.04664
900.734	79.19258
901.125	45.1132
901.517	14.03334
901.908	-9.0206
902.299	-16.03822
902.69	40.09163
903.082	66.15301
903.473	55.12854
903.863	16.03933
904.254	50.1127
904.645	-13.03103
905.036	42.10003
905.426	35.0756
905.817	-4.00946
906.207	-64.14784
906.597	35.07961
906.987	18.04483
907.378	5.01236
907.768	25.06437
908.158	-26.06164
908.547	27.0686
908.937	-15.03703
909.327	1.00235
909.717	4.00969
910.106	18.04153
910.495	-18.04323
910.885	35.08586
911.274	15.03624
911.663	2.00488
912.052	-16.03793
912.441	-5.01248
912.83	-22.04865
913.219	19.04804
913.608	70.16485
913.997	-24.05934
914.385	58.1327
914.774	61.14195
915.162	31.07205
915.55	0
915.939	0
916.327	-30.07246
916.715	16.0402
917.103	-1.00234
917.491	69.16278
917.878	58.13638
918.266	-5.01257
918.654	58.14383
919.041	28.07184
919.429	-22.05048
919.816	30.07336
920.203	63.14793
920.591	31.07435
920.978	64.15008
921.365	42.107
921.752	-18.041
922.139	41.08507
922.525	42.09741
922.912	18.04223
923.299	0
923.685	-19.04793
924.072	-26.0567
924.458	21.05056
924.844	38.09067
925.231	-7.01562
925.617	25.06228
926.003	30.07385
926.389	-34.08379
926.774	30.07314
927.16	6.01441
927.546	26.06537
927.931	9.0216
928.317	34.07453
928.702	39.0881
929.088	76.1757
929.473	34.08432
929.858	32.07606
930.243	25.05854
930.628	37.0877
931.013	50.11935
931.398	9.01958
931.783	19.04797
932.167	22.05256
932.552	8.01936
932.937	-19.04561
933.321	14.03435
933.705	-24.0583
934.09	35.0834
934.474	47.10583
934.858	34.08552
935.242	-32.07192
935.626	19.0474
936.009	46.11962
936.393	38.09475
936.777	-26.06549
937.16	1.00255
937.544	-33.07436
937.927	26.06422
938.311	-9.02116
938.694	70.17871
939.077	13.03006
939.46	-12.02794
939.843	12.02336
940.226	-13.0323
940.609	24.05372
940.991	-10.02461
941.374	24.05703
941.757	-30.07186
942.139	47.10139
942.522	31.06991
942.904	13.0302
943.286	25.06117
943.668	57.14385
944.05	18.0429
944.432	-4.00954
944.814	-24.05694
945.196	-27.06473
945.578	0
945.959	-25.05629
946.341	17.03947
946.722	2.00451
947.104	46.10554
947.485	-4.00901
947.866	4.00987
948.247	4.0099
948.628	19.04378
949.009	6.01492
949.39	15.03585
949.771	-3.00657
950.152	22.05221
950.532	58.14115
950.913	30.06952
951.293	14.03717
951.674	11.02572
952.054	55.13362
952.434	19.04569
952.814	2.00454
953.194	-21.0529
953.574	52.12222
953.954	-44.10079
954.334	49.11864
954.714	1.00238
955.093	33.07809
955.473	18.04408
955.853	25.06271
956.232	-4.01069
956.611	38.08624
956.99	-3.00736
957.37	12.02942
957.749	-45.10298
958.128	34.08324
958.506	3.00758
958.885	-17.04161
959.264	41.09808
959.643	55.12038
960.021	26.0627
960.4	42.0909
960.778	7.01641
961.156	-24.05838
961.535	-12.02678
961.913	46.10376
962.291	22.05543
962.669	6.01484
963.047	27.06704
963.424	26.06514
963.802	25.05948
964.18	-17.04113
964.557	22.04841
964.935	9.02055
965.312	32.08115
965.69	0
966.067	-12.02801
966.444	4.00935
966.821	28.06992
967.198	-8.01857
967.575	37.08681
967.952	-3.00681
968.329	19.04495
968.705	97.19739
969.082	64.16016
969.458	62.14453
969.835	8.01883
970.211	36.09029
970.587	34.08178
970.963	19.04673
971.339	12.03059
971.715	44.10595
972.091	21.04985
972.467	-1.00238
972.843	63.15185
973.219	59.13388
973.594	-18.04599
973.97	-54.12201
974.345	42.09698
974.721	-7.01615
975.096	54.12638
975.471	11.02505
975.846	35.08013
976.221	-16.03965
976.596	38.08918
976.971	13.03129
977.346	10.02223
977.72	-40.09912
978.095	-19.04785
978.469	9.02063
978.844	16.03863
979.218	19.04468
979.593	20.04591
979.967	-44.10253
980.341	24.05339
980.715	32.07802
981.089	39.0939
981.463	-14.03113
981.837	9.02156
982.21	-21.04598
982.584	27.06313
982.957	14.03407
983.331	-12.02702
983.704	10.0241
984.078	-30.07191
984.451	-7.01659
984.824	35.08263
985.197	-33.07676
985.57	-53.12794
985.943	-11.02584
986.316	-8.01872
986.688	7.01627
987.061	33.07455
987.434	80.2028
987.806	20.046
988.179	-24.05474
988.551	20.0488
988.923	-21.04997
989.295	26.06228
989.667	-25.05907
990.039	33.08002
990.411	-27.05927
990.783	-6.01314
991.155	-32.0753
991.527	22.0511
991.898	-2.00486
992.27	41.09864
992.641	6.01447
993.012	-44.09803
993.384	-18.04142
993.755	-19.04751
994.126	38.08865
994.497	7.01663
994.868	9.01964
995.239	28.06507
995.61	2.00489
995.98	4.00938
996.351	-8.01939
996.722	31.06991
997.092	1.0023
997.462	36.0818
997.833	-5.01135
998.203	-14.03238
998.573	25.06035
998.943	45.10165
999.313	8.01864
999.683	47.10855
1000.053	-20.04343
1000.423	17.0395
1000.792	-30.07502
1001.162	-55.13146
1001.531	29.06903
1001.901	9.02158
1002.27	-38.08059
1002.639	-23.0568
1003.009	12.02743
1003.378	18.04464
1003.747	37.08317
1004.116	-15.03473
1004.485	33.07567
1004.853	-9.02182
1005.222	-48.11607
1005.591	14.03189
1005.959	-1.00218
1006.328	-28.06138
1006.696	8.01854
1007.064	-39.09479
1007.433	19.04543
1007.801	-26.0609
1008.169	-13.03154
1008.537	12.02546
1008.905	-19.04325
1009.273	32.07539
1009.64	43.09979
1010.008	17.03892
1010.375	49.11164
1010.743	4.00859
1011.11	48.11106
1011.478	48.11493
1011.845	14.03148
1012.212	54.11802
1012.579	57.13426
1012.946	23.05194
1013.313	34.07682
1013.68	20.0428
1014.047	-33.07646
1014.414	7.01591
1014.78	25.06019
1015.147	-16.03701
1015.513	-6.01399
1015.88	42.10252
1016.246	-5.01179
1016.612	12.02614
1016.978	42.09953
1017.344	-25.06026
1017.71	30.06977
1018.076	-20.04515
1018.442	15.03749
1018.808	41.09961
1019.174	-27.06552
1019.539	-29.0617
1019.905	21.04792
1020.27	2.00476
1020.636	41.09273
1021.001	57.13086
1021.366	7.01632
1021.731	67.16776
1022.096	20.04927
1022.461	21.04794
1022.826	30.06908
1023.191	11.02802
1023.556	33.07363
1023.92	31.07251
1024.285	-4.00933
1024.649	20.04688
1025.014	13.03068
1025.378	30.07323
1025.742	4.00952
1026.107	50.10724
1026.471	25.05555
1026.835	-5.01201
1027.199	-1.00233
1027.562	-28.06236
1027.926	33.07697
1028.29	4.00982
1028.654	-20.04428
1029.017	34.0806
1029.381	25.05765
1029.744	23.05671
1030.107	67.15086
1030.471	29.06711
1030.834	-32.06929
1031.197	69.15809
1031.56	14.03158
1031.923	16.04014
1032.286	35.07868
1032.648	-11.02505
1033.011	59.13105
1033.374	15.03347
1033.736	9.02301
1034.099	-12.02838
1034.461	-9.02228
1034.823	6.01453
1035.185	6.01446
1035.548	25.05886
1035.91	20.04596
1036.272	43.094
1036.634	38.08914
1036.995	-6.0135
1037.357	23.0542
1037.719	42.09814
1038.08	100.22677
1038.442	-25.05744
1038.803	-14.03197
1039.165	16.03879
1039.526	14.03264
1039.887	34.07792
1040.248	36.08689
1040.609	-12.0284
1040.97	11.02584
1041.331	41.10065
1041.692	36.08214
1042.053	-1.00218
1042.413	57.12555
1042.774	36.08425
1043.134	10.02259
1043.495	-23.05621
1043.855	53.1245
1044.215	21.04991
1044.576	-2.00466
1044.936	5.01095
1045.296	48.11484
1045.656	11.02573
1046.016	7.01619
1046.375	54.12524
1046.735	12.02667
1047.095	57.12724
1047.454	-15.03013
1047.814	16.03708
1048.173	8.01811
1048.533	26.05704
1048.892	-16.03742
1049.251	43.10278
1049.61	12.02856
1049.969	-22.05005
1050.328	-42.08818
1050.687	-9.02104
1051.046	-9.02112
1051.405	2.00476
1051.763	35.07797
1052.122	-21.05081
1052.48	15.03559
1052.839	75.1708
1053.197	30.06759
1053.555	24.05108
1053.914	43.10042
1054.272	-27.06186
1054.63	20.04725
1054.988	41.09428
1055.345	2.00406
1055.703	30.06947
1056.061	41.10288
1056.419	41.1041
1056.776	4.00919
1057.134	-58.12832
1057.491	20.04834
1057.848	15.03579
1058.206	-43.09662
1058.563	24.05036
1058.92	16.03519
1059.277	39.09233
1059.634	17.03781
1059.991	25.05769
1060.348	4.00873
1060.704	18.04232
1061.061	5.01093
1061.418	23.05375
1061.774	5.01193
1062.131	-5.01308
1062.487	-13.02917
1062.843	-4.00965
1063.199	25.05994
1063.555	31.06951
1063.911	-6.01459
1064.267	-6.01177
1064.623	39.09204
1064.979	-59.13099
1065.335	11.02505
1065.691	-37.08477
1066.046	29.0606
1066.402	-34.07428
1066.757	41.09957
1067.112	-5.01181
1067.468	58.13265
1067.823	-27.06156
1068.178	25.05765
1068.533	63.14562
1068.888	42.0954
1069.243	-16.03832
1069.598	-26.06087
1069.952	26.05743
1070.307	4.00963
1070.662	45.10368
1071.016	57.12339
1071.371	46.10037
1071.725	-12.02747
1072.079	31.07174
1072.434	24.05634
1072.788	-44.10043
1073.142	49.1156
1073.496	4.00912
1073.85	26.05759
1074.203	22.05141
1074.557	78.20172
1074.911	61.13752
1075.265	36.07991
1075.618	37.08678
1075.971	9.02058
1076.325	36.08888
1076.678	-6.01324
1077.031	-64.13792
1077.385	16.03353
1077.738	25.05379
1078.091	10.02208
1078.444	-4.00882
1078.796	-27.06486
1079.149	4.00964
1079.502	10.02294
1079.855	29.0649
1080.207	2.00474
1080.56	12.03026
1080.912	23.05371
1081.264	49.1134
1081.617	15.03539
1081.969	-29.07177
1082.321	31.07239
1082.673	17.0379
1083.025	-13.02961
1083.377	253.54298
1083.728	-1.00223
1084.08	-3.0072
1084.432	2.00463
1084.783	-29.06439
1085.135	41.09927
1085.486	-26.058
1085.838	30.07134
1086.189	3.0071
1086.54	5.01145
1086.891	34.08456
1087.242	49.11645
1087.593	-23.0534
1087.944	29.06342
1088.295	2.00435
1088.646	78.18376
1088.996	14.03273
1089.347	-2.00471
1089.698	-15.03475
1090.048	8.02
1090.398	32.07041
1090.749	-2.00457
1091.099	23.05659
1091.449	21.05067
1091.799	39.09379
1092.149	23.05489
1092.499	1.00236
1092.849	-26.0645
1093.199	50.11894
1093.548	57.13243
1093.898	17.04085
1094.248	1.00246
1094.597	-14.03526
1094.947	9.02338
1095.296	45.10727
1095.645	-30.07578
1095.994	32.07372
1096.343	15.03662
1096.692	30.07761
1097.041	-6.01612
1097.39	-9.02175
1097.739	-5.01262
1098.088	37.09508
1098.437	11.0285
1098.785	-20.05221
1099.134	-46.1176
1099.482	31.08308
1099.83	-4.01023
1100.179	43.11045
1100.527	-28.07181
1100.875	32.08256
1101.223	42.10858
1101.571	-32.08639
1101.919	35.09056
1102.267	-8.02225
1102.615	-4.01286
1102.962	4.01283
1103.31	-3.00964
1103.658	-8.02567
