Data from N1 R2 sample 5_Subt2__3__13-54-40-175.txt Node

Date: Wed Sep 17 13:54:40 PDT 2025
User: uwsun
Spectrometer: HDX01956
Trigger mode: 0
Integration Time (sec): 5.000000E-1
Scans to average: 1
Nonlinearity correction enabled: true
Boxcar width: 0
Storing dark spectrum: false
XAxis mode: Wavelengths
Number of Pixels in Spectrum: 2068
>>>>>Begin Spectral Data<<<<<
194.03	-16.04656
194.578	-4.01301
195.127	-8.02567
195.676	-3.00966
196.225	-8.02139
196.773	-1.0028
197.321	18.05026
197.87	11.02877
198.418	8.02108
198.966	25.06713
199.513	15.039
200.061	3.00781
200.609	2.0054
201.156	-12.02716
201.704	0
202.251	31.08387
202.798	27.07133
203.345	45.11353
203.892	31.07994
204.438	-14.03422
204.985	62.14975
205.532	-6.01616
206.078	9.02253
206.624	63.16058
207.17	82.19499
207.716	2.00504
208.262	34.06933
208.808	3.00774
209.354	42.10598
209.899	-2.00516
210.445	20.0512
210.99	25.06246
211.535	6.01455
212.08	38.09015
212.625	27.06885
213.17	53.13728
213.715	90.2084
214.259	7.01681
214.804	11.02761
215.348	60.1413
215.892	69.17008
216.436	18.04211
216.98	-12.0272
217.524	64.15552
218.068	58.14859
218.612	65.16761
219.155	93.22204
219.698	20.04867
220.242	-16.04053
220.785	80.19016
221.328	12.03028
221.871	91.23359
222.414	48.12034
222.956	-18.04421
223.499	-1.00229
224.041	26.06054
224.583	-15.03257
225.126	48.10695
225.668	32.07901
226.21	41.10528
226.751	76.17116
227.293	-4.00927
227.835	25.06235
228.376	30.06938
228.918	9.02282
229.459	8.02035
230	34.08302
230.541	35.0818
231.082	64.15744
231.622	3.00694
232.163	16.03929
232.704	54.13674
233.244	26.06554
233.784	21.05173
234.324	39.08936
234.864	5.01155
235.404	11.02639
235.944	15.03598
236.484	15.0381
237.023	28.06707
237.563	45.10616
238.102	20.04816
238.641	-3.00769
239.18	12.02875
239.719	13.03311
240.258	38.08673
240.797	44.10656
241.335	31.07647
241.874	66.13054
242.412	81.19826
242.95	14.03452
243.488	-33.07631
244.026	28.06635
244.564	52.10879
245.102	76.17396
245.64	8.01947
246.177	22.04981
246.715	60.14569
247.252	-33.0771
247.789	82.1536
248.326	13.03196
248.863	38.08516
249.4	48.11035
249.936	92.19443
250.473	80.19074
251.009	5.0117
251.546	89.20039
252.082	-27.0601
252.618	44.10002
253.154	46.11224
253.69	6.01377
254.226	37.08999
254.761	66.14979
255.297	27.06012
255.832	50.12054
256.367	24.05742
256.903	35.07932
257.438	73.17255
257.972	42.09505
258.507	28.06538
259.042	56.12358
259.576	101.22499
260.111	35.08167
260.645	35.07703
261.179	53.12586
261.713	57.12944
262.247	42.09733
262.781	23.04962
263.315	-30.0747
263.849	-3.00767
264.382	38.08869
264.915	51.12242
265.449	10.0249
265.982	47.10838
266.515	63.15615
267.048	25.05419
267.58	3.00663
268.113	51.11205
268.646	18.04482
269.178	27.06151
269.71	133.29406
270.243	51.11999
270.775	57.1479
271.307	22.05322
271.838	44.10535
272.37	23.05732
272.902	35.08064
273.433	62.13946
273.965	47.11568
274.496	20.05041
275.027	40.10104
275.558	106.25959
276.089	15.03821
276.62	-14.03608
277.15	1.00251
277.681	2.00442
278.211	9.02238
278.741	61.13746
279.272	5.01173
279.802	32.0808
280.332	33.07933
280.861	33.08017
281.391	41.09481
281.921	-9.02203
282.45	13.03283
282.98	49.12915
283.509	58.13398
284.038	44.10245
284.567	26.06178
285.096	33.08146
285.625	-2.00462
286.153	95.22863
286.682	47.10985
287.21	17.04127
287.739	27.06501
288.267	44.10884
288.795	27.07157
289.323	-1.00241
289.851	69.16436
290.378	1.00229
290.906	40.09952
291.433	20.05079
291.961	42.09779
292.488	75.18759
293.015	27.06508
293.542	74.1921
294.069	83.20752
294.596	23.05724
295.122	27.06609
295.649	36.08038
296.175	46.11236
296.702	99.24367
297.228	50.12209
297.754	33.07582
298.28	24.05652
298.806	54.13205
299.332	66.1501
299.857	34.07895
300.383	53.135
300.908	45.11251
301.433	67.16636
301.958	75.17405
302.483	13.03289
303.008	73.18364
303.533	43.11245
304.058	52.12313
304.582	28.06758
305.107	10.02654
305.631	50.11541
306.155	51.12092
306.679	67.1599
307.203	34.08063
307.727	39.09422
308.251	46.11537
308.775	125.30527
309.298	13.0321
309.822	25.06399
310.345	52.1265
310.868	57.13972
311.391	37.09281
311.914	53.13481
312.437	28.06556
312.96	23.05548
313.482	12.02891
314.005	34.08637
314.527	6.01592
315.049	73.18692
315.571	13.03012
316.093	60.1508
316.615	-6.0148
317.137	71.15757
317.659	46.11345
318.18	12.0293
318.702	60.14317
319.223	52.10859
319.744	69.15816
320.265	47.1167
320.786	60.15232
321.307	7.01772
321.828	56.12895
322.348	80.19096
322.869	117.28083
323.389	103.20568
323.909	45.10509
324.43	65.1578
324.95	34.07979
325.47	84.21089
325.989	59.14264
326.509	47.1079
327.029	52.12151
327.548	35.08138
328.067	64.15807
328.587	110.27805
329.106	34.0786
329.625	72.18961
330.144	95.22403
330.662	100.23788
331.181	143.33892
331.7	16.03825
332.218	84.18584
332.736	57.1363
333.255	69.16562
333.773	30.07265
334.291	70.17789
334.808	53.12246
335.326	43.09915
335.844	96.22924
336.361	110.28565
336.879	73.17522
337.396	108.26606
337.913	96.22538
338.43	62.14317
338.947	61.14881
339.464	89.19604
339.981	81.19538
340.497	74.18492
341.014	88.21767
341.53	79.18188
342.046	127.31971
342.562	117.294
343.078	84.20128
343.594	115.27645
344.11	124.29995
344.626	115.29292
345.141	100.23266
345.657	107.24604
346.172	96.23511
346.687	63.14799
347.202	126.29153
347.717	83.20149
348.232	98.24719
348.747	85.20029
349.261	129.28736
349.776	140.33559
350.29	126.31815
350.805	136.33812
351.319	89.2107
351.833	93.21829
352.347	118.28221
352.861	140.33149
353.374	137.31465
353.888	118.29177
354.401	86.19977
354.915	122.27992
355.428	142.35586
355.941	50.11954
356.454	116.26209
356.967	61.14564
357.48	130.29815
357.993	129.31972
358.505	49.12189
359.018	162.39791
359.53	154.3777
360.042	120.27301
360.554	164.40252
361.066	87.21508
361.578	144.32203
362.09	109.26292
362.602	165.37059
363.113	128.30484
363.625	144.33039
364.136	159.35213
364.647	155.36977
365.158	128.30144
365.669	103.24958
366.18	106.25322
366.691	168.37043
367.201	125.30265
367.712	170.39114
368.222	195.44892
368.733	125.27637
369.243	136.30816
369.753	166.38438
370.263	167.40434
370.773	112.27561
371.282	190.45318
371.792	201.46495
372.301	160.38747
372.811	168.43955
373.32	178.38787
373.829	110.26287
374.338	153.34322
374.847	179.41406
375.356	164.38787
375.865	196.42165
376.373	185.42148
376.882	215.53907
377.39	189.45467
377.898	230.55864
378.407	237.53339
378.915	244.52942
379.423	198.45901
379.93	283.64498
380.438	212.50526
380.946	251.57598
381.453	279.65585
381.96	306.71215
382.468	272.62779
382.975	347.82106
383.482	283.62149
383.989	329.81799
384.495	385.8618
385.002	366.74123
385.509	400.91175
386.015	465.8967
386.521	470.00387
387.028	457.97819
387.534	447.90216
388.04	520.16212
388.546	512.04883
389.051	574.15539
389.557	548.16624
390.063	557.15225
390.568	595.30069
391.073	602.21018
391.578	686.49385
392.084	678.3726
392.589	682.30702
393.093	783.6306
393.598	873.70472
394.103	883.78613
394.607	1053.07459
395.112	1082.16912
395.616	1140.22595
396.12	1259.23016
396.624	1362.44509
397.128	1583.76688
397.632	1655.7664
398.136	1796.81509
398.639	1921.99738
399.143	2122.36888
399.646	2395.29765
400.15	2638.27626
400.653	2986.20855
401.156	3324.10849
401.659	3946.40447
402.162	4672.7148
402.664	6285.54154
403.167	8964.52051
403.67	17145.71026
404.172	54097.90548
404.674	62506.72944
405.176	63738.15102
405.678	63977.72923
406.18	64011.81569
406.682	63863.44694
407.184	63926.60148
407.686	63841.39382
408.187	27115.77179
408.688	15900.49816
409.19	11065.58791
409.691	8908.43381
410.192	7350.09176
410.693	6524.51151
411.194	5796.99177
411.694	5632.38176
412.195	5040.07467
412.696	4620.82711
413.196	4260.30533
413.696	4111.20128
414.196	4168.64258
414.696	4070.44862
415.196	3757.16802
415.696	3430.04421
416.196	2827.33504
416.695	2180.16312
417.195	1908.06703
417.694	1784.46594
418.194	1742.47273
418.693	1568.58098
419.192	1555.66552
419.691	1514.5763
420.19	1472.63674
420.688	1395.60703
421.187	1321.01159
421.685	1261.27747
422.184	1213.25262
422.682	993.77142
423.18	864.68831
423.678	773.5313
424.176	689.38822
424.674	676.32858
425.172	642.34645
425.669	590.30739
426.167	597.24726
426.664	532.10119
427.161	533.11827
427.659	464.04444
428.156	437.86821
428.652	389.92716
429.149	406.92841
429.646	350.74352
430.143	339.77602
430.639	325.73769
431.135	331.79198
431.632	291.64202
432.128	274.63694
432.624	256.64081
433.12	261.57825
433.616	257.548
434.111	229.53098
434.607	225.52604
435.103	245.49993
435.598	218.44473
436.093	195.44605
436.588	210.46323
437.083	170.37641
437.578	196.44572
438.073	216.52818
438.568	222.53314
439.062	101.21686
439.557	148.34243
440.051	131.29266
440.546	105.23825
441.04	181.42699
441.534	111.27773
442.028	169.4007
442.522	145.34406
443.015	106.22706
443.509	141.33895
444.002	110.26749
444.496	96.2083
444.989	140.33559
445.482	100.24626
445.975	139.31809
446.468	110.23756
446.961	151.32422
447.454	112.24996
447.947	136.32103
448.439	92.22481
448.931	132.30019
449.424	121.30471
449.916	132.31834
450.408	82.18754
450.9	73.17715
451.392	73.18489
451.884	71.16339
452.375	78.19251
452.867	101.22601
453.358	85.19444
453.849	98.2091
454.341	78.17616
454.832	79.17087
455.323	119.29321
455.814	46.1058
456.304	61.14145
456.795	71.16222
457.285	28.06228
457.776	82.18648
458.266	90.21253
458.756	54.12776
459.247	96.2281
459.737	94.22601
460.226	113.25547
460.716	84.1999
461.206	81.19294
461.695	16.03979
462.185	91.21476
462.674	60.13733
463.163	73.16369
463.653	124.26136
464.142	124.29656
464.63	50.12118
465.119	59.13724
465.608	122.28238
466.096	31.06782
466.585	52.11898
467.073	14.03328
467.561	67.16021
468.05	55.12667
468.538	67.16302
469.026	44.10447
469.513	47.09965
470.001	108.24561
470.489	80.18913
470.976	97.22483
471.463	45.11194
471.951	62.15342
472.438	43.10113
472.925	46.10842
473.412	32.07779
473.899	17.03928
474.385	45.1101
474.872	76.17633
475.359	63.15432
475.845	22.04602
476.331	26.05579
476.817	58.14072
477.303	80.18488
477.789	21.05023
478.275	55.13607
478.761	51.12092
479.247	30.06726
479.732	28.06999
480.218	65.16935
480.703	18.04451
481.188	76.16399
481.673	32.07386
482.158	16.03492
482.643	74.18772
483.128	42.09814
483.612	82.19416
484.097	12.02909
484.581	61.14083
485.066	81.19701
485.55	54.11957
486.034	53.11507
486.518	96.22775
487.002	3.00734
487.486	17.04144
487.969	-20.04914
488.453	2.00501
488.936	21.04759
489.42	63.13918
489.903	7.01751
490.386	-65.13818
490.869	47.10326
491.352	-6.01456
491.835	35.07204
492.318	-15.03417
492.8	38.07914
493.283	46.11719
493.765	-12.0297
494.247	23.0538
494.73	44.09763
495.212	19.04524
495.694	60.14114
496.175	12.02903
496.657	77.18123
497.139	6.01047
497.62	4.0097
498.102	45.11194
498.583	-3.00742
499.064	76.1687
499.545	38.08684
500.026	52.11773
500.507	17.03939
500.988	80.19854
501.469	-2.00502
501.949	78.19124
502.43	68.16325
502.91	101.21256
503.39	47.11632
503.87	30.0712
504.35	39.09136
504.83	19.04187
505.31	82.19619
505.79	-5.01193
506.269	21.04846
506.749	49.112
507.228	86.20103
507.707	116.25567
508.187	125.29432
508.666	138.33608
509.145	55.12849
509.623	93.2159
510.102	138.32802
510.581	174.40976
511.059	171.42056
511.538	185.4647
512.016	164.38441
512.494	207.48225
512.972	206.4785
513.45	214.4833
513.928	188.44514
514.406	243.57435
514.884	236.58799
515.361	312.7092
515.839	330.71844
516.316	364.83239
516.793	358.85248
517.27	368.83104
517.747	362.87685
518.224	408.87314
518.701	409.83722
519.178	382.89773
519.654	410.90318
520.131	414.95621
520.607	361.83001
521.083	379.80179
521.56	388.85437
522.036	437.87469
522.512	416.95739
522.987	435.97168
523.463	381.84547
523.939	416.96312
524.414	374.80073
524.89	349.78541
525.365	290.62386
525.84	322.73429
526.315	310.71434
526.79	299.64114
527.265	285.62878
527.74	256.59721
528.215	225.507
528.689	203.43135
529.164	170.3558
529.638	183.45239
530.112	168.38623
530.587	212.43898
531.061	190.44796
531.534	167.39366
532.008	202.47754
532.482	159.358
532.956	152.38051
533.429	176.42091
533.903	116.25116
534.376	147.31903
534.849	63.14464
535.322	146.33834
535.795	88.21102
536.268	113.27051
536.741	100.23523
537.213	114.25904
537.686	96.23301
538.158	95.2146
538.631	99.23772
539.103	56.12663
539.575	56.11549
540.047	104.2247
540.519	87.2066
540.991	78.18932
541.463	39.09407
541.934	35.07948
542.406	53.12746
542.877	52.11759
543.348	76.18287
543.82	53.12891
544.291	47.11002
544.762	64.15224
545.233	106.26622
545.703	29.06503
546.174	69.15981
546.645	38.09234
547.115	75.18057
547.585	45.10389
548.056	85.20821
548.526	39.09308
548.996	20.0482
549.466	49.11936
549.935	37.08891
550.405	32.07091
550.875	43.10258
551.344	36.0863
551.814	27.06241
552.283	35.07706
552.752	38.08967
553.221	73.1614
553.69	72.16294
554.159	71.17662
554.628	26.05958
555.096	-5.01287
555.565	18.04029
556.033	46.11027
556.502	43.10423
556.97	33.07412
557.438	8.01901
557.906	17.04053
558.374	54.12574
558.842	37.08918
559.31	19.04304
559.777	26.06405
560.245	56.12885
560.712	7.01624
561.18	53.11792
561.647	2.0045
562.114	35.08084
562.581	35.08659
563.048	20.04629
563.514	23.05815
563.981	16.03706
564.448	12.02747
564.914	23.0539
565.381	57.1307
565.847	28.06574
566.313	0
566.779	14.03189
567.245	-4.00939
567.711	34.08187
568.176	20.04537
568.642	44.1111
569.108	36.08892
569.573	49.1138
570.038	54.11352
570.504	80.18053
570.969	10.025
571.434	91.20145
571.899	38.09057
572.363	97.22135
572.828	143.32408
573.293	84.19204
573.757	139.31834
574.222	102.22736
574.686	134.30449
575.15	118.28135
575.614	175.40497
576.078	120.27886
576.542	95.21556
577.006	107.24023
577.469	134.32512
577.933	148.33234
578.396	103.24252
578.86	122.28418
579.323	129.30728
579.786	121.26025
580.249	166.38407
580.712	83.20104
581.175	98.23991
581.637	92.20905
582.1	89.19349
582.563	83.17621
583.025	78.18932
583.487	141.28667
583.95	55.1185
584.412	142.29443
584.874	113.27309
585.336	78.18469
585.797	113.24409
586.259	94.21887
586.721	75.17577
587.182	93.21342
587.643	98.2216
588.105	90.2117
588.566	104.21583
589.027	110.26719
589.488	118.26846
589.949	122.29311
590.41	127.24937
590.87	113.25672
591.331	127.27492
591.791	89.20547
592.252	91.21126
592.712	88.20998
593.172	103.23305
593.632	156.34138
594.092	86.1913
594.552	71.15416
595.011	63.14458
595.471	127.28501
595.931	126.28166
596.39	96.22924
596.849	110.25421
597.308	94.19961
597.768	118.30125
598.227	83.19877
598.685	79.17984
599.144	86.20214
599.603	58.1359
600.062	94.19761
600.52	55.1248
600.978	75.17694
601.437	81.18387
601.895	115.24468
602.353	37.08194
602.811	52.11787
603.269	6.01443
603.727	43.10364
604.184	68.15514
604.642	62.15235
605.099	91.21168
605.557	89.21525
606.014	52.11264
606.471	60.15048
606.928	83.18428
607.385	17.0429
607.842	52.11969
608.299	57.13348
608.755	36.08761
609.212	41.09209
609.668	71.16026
610.125	52.1255
610.581	65.15233
611.037	18.04075
611.493	-4.00946
611.949	55.13412
612.405	82.16698
612.861	38.08782
613.316	17.04105
613.772	47.10803
614.227	46.11085
614.683	59.12537
615.138	-1.00237
615.593	45.10476
616.048	74.1689
616.503	35.08525
616.958	38.09537
617.412	73.17282
617.867	20.04517
618.321	32.06659
618.776	15.03337
619.23	27.0636
619.684	50.11177
620.138	50.11454
620.592	17.04149
621.046	72.16956
621.5	15.03633
621.954	-6.01344
622.407	45.09974
622.861	17.0415
623.314	-1.00229
623.768	66.15543
624.221	25.04964
624.674	65.14977
625.127	38.08855
625.58	24.05418
626.033	36.07898
626.485	48.11475
626.938	26.06216
627.39	29.06807
627.843	74.16972
628.295	27.06251
628.747	39.09311
629.199	36.08217
629.651	18.04151
630.103	30.06905
630.555	5.01064
631.006	9.02107
631.458	42.09883
631.909	8.01805
632.361	4.0093
632.812	50.11559
633.263	66.14272
633.714	17.03623
634.165	26.06247
634.616	13.03088
635.067	53.1165
635.518	46.10888
635.968	3.00596
636.419	43.094
636.869	65.15311
637.319	43.09975
637.769	47.10561
638.219	54.12697
638.669	-12.02879
639.119	-21.05077
639.569	0
640.019	72.16526
640.468	13.02932
640.918	-22.05274
641.367	24.05392
641.816	24.05354
642.265	36.08405
642.714	26.05977
643.163	55.12678
643.612	46.11253
644.061	29.06227
644.51	49.11218
644.958	39.08623
645.406	28.06702
645.855	22.05352
646.303	43.09927
646.751	39.09029
647.199	45.1019
647.647	11.02569
648.095	15.03437
648.543	26.05299
648.99	59.14113
649.438	43.09931
649.885	35.08722
650.333	59.11432
650.78	29.07016
651.227	76.18454
651.674	8.01838
652.121	42.1029
652.568	41.10032
653.015	2.00497
653.461	62.14664
653.908	24.05524
654.354	37.08803
654.801	12.02827
655.247	28.06078
655.693	-13.03402
656.139	28.06686
656.585	30.07167
657.031	-8.01896
657.477	31.06791
657.922	3.00686
658.368	30.07369
658.813	-25.05751
659.259	36.08722
659.704	54.12757
660.149	-20.04661
660.594	60.14163
661.039	25.0571
661.484	28.06635
661.929	29.0678
662.373	-3.00757
662.818	49.12065
663.262	18.04362
663.707	33.08382
664.151	71.17165
664.595	-13.03169
665.039	11.02736
665.483	26.0661
665.927	37.08668
666.371	36.08465
666.814	-3.00717
667.258	70.16741
667.701	27.05767
668.145	83.20429
668.588	62.15257
669.031	41.0962
669.474	8.01926
669.917	20.04393
670.36	14.035
670.803	60.14405
671.245	-38.079
671.688	51.12344
672.13	13.02952
672.573	80.19977
673.015	44.10571
673.457	42.09121
673.899	70.1678
674.341	12.02896
674.783	7.01683
675.225	40.09811
675.666	45.1097
676.108	4.00869
676.549	29.06746
676.991	64.1394
677.432	31.06156
677.873	19.04341
678.314	-6.01435
678.755	97.23575
679.196	14.03206
679.637	-10.02405
680.078	49.1138
680.518	15.03446
680.959	38.09008
681.399	17.04204
681.839	64.15388
682.28	29.07188
682.72	6.01376
683.16	50.1239
683.6	72.16201
684.039	29.05979
684.479	49.1202
684.919	60.14004
685.358	2.00498
685.798	16.04156
686.237	30.07128
686.676	-22.05013
687.115	62.1447
687.554	54.12821
687.993	74.16173
688.432	50.11325
688.871	61.13858
689.309	50.11903
689.748	39.08074
690.186	21.04898
690.625	44.10269
691.063	29.06889
691.501	62.15173
691.939	61.15207
692.377	3.00727
692.815	83.20013
693.253	30.07104
693.69	17.03716
694.128	22.05324
694.565	-7.01662
695.003	57.14421
695.44	59.13832
695.877	58.1351
696.314	20.04199
696.751	42.09443
697.188	48.11035
697.625	59.13045
698.061	11.02628
698.498	6.01416
698.934	5.01193
699.371	31.07254
699.807	38.089
700.243	40.09574
700.679	40.08842
701.115	27.06261
701.551	-21.04895
701.987	30.06507
702.422	57.13452
702.858	79.1855
703.294	57.12923
703.729	30.07243
704.164	28.06638
704.599	98.21446
705.035	16.03577
705.47	25.0603
705.904	48.10996
706.339	74.16713
706.774	39.0905
707.209	39.09
707.643	48.11357
708.078	36.08676
708.512	14.03493
708.946	17.04003
709.38	36.08478
709.814	43.09626
710.248	83.19945
710.682	109.25595
711.116	61.14664
711.549	-11.02803
711.983	-5.01153
712.416	59.13816
712.85	14.03445
713.283	24.05623
713.716	22.05408
714.149	-24.05564
714.582	69.15249
715.015	36.08731
715.448	97.23918
715.881	67.14125
716.313	37.08549
716.746	72.16751
717.178	29.06911
717.61	65.16275
718.043	-4.00984
718.475	74.17637
718.907	69.1692
719.339	45.10078
719.77	55.1299
720.202	15.03726
720.634	100.23998
721.065	40.09306
721.497	28.06786
721.928	3.00729
722.359	38.09151
722.79	25.0593
723.221	17.04181
723.652	39.09779
724.083	-10.02242
724.514	76.17109
724.945	32.07404
725.375	65.14935
725.806	10.02444
726.236	43.10833
726.666	85.19585
727.096	70.16786
727.526	70.1772
727.956	79.17686
728.386	39.09425
728.816	75.1884
729.246	79.19114
729.675	-10.02426
730.105	35.08439
730.534	32.07357
730.964	14.03455
731.393	24.05806
731.822	60.15064
732.251	29.07269
732.68	21.048
733.109	31.07551
733.537	105.2503
733.966	103.2508
734.395	57.12939
734.823	37.08047
735.251	44.10398
735.68	5.01221
736.108	13.03213
736.536	38.08754
736.964	62.14071
737.392	48.11786
737.82	45.1055
738.247	48.11225
738.675	56.12885
739.102	-22.05462
739.53	69.17414
739.957	69.17519
740.384	13.03091
740.811	-42.10423
741.238	61.14686
741.665	99.22674
742.092	-36.08247
742.519	47.11483
742.945	86.20426
743.372	59.14393
743.798	29.07316
744.225	35.08141
744.651	16.03952
745.077	19.04676
745.503	36.08541
745.929	72.17075
746.355	25.05987
746.781	23.05567
747.207	55.12829
747.632	63.15357
748.058	81.19966
748.483	38.08586
748.908	40.09807
749.334	47.11393
749.759	67.1564
750.184	66.15592
750.609	48.11532
751.033	48.10965
751.458	32.07006
751.883	49.11815
752.307	31.07183
752.732	92.22973
753.156	40.09672
753.58	45.10393
754.005	53.13021
754.429	40.09336
754.853	70.1706
755.277	36.08415
755.7	41.09998
756.124	27.06616
756.548	20.04655
756.971	64.15265
757.394	35.08792
757.818	33.08385
758.241	73.1814
758.664	-9.02253
759.087	45.0997
759.51	-13.03176
759.933	30.07153
760.356	83.20924
760.778	42.10133
761.201	17.04043
761.623	21.0491
762.046	24.05504
762.468	95.22037
762.89	43.1027
763.312	54.12954
763.734	50.11816
764.156	45.109
764.578	80.17684
765	81.19213
765.421	14.03531
765.843	16.04128
766.264	23.05344
766.686	34.08268
767.107	47.11153
767.528	44.11114
767.949	31.07726
768.37	74.17914
768.791	26.06114
769.212	36.08924
769.632	55.12612
770.053	27.06933
770.473	-1.00238
770.894	10.02418
771.314	15.03473
771.734	44.10023
772.154	42.10488
772.575	41.09224
772.994	22.04883
773.414	-4.00937
773.834	-4.00983
774.254	17.04074
774.673	87.20692
775.093	58.1412
775.512	8.01948
775.931	46.11424
776.351	44.10756
776.77	43.10349
777.189	12.02804
777.607	50.12481
778.026	9.02208
778.445	31.07734
778.864	16.03978
779.282	5.0117
779.701	5.01234
780.119	-11.02757
780.537	-32.07886
780.955	19.04708
781.373	5.01214
781.791	56.12405
782.209	20.04406
782.627	39.10063
783.045	-19.04257
783.462	30.07505
783.88	24.06106
784.297	40.0984
784.715	34.08598
785.132	-20.04747
785.549	28.06845
785.966	21.0518
786.383	53.1278
786.8	23.05217
787.217	50.11665
787.633	14.03468
788.05	36.08141
788.466	25.0567
788.883	34.08567
789.299	0
789.715	60.14235
790.131	59.14264
790.547	37.08992
790.963	14.03397
791.379	36.08895
791.795	11.02424
792.21	50.1126
792.626	8.01841
793.041	33.07924
793.457	10.02403
793.872	-6.01371
794.287	34.08051
794.702	-29.06921
795.117	5.01225
795.532	25.0618
795.947	6.0139
796.362	-10.02289
796.776	42.09335
797.191	12.02881
797.605	18.04186
798.02	10.02376
798.434	72.15423
798.848	64.15505
799.262	10.02429
799.676	60.14169
800.09	15.03602
800.504	4.00944
800.918	15.03351
801.331	-19.04781
801.745	18.03999
802.158	-34.08296
802.572	65.15227
802.985	23.05354
803.398	36.08303
803.811	-13.03208
804.224	-6.01442
804.637	19.04432
805.05	-8.01797
805.462	44.10415
805.875	2.0051
806.288	33.07797
806.7	-14.03413
807.112	7.01566
807.525	-34.08113
807.937	-45.1101
808.349	14.03394
808.761	44.10543
809.173	24.05687
809.584	12.02873
809.996	-12.02874
810.408	26.06626
810.819	30.06861
811.231	39.10182
811.642	22.0534
812.053	40.0949
812.464	-9.02084
812.875	3.00754
813.286	36.09107
813.697	42.09226
814.108	38.08946
814.519	36.07835
814.929	21.05197
815.34	-44.10386
815.75	33.08233
816.16	-19.04576
816.571	-7.01774
816.981	14.0317
817.391	-7.01633
817.801	24.05825
818.211	7.01619
818.62	7.01652
819.03	-6.01432
819.44	-28.07053
819.849	-26.06353
820.259	-23.05707
820.668	7.01687
821.077	29.07069
821.486	-1.00231
821.895	-30.07153
822.304	23.05925
822.713	29.06607
823.122	-1.00243
823.531	-8.0182
823.939	17.04046
824.348	10.02348
824.756	25.06042
825.164	34.08246
825.573	27.06584
825.981	56.13306
826.389	63.1522
826.797	59.14538
827.205	14.03144
827.612	61.14408
828.02	-20.04561
828.428	16.03959
828.835	-11.02858
829.243	30.06858
829.65	1.00245
830.057	2.0047
830.464	53.12625
830.871	50.11592
831.278	22.05159
831.685	6.01291
832.092	-26.06161
832.499	69.14508
832.905	-23.05659
833.312	-31.06765
833.718	38.09234
834.124	37.08174
834.531	23.05565
834.937	58.14425
835.343	9.02089
835.749	28.06213
836.155	31.07885
836.561	33.07867
836.966	19.04484
837.372	23.05651
837.777	15.03646
838.183	12.02563
838.588	29.07027
838.993	23.05428
839.399	-2.00479
839.804	-19.04536
840.209	14.03512
840.613	-35.07586
841.018	0
841.423	-7.01755
841.828	21.05186
842.232	4.00945
842.637	33.07607
843.041	-12.03024
843.445	7.01694
843.849	41.09852
844.253	52.11835
844.657	17.04189
845.061	74.16351
845.465	27.06313
845.869	29.065
846.272	-17.04065
846.676	-30.06958
847.079	46.11408
847.483	39.09368
847.886	-1.00234
848.289	26.06845
848.692	-1.00245
849.095	41.09443
849.498	27.06523
849.901	14.03074
850.304	32.07369
850.707	14.03454
851.109	54.13087
851.512	-13.03125
851.914	11.02717
852.316	83.20383
852.718	51.13082
853.121	3.00715
853.523	12.02694
853.925	24.06153
854.326	38.09255
854.728	13.03264
855.13	54.13601
855.531	19.04407
855.933	22.0505
856.334	34.08274
856.736	22.04804
857.137	94.21013
857.538	33.08095
857.939	58.14009
858.34	10.02336
858.741	40.10086
859.142	1.00232
859.542	34.08772
859.943	33.07921
860.343	-4.00972
860.744	41.09639
861.144	52.12327
861.544	1.00237
861.945	-27.06724
862.345	12.02829
862.745	49.11833
863.145	11.02493
863.544	47.11504
863.944	37.08413
864.344	-20.0478
864.743	81.19198
865.143	12.03026
865.542	-2.00443
865.941	-4.00968
866.34	-4.00917
866.74	19.04971
867.139	49.11457
867.537	-17.0418
867.936	13.03045
868.335	36.08833
868.734	29.07196
869.132	-5.01111
869.531	13.03004
869.929	26.05743
870.327	4.0093
870.726	39.09276
871.124	17.03803
871.522	-4.00989
871.92	52.12341
872.318	5.01176
872.715	17.04009
873.113	-2.0047
873.511	-34.08256
873.908	23.0573
874.306	46.11132
874.703	26.06225
875.1	-41.10125
875.497	-1.00232
875.894	45.10838
876.291	-14.03355
876.688	-1.00252
877.085	51.11657
877.482	-15.03658
877.878	79.18449
878.275	19.04695
878.671	-17.03548
879.068	29.06748
879.464	51.11835
879.86	8.01831
880.256	-8.01887
880.652	21.05174
881.048	-50.12008
881.444	12.02718
881.84	-23.05701
882.236	30.07282
882.631	47.1117
883.027	36.08356
883.422	-26.06455
883.817	23.05646
884.213	19.04732
884.608	59.14232
885.003	-35.08167
885.398	-10.02441
885.793	-13.03164
886.188	8.01926
886.582	1.00247
886.977	1.00228
887.371	1.00244
887.766	27.06537
888.16	-18.04298
888.554	43.10156
888.949	37.08959
889.343	19.0446
889.737	-6.01578
890.131	23.05586
890.525	40.09956
890.918	11.02682
891.312	-9.02067
891.706	19.04828
892.099	-5.01234
892.492	36.07374
892.886	-4.00948
893.279	10.02466
893.672	50.12363
894.065	37.08952
894.458	4.00966
894.851	49.11448
895.244	-27.06736
895.637	79.18239
896.029	62.14641
896.422	-29.0682
896.814	9.02161
897.206	-10.02349
897.599	25.05964
897.991	42.09841
898.383	26.05937
898.775	62.13533
899.167	28.06393
899.559	24.05821
899.951	1.00226
900.342	4.00978
900.734	51.12497
901.125	5.01267
901.517	1.00239
901.908	13.02963
902.299	36.08514
902.69	34.07798
903.082	49.11398
903.473	31.07279
903.863	36.08817
904.254	31.07014
904.645	26.06159
905.036	31.07398
905.426	15.03254
905.817	-30.07131
906.207	-23.0527
906.597	27.06151
906.987	2.005
907.378	57.13952
907.768	16.04126
908.158	49.11448
908.547	53.13404
908.937	-22.05438
909.327	22.05145
909.717	-9.02185
910.106	-15.03484
910.495	11.02627
910.885	64.15616
911.274	24.05788
911.663	-22.05394
912.052	-19.04507
912.441	25.06205
912.83	25.05474
913.219	30.0757
913.608	52.12289
913.997	6.01475
914.385	29.06674
914.774	38.08883
915.162	38.0882
915.55	-3.00698
915.939	-12.02976
916.327	-5.01202
916.715	54.13475
917.103	9.02104
917.491	41.09725
917.878	0
918.266	-17.04283
918.654	26.06485
919.041	22.0565
919.429	9.02052
919.816	13.03189
920.203	33.07794
920.591	38.09102
920.978	41.09657
921.365	22.05624
921.752	-9.02046
922.139	32.06653
922.525	29.06743
922.912	3.00706
923.299	35.08404
923.685	-9.02266
924.072	-12.02609
924.458	44.10547
924.844	18.04312
925.231	-30.06726
925.617	-6.01503
926.003	9.02224
926.389	-10.02454
926.774	21.05129
927.16	18.04313
927.546	69.17214
927.931	12.02879
928.317	11.02423
928.702	79.177
929.088	68.15746
929.473	49.12118
929.858	69.16284
930.243	43.10034
930.628	39.0924
931.013	36.08616
931.398	23.0499
931.783	41.1031
932.167	50.1188
932.552	4.00969
932.937	15.03577
933.321	15.0368
933.705	-21.05098
934.09	17.04065
934.474	4.00909
934.858	21.05294
935.242	-20.04484
935.626	-19.04773
936.009	39.10154
936.393	58.1441
936.777	39.09709
937.16	26.06612
937.544	-29.0653
937.927	22.05438
938.311	27.06303
938.694	41.10521
939.077	18.04158
939.46	7.01624
939.843	-1.00195
940.226	-34.08481
940.609	23.05149
940.991	-23.05674
941.374	73.17182
941.757	11.02614
942.139	-7.01528
942.522	17.03845
942.904	5.01164
943.286	-10.02463
943.668	67.16879
944.05	15.03577
944.432	-45.10814
944.814	8.01886
945.196	38.08998
945.578	58.13452
945.959	-36.08124
946.341	11.02557
946.722	59.13143
947.104	19.04383
947.485	54.12022
947.866	14.03449
948.247	27.06655
948.628	-13.03014
949.009	28.06936
949.39	2.00479
949.771	-4.00876
950.152	41.09695
950.532	28.06852
950.913	15.03486
951.293	19.0504
951.674	-13.03054
952.054	55.13362
952.434	24.05766
952.814	7.01588
953.194	13.03255
953.574	14.03315
953.954	-13.02959
954.334	55.13302
954.714	6.01424
955.093	53.12494
955.473	40.09756
955.853	6.0151
956.232	23.06117
956.611	20.04556
956.99	-20.04922
957.37	17.04164
957.749	-12.02728
958.128	36.0881
958.506	19.0479
958.885	14.03407
959.264	52.12413
959.643	52.11389
960.021	75.1792
960.4	7.01526
960.778	52.12084
961.156	-11.02669
961.535	1.00223
961.913	50.1127
962.291	25.06296
962.669	38.09341
963.047	77.18945
963.424	46.11482
963.802	24.05711
964.18	-12.02901
964.557	10.02206
964.935	20.04558
965.312	49.12388
965.69	-3.00721
966.067	-39.09151
966.444	-1.00234
966.821	35.08729
967.198	30.06911
967.575	19.04474
967.952	28.06319
968.329	56.13152
968.705	58.11908
969.082	58.1453
969.458	28.06571
969.835	6.01412
970.211	22.05531
970.587	19.04583
970.963	1.00247
971.339	30.07624
971.715	12.02907
972.091	20.04749
972.467	-8.01907
972.843	55.13277
973.219	41.09337
973.594	-34.08711
973.97	-28.06293
974.345	51.11756
974.721	16.03676
975.096	16.03772
975.471	32.07257
975.846	25.05735
976.221	24.05904
976.596	79.18391
976.971	79.18775
977.346	70.15364
977.72	39.09525
978.095	11.02755
978.469	-11.02531
978.844	65.15548
979.218	76.17675
979.593	17.03904
979.967	-3.00693
980.341	39.08648
980.715	48.11668
981.089	34.08194
981.463	20.04415
981.837	62.14703
982.21	5.01089
982.584	25.05847
982.957	5.01219
983.331	-40.0906
983.704	46.1101
984.078	35.08286
984.451	16.03775
984.824	-6.01428
985.197	-18.04175
985.57	-30.07211
985.943	9.02106
986.316	-7.01637
986.688	50.11523
987.061	62.13923
987.434	58.1476
987.806	-20.04637
988.179	-21.04786
988.551	44.10688
988.923	29.06834
989.295	33.07894
989.667	0
990.039	15.0365
990.411	-24.05265
990.783	30.06521
991.155	-40.09427
991.527	6.01398
991.898	31.07489
992.27	10.0242
992.641	48.11484
993.012	-27.05995
993.384	19.04339
993.755	54.13323
994.126	46.10715
994.497	15.03558
994.868	6.0131
995.239	0
995.61	18.04385
995.98	-21.04948
996.351	36.08653
996.722	30.06767
997.092	-3.00692
997.462	40.09082
997.833	17.0384
998.203	9.02072
998.573	33.07954
998.943	52.1173
999.313	63.14521
999.683	5.01164
1000.053	-46.10045
1000.423	45.10397
1000.792	-2.00498
1001.162	1.00236
1001.531	66.15598
1001.901	16.03831
1002.27	-30.06351
1002.639	-13.03204
1003.009	27.06154
1003.378	2.00497
1003.747	22.04961
1004.116	11.02533
1004.485	7.01614
1004.853	-24.05834
1005.222	-24.05777
1005.591	45.10186
1005.959	12.02614
1006.328	29.0628
1006.696	5.01159
1007.064	26.06242
1007.433	0
1007.801	16.03717
1008.169	9.02174
1008.537	45.09479
1008.905	28.06314
1009.273	6.01421
1009.64	22.05127
1010.008	45.10244
1010.375	68.15433
1010.743	12.02573
1011.11	62.14305
1011.478	7.01689
1011.845	45.10053
1012.212	75.16319
1012.579	41.09688
1012.946	30.06764
1013.313	28.06334
1013.68	40.08524
1014.047	26.05954
1014.414	-10.02281
1014.78	27.06498
1015.147	27.06191
1015.513	-16.03739
1015.88	20.04902
1016.246	8.01881
1016.612	28.06078
1016.978	42.09953
1017.344	31.07393
1017.71	72.16606
1018.076	-4.009
1018.442	30.07478
1018.808	38.09237
1019.174	-21.0509
1019.539	-42.08962
1019.905	-18.0414
1020.27	9.02141
1020.636	0
1021.001	44.10128
1021.366	-15.03511
1021.731	75.18752
1022.096	22.05418
1022.461	29.0661
1022.826	56.12828
1023.191	45.11393
1023.556	30.06698
1023.92	-31.07339
1024.285	-7.01634
1024.649	-11.02594
1025.014	5.01182
1025.378	12.02939
1025.742	-2.00476
1026.107	29.06248
1026.471	37.08201
1026.835	40.09526
1027.199	-5.01168
1027.562	6.01327
1027.926	23.05375
1028.29	27.06599
1028.654	5.01101
1029.017	33.07824
1029.381	7.0162
1029.744	45.11051
1030.107	53.11968
1030.471	64.14708
1030.834	15.03215
1031.197	79.18064
1031.56	0
1031.923	12.03013
1032.286	48.10761
1032.648	-21.04792
1033.011	47.10465
1033.374	68.15006
1033.736	-10.02565
1034.099	44.10294
1034.461	66.16116
1034.823	12.02903
1035.185	28.06722
1035.548	19.04479
1035.91	-6.01386
1036.272	67.14572
1036.634	40.0938
1036.995	6.01346
1037.357	43.10093
1037.719	28.06561
1038.08	66.1507
1038.442	-31.07131
1038.803	37.08362
1039.165	-33.08074
1039.526	-3.00702
1039.887	47.10743
1040.248	61.14653
1040.609	-11.02603
1040.97	-9.02122
1041.331	38.09334
1041.692	30.06853
1042.053	2.00435
1042.413	38.08403
1042.774	56.13055
1043.134	2.00452
1043.495	56.13485
1043.855	60.14075
1044.215	11.02619
1044.576	-5.01165
1044.936	35.07615
1045.296	38.09109
1045.656	-2.00469
1046.016	-8.01855
1046.375	19.04437
1046.735	51.11243
1047.095	26.05841
1047.454	9.01798
1047.814	7.01625
1048.173	-5.01135
1048.533	29.06358
1048.892	-28.06563
1049.251	-12.02898
1049.61	22.05225
1049.969	31.06977
1050.328	1.00208
1050.687	-17.03981
1051.046	18.04201
1051.405	-9.02147
1051.763	8.01792
1052.122	-54.13146
1052.48	38.08977
1052.839	41.09401
1053.197	-15.03411
1053.555	-10.02144
1053.914	11.02585
1054.272	-49.11276
1054.63	2.00474
1054.988	19.04388
1055.345	-21.04285
1055.703	59.13583
1056.061	34.08542
1056.419	7.01788
1056.776	-18.04151
1057.134	-15.03289
1057.491	35.08436
1057.848	31.07373
1058.206	-18.04024
1058.563	-18.03812
1058.92	35.07667
1059.277	39.09233
1059.634	11.02449
1059.991	58.13297
1060.348	8.01745
1060.704	63.14684
1061.061	19.04143
1061.418	29.0677
1061.774	-24.0576
1062.131	71.18333
1062.487	-31.06983
1062.843	30.07191
1063.199	-1.00241
1063.555	31.06951
1063.911	-15.03654
1064.267	65.12534
1064.623	26.06152
1064.979	-38.084
1065.335	-9.02058
1065.691	-29.06634
1066.046	4.00841
1066.402	-52.11403
1066.757	48.11642
1067.112	14.03294
1067.468	23.05297
1067.823	-34.07764
1068.178	-16.0372
1068.533	6.01403
1068.888	23.05244
1069.243	25.05941
1069.598	5.01164
1069.952	49.1077
1070.307	9.02165
1070.662	54.1242
1071.016	33.0718
1071.371	75.16263
1071.725	38.0861
1072.079	3.00698
1072.434	8.01884
1072.788	-15.03404
1073.142	95.22211
1073.496	-4.00913
1073.85	-13.02903
1074.203	26.06071
1074.557	17.04443
1074.911	21.04773
1075.265	0
1075.618	44.10306
1075.971	-23.05293
1076.325	49.12069
1076.678	-17.0376
1077.031	-2.00425
1077.385	6.0126
1077.738	-2.00433
1078.091	11.02428
1078.444	-25.05539
1078.796	5.01194
1079.149	36.08626
1079.502	5.01148
1079.855	27.06044
1080.207	-13.03091
1080.56	23.05788
1080.912	12.02808
1081.264	21.04887
1081.617	17.04009
1081.969	23.05638
1082.321	9.02111
1082.673	33.07333
1083.025	-12.02732
1083.377	14.03159
1083.728	25.05553
1084.08	1.0024
1084.432	11.02544
1084.783	1.00221
1085.135	34.08243
1085.486	-6.01333
1085.838	10.02387
1086.189	35.08235
1086.54	44.09994
1086.891	25.06228
1087.242	52.12351
1087.593	25.05749
1087.944	10.02196
1088.295	96.20484
1088.646	69.16284
1088.996	6.01405
1089.347	0
1089.698	4.00923
1090.048	-8.02006
1090.398	11.02431
1090.749	-17.03897
1091.099	35.08592
1091.449	22.05308
1091.799	31.07466
1092.149	18.043
1092.499	-9.02127
1092.849	10.02464
1093.199	39.09297
1093.548	18.04214
1093.898	5.01204
1094.248	-13.03211
1094.597	43.1072
1094.947	23.05962
1095.296	55.13086
1095.645	20.05007
1095.994	8.01852
1096.343	82.19768
1096.692	35.09047
1097.041	49.13045
1097.39	11.02648
1097.739	46.11503
1098.088	11.02839
1098.437	15.03884
1098.785	2.0052
1099.134	-46.1176
1099.482	20.0537
1099.83	7.01787
1100.179	44.113
1100.527	-40.1028
1100.875	46.11839
1101.223	20.0519
1101.571	-15.04038
1101.919	10.02599
1102.267	2.00555
1102.615	-4.01286
1102.962	-3.00963
1103.31	-3.00964
1103.658	1.00321
