Data from N1 R2 sample 7_Subt2__1__12-58-37-751.txt Node

Date: Wed Sep 17 12:58:37 PDT 2025
User: uwsun
Spectrometer: HDX01956
Trigger mode: 0
Integration Time (sec): 5.000000E-1
Scans to average: 1
Nonlinearity correction enabled: true
Boxcar width: 0
Storing dark spectrum: false
XAxis mode: Wavelengths
Number of Pixels in Spectrum: 2068
>>>>>Begin Spectral Data<<<<<
194.03	-7.02034
194.578	5.01625
195.127	-12.03853
195.676	5.01608
196.225	7.01867
196.773	-33.0927
197.321	-20.05617
197.87	12.03138
198.418	32.08399
198.966	37.09916
199.513	42.10869
200.061	-3.00782
200.609	63.16828
201.156	-3.00678
201.704	17.04374
202.251	6.0163
202.798	23.0608
203.345	23.05825
203.892	32.0825
204.438	3.00731
204.985	9.02196
205.532	20.05364
206.078	3.00752
206.624	59.15049
207.17	56.13383
207.716	4.01008
208.262	9.01846
208.808	35.08978
209.354	66.16582
209.899	16.04118
210.445	28.07158
210.99	37.09224
211.535	64.15347
212.08	15.03574
212.625	13.03323
213.17	58.1501
213.715	51.11901
214.259	34.08122
214.804	25.0626
215.348	72.16917
215.892	79.19437
216.436	-13.0306
216.98	-23.05225
217.524	58.14109
218.068	78.19913
218.612	65.16761
219.155	79.18912
219.698	28.06804
220.242	8.02018
220.785	57.13609
221.328	35.08795
221.871	77.19813
222.414	61.15257
222.956	-40.09865
223.499	5.01142
224.041	-8.01875
224.583	58.12397
225.126	-4.00901
225.668	43.10595
226.21	9.02324
226.751	71.16006
227.293	14.03233
227.835	20.04992
228.376	-8.01864
228.918	0
229.459	15.03811
230	46.11207
230.541	36.08412
231.082	23.05701
231.622	-25.05813
232.163	-19.04695
232.704	74.18672
233.244	34.08558
233.784	20.04927
234.324	66.1504
234.864	15.03458
235.404	25.05983
235.944	39.09311
236.484	29.07348
237.023	26.0623
237.563	46.1085
238.102	58.13866
238.641	8.02046
239.18	-6.01443
239.719	46.11649
240.258	30.06858
240.797	18.0438
241.335	30.07402
241.874	73.14415
242.412	52.12796
242.95	32.07863
243.488	-20.04613
244.026	41.09691
244.564	47.09843
245.102	17.03937
245.64	36.08715
246.177	12.02722
246.715	87.21017
247.252	24.05544
247.789	5.00954
248.326	54.13176
248.863	44.09848
249.4	68.15571
249.936	53.11296
250.473	48.11515
251.009	-12.02818
251.546	90.2026
252.082	26.05723
252.618	25.05705
253.154	64.15563
253.69	1.0023
254.226	60.1453
254.761	23.05266
255.297	12.0268
255.832	64.15388
256.367	65.1543
256.903	73.16416
257.438	20.04776
257.972	68.15308
258.507	11.02577
259.042	52.11485
259.576	83.18558
260.111	-30.0709
260.645	30.06609
261.179	59.13995
261.713	88.19859
262.247	10.02332
262.781	34.07318
263.315	18.04443
263.849	4.01022
264.382	14.03283
264.915	32.07709
265.449	4.00997
265.982	34.0786
266.515	21.05245
267.048	4.00871
267.58	35.07687
268.113	30.0662
268.646	-10.02503
269.178	10.02286
269.71	54.12136
270.243	90.21014
270.775	88.22711
271.307	-13.03165
271.838	59.14086
272.37	20.04987
272.902	23.05312
273.433	77.17266
273.965	20.04947
274.496	10.02525
275.027	52.13107
275.558	20.04976
276.089	12.03058
276.62	27.06909
277.15	28.06994
277.681	45.09845
278.211	68.16728
278.741	4.00912
279.272	44.10241
279.802	37.09334
280.332	31.07455
280.861	11.02683
281.391	16.03718
281.921	30.0729
282.45	7.0177
282.98	39.10296
283.509	98.22458
284.038	32.07469
284.567	48.11357
285.096	84.20541
285.625	7.01613
286.153	123.29445
286.682	34.07967
287.21	14.03401
287.739	10.02415
288.267	41.10147
288.795	37.09791
289.323	38.09088
289.851	41.09819
290.378	4.00914
290.906	39.09705
291.433	30.07605
291.961	31.07234
292.488	42.10567
293.015	44.10571
293.542	73.18954
294.069	39.09829
294.596	40.09923
295.122	74.17954
295.649	1.00225
296.175	54.13171
296.702	70.17321
297.228	58.14141
297.754	28.0644
298.28	66.15416
298.806	20.04922
299.332	52.11859
299.857	49.11344
300.383	57.14508
300.908	79.1963
301.433	73.18106
301.958	36.08419
302.483	28.07065
303.008	82.20595
303.533	51.13319
304.058	29.06897
304.582	18.04353
305.107	25.06618
305.631	29.06722
306.155	33.07852
306.679	33.07927
307.203	13.03095
307.727	17.04124
308.251	47.11785
308.775	83.20429
309.298	73.17828
309.822	19.04869
310.345	53.12891
310.868	65.1591
311.391	64.15976
311.914	45.11462
312.437	100.23082
312.96	34.08184
313.482	5.01206
314.005	22.05601
314.527	-15.03995
315.049	77.19703
315.571	85.19413
316.093	77.19294
316.615	12.0295
317.137	115.25288
317.659	30.07421
318.18	32.07785
318.702	75.17845
319.223	28.05878
319.744	30.0693
320.265	28.06977
320.786	77.19488
321.307	44.11067
321.828	29.06714
322.348	52.12479
322.869	69.16713
323.389	271.52006
323.909	49.11434
324.43	33.08059
324.95	87.20205
325.47	92.23065
325.989	53.12828
326.509	78.17796
327.029	39.09136
327.548	56.12967
328.067	69.17027
328.587	105.26565
329.106	78.17875
329.625	66.17398
330.144	101.2379
330.662	107.25419
331.181	80.19191
331.7	38.09047
332.218	111.24419
332.736	83.19748
333.255	101.24095
333.773	39.09429
334.291	68.17287
334.808	87.19965
335.326	71.16281
335.844	83.19869
336.361	134.34654
336.879	139.32944
337.396	101.24914
337.913	66.15585
338.43	81.18633
338.947	90.21836
339.464	99.21761
339.981	50.12131
340.497	80.19969
341.014	100.24681
341.53	60.13866
342.046	180.44881
342.562	133.33325
343.078	99.23654
343.594	73.17689
344.11	135.32588
344.626	97.24785
345.141	114.2645
345.657	102.23478
346.172	116.28303
346.687	87.20341
347.202	125.28927
347.717	104.25148
348.232	93.23479
348.747	124.28997
349.261	116.2591
349.776	139.33325
350.29	122.30827
350.805	148.36715
351.319	83.19672
351.833	142.33011
352.347	106.25409
352.861	127.30147
353.374	153.35027
353.888	186.45415
354.401	106.24525
354.915	111.25524
355.428	149.37293
355.941	106.2507
356.454	110.24884
356.967	59.14092
357.48	103.23751
357.993	152.37514
358.505	93.22949
359.018	157.38598
359.53	146.35861
360.042	157.35451
360.554	186.45466
361.066	126.30926
361.578	172.38243
362.09	160.38221
362.602	158.35538
363.113	214.50121
363.625	156.35706
364.136	150.33282
364.647	157.3744
365.158	133.31291
365.669	158.37888
366.18	136.32302
366.691	149.32984
367.201	187.44747
367.712	140.32405
368.222	167.38661
368.733	147.32352
369.243	184.41284
369.753	150.34843
370.263	202.48585
370.773	112.27561
371.282	189.45088
371.792	214.49374
372.301	163.39451
372.811	165.43193
373.32	199.4317
373.829	169.3993
374.338	140.3149
374.847	255.58094
375.356	168.39702
375.865	287.60531
376.373	238.5364
376.882	236.58948
377.39	241.57403
377.898	197.48145
378.407	248.55688
378.915	249.5397
379.423	256.58663
379.93	346.7785
380.438	267.6296
380.946	284.64739
381.453	269.63358
381.96	340.78596
382.468	288.6626
382.975	387.90859
383.482	368.79368
383.989	375.92451
384.495	445.98376
385.002	375.75789
385.509	424.96176
386.015	479.9206
386.521	517.09324
387.028	541.13509
387.534	487.97386
388.04	542.20588
388.546	537.09394
389.051	571.15013
389.557	615.29003
390.063	610.24714
390.568	683.46561
391.073	698.37253
391.578	716.54935
392.084	779.54104
392.589	751.41559
393.093	817.68866
393.598	923.78123
394.103	984.94488
394.607	1180.25659
395.112	1200.34115
395.616	1289.42958
396.12	1372.3607
396.624	1551.65301
397.128	1648.83272
397.632	1852.93536
398.136	2009.96435
398.639	2114.12271
399.143	2307.48007
399.646	2703.38514
400.15	2866.305
400.653	3245.18231
401.156	3674.00821
401.659	4298.25037
402.162	5163.43738
402.664	6784.91322
403.167	9464.43931
403.67	17372.46364
404.172	52855.76903
404.674	62351.98003
405.176	63738.15102
405.678	63977.72923
406.18	64011.81569
406.682	63863.44694
407.184	63926.60148
407.686	63841.39382
408.187	30930.20678
408.688	18065.88589
409.19	12581.59935
409.691	10047.8642
410.192	8578.94602
410.693	7393.62467
411.194	6677.73647
411.694	6289.10242
412.195	5827.64464
412.696	5316.43596
413.196	4808.9982
413.696	4775.85855
414.196	4900.24055
414.696	4880.03986
415.196	4455.84816
415.696	4095.7885
416.196	3369.3019
416.695	2601.32349
417.195	2274.2989
417.694	2118.63331
418.194	1950.59657
418.693	1852.81828
419.192	1731.83223
419.691	1699.75192
420.19	1652.82621
420.688	1663.90756
421.187	1526.18759
421.685	1479.52642
422.184	1334.40435
422.682	1129.94455
423.18	1002.89474
423.678	884.70626
424.176	820.60297
424.674	741.43431
425.172	700.44951
425.669	676.47143
426.167	673.38266
426.664	592.20919
427.161	579.20265
427.659	510.13739
428.156	549.06058
428.652	437.02977
429.149	452.02195
429.646	425.88808
430.143	417.93955
430.639	360.81132
431.135	354.84328
431.632	327.71599
432.128	317.73062
432.624	277.69074
433.12	299.65718
433.616	297.62778
434.111	267.61441
434.607	219.51261
435.103	237.48448
435.598	286.57444
436.093	244.55262
436.588	249.54476
437.083	192.42317
437.578	236.53233
438.073	217.53052
438.568	206.49622
439.062	162.34326
439.557	185.42488
440.051	180.39805
440.546	88.20037
441.04	183.43154
441.534	130.32414
442.028	162.38462
442.522	185.43558
443.015	93.19977
443.509	171.40872
444.002	125.30311
444.496	94.20405
444.989	110.26518
445.482	113.27761
445.975	153.34914
446.468	152.32531
446.961	180.38407
447.454	101.22592
447.947	122.28876
448.439	132.32014
448.931	153.34646
449.424	195.48453
449.916	149.35818
450.408	134.30325
450.9	101.24381
451.392	124.3112
451.884	110.25117
452.375	82.20223
452.867	113.25224
453.358	124.28142
453.849	88.18817
454.341	108.24242
454.832	121.25936
455.323	199.48308
455.814	126.28515
456.304	123.2817
456.795	89.20261
457.285	50.11071
457.776	108.24432
458.266	82.19394
458.756	49.11605
459.247	129.30456
459.737	101.24252
460.226	131.29508
460.716	95.2256
461.206	98.23267
461.695	82.20149
462.185	109.25635
462.674	86.19582
463.163	136.301
463.653	172.35871
464.142	79.19056
464.63	79.19042
465.119	97.22394
465.608	148.34079
466.096	74.16043
466.585	117.26419
467.073	66.15531
467.561	66.15785
468.05	70.16074
468.538	92.2228
469.026	57.13499
469.513	82.17253
470.001	65.14911
470.489	71.16815
470.976	107.24752
471.463	66.16355
471.951	60.14852
472.438	102.23712
472.925	70.16421
473.412	52.12593
473.899	83.18925
474.385	91.22075
474.872	65.15114
475.359	72.17607
475.845	86.17736
476.331	63.1341
476.817	47.11427
477.303	76.17577
477.789	24.05738
478.275	74.18244
478.761	41.0974
479.247	91.20145
479.732	77.19078
480.218	66.17192
480.703	41.10095
481.188	64.13845
481.673	84.19188
482.158	49.10621
482.643	92.23264
483.128	116.26711
483.612	118.27746
484.097	45.10842
484.581	67.1545
485.066	66.16098
485.55	61.13487
486.034	54.11722
486.518	99.23473
487.002	33.08032
487.486	58.1403
487.969	69.16675
488.453	45.11178
488.936	37.08358
489.42	56.12389
489.903	44.10931
490.386	4.00838
490.869	121.26171
491.352	63.15093
491.835	37.07612
492.318	23.052
492.8	80.16506
493.283	109.27459
493.765	44.1078
494.247	77.17819
494.73	94.2064
495.212	62.14641
495.694	99.2311
496.175	99.23555
496.657	120.28007
497.139	77.13189
497.62	145.3422
498.102	127.3112
498.583	106.25699
499.064	146.31936
499.545	147.32854
500.026	183.40325
500.507	162.36453
500.988	234.5643
501.469	186.45093
501.949	211.50451
502.43	307.70334
502.91	346.68886
503.39	312.73441
503.87	404.88922
504.35	375.82038
504.83	353.72325
505.31	447.99436
505.79	428.93611
506.269	480.004
506.749	539.10798
507.228	655.35712
507.707	715.37598
508.187	824.67237
508.666	849.78772
509.145	930.79519
509.623	986.88076
510.102	1127.16171
510.581	1234.30021
511.059	1295.51205
511.538	1403.73611
512.016	1580.67507
512.494	1729.82272
512.972	1849.90828
513.45	1950.868
513.928	2200.20629
514.406	2379.33658
514.884	2471.66462
515.361	2698.28919
515.839	2989.08107
516.316	3084.40849
516.793	3334.64617
517.27	3474.27592
517.747	3708.70219
518.224	3788.88028
518.701	3892.56384
519.178	3971.41511
519.654	4148.91397
520.131	4217.22628
520.607	4253.09661
521.083	4154.59918
521.56	4207.85062
522.036	4137.34845
522.512	4121.24665
522.987	4026.10276
523.463	3887.03973
523.939	3812.41324
524.414	3726.86133
524.89	3583.19783
525.365	3377.89546
525.84	3259.32088
526.315	3112.38704
526.79	2994.95898
527.265	2854.10563
527.74	2653.36401
528.215	2560.12073
528.689	2428.78133
529.164	2381.67014
529.638	2265.46108
530.112	2047.9639
530.587	2037.55994
531.061	1951.03373
531.534	1868.9527
532.008	1788.92882
532.482	1731.65563
532.956	1669.01382
533.429	1585.76321
533.903	1493.2921
534.376	1403.23594
534.849	1361.31015
535.322	1247.25437
535.795	1208.27041
536.268	1214.28728
536.741	1134.12368
537.213	1103.00024
537.686	1065.10611
538.158	1047.90353
538.631	1020.01273
539.103	912.69993
539.575	887.48847
540.047	851.54334
540.519	841.70264
540.991	740.5686
541.463	770.59604
541.934	695.36438
542.406	703.47811
542.877	670.32172
543.348	657.40309
543.82	625.35369
544.291	617.27999
544.762	597.2715
545.233	601.37124
545.703	517.0407
546.174	529.11084
546.645	519.14436
547.115	511.12576
547.585	490.02858
548.056	532.19191
548.526	525.13343
548.996	457.00744
549.466	465.04178
549.935	407.90878
550.405	356.7355
550.875	395.87835
551.344	377.84459
551.814	347.7508
552.283	415.84065
552.752	385.84688
553.221	350.72894
553.69	405.85416
554.159	381.89381
554.628	369.78713
555.096	367.88311
555.565	288.60862
556.033	375.84218
556.502	279.64612
556.97	289.61489
557.438	252.57051
557.906	310.69723
558.374	323.71201
558.842	266.61321
559.31	284.60859
559.777	251.59257
560.245	227.50439
560.712	195.43545
561.18	294.6213
561.647	170.3695
562.114	293.64183
562.581	215.51427
563.048	214.4762
563.514	292.70255
563.981	186.4163
564.448	256.55712
564.914	199.45026
565.381	288.62968
565.847	221.49921
566.313	176.3996
566.779	215.46978
567.245	199.44879
567.711	229.53098
568.176	177.38872
568.642	227.55435
569.108	229.54545
569.573	178.40283
570.038	205.4166
570.504	208.45708
570.969	228.54734
571.434	243.52084
571.899	223.51256
572.363	250.55284
572.828	306.67044
573.293	267.58784
573.757	240.53848
574.222	175.38417
574.686	268.59239
575.15	236.54991
575.614	265.60226
576.078	197.45081
576.542	191.42493
577.006	189.41717
577.469	249.59103
577.933	254.55793
578.396	174.40402
578.86	222.50689
579.323	206.48342
579.786	206.43496
580.249	232.52972
580.712	182.4326
581.175	169.40826
581.637	156.34988
582.1	117.25284
582.563	163.34001
583.025	162.38699
583.487	160.32389
583.95	137.28997
584.412	145.30045
584.874	169.40409
585.336	154.35928
585.797	166.3545
586.259	132.30504
586.721	107.24919
587.182	102.23365
587.643	131.29423
588.105	136.31704
588.566	124.25619
589.027	168.40362
589.488	137.31048
589.949	181.42997
590.41	138.27026
590.87	142.3207
591.331	151.3252
591.791	144.3288
592.252	135.31067
592.712	123.29152
593.172	145.32527
593.632	158.34561
594.092	131.28867
594.552	155.33051
595.011	66.15137
595.471	139.31117
595.931	156.34656
596.39	116.27594
596.849	124.28576
597.308	115.24309
597.768	146.37089
598.227	116.27605
598.685	99.22446
599.144	112.26191
599.603	82.19123
600.062	107.22429
600.52	132.29483
600.978	121.2829
601.437	104.23498
601.895	116.24676
602.353	111.24203
602.811	170.3761
603.269	53.12634
603.727	90.215
604.184	71.16189
604.642	87.21279
605.099	115.26624
605.557	96.23187
606.014	67.14467
606.471	71.17771
606.928	143.31352
607.385	132.32626
607.842	55.12652
608.299	149.34262
608.755	112.26868
609.212	119.26299
609.668	91.20456
610.125	114.27191
610.581	66.15464
611.037	77.17224
611.493	51.11929
611.949	81.19657
612.405	95.19288
612.861	38.08782
613.316	125.29569
613.772	59.13529
614.227	105.25021
614.683	83.17545
615.138	55.1291
615.593	91.20992
616.048	69.15765
616.503	70.16939
616.958	95.23597
617.412	63.14943
617.867	65.14545
618.321	68.14037
618.776	98.21427
619.23	36.08465
619.684	53.11841
620.138	93.2112
620.592	66.15959
621.046	82.19274
621.5	61.14647
621.954	60.13258
622.407	74.16303
622.861	74.17874
623.314	85.19115
623.768	111.25912
624.221	51.10066
624.674	40.09262
625.127	31.07234
625.58	32.07212
626.033	70.15247
626.485	38.09102
626.938	72.17062
627.39	73.16987
627.843	55.12662
628.295	64.14708
628.747	39.09311
629.199	40.09122
629.651	54.12365
630.103	97.22028
630.555	-23.04926
631.006	28.0653
631.458	88.20522
631.909	3.00678
632.361	24.05557
632.812	29.06732
633.263	64.13845
633.714	43.09113
634.165	52.12432
634.616	45.10624
635.067	86.18772
635.518	38.09008
635.968	39.07679
636.419	89.19266
636.869	62.14613
637.319	24.05588
637.769	39.08778
638.219	40.09431
638.669	21.05006
639.119	-46.11174
639.569	28.06725
640.019	39.09011
640.468	46.10304
640.918	13.03095
641.367	15.03376
641.816	45.09995
642.265	43.10026
642.714	12.02767
643.163	59.13589
643.612	16.03936
644.061	35.07505
644.51	78.17753
644.958	3.00668
645.406	9.02162
645.855	-19.04658
646.303	15.03482
646.751	44.10176
647.199	42.09517
647.647	22.05127
648.095	-6.01381
648.543	43.0873
648.99	43.10317
649.438	0
649.885	42.10454
650.333	53.10284
650.78	23.05571
651.227	13.03194
651.674	25.05723
652.121	59.14409
652.568	28.06868
653.015	-22.05494
653.461	51.12088
653.908	-10.02317
654.354	47.11161
654.801	-7.01655
655.247	43.09304
655.693	16.04166
656.139	-13.03129
656.585	18.0431
657.031	-24.05707
657.477	48.10477
657.922	-25.05751
658.368	20.04922
658.813	3.00686
659.259	32.07758
659.704	44.10415
660.149	45.10352
660.594	46.10888
661.039	2.00459
661.484	48.11331
661.929	4.0094
662.373	-32.08112
662.818	28.06921
663.262	14.03396
663.707	58.14666
664.151	50.12136
664.595	5.01215
665.039	7.01743
665.483	16.04075
665.927	-16.03787
666.371	3.0071
666.814	38.09008
667.258	56.13429
667.701	53.11257
668.145	54.13362
668.588	77.18896
669.031	25.05884
669.474	-4.00965
669.917	10.02201
670.36	46.11433
670.803	67.16064
671.245	-32.06644
671.688	22.05354
672.13	24.05438
672.573	11.02781
673.015	44.10571
673.457	15.03276
673.899	19.04599
674.341	12.02896
674.783	17.04079
675.225	29.07127
675.666	45.1097
676.108	44.09482
676.549	-7.0164
676.991	-3.00663
677.432	21.0418
677.873	-8.01838
678.314	40.09482
678.755	69.16858
679.196	-11.02531
679.637	8.01918
680.078	45.10459
680.518	41.09371
680.959	-30.07205
681.399	-9.02236
681.839	32.07741
682.28	43.1063
682.72	35.07977
683.16	41.10177
683.6	32.0726
684.039	16.03309
684.479	25.0616
684.919	61.14234
685.358	-15.03749
685.798	-13.03394
686.237	19.04524
686.676	-24.05471
687.115	51.11929
687.554	48.1141
687.993	73.15958
688.432	-31.07137
688.871	34.07767
689.309	20.04789
689.748	51.1053
690.186	-4.00938
690.625	4.00941
691.063	14.03335
691.501	41.10073
691.939	40.1001
692.377	-21.05115
692.815	51.12372
693.253	-5.01192
693.69	1.00219
694.128	17.04118
694.565	-27.06434
695.003	48.12164
695.44	56.13137
695.877	32.07492
696.314	12.02524
696.751	19.04292
697.188	62.14214
697.625	-3.00672
698.061	-11.02639
698.498	-4.00946
698.934	3.00716
699.371	50.11656
699.807	24.05637
700.243	13.03128
700.679	10.02224
701.115	30.06952
701.551	15.03471
701.987	-54.11922
702.422	35.08295
702.858	37.08759
703.294	55.12475
703.729	1.00243
704.164	9.02141
704.599	41.0908
705.035	9.02015
705.47	-13.03158
705.904	17.03919
706.339	18.04112
706.774	26.06049
707.209	11.02553
707.643	21.04995
708.078	-2.00485
708.512	-35.08811
708.946	-23.05458
709.38	36.08478
709.814	36.08071
710.248	26.06315
710.682	19.0454
711.116	39.09415
711.549	-3.00763
711.983	14.03217
712.416	59.13816
712.85	34.08336
713.283	0
713.716	24.05897
714.149	-30.06963
714.582	58.12848
715.015	-24.05886
715.448	22.055
715.881	43.09113
716.313	31.07171
716.746	43.10062
717.178	25.05962
717.61	80.19977
718.043	3.00737
718.475	21.05056
718.907	27.06672
719.339	14.03155
719.77	25.05939
720.202	-2.00498
720.634	47.11393
721.065	-10.0235
721.497	24.05821
721.928	27.0653
722.359	0
722.79	5.01191
723.221	15.03691
723.652	10.02521
724.083	26.05786
724.514	57.12881
724.945	-12.02801
725.375	-9.02098
725.806	16.03905
726.236	8.02028
726.666	30.06988
727.096	1.00243
727.526	42.10685
727.956	34.07682
728.386	18.04367
728.816	21.05326
729.246	40.09749
729.675	-26.06327
730.105	1.00243
730.534	19.0438
730.964	-1.00247
731.393	28.06768
731.822	64.16057
732.251	14.03519
732.68	-60.13938
733.109	16.03908
733.537	65.15614
733.966	35.0863
734.395	58.13163
734.823	16.03495
735.251	-15.03585
735.68	0
736.108	-3.00744
736.536	18.04163
736.964	17.03893
737.392	31.07636
737.82	27.06352
738.247	6.01415
738.675	35.08087
739.102	-20.04963
739.53	43.10902
739.957	62.15762
740.384	-13.03106
740.811	-36.08924
741.238	46.11106
741.665	31.07197
742.092	-99.22965
742.519	-2.00493
742.945	37.08871
743.372	45.11006
743.798	24.0606
744.225	-5.01172
744.651	-15.03726
745.077	1.00247
745.503	11.02622
745.929	39.09308
746.355	14.0336
746.781	7.01699
747.207	39.09126
747.632	68.16561
748.058	42.10427
748.483	91.20338
748.908	24.05902
749.334	54.13072
749.759	65.1518
750.184	35.08318
750.609	29.06993
751.033	41.09379
751.458	44.09608
751.883	46.11098
752.307	24.05568
752.732	59.14821
753.156	25.06062
753.58	6.01397
754.005	14.03464
754.429	76.17612
754.853	25.06144
755.277	9.02115
755.7	58.14099
756.124	7.01722
756.548	16.03727
756.971	23.05529
757.394	27.06792
757.818	15.03823
758.241	25.06266
758.664	9.02246
759.087	23.05119
759.51	11.02675
759.933	37.0881
760.356	55.13935
760.778	7.017
761.201	47.11114
761.623	-39.09226
762.046	6.01381
762.468	87.20213
762.89	-14.0338
763.312	64.15324
763.734	40.09471
764.156	29.07046
764.578	6.01347
765	48.11458
765.421	5.01263
765.843	28.07209
766.264	45.1041
766.686	-2.0049
767.107	41.0974
767.528	33.08352
767.949	9.02252
768.37	64.15522
768.791	5.0118
769.212	43.10646
769.632	5.01158
770.053	-8.02067
770.473	6.01424
770.894	-11.0267
771.314	8.01855
771.734	8.01836
772.154	-8.02016
772.575	39.08778
772.994	-13.02907
773.414	4.00935
773.834	-28.06908
774.254	31.0741
774.673	35.08407
775.093	12.02946
775.512	-11.02688
775.931	32.07968
776.351	85.20619
776.77	22.05316
777.189	29.06754
777.607	-11.02776
778.026	36.08787
778.445	51.12677
778.864	-23.05759
779.282	-38.0897
779.701	-4.00989
780.119	-4.01001
780.537	-7.01717
780.955	-6.01493
781.373	-1.00243
781.791	-8.01796
782.209	20.04406
782.627	-14.03646
783.045	-3.0067
783.462	-11.02772
783.88	12.03059
784.297	-17.04226
784.715	15.03806
785.132	23.05413
785.549	-14.03449
785.966	33.08122
786.383	14.03401
786.8	48.10832
787.217	45.10509
787.633	39.09617
788.05	46.10381
788.466	23.05219
788.883	41.10318
789.299	-18.04208
789.715	53.12591
790.131	12.02927
790.547	-9.02206
790.963	13.03155
791.379	28.06928
791.795	6.01324
792.21	-8.01823
792.626	-5.01153
793.041	1.00242
793.457	37.08844
793.872	-24.05502
794.287	36.08521
794.702	-5.01188
795.117	41.0998
795.532	66.16194
795.947	29.0669
796.362	-11.02518
796.776	41.09114
797.191	17.04077
797.605	21.04881
798.02	-14.03342
798.434	19.04117
798.848	27.06587
799.262	42.10141
799.676	59.13935
800.09	14.03362
800.504	7.01651
800.918	-43.09722
801.331	-70.17776
801.745	33.07308
802.158	-16.03891
802.572	77.17996
802.985	36.08359
803.398	13.03012
803.811	-33.08173
804.224	-28.06758
804.637	1.00234
805.05	-1.00224
805.462	17.04045
805.875	-17.04352
806.288	11.0261
806.7	-33.08074
807.112	3.00672
807.525	13.03074
807.937	-24.05849
808.349	32.07732
808.761	46.11018
809.173	62.14584
809.584	9.02156
809.996	-29.06969
810.408	-23.05912
810.819	2.0046
811.231	67.17408
811.642	24.05823
812.053	-17.04077
812.464	-36.08382
812.875	56.13948
813.286	32.081
813.697	13.02873
814.108	50.11743
814.519	85.18306
814.929	34.08395
815.34	14.03268
815.75	20.05001
816.16	-45.10892
816.571	-3.0076
816.981	2.00454
817.391	-38.08921
817.801	7.01704
818.211	25.05763
818.62	28.06581
819.03	8.01904
819.44	-49.12388
819.849	-13.03169
820.259	-32.07953
820.668	-7.01691
821.077	20.04884
821.486	-19.04413
821.895	22.05193
822.304	1.00259
822.713	34.07738
823.122	40.09643
823.531	-34.07776
823.939	77.18116
824.348	53.12338
824.756	28.06763
825.164	23.0559
825.573	27.06584
825.981	23.055
826.389	23.05598
826.797	62.15268
827.205	12.02696
827.612	40.09486
828.02	-53.12168
828.428	32.07895
828.835	6.01554
829.243	23.05266
829.65	-20.04911
830.057	19.04448
830.464	57.13567
830.871	28.0652
831.278	2.00471
831.685	32.06846
832.092	0
832.499	21.04462
832.905	18.04395
833.312	-42.09187
833.718	36.08751
834.124	31.06857
834.531	-9.02191
834.937	64.159
835.343	3.00697
835.749	-14.03134
836.155	8.02043
836.561	35.0834
836.966	29.06831
837.372	-23.05699
837.777	11.02675
838.183	35.07437
838.588	33.0799
838.993	18.04252
839.399	-10.02397
839.804	-40.09588
840.209	58.14436
840.613	47.10009
841.018	10.02448
841.423	17.04244
841.828	64.1568
842.232	-2.00473
842.637	59.13529
843.041	2.00503
843.445	14.03383
843.849	18.04344
844.253	16.03668
844.657	-12.02973
845.061	107.23479
845.465	4.00939
845.869	22.04938
846.272	20.04749
846.676	-34.07892
847.079	44.10916
847.483	41.09845
847.886	68.15702
848.289	30.07892
848.692	25.06092
849.095	8.01855
849.498	54.12979
849.901	12.02636
850.304	-9.02089
850.707	5.01236
851.109	32.07787
851.512	14.03348
851.914	-5.01239
852.316	59.14554
852.718	47.12064
853.121	26.06171
853.523	22.04928
853.925	2.00515
854.326	5.01225
854.728	22.05515
855.13	37.09348
855.531	-4.00932
855.933	-7.01616
856.334	-2.0049
856.736	36.07838
857.137	11.02501
857.538	17.04183
857.939	36.08731
858.34	-11.0258
858.741	9.02282
859.142	37.08515
859.542	42.10821
859.943	-5.01209
860.343	-1.00243
860.744	49.11501
861.144	54.12796
861.544	-11.02614
861.945	-18.04475
862.345	34.07982
862.745	27.06547
863.145	28.06324
863.544	54.132
863.944	26.05925
864.344	-16.03821
864.743	43.10266
865.143	50.12522
865.542	-44.0984
865.941	54.1292
866.34	-24.05527
866.74	8.02097
867.139	38.08904
867.537	4.0098
867.936	18.04213
868.335	7.01727
868.734	14.03483
869.132	-31.06928
869.531	2.00463
869.929	-8.0178
870.327	19.04404
870.726	-6.01439
871.124	44.09787
871.522	-16.03963
871.92	47.11165
872.318	17.0399
872.715	16.03774
873.113	-29.06857
873.511	-4.00966
873.908	8.01998
874.306	52.12569
874.703	-27.0653
875.1	-20.0492
875.497	21.04842
875.894	33.07966
876.291	21.04998
876.688	10.02512
877.085	-10.02314
877.482	-2.00487
877.878	11.02603
878.275	29.07154
878.671	-4.00832
879.068	34.07904
879.464	24.05599
879.86	10.02288
880.256	-15.03543
880.652	20.04929
881.048	36.08504
881.444	-23.05246
881.84	22.05408
882.236	15.03651
882.631	25.05967
883.027	-5.0117
883.422	-29.07204
883.817	26.06379
884.213	5.01248
884.608	32.07758
885.003	-23.05354
885.398	-12.0293
885.793	18.04356
886.188	-6.01448
886.582	-7.01731
886.977	-4.00914
887.371	11.02678
887.766	13.03156
888.16	-1.00238
888.554	-5.01192
888.949	47.11359
889.343	39.09118
889.737	0
890.131	23.05586
890.525	66.16349
890.918	-16.03921
891.312	28.06383
891.706	12.03053
892.099	29.07111
892.492	25.05134
892.886	5.01183
893.279	-1.00247
893.672	17.04229
894.065	39.09432
894.458	-35.08516
894.851	26.06102
895.244	16.03961
895.637	35.08151
896.029	20.04761
896.422	2.00468
896.814	22.0527
897.206	46.10685
897.599	29.06913
897.991	31.07279
898.383	38.08656
898.775	62.13533
899.167	35.07981
899.559	8.01946
899.951	23.05172
900.342	4.00978
900.734	54.13225
901.125	13.03289
901.517	9.02145
901.908	34.07717
902.299	-12.02864
902.69	12.02764
903.082	30.07005
903.473	50.11697
903.863	-9.02223
904.254	22.04987
904.645	14.03324
905.036	60.1424
905.426	6.01304
905.817	-12.02843
906.207	-9.02056
906.597	39.08864
906.987	-21.05268
907.378	15.037
907.768	34.08741
908.158	14.03293
908.547	56.14156
908.937	23.05638
909.327	54.12549
909.717	2.00485
910.106	-7.01623
910.495	14.03342
910.885	37.09073
911.274	6.01452
911.663	45.10896
912.052	47.11006
912.441	19.04721
912.83	21.04602
913.219	34.08573
913.608	35.08299
913.997	8.01967
914.385	45.10323
914.774	26.06092
915.162	32.07436
915.55	-1.00233
915.939	-30.07464
916.327	-16.03854
916.715	67.16679
917.103	-1.00234
917.491	14.03338
917.878	11.0261
918.266	6.01505
918.654	46.11433
919.041	7.01802
919.429	37.08389
919.816	42.10248
920.203	45.10604
920.591	39.0934
920.978	20.0473
921.365	-1.00257
921.752	-37.0846
922.139	8.01672
922.525	43.09971
922.912	3.00706
923.299	17.04096
923.685	-16.04034
924.072	-18.03919
924.458	37.08881
924.844	-40.09687
925.231	18.03996
925.617	-4.01002
926.003	26.06405
926.389	-22.0541
926.774	-11.02702
927.16	20.04791
927.546	42.1053
927.931	21.05029
928.317	-20.04434
928.702	33.07464
929.088	39.09083
929.473	43.10646
929.858	-3.00718
930.243	37.08644
930.628	36.08534
931.013	22.0528
931.398	26.05637
931.783	13.03286
932.167	53.12586
932.552	18.04348
932.937	1.00239
933.321	1.00246
933.705	-23.05586
934.09	15.03588
934.474	11.02495
934.858	14.03534
935.242	9.02006
935.626	15.03745
936.009	44.11446
936.393	24.06
936.777	26.06488
937.16	49.1241
937.544	5.01118
937.927	-8.01988
938.311	28.06535
938.694	50.1281
939.077	3.00695
939.46	7.01624
939.843	-17.03332
940.226	3.00743
940.609	52.11572
940.991	16.03918
941.374	11.0262
941.757	18.04272
942.139	29.0628
942.522	24.0542
942.904	45.10389
943.286	62.15066
943.668	57.14385
944.05	-11.02636
944.432	-32.07671
944.814	34.07976
945.196	-32.0768
945.578	28.06532
945.959	-5.01121
946.341	19.04409
946.722	43.0961
947.104	12.02772
947.485	25.05599
947.866	32.07857
948.247	21.05182
948.628	21.04837
949.009	-19.04747
949.39	14.03347
949.771	-43.09499
950.152	13.03091
950.532	30.07339
950.913	8.01862
951.293	-1.00266
951.674	43.09991
952.054	56.13603
952.434	6.01446
952.814	18.04075
953.194	-29.07316
953.574	21.04966
953.954	-17.03873
954.334	49.11864
954.714	10.02372
955.093	49.1156
955.473	18.04408
955.853	8.02013
956.232	11.02931
956.611	26.05915
956.99	14.03424
957.37	0
957.749	-5.01135
958.128	41.10024
958.506	11.02777
958.885	14.03407
959.264	44.10519
959.643	62.1355
960.021	4.00969
960.4	32.06941
960.778	20.04677
961.156	-19.04618
961.535	-32.07171
961.913	34.07688
962.291	6.01516
962.669	13.0321
963.047	23.05715
963.424	49.12225
963.802	7.01671
964.18	8.01926
964.557	9.01986
964.935	37.08403
965.312	12.03054
965.69	32.07644
966.067	-12.02801
966.444	1.00234
966.821	38.09472
967.198	58.13286
967.575	36.08448
967.952	42.09451
968.329	61.14313
968.705	81.16543
969.082	40.10053
969.458	24.05637
969.835	25.05864
970.211	33.08281
970.587	18.04343
970.963	36.08826
971.339	9.02296
971.715	12.02907
972.091	-31.07432
972.467	10.02375
972.843	60.1447
973.219	23.05257
973.594	-5.01274
973.97	-21.04713
974.345	24.05562
974.721	16.03676
975.096	13.03067
975.471	4.00912
975.846	-20.04629
976.221	4.00988
976.596	69.16095
976.971	94.22275
977.346	28.062
977.72	-12.02958
978.095	2.00502
978.469	5.01147
978.844	16.03863
979.218	25.05873
979.593	22.05048
979.967	6.01384
980.341	61.13464
980.715	26.06346
981.089	12.02904
981.463	19.04196
981.837	86.203
982.21	-13.02842
982.584	47.10946
982.957	-3.00732
983.331	-8.018
983.704	62.14794
984.078	32.0758
984.451	-22.05229
984.824	15.03555
985.197	-23.0534
985.57	-28.06727
985.943	-42.09926
986.316	47.10877
986.688	-7.01632
987.061	53.11924
987.434	73.18528
987.806	-17.03939
988.179	-4.00909
988.551	17.0415
988.923	-12.0285
989.295	35.08369
989.667	13.03049
990.039	9.02192
990.411	-21.04604
990.783	-5.01095
991.155	-25.05875
991.527	7.01631
991.898	20.04842
992.27	8.01937
992.641	8.01929
993.012	-42.09354
993.384	23.05249
993.755	53.13079
994.126	26.0608
994.497	-24.05736
994.868	-6.01314
995.239	31.072
995.61	6.01465
995.98	-7.01645
996.351	-4.00969
996.722	12.02717
997.092	21.04817
997.462	34.07729
997.833	47.10552
998.203	-19.04399
998.573	19.04592
998.943	50.11283
999.313	32.07422
999.683	-8.01868
1000.053	-21.04562
1000.423	4.00932
1000.792	-12.02991
1001.162	45.1055
1001.531	26.06192
1001.901	25.05976
1002.27	2.0042
1002.639	-11.0271
1003.009	11.02515
1003.378	-33.0826
1003.747	16.03612
1004.116	2.00461
1004.485	19.04369
1004.853	-19.04614
1005.222	-46.11119
1005.591	9.02052
1005.959	41.08875
1006.328	-5.01091
1006.696	-17.03959
1007.064	-20.04843
1007.433	22.05258
1007.801	0
1008.169	-7.01696
1008.537	20.04236
1008.905	17.03842
1009.273	30.07071
1009.64	34.07904
1010.008	29.06623
1010.375	7.01608
1010.743	-2.0043
1011.11	75.1726
1011.478	23.05533
1011.845	19.04268
1012.212	22.04841
1012.579	13.03088
1012.946	29.0654
1013.313	38.08579
1013.68	-7.01507
1014.047	-22.05086
1014.414	6.01364
1014.78	31.07455
1015.147	19.04364
1015.513	0
1015.88	1.00246
1016.246	13.03054
1016.612	53.11444
1016.978	45.10657
1017.344	-63.15294
1017.71	20.04661
1018.076	-4.009
1018.442	45.11186
1018.808	10.02444
1019.174	-23.05577
1019.539	20.0421
1019.905	-15.03448
1020.27	-2.00477
1020.636	10.02276
1021.001	68.15577
1021.366	12.02794
1021.731	58.14546
1022.096	7.01729
1022.461	31.07063
1022.826	31.07137
1023.191	34.08625
1023.556	31.0692
1023.92	-12.0283
1024.285	22.05106
1024.649	-19.04488
1025.014	4.00946
1025.378	10.0245
1025.742	31.07336
1026.107	13.02811
1026.471	55.12145
1026.835	-2.0048
1027.199	-36.08458
1027.562	-5.01108
1027.926	-25.05898
1028.29	49.11927
1028.654	-5.01104
1029.017	52.12284
1029.381	-19.0442
1029.744	6.01484
1030.107	46.10402
1030.471	28.06481
1030.834	6.01289
1031.197	21.04858
1031.56	-17.03859
1031.923	-8.02016
1032.286	25.05631
1032.648	-20.04563
1033.011	50.11126
1033.374	2.00447
1033.736	4.01023
1034.099	16.03764
1034.461	26.06396
1034.823	26.06273
1035.185	-28.06794
1035.548	39.09158
1035.91	0
1036.272	42.09183
1036.634	66.15398
1036.995	-14.03154
1037.357	-19.04514
1037.719	-5.01179
1038.08	48.11
1038.442	-28.06437
1038.803	-39.0895
1039.165	-1.00243
1039.526	23.05352
1039.887	20.04596
1040.248	46.11081
1040.609	-32.07603
1040.97	-4.00942
1041.331	15.037
1041.692	26.05944
1042.053	5.01087
1042.413	58.12773
1042.774	-26.06159
1043.134	26.05853
1043.495	30.0726
1043.855	36.08485
1044.215	-20.04791
1044.576	-27.0632
1044.936	24.05234
1045.296	30.07202
1045.656	-24.05652
1046.016	36.08277
1046.375	12.02806
1046.735	30.06643
1047.095	-7.01583
1047.454	23.0458
1047.814	29.06703
1048.173	-35.07993
1048.533	-38.08449
1048.892	-12.02804
1049.251	20.04802
1049.61	17.04042
1049.969	-20.04548
1050.328	41.0845
1050.687	-28.06571
1051.046	-15.03524
1051.405	0
1051.763	28.06246
1052.122	6.01444
1052.48	6.01426
1052.839	40.09174
1053.197	62.13877
1053.555	-25.05377
1053.914	27.06325
1054.272	20.04539
1054.63	34.0801
1054.988	-1.00232
1055.345	19.03842
1055.703	2.00466
1056.061	26.06542
1056.419	52.13177
1056.776	14.03208
1057.134	-88.19591
1057.491	37.08915
1057.848	-8.01917
1058.206	-31.06948
1058.563	4.00843
1058.92	21.04614
1059.277	22.05225
1059.634	-9.02012
1059.991	52.11936
1060.348	-5.01094
1060.704	50.11683
1061.061	20.0436
1061.418	-15.03532
1061.774	-12.02873
1062.131	30.07801
1062.487	-36.08117
1062.843	13.03126
1063.199	17.04082
1063.555	24.05389
1063.911	-8.01946
1064.267	10.01954
1064.623	8.01899
1064.979	-46.10185
1065.335	31.07031
1065.691	3.00682
1066.046	25.05229
1066.402	9.01948
1066.757	44.1068
1067.112	61.14223
1067.468	52.11907
1067.823	-1.00227
1068.178	20.04616
1068.533	14.03268
1068.888	-14.03216
1069.243	25.05941
1069.598	12.02789
1069.952	53.1164
1070.307	10.02405
1070.662	47.10825
1071.016	24.05232
1071.371	31.06785
1071.725	-5.01143
1072.079	14.03251
1072.434	44.1029
1072.788	-36.08204
1073.142	49.1156
1073.496	47.10621
1073.85	33.07299
1074.203	45.10468
1074.557	34.0886
1074.911	34.07707
1075.265	20.04454
1075.618	20.04706
1075.971	-26.05987
1076.325	30.07415
1076.678	-36.07994
1077.031	-71.15324
1077.385	37.07718
1077.738	-1.00216
1078.091	-9.01995
1078.444	30.06571
1078.796	48.11366
1079.149	6.01446
1079.502	12.02751
1079.855	-10.02256
1080.207	13.03075
1080.56	-15.038
1080.912	19.04441
1081.264	13.0303
1081.617	15.03539
1081.969	-14.03455
1082.321	-22.05191
1082.673	4.00894
1083.025	7.01588
1083.377	-7.01586
1083.728	35.07758
1084.08	-46.11127
1084.432	-10.02322
1084.783	4.00882
1085.135	9.02192
1085.486	1.00222
1085.838	46.10905
1086.189	13.03072
1086.54	31.0706
1086.891	40.09938
1087.242	84.19828
1087.593	8.01846
1087.944	61.1325
1088.295	19.04122
1088.646	77.18144
1088.996	-5.01173
1089.347	17.0399
1089.698	-7.01619
1090.048	14.03496
1090.398	17.03752
1090.749	-2.00457
1091.099	43.10541
1091.449	51.12237
1091.799	11.02659
1092.149	-10.02402
1092.499	30.07035
1092.849	-8.01978
1093.199	9.02158
1093.548	32.07472
1093.898	5.01204
1094.248	-13.03211
1094.597	-15.03779
1094.947	22.05703
1095.296	15.03596
1095.645	-2.00503
1095.994	49.11249
1096.343	14.03418
1096.692	-1.0026
1097.041	0
1097.39	4.00964
1097.739	36.09019
1098.088	22.05668
1098.437	26.06719
1098.785	-17.04435
1099.134	-37.09444
1099.482	15.0403
1099.83	36.09142
1100.179	38.0977
1100.527	-35.08987
1100.875	-2.00519
1101.223	60.15463
1101.571	-33.08911
1101.919	60.15458
1102.267	25.06919
1102.615	-5.01607
1102.962	-4.01284
1103.31	6.01926
1103.658	-7.02246
