Data from N1 R2 sample 11_Subt2__2__13-00-54-248.txt Node

Date: Wed Sep 17 13:00:54 PDT 2025
User: uwsun
Spectrometer: HDX01956
Trigger mode: 0
Integration Time (sec): 5.000000E-1
Scans to average: 1
Nonlinearity correction enabled: true
Boxcar width: 0
Storing dark spectrum: false
XAxis mode: Wavelengths
Number of Pixels in Spectrum: 2068
>>>>>Begin Spectral Data<<<<<
194.03	-14.04073
194.578	-7.02278
195.127	0
195.676	3.00965
196.225	-5.01336
196.773	11.03069
197.321	-20.05617
197.87	-4.01049
198.418	36.09442
198.966	23.06178
199.513	69.17773
200.061	6.01561
200.609	10.02694
201.156	3.00677
201.704	12.03091
202.251	9.02444
202.798	-5.01328
203.345	56.141
203.892	24.06196
204.438	27.0655
204.985	3.00733
205.532	-14.03776
206.078	-5.01255
206.624	62.15806
207.17	40.09588
207.716	48.11999
208.262	54.10961
208.808	41.10506
209.354	81.20296
209.899	18.04631
210.445	25.06395
210.99	12.03005
211.535	65.15584
212.08	47.11131
212.625	44.11186
213.17	57.14754
213.715	50.1167
214.259	48.11436
214.804	18.04513
215.348	81.18998
215.892	27.06707
216.436	-13.0306
216.98	24.05401
217.524	24.05876
218.068	64.16379
218.612	87.22347
219.155	60.14415
219.698	43.10419
220.242	12.03025
220.785	29.06961
221.328	30.07546
221.871	79.20321
222.414	-15.03803
222.956	-7.01716
223.499	11.0251
224.041	-28.06589
224.583	4.00865
225.126	25.05597
225.668	11.02726
226.21	32.0823
226.751	-1.00229
227.293	-31.07222
227.835	34.08466
228.376	5.01162
228.918	24.06069
229.459	13.03304
230	68.16499
230.541	25.05854
231.082	58.14283
231.622	-61.14285
232.163	10.02458
232.704	33.08388
233.244	32.08057
233.784	17.0419
234.324	59.13464
234.864	6.01385
235.404	-5.01203
235.944	8.01921
236.484	41.10366
237.023	10.02404
237.563	48.11317
238.102	53.12683
238.641	20.05104
239.18	-31.07489
239.719	14.03565
240.258	70.15874
240.797	57.1377
241.335	43.10584
241.874	63.1247
242.412	25.06183
242.95	37.09083
243.488	1.0023
244.026	60.1413
244.564	63.13148
245.102	58.13324
245.64	4.00974
246.177	6.01363
246.715	84.20304
247.252	44.10124
247.789	63.11856
248.326	30.07353
248.863	34.07626
249.4	23.05314
249.936	89.18821
250.473	63.1507
251.009	4.00937
251.546	25.05703
252.082	-19.04222
252.618	29.06612
253.154	25.06124
253.69	22.05032
254.226	80.19301
254.761	46.10482
255.297	32.07118
255.832	66.15863
256.367	31.07407
256.903	73.16416
257.438	50.11871
257.972	37.08382
258.507	0
259.042	58.12794
259.576	43.09694
260.111	23.0538
260.645	39.08576
261.179	49.11645
261.713	-21.04844
262.247	16.03727
262.781	30.06462
263.315	13.03211
263.849	51.12922
264.382	71.16463
264.915	46.11052
265.449	15.03731
265.982	21.04868
266.515	86.21226
267.048	9.01957
267.58	-4.00886
268.113	32.07059
268.646	3.00749
269.178	12.02742
269.71	92.20515
270.243	66.15483
270.775	95.24487
271.307	0
271.838	43.10298
272.37	-6.01503
272.902	36.08293
273.433	66.14833
273.965	57.14004
274.496	19.0479
275.027	55.13856
275.558	50.12372
276.089	6.01531
276.62	-2.00514
277.15	55.13672
277.681	12.02644
278.211	17.04221
278.741	24.05449
279.272	46.10702
279.802	23.05817
280.332	9.02173
280.861	45.10908
281.391	55.12683
281.921	22.05354
282.45	41.10303
282.98	69.18124
283.509	48.1111
284.038	25.05843
284.567	54.12762
285.096	87.21263
285.625	-2.00462
286.153	77.18595
286.682	47.10985
287.21	-20.04889
287.739	32.07697
288.267	47.11619
288.795	4.01064
289.323	19.04561
289.851	58.13845
290.378	31.07049
290.906	35.08716
291.433	39.09871
291.961	72.16665
292.488	19.048
293.015	40.09618
293.542	109.28125
294.069	54.13572
294.596	28.06961
295.122	64.15557
295.649	48.1069
296.175	31.07593
296.702	128.31335
297.228	41.10028
297.754	31.07126
298.28	49.11483
298.806	32.07857
299.332	25.05733
299.857	47.10885
300.383	6.01541
300.908	67.16685
301.433	68.16882
301.958	38.08883
302.483	42.10571
303.008	52.1313
303.533	47.12283
304.058	-34.08184
304.582	48.11541
305.107	-3.00798
305.631	63.14504
306.155	42.09976
306.679	12.02894
307.203	33.07828
307.727	74.17759
308.251	28.07045
308.775	108.26459
309.298	3.00742
309.822	34.08689
310.345	75.18166
310.868	4.0099
311.391	50.12513
311.914	68.1725
312.437	50.11656
312.96	63.15082
313.482	12.02891
314.005	7.01787
314.527	2.00531
315.049	71.18187
315.571	51.11727
316.093	52.13088
316.615	20.04909
317.137	40.08934
317.659	58.14273
318.18	30.07301
318.702	68.16201
319.223	-4.00846
319.744	28.06471
320.265	55.13637
320.786	77.19488
321.307	17.04296
321.828	30.06944
322.348	67.16033
322.869	79.19099
323.389	367.68799
323.909	27.06328
324.43	64.1554
324.95	36.08445
325.47	68.17121
325.989	36.08741
326.509	62.14191
327.029	67.1561
327.548	72.16619
328.067	82.20186
328.587	123.31019
329.106	34.0786
329.625	45.11904
330.144	83.19619
330.662	82.19574
331.181	113.26937
331.7	37.0881
332.218	97.21402
332.736	62.14811
333.255	98.23393
333.773	53.1278
334.291	91.2304
334.808	83.19063
335.326	80.18311
335.844	89.21281
336.361	100.26013
336.879	71.17049
337.396	103.25398
337.913	57.13484
338.43	108.2471
338.947	108.26115
339.464	89.19604
339.981	94.22618
340.497	104.25847
341.014	75.18596
341.53	59.13637
342.046	143.35895
342.562	101.25453
343.078	60.14443
343.594	110.26468
344.11	140.33763
344.626	115.29292
345.141	118.27356
345.657	124.28416
346.172	139.33769
346.687	108.25147
347.202	176.40316
347.717	121.29165
348.232	114.28672
348.747	119.27855
349.261	136.30251
349.776	134.32157
350.29	142.35753
350.805	136.33812
351.319	109.25704
351.833	121.28246
352.347	110.26348
352.861	102.24329
353.374	112.25852
353.888	154.37826
354.401	109.25204
354.915	132.30225
355.428	136.34119
355.941	99.23446
356.454	104.23555
356.967	78.18562
357.48	110.2533
357.993	131.32456
358.505	90.22221
359.018	148.36446
359.53	206.50035
360.042	177.39803
360.554	163.40014
361.066	97.23936
361.578	179.39741
362.09	115.27708
362.602	150.33794
363.113	176.41528
363.625	168.3836
364.136	92.20659
364.647	176.41818
365.158	144.33806
365.669	141.33921
366.18	155.36679
366.691	116.25856
367.201	130.31446
367.712	199.4552
368.222	180.41563
368.733	124.27422
369.243	224.49845
369.753	128.29862
370.263	165.39965
370.773	112.27561
371.282	170.40703
371.792	174.40466
372.301	129.31422
372.811	174.45479
373.32	189.41088
373.829	139.33033
374.338	168.3757
374.847	208.47837
375.356	198.46519
375.865	200.42989
376.373	224.5063
376.882	199.5004
377.39	247.58764
377.898	201.49086
378.407	273.60987
378.915	236.51294
379.423	254.58228
379.93	320.72384
380.438	266.62736
380.946	293.66669
381.453	289.67803
381.96	303.70559
382.468	277.6387
382.975	356.84088
383.482	377.81152
383.989	358.88537
384.495	440.97372
385.002	398.80013
385.509	431.97625
386.015	463.89327
386.521	505.07062
387.028	509.07535
387.534	499.99509
388.04	541.2039
388.546	556.12783
389.051	580.16588
389.557	613.2864
390.063	640.2997
390.568	648.40087
391.073	678.33941
391.578	711.54015
392.084	824.61308
392.589	756.42329
393.093	890.80974
393.598	943.8112
394.103	973.92804
394.607	1127.1824
395.112	1217.3649
395.616	1246.37285
396.12	1357.34401
396.624	1443.53796
397.128	1636.82084
397.632	1807.89955
398.136	1947.92456
398.639	2042.07905
399.143	2276.46324
399.646	2619.36752
400.15	2828.30239
400.653	3220.18631
401.156	3602.03276
401.659	4190.3012
402.162	5070.48975
402.664	6498.67481
403.167	9207.93452
403.67	16804.66245
404.172	51383.35223
404.674	62177.98982
405.176	63738.15102
405.678	63977.72923
406.18	64011.81569
406.682	63863.44694
407.184	63926.60148
407.686	63841.39382
408.187	30361.23148
408.688	17573.71585
409.19	12067.53034
409.691	9707.98628
410.192	8252.59575
410.693	7115.53606
411.194	6466.76798
411.694	6071.18091
412.195	5712.7027
412.696	5241.47744
413.196	4729.04361
413.696	4648.92904
414.196	4760.32004
414.696	4737.11944
415.196	4404.87512
415.696	4106.78319
416.196	3211.32733
416.695	2549.31028
417.195	2155.23474
417.694	2056.60838
418.194	1951.59709
418.693	1870.83113
419.192	1736.8366
419.691	1690.74403
420.19	1641.81542
420.688	1632.87595
421.187	1527.18836
421.685	1454.49995
422.184	1420.50441
422.682	1084.88907
423.18	947.81453
423.678	829.62097
424.176	766.51635
424.674	704.3746
425.172	707.46174
425.669	648.41877
426.167	676.38789
426.664	578.18428
427.161	538.12754
427.659	490.09722
428.156	528.02506
428.652	407.9667
429.149	419.95563
429.646	414.8672
430.143	401.90647
430.639	419.93286
431.135	346.82549
431.632	334.73024
432.128	311.71765
432.624	321.79404
433.12	289.63654
433.616	295.62383
434.111	283.64915
434.607	212.49691
435.103	213.43779
435.598	288.57819
436.093	261.58908
436.588	231.5073
437.083	195.42951
437.578	249.56016
438.073	192.47159
438.568	238.56982
439.062	181.38192
439.557	178.40938
440.051	143.31868
440.546	129.29129
441.04	154.3652
441.534	162.40158
442.028	180.42587
442.522	178.41967
443.015	91.19556
443.509	139.33427
444.002	154.37139
444.496	127.27374
444.989	109.26282
445.482	105.25834
445.975	141.32254
446.468	114.24599
446.961	183.39021
447.454	89.19957
447.947	164.38501
448.439	133.32251
448.931	118.26911
449.424	175.43642
449.916	168.40239
450.408	63.14464
450.9	101.24381
451.392	112.28169
451.884	123.28012
452.375	74.18277
452.867	54.12201
453.358	65.14929
453.849	99.21119
454.341	113.25339
454.832	71.15383
455.323	141.34601
455.814	126.28515
456.304	87.20069
456.795	91.20707
457.285	86.18899
457.776	135.30371
458.266	61.14486
458.756	-5.01197
459.247	90.21409
459.737	133.31741
460.226	129.29069
460.716	62.14817
461.206	60.1435
461.695	68.16752
462.185	123.28848
462.674	77.17564
463.163	105.2339
463.653	109.2305
464.142	53.12847
464.63	78.18804
465.119	108.24879
465.608	140.32289
466.096	89.19233
466.585	39.08946
467.073	32.0758
467.561	78.18612
468.05	54.1244
468.538	95.22993
469.026	45.10682
469.513	58.12268
470.001	89.20318
470.489	78.18448
470.976	80.18605
471.463	94.23174
471.951	55.13627
472.438	71.16607
472.925	51.12008
473.412	86.20693
473.899	47.10795
474.385	77.18728
474.872	34.07954
475.359	50.12277
475.845	30.06265
476.331	21.04511
476.817	41.0998
477.303	69.15981
477.789	3.0072
478.275	46.11399
478.761	-7.01678
479.247	29.06503
479.732	65.1614
480.218	100.25897
480.703	56.1375
481.188	41.08913
481.673	70.16035
482.158	44.09547
482.643	91.23015
483.128	70.16267
483.612	102.24058
484.097	63.15128
484.581	73.16813
485.066	101.24473
485.55	83.18267
486.034	88.18964
486.518	91.2161
487.002	17.0415
487.486	36.08744
487.969	44.10684
488.453	20.04991
488.936	55.12379
489.42	53.11733
489.903	23.05736
490.386	-10.021
490.869	81.17669
491.352	7.01695
491.835	75.15297
492.318	47.10574
492.8	41.08534
493.283	83.21007
493.765	15.03695
494.247	31.07239
494.73	70.15448
495.212	17.04049
495.694	86.20127
496.175	93.22153
496.657	101.23661
497.139	56.09646
497.62	100.23806
498.102	76.18799
498.583	64.15639
499.064	97.21437
499.545	136.30465
500.026	172.37988
500.507	156.35146
500.988	185.45028
501.469	168.40867
501.949	202.48382
502.43	226.5262
502.91	305.61303
503.39	233.55689
503.87	252.57237
504.35	286.63745
504.83	303.62783
505.31	324.73915
505.79	337.75126
506.269	377.80803
506.749	442.92994
507.228	517.10374
507.707	608.19979
508.187	609.29597
508.666	641.4108
509.145	671.37483
509.623	784.56795
510.102	873.77715
510.581	896.80957
511.059	988.05484
511.538	1137.35523
512.016	1215.25635
512.494	1268.3313
512.972	1454.54088
513.45	1490.49069
513.928	1677.82463
514.406	1806.97642
514.884	1920.30317
515.361	2099.07337
515.839	2256.96955
516.316	2370.28566
516.793	2467.53432
517.27	2580.29214
517.747	2789.74101
518.224	2801.08112
518.701	2942.8462
519.178	3023.6031
519.654	3052.2419
520.131	3156.53126
520.607	3057.43922
521.083	3119.96531
521.56	3105.20818
522.036	3037.7522
522.512	2990.51292
522.987	2946.35588
523.463	2783.24519
523.939	2825.53471
524.414	2562.02029
524.89	2442.21468
525.365	2472.93781
525.84	2338.21568
526.315	2218.20019
526.79	2185.84401
527.265	2029.8786
527.74	1877.98971
528.215	1836.79032
528.689	1720.47136
529.164	1669.3594
529.638	1524.826
530.112	1469.49725
530.587	1411.14862
531.061	1411.5315
531.534	1345.43837
532.008	1275.38095
532.482	1204.1285
532.956	1121.30353
533.429	1103.16317
533.903	1041.80867
534.376	1004.78051
534.849	929.75946
535.322	911.78742
535.795	859.75259
536.268	899.82433
536.741	790.60475
537.213	766.50787
537.686	737.56937
538.158	774.50364
538.631	666.42326
539.103	684.34623
539.575	641.14705
540.047	584.13022
540.519	589.26042
540.991	573.25834
541.463	540.17607
541.934	445.92616
542.406	491.07982
542.877	448.93095
543.348	431.96672
543.82	437.98581
544.291	451.97161
544.762	388.86511
545.233	400.95099
545.703	372.7751
546.174	369.80351
546.645	355.811
547.115	346.78997
547.585	365.78873
548.056	347.80834
548.526	328.73922
548.996	348.78621
549.466	290.67439
549.935	317.721
550.405	225.47852
550.875	242.55522
551.344	201.46661
551.814	229.50799
552.283	256.53744
552.752	276.62102
553.221	259.55034
553.69	302.65135
554.159	306.7284
554.628	227.49915
555.096	246.60554
555.565	185.39979
556.033	276.63246
556.502	248.57787
556.97	204.44207
557.438	191.43778
557.906	151.35068
558.374	175.39773
558.842	211.49176
559.31	194.42381
559.777	184.44004
560.245	134.3035
560.712	156.35117
561.18	201.43343
561.647	142.31048
562.114	156.3516
562.581	143.34676
563.048	137.30973
563.514	249.60399
563.981	212.47194
564.448	162.35959
564.914	196.44374
565.381	228.50482
565.847	146.33485
566.313	149.34015
566.779	220.4802
567.245	138.3151
567.711	203.47312
568.176	142.31415
568.642	209.5121
569.108	213.5089
569.573	162.36781
570.038	208.4224
570.504	220.48223
570.969	212.51048
571.434	243.52084
571.899	236.54102
572.363	276.60701
572.828	287.63134
573.293	288.63127
573.757	305.67515
574.222	282.60508
574.686	261.57776
575.15	261.60516
575.614	354.78997
576.078	265.59811
576.542	243.53478
577.006	262.56944
577.469	290.6829
577.933	337.72729
578.396	255.58258
578.86	301.6763
579.323	300.69103
579.786	301.62229
580.249	345.76973
580.712	281.65514
581.175	310.72885
581.637	259.56855
582.1	259.54266
582.563	269.5479
583.025	291.67792
583.487	307.60053
583.95	253.52188
584.412	321.63893
584.874	287.67071
585.336	236.54168
585.797	287.5968
586.259	260.5855
586.721	277.6234
587.182	277.61216
587.643	254.55605
588.105	227.51966
588.566	231.46579
589.027	256.60472
589.488	224.49866
589.949	244.57258
590.41	250.47663
590.87	330.71661
591.331	306.63702
591.791	236.52885
592.252	229.51707
592.712	260.59986
593.172	285.62088
593.632	300.63648
594.092	217.46954
594.552	288.59635
595.011	210.46769
595.471	235.51565
595.931	258.56099
596.39	244.56609
596.849	193.43864
597.308	182.37906
597.768	214.53705
598.227	220.51304
598.685	196.4356
599.144	217.49697
599.603	168.38515
600.062	177.36528
600.52	206.45307
600.978	184.42487
601.437	200.44302
601.895	245.50652
602.353	119.25903
602.811	249.54177
603.269	172.40064
603.727	171.40215
604.184	190.4228
604.642	127.30831
605.099	190.43331
605.557	199.47127
606.014	146.3099
606.471	143.35325
606.928	139.30501
607.385	155.38149
607.842	154.34724
608.299	152.34931
608.755	132.31545
609.212	153.33573
609.668	184.40571
610.125	196.46013
610.581	156.35907
611.037	97.21608
611.493	99.22938
611.949	139.33363
612.405	162.32388
612.861	113.25724
613.316	162.38047
613.772	114.25852
614.227	177.41593
614.683	93.19615
615.138	78.18226
615.593	103.23703
616.048	152.34147
616.503	92.22171
616.958	144.35448
617.412	114.26774
617.867	100.22216
618.321	103.21094
618.776	93.20356
619.23	97.22537
619.684	86.19082
620.138	112.25336
620.592	57.13806
621.046	123.28679
621.5	72.17253
621.954	53.11728
622.407	88.19331
622.861	79.19063
623.314	65.14677
623.768	131.3046
624.221	84.16451
624.674	56.12926
625.127	67.15524
625.58	72.16095
626.033	74.16105
626.485	45.10764
626.938	102.2403
627.39	126.29014
627.843	66.15161
628.295	81.18551
628.747	141.33005
629.199	84.18987
629.651	13.03001
630.103	75.17108
630.555	51.10747
631.006	60.13904
631.458	103.2395
631.909	32.07186
632.361	51.11746
632.812	45.10414
633.263	90.19362
633.714	16.03411
634.165	62.14794
634.616	37.08749
635.067	84.18343
635.518	98.22962
635.968	31.06116
636.419	96.2075
636.869	48.11344
637.319	76.17514
637.769	85.1895
638.219	72.1687
638.669	34.08085
639.119	17.04081
639.569	49.11721
640.019	45.10385
640.468	23.05177
640.918	23.05466
641.367	46.10287
641.816	31.06906
642.265	85.19655
642.714	46.10533
643.163	77.17671
643.612	38.0931
644.061	27.058
644.51	16.03687
644.958	64.14076
645.406	31.07415
645.855	1.00244
646.303	50.11527
646.751	60.13833
647.199	65.14659
647.647	77.17748
648.095	24.05489
648.543	26.05299
648.99	66.15767
649.438	35.08096
649.885	84.20747
650.333	43.08363
650.78	29.07016
651.227	61.14853
651.674	58.1319
652.121	93.22569
652.568	66.16074
653.015	24.05943
653.461	35.08321
653.908	24.05524
654.354	42.09983
654.801	27.06343
655.247	44.09519
655.693	55.14226
656.139	0
656.585	37.08827
657.031	42.0986
657.477	36.07878
657.922	-5.01146
658.368	39.09564
658.813	36.0818
659.259	58.13993
659.704	65.15323
660.149	-1.00232
660.594	67.15794
661.039	8.01833
661.484	57.13431
661.929	21.04918
662.373	25.06273
662.818	14.03469
663.262	36.08695
663.707	28.07118
664.151	14.03421
664.595	20.04845
665.039	44.1088
665.483	22.05597
665.927	49.11452
666.371	14.03306
666.814	15.03572
667.258	60.14377
667.701	54.11467
668.145	80.19701
668.588	61.15014
669.031	26.06118
669.474	32.07668
669.917	25.05486
670.36	60.14874
670.803	61.14642
671.245	-8.01652
671.688	23.05596
672.13	28.06339
672.573	4.01013
673.015	30.07227
673.457	31.06748
673.899	72.17253
674.341	26.06259
674.783	-9.0217
675.225	14.0345
675.666	77.18658
676.108	10.02171
676.549	15.03499
676.991	6.01323
677.432	59.1164
677.873	-21.04837
678.314	15.03573
678.755	75.18303
679.196	23.05257
679.637	-3.00721
680.078	32.07457
680.518	30.06872
680.959	37.08773
681.399	-17.0423
681.839	14.03398
682.28	33.08173
682.72	1.00229
683.16	32.07956
683.6	67.15092
684.039	25.05159
684.479	22.05424
684.919	62.14465
685.358	11.02736
685.798	-30.07855
686.237	20.04761
686.676	-6.01363
687.115	74.1723
687.554	48.1141
687.993	23.05081
688.432	55.12445
688.871	55.1251
689.309	65.1543
689.748	64.13175
690.186	-26.06121
690.625	21.04923
691.063	-4.00956
691.501	3.00742
691.939	80.19875
692.377	-24.05849
692.815	51.12372
693.253	7.01665
693.69	7.01533
694.128	42.10125
694.565	3.00711
695.003	47.11912
695.44	53.1244
695.877	22.05161
696.314	2.00422
696.751	38.08551
697.188	70.16022
697.625	30.06673
698.061	29.06905
698.498	2.00472
698.934	16.03811
699.371	-29.06865
699.807	14.03294
700.243	83.19702
700.679	-5.01116
701.115	28.06491
701.551	13.0301
701.987	-28.06148
702.422	15.03569
702.858	74.17393
703.294	60.13595
703.729	8.0194
704.164	57.13437
704.599	16.03562
705.035	33.07351
705.47	0
705.904	13.02999
706.339	45.10223
706.774	22.05123
707.209	48.11057
707.643	34.08066
708.078	12.02905
708.512	-18.04518
708.946	-5.01182
709.38	21.0496
709.814	3.00677
710.248	78.18761
710.682	68.16095
711.116	26.06292
711.549	14.03552
711.983	17.03904
712.416	71.16587
712.85	9.02217
713.283	2.00471
713.716	33.08095
714.149	-13.03007
714.582	48.10655
715.015	26.06318
715.448	33.08233
715.881	45.09533
716.313	64.14708
716.746	36.08435
717.178	13.03107
717.61	30.07559
718.043	12.02942
718.475	44.10547
718.907	23.05688
719.339	12.02706
719.77	44.10415
720.202	-24.06004
720.634	34.08262
721.065	-17.04
721.497	58.13977
721.928	-18.0439
722.359	15.03628
722.79	-9.02149
723.221	-8.01977
723.652	12.03024
724.083	-30.06753
724.514	22.05007
724.945	22.051
725.375	-5.01165
725.806	21.05121
726.236	38.09582
726.666	48.11141
727.096	0
727.526	59.14964
727.956	62.13928
728.386	51.12297
728.816	26.06589
729.246	52.12645
729.675	-26.06327
730.105	1.00243
730.534	58.13265
730.964	9.02223
731.393	9.02183
731.822	36.09077
732.251	14.03519
732.68	39.08882
733.109	14.03421
733.537	67.16088
733.966	32.07895
734.395	70.15848
734.823	-14.03078
735.251	18.04275
735.68	3.00733
736.108	-9.02233
736.536	11.02548
736.964	-1.0023
737.392	37.09103
737.82	30.07054
738.247	24.05639
738.675	29.06709
739.102	-26.0646
739.53	51.12912
739.957	9.02309
740.384	15.03565
740.811	9.02213
741.238	73.17535
741.665	46.10647
742.092	-45.10327
742.519	11.02705
742.945	58.1385
743.372	47.11491
743.798	4.01014
744.225	-9.02112
744.651	47.11543
745.077	32.07857
745.503	-3.00717
745.929	75.17776
746.355	-12.02894
746.781	-11.02679
747.207	80.18569
747.632	68.16561
748.058	108.26489
748.483	24.05438
748.908	29.07125
749.334	46.11153
749.759	82.19086
750.184	35.08318
750.609	47.11294
751.033	53.12095
751.458	66.14345
751.883	23.05573
752.307	35.08103
752.732	64.16062
753.156	14.03402
753.58	54.12449
754.005	-13.03233
754.429	52.12108
754.853	20.0492
755.277	52.12117
755.7	67.16259
756.124	9.02213
756.548	-1.00234
756.971	42.1006
757.394	-10.02532
757.818	-1.00256
758.241	19.04768
758.664	18.04485
759.087	22.04898
759.51	21.05098
759.933	21.05016
760.356	93.23403
760.778	23.05569
761.201	42.09941
761.623	21.0491
762.046	15.03446
762.468	81.18842
762.89	-8.01929
763.312	57.13666
763.734	24.057
764.156	23.05594
764.578	24.05367
765	4.00963
765.421	30.07546
765.843	50.12823
766.264	-13.03042
766.686	-13.03189
767.107	21.05008
767.528	60.15113
767.949	31.07726
768.37	74.17914
768.791	19.04474
769.212	-3.00749
769.632	45.10339
770.053	-5.01291
770.473	9.02135
770.894	4.00968
771.314	36.083
771.734	6.01377
772.154	32.08005
772.575	71.15875
772.994	9.02003
773.414	42.09745
773.834	-2.00491
774.254	18.04313
774.673	65.15525
775.093	44.1074
775.512	37.08962
775.931	48.11917
776.351	67.16308
776.77	20.04834
777.189	21.04898
777.607	-8.02018
778.026	51.12414
778.445	49.12185
778.864	17.04226
779.282	-12.02818
779.701	-33.08203
780.119	7.01749
780.537	-22.05412
780.955	37.09137
781.373	41.0989
781.791	49.1087
782.209	24.05283
782.627	-37.09673
783.045	21.04666
783.462	1.00251
783.88	-6.01534
784.297	28.06903
784.715	4.01017
785.132	-13.03081
785.549	-8.01969
785.966	31.07633
786.383	-7.01707
786.8	25.05668
787.217	43.10046
787.633	-27.06739
788.05	8.01819
788.466	2.00456
788.883	29.07314
789.299	-2.00466
789.715	36.0858
790.131	15.03657
790.547	32.07785
790.963	29.07016
791.379	-26.06497
791.795	25.05493
792.21	47.10591
792.626	4.00921
793.041	-8.01936
793.457	27.06466
793.872	4.00912
794.287	7.01666
794.702	-52.12465
795.117	23.05617
795.532	24.05934
795.947	18.04161
796.362	-12.02748
796.776	20.04465
797.191	25.05987
797.605	7.01632
798.02	4.00952
798.434	47.10122
798.848	81.19561
799.262	3.0073
799.676	3.00716
800.09	27.06468
800.504	-15.03554
800.918	26.05795
801.331	-45.11377
801.745	21.04662
802.158	-1.00242
802.572	13.03076
802.985	35.08129
803.398	-13.03028
803.811	-7.01725
804.224	-30.07243
804.637	32.07445
805.05	31.06908
805.462	-39.09379
805.875	-10.02557
806.288	47.11075
806.7	-29.0709
807.112	-35.07897
807.525	-21.04998
807.937	-8.01944
808.349	4.00972
808.761	39.09354
809.173	7.01664
809.584	8.01917
809.996	-15.03595
810.408	-12.03079
810.819	-6.01382
811.231	37.09663
811.642	47.11354
812.053	42.0996
812.464	-39.09086
812.875	-18.04544
813.286	22.05579
813.697	12.02653
814.108	21.0496
814.519	50.10849
814.929	17.0421
815.34	-12.02815
815.75	19.04752
816.16	-17.04093
816.571	-2.00506
816.981	13.02944
817.391	-5.01166
817.801	-1.00244
818.211	63.14411
818.62	-6.0142
819.03	-5.01193
819.44	-12.03014
819.849	-19.04637
820.259	9.0222
820.668	15.03609
821.077	22.0537
821.486	16.0369
821.895	13.03074
822.304	12.03097
822.713	-6.01377
823.122	-6.01459
823.531	-19.04332
823.939	15.03572
824.348	13.0305
824.756	22.0532
825.164	8.0195
825.573	13.03178
825.981	4.0096
826.389	4.00977
826.797	49.12096
827.205	33.07382
827.612	14.03337
828.02	11.02493
828.428	-6.01491
828.835	32.08253
829.243	20.04582
829.65	-1.00245
830.057	8.01877
830.464	33.07891
830.871	90.20699
831.278	-22.05203
831.685	4.00861
832.092	22.05165
832.499	20.04251
832.905	-24.05906
833.312	-8.01737
833.718	78.18811
834.124	43.09487
834.531	17.04118
834.937	54.1344
835.343	11.02552
835.749	-17.03807
836.155	25.06366
836.561	9.02155
836.966	-6.01423
837.372	2.00493
837.777	0
838.183	4.00856
838.588	68.16356
838.993	28.06602
839.399	1.00239
839.804	3.00713
840.209	11.02761
840.613	18.03857
841.018	30.07317
841.423	-13.03263
841.828	7.01733
842.232	30.07054
842.637	30.06919
843.041	-1.00251
843.445	-2.00485
843.849	56.13419
844.253	-1.0023
844.657	46.11274
845.061	78.1722
845.465	30.0701
845.869	19.04268
846.272	2.00476
846.676	-24.0556
847.079	21.05232
847.483	27.06501
847.886	29.06748
848.289	22.05795
848.692	-20.04914
849.095	53.12178
849.498	53.12741
849.901	31.06782
850.304	8.01851
850.707	-19.04716
851.109	55.13327
851.512	22.05254
851.914	22.05424
852.316	72.17718
852.718	52.13336
853.121	-3.00716
853.523	-37.08389
853.925	44.11241
854.326	33.08044
854.728	21.05266
855.13	13.03298
855.531	2.00466
855.933	9.02071
856.334	55.13332
856.736	10.02189
857.137	38.08593
857.538	28.06875
857.939	49.11855
858.34	19.0443
858.741	43.10837
859.142	11.02545
859.542	11.02849
859.943	68.16213
860.343	18.04356
860.744	-17.04042
861.144	53.12562
861.544	44.10346
861.945	-13.03229
862.345	42.09845
862.745	56.13506
863.145	-19.04332
863.544	13.03202
863.944	6.01373
864.344	0
864.743	54.12865
865.143	48.12025
865.542	-42.09389
865.941	45.10785
866.34	8.0183
866.74	27.07054
867.139	52.12151
867.537	3.00735
867.936	58.13468
868.335	8.01973
868.734	17.04227
869.132	-20.0446
869.531	65.14863
869.929	-3.00667
870.327	-19.04437
870.726	14.03346
871.124	5.01121
871.522	-4.00989
871.92	39.09279
872.318	0
872.715	-12.02846
873.113	-20.04721
873.511	-19.046
873.908	30.07464
874.306	16.03894
874.703	13.0312
875.1	-40.09876
875.497	-25.05818
875.894	12.02908
876.291	51.12069
876.688	4.01006
877.085	22.05058
877.482	17.04121
877.878	69.16145
878.275	6.01486
878.671	-13.02711
879.068	39.09058
879.464	-20.04706
879.86	-17.03911
880.256	-37.08776
880.652	0
881.048	-15.03579
881.444	7.01587
881.84	20.04918
882.236	0
882.631	50.11876
883.027	38.08817
883.422	-4.00989
883.817	-11.02717
884.213	-2.005
884.608	53.12799
885.003	-18.04186
885.398	10.02432
885.793	27.06523
886.188	-54.13151
886.582	3.00741
886.977	-25.05735
887.371	2.00488
887.766	-37.09066
888.16	5.01189
888.554	8.01902
888.949	21.051
889.343	27.06328
889.737	-38.10047
890.131	13.03163
890.525	52.12914
890.918	11.02682
891.312	21.04794
891.706	17.04321
892.099	44.1076
892.492	16.03292
892.886	16.03777
893.279	-40.09956
893.672	24.05963
894.065	27.06545
894.458	-11.02664
894.851	15.03528
895.244	-21.05233
895.637	28.0653
896.029	-5.01196
896.422	-14.03283
896.814	9.02161
897.206	20.0467
897.599	64.15154
897.991	-5.01182
898.383	0
898.775	58.12671
899.167	50.11366
899.559	10.02432
899.951	9.0203
900.342	10.02442
900.734	47.11525
901.125	4.01014
901.517	23.05468
901.908	16.03645
902.299	27.06397
902.69	44.10071
903.082	26.06075
903.473	32.07513
903.863	-15.03708
904.254	11.02499
904.645	10.02376
905.036	62.14709
905.426	16.0347
905.817	-1.00236
906.207	1.00228
906.597	41.09315
906.987	-12.03005
907.378	34.08358
907.768	35.08997
908.158	9.02119
908.547	50.12652
908.937	-35.08672
909.327	23.05378
909.717	-47.11491
910.106	-25.05818
910.495	17.04056
910.885	45.11019
911.274	2.00484
911.663	-19.04656
912.052	-12.02843
912.441	1.00249
912.83	-10.02206
913.219	-23.05858
913.608	30.0712
913.997	27.06614
914.385	16.03692
914.774	31.07257
915.162	27.06281
915.55	16.03708
915.939	7.0173
916.327	-25.06033
916.715	14.03519
917.103	15.03503
917.491	8.0191
917.878	-6.01428
918.266	1.00251
918.654	24.05989
919.041	36.09223
919.429	12.02735
919.816	14.03434
920.203	55.12935
920.591	9.02168
920.978	22.05201
921.365	35.08928
921.752	-39.08921
922.139	25.05206
922.525	20.04659
922.912	11.02584
923.299	25.06014
923.685	-45.11405
924.072	-14.03046
924.458	32.07688
924.844	-18.04341
925.231	17.03774
925.617	7.0175
926.003	2.00495
926.389	24.05852
926.774	24.05858
927.16	29.06934
927.546	52.13013
927.931	6.01441
928.317	46.10058
928.702	3.00683
929.088	39.09083
929.473	31.07692
929.858	58.13718
930.243	28.06553
930.628	62.14624
931.013	13.03125
931.398	17.03693
931.783	38.09561
932.167	34.08104
932.552	12.02902
932.937	24.05714
933.321	38.09282
933.705	-8.01937
934.09	7.01677
934.474	19.04303
934.858	12.0303
935.242	-1.00223
935.626	37.09201
936.009	56.14538
936.393	69.17108
936.777	51.12668
937.16	41.10399
937.544	-26.05851
937.927	16.03959
938.311	1.00235
938.694	25.06433
939.077	-2.00464
939.46	21.04858
939.843	10.01947
940.226	-23.05726
940.609	54.12012
940.991	-12.02954
941.374	10.02382
941.757	30.07104
942.139	47.10139
942.522	36.08111
942.904	15.03484
943.286	32.07819
943.668	30.07608
944.05	31.0737
944.432	-8.01909
944.814	36.08442
945.196	-18.04308
945.578	28.06532
945.959	-26.05855
946.341	14.03252
946.722	59.13143
947.104	40.09189
947.485	46.10258
947.866	64.15621
948.247	20.04936
948.628	-30.0698
949.009	29.07183
949.39	24.05727
949.771	-18.03956
950.152	3.00715
950.532	38.09282
950.913	-12.02804
951.293	2.00532
951.674	17.0397
952.054	35.08535
952.434	-5.01208
952.814	-4.0091
953.194	7.01755
953.574	14.03315
953.954	13.02944
954.334	66.15929
954.714	15.03554
955.093	33.07809
955.473	40.09756
955.853	26.06521
956.232	-2.00534
956.611	14.03193
956.99	18.04398
957.37	2.00491
957.749	-21.04783
958.128	7.01722
958.506	6.01516
958.885	28.06796
959.264	-2.00482
959.643	76.16561
960.021	29.0699
960.4	-4.00874
960.778	44.10241
961.156	4.00968
961.535	-8.01784
961.913	52.11715
962.291	11.02777
962.669	-10.0248
963.047	39.09663
963.424	24.06015
963.802	24.05711
964.18	-8.01932
964.557	34.07462
964.935	3.00686
965.312	22.05589
965.69	-7.01685
966.067	-34.0797
966.444	-19.0446
966.821	48.11943
967.198	26.05994
967.575	5.0118
967.952	67.14999
968.329	47.11058
968.705	34.07018
969.082	38.09554
969.458	20.04701
969.835	47.10976
970.211	41.10273
970.587	6.01451
970.963	-5.01235
971.339	-11.02816
971.715	15.03632
972.091	-8.0191
972.467	-43.10317
972.843	51.12321
973.219	33.07528
973.594	14.03557
973.97	-16.03587
974.345	10.02324
974.721	1.0023
975.096	26.06118
975.471	19.0432
975.846	20.04593
976.221	-15.03716
976.596	28.06584
976.971	77.18306
977.346	17.03773
977.72	32.07825
978.095	-12.03018
978.469	4.00918
978.844	26.06266
979.218	19.04468
979.593	67.15234
979.967	-16.03708
980.341	33.07327
980.715	47.11427
981.089	45.10822
981.463	13.02874
981.837	7.01678
982.21	-12.02623
982.584	35.0817
982.957	30.07279
983.331	13.02913
983.704	70.16677
984.078	-26.06228
984.451	-16.03799
984.824	26.06149
985.197	-3.00694
985.57	-26.06244
985.943	-31.07311
986.316	53.12251
986.688	36.0832
987.061	48.1081
987.434	32.08181
987.806	0
988.179	-17.03872
988.551	23.05609
988.923	7.01657
989.295	8.01923
989.667	53.12333
990.039	40.09687
990.411	-32.07032
990.783	3.00656
991.155	6.01401
991.527	21.04879
991.898	41.09886
992.27	17.04108
992.641	21.0505
993.012	-20.04434
993.384	58.13142
993.755	34.08419
994.126	79.18282
994.497	-9.02145
994.868	14.03052
995.239	4.00934
995.61	3.00733
995.98	9.02108
996.351	19.04581
996.722	9.02039
997.092	-29.06719
997.462	-5.01146
997.833	18.04065
998.203	-19.04399
998.573	9.02179
998.943	20.04541
999.313	23.05344
999.683	-17.03976
1000.053	-21.04562
1000.423	14.03255
1000.792	-16.03991
1001.162	-16.03796
1001.531	58.13728
1001.901	21.05023
1002.27	13.02726
1002.639	23.05632
1003.009	33.07512
1003.378	22.05452
1003.747	40.08986
1004.116	26.0597
1004.485	14.03223
1004.853	-47.11474
1005.222	-64.15522
1005.591	32.07263
1005.959	-15.03286
1006.328	0
1006.696	19.04393
1007.064	-31.07523
1007.433	-27.06513
1007.801	2.00466
1008.169	-3.00726
1008.537	26.055
1008.905	53.11889
1009.273	-37.08834
1009.64	45.10439
1010.008	11.02521
1010.375	55.12516
1010.743	11.02359
1011.11	56.12936
1011.478	37.08878
1011.845	30.06723
1012.212	50.10937
1012.579	38.08984
1012.946	12.02716
1013.313	19.04306
1013.68	-20.04317
1014.047	15.03442
1014.414	-20.0457
1014.78	26.06259
1015.147	19.04364
1015.513	-2.00466
1015.88	29.07096
1016.246	4.00941
1016.612	40.08661
1016.978	20.04759
1017.344	-18.04333
1017.71	42.09745
1018.076	9.0202
1018.442	48.11925
1018.808	28.06819
1019.174	-20.04847
1019.539	-18.03821
1019.905	-24.05527
1020.27	22.05221
1020.636	45.1017
1021.001	47.10812
1021.366	25.05806
1021.731	56.1405
1022.096	19.04682
1022.461	16.03656
1022.826	53.12148
1023.191	29.07363
1023.556	-19.04285
1023.92	-6.01414
1024.285	-30.07035
1024.649	1.00235
1025.014	19.04479
1025.378	10.0245
1025.742	-7.01669
1026.107	11.02379
1026.471	18.04006
1026.835	5.01199
1027.199	1.00233
1027.562	-7.01552
1027.926	-1.00235
1028.29	15.03674
1028.654	20.04391
1029.017	48.11348
1029.381	2.00463
1029.744	47.11538
1030.107	12.02732
1030.471	42.09695
1030.834	5.01074
1031.197	63.14452
1031.56	17.03832
1031.923	21.05264
1032.286	85.18911
1032.648	4.00908
1033.011	37.08256
1033.374	-36.08117
1033.736	5.01279
1034.099	-1.00236
1034.461	38.09327
1034.823	-23.056
1035.185	11.02649
1035.548	46.10787
1035.91	20.04596
1036.272	47.10266
1036.634	59.13784
1036.995	4.00898
1037.357	-6.01422
1037.719	68.15808
1038.08	43.09864
1038.442	-3.00686
1038.803	-15.03426
1039.165	-36.08813
1039.526	52.12031
1039.887	16.0368
1040.248	72.17259
1040.609	-18.04265
1040.97	-32.0758
1041.331	40.09822
1041.692	47.10699
1042.053	-7.01525
1042.413	23.05102
1042.774	22.05163
1043.134	30.06748
1043.495	58.13961
1043.855	44.10354
1044.215	-20.04791
1044.576	-5.01165
1044.936	35.07615
1045.296	14.03371
1045.656	-7.01643
1046.016	38.08733
1046.375	-17.03998
1046.735	12.02667
1047.095	41.09182
1047.454	30.05964
1047.814	31.07163
1048.173	20.04517
1048.533	2.00441
1048.892	-22.05151
1049.251	17.04084
1049.61	-2.00477
1049.969	29.0653
1050.328	6.01246
1050.687	-23.05392
1051.046	-36.08491
1051.405	-42.10083
1051.763	13.02909
1052.122	-12.02898
1052.48	-3.00714
1052.839	14.03228
1053.197	4.00906
1053.555	-17.0365
1053.914	32.07489
1054.272	-55.12672
1054.63	-16.03806
1054.988	10.02314
1055.345	-18.0367
1055.703	33.07637
1056.061	28.07042
1056.419	62.15683
1056.776	-45.10435
1057.134	-37.0815
1057.491	2.00485
1057.848	23.05479
1058.206	-29.06498
1058.563	31.06495
1058.92	15.033
1059.277	19.04515
1059.634	-5.01117
1059.991	55.12617
1060.348	-11.0241
1060.704	51.11915
1061.061	-14.03074
1061.418	7.01641
1061.774	4.00955
1062.131	-7.01832
1062.487	-42.09482
1062.843	32.07668
1063.199	20.048
1063.555	-2.00452
1063.911	-15.03654
1064.267	45.08719
1064.623	21.04973
1064.979	-15.033
1065.335	1.00228
1065.691	-16.0365
1066.046	10.02099
1066.402	-32.06988
1066.757	18.0439
1067.112	42.0983
1067.468	43.09864
1067.823	-59.1354
1068.178	14.03235
1068.533	25.05822
1068.888	16.03653
1069.243	27.06414
1069.598	-9.021
1069.952	64.14023
1070.307	-34.08246
1070.662	34.07851
1071.016	18.03929
1071.371	-3.00661
1071.725	14.03188
1072.079	4.00931
1072.434	-4.00944
1072.788	-55.12581
1073.142	61.14357
1073.496	27.06127
1073.85	-17.03799
1074.203	32.07463
1074.557	38.09895
1074.911	35.07932
1075.265	10.02232
1075.618	50.11697
1075.971	29.06604
1076.325	12.02976
1076.678	-30.06654
1077.031	-51.1096
1077.385	27.05645
1077.738	11.02374
1078.091	23.05064
1078.444	-20.04427
1078.796	17.04049
1079.149	25.06003
1079.502	33.07534
1079.855	28.06267
1080.207	44.10346
1080.56	39.09786
1080.912	33.07691
1081.264	14.03262
1081.617	35.08225
1081.969	20.04905
1082.321	-8.01883
1082.673	-15.03366
1083.025	-28.06396
1083.377	7.01582
1083.728	42.09296
1084.08	-2.0048
1084.432	19.04387
1084.783	4.00882
1085.135	9.02192
1085.486	34.07491
1085.838	44.10435
1086.189	42.09868
1086.54	29.06607
1086.891	35.08703
1087.242	35.0834
1087.593	8.01846
1087.944	67.14535
1088.295	62.13327
1088.646	79.18608
1088.996	-3.00704
1089.347	-39.09254
1089.698	5.01154
1090.048	2.00501
1090.398	-20.04449
1090.749	-3.00686
1091.099	6.01481
1091.449	-14.03401
1091.799	-8.01941
1092.149	1.0024
1092.499	-13.03074
1092.849	-6.01483
1093.199	26.06213
1093.548	20.04681
1093.898	14.03366
1094.248	-26.06438
1094.597	9.02258
1094.947	-4.01042
1095.296	37.08834
1095.645	-8.02013
1095.994	-18.04188
1096.343	39.09479
1096.692	82.21023
1097.041	17.0455
1097.39	-5.01207
1097.739	-15.03792
1098.088	13.03354
1098.437	49.12613
1098.785	-11.02867
1099.134	-33.08417
1099.482	25.06706
1099.83	24.06108
1100.179	33.08492
1100.527	11.02802
1100.875	55.14133
1101.223	37.09574
1101.571	-51.13811
1101.919	24.06222
1102.267	25.06919
1102.615	2.00642
1102.962	-8.02569
1103.31	7.02247
1103.658	1.00321
