Data from N1 R2 sample 10_Subt2__2__13-00-24-249.txt Node

Date: Wed Sep 17 13:00:24 PDT 2025
User: uwsun
Spectrometer: HDX01956
Trigger mode: 0
Integration Time (sec): 5.000000E-1
Scans to average: 1
Nonlinearity correction enabled: true
Boxcar width: 0
Storing dark spectrum: false
XAxis mode: Wavelengths
Number of Pixels in Spectrum: 2068
>>>>>Begin Spectral Data<<<<<
194.03	-10.02907
194.578	2.0065
195.127	-2.00641
195.676	0
196.225	14.0373
196.773	-5.01398
197.321	-15.0421
197.87	-38.10021
198.418	-31.08223
198.966	45.12044
199.513	21.05454
200.061	12.03119
200.609	36.09659
201.156	6.01353
201.704	21.054
202.251	36.09732
202.798	2.00531
203.345	9.02285
203.892	26.0671
204.438	22.05342
204.985	3.00733
205.532	-31.08384
206.078	-16.04023
206.624	60.15302
207.17	67.15978
207.716	21.05275
208.262	37.0754
208.808	61.15576
209.354	77.19308
209.899	8.02062
210.445	-28.07229
210.99	10.02505
211.535	21.05077
212.08	-16.03835
212.625	-8.02052
213.17	57.14754
213.715	30.07029
214.259	17.04074
214.804	11.02761
215.348	55.12965
215.892	23.05717
216.436	8.01875
216.98	-43.09809
217.524	40.09763
218.068	41.10535
218.612	73.18797
219.155	40.09647
219.698	49.1186
220.242	22.05535
220.785	37.08868
221.328	14.03531
221.871	54.13951
222.414	28.07045
222.956	-32.07881
223.499	8.01827
224.041	-14.03285
224.583	-40.08731
225.126	14.03141
225.668	35.08637
226.21	47.12056
226.751	52.11768
227.293	0
227.835	17.04246
228.376	28.06478
228.918	35.08833
229.459	-13.03319
230	63.153
230.541	3.00706
231.082	38.09393
231.622	5.01156
232.163	-3.00739
232.704	72.18174
233.244	37.09308
233.784	-2.00495
234.324	72.16387
234.864	-1.00231
235.404	24.05744
235.944	41.09785
236.484	45.11369
237.023	60.14284
237.563	49.11551
238.102	66.15755
238.641	-21.05398
239.18	19.04547
239.719	-20.05124
240.258	26.05949
240.797	34.08249
241.335	-7.01739
241.874	54.10711
242.412	67.16442
242.95	-1.00247
243.488	-47.10898
244.026	66.15525
244.564	50.10465
245.102	67.15363
245.64	2.00487
246.177	5.01136
246.715	65.15768
247.252	2.00464
247.789	123.22806
248.326	0
248.863	25.05617
249.4	64.14667
249.936	82.17367
250.473	43.10325
251.009	15.03504
251.546	35.07968
252.082	3.00664
252.618	7.01603
253.154	18.04415
253.69	13.02979
254.226	80.19301
254.761	39.089
255.297	-19.04271
255.832	25.06055
256.367	42.10014
256.903	58.13083
257.438	60.14218
257.972	-7.016
258.507	-1.00235
259.042	21.04668
259.576	47.10587
260.111	-19.04481
260.645	31.06828
261.179	54.12821
261.713	21.04804
262.247	14.03262
262.781	32.0689
263.315	-6.01487
263.849	23.05856
264.382	38.08869
264.915	47.1129
265.449	-7.01748
265.982	44.10152
266.515	42.1045
267.048	25.05419
267.58	23.05064
268.113	13.02879
268.646	-11.02753
269.178	26.05925
269.71	89.19858
270.243	52.12232
270.775	7.01832
271.307	3.00728
271.838	15.03611
272.37	-10.02507
272.902	46.10576
273.433	87.19468
273.965	31.07653
274.496	18.04539
275.027	53.13357
275.558	49.12127
276.089	31.07874
276.62	2.00514
277.15	43.10712
277.681	9.01984
278.211	45.11117
278.741	35.07929
279.272	39.09086
279.802	19.04809
280.332	33.07933
280.861	69.1665
281.391	21.04875
281.921	27.06565
282.45	8.02022
282.98	33.08721
283.509	44.10193
284.038	71.16444
284.567	8.01907
285.096	35.08637
285.625	-27.06263
286.153	45.10933
286.682	35.08199
287.21	-9.02196
287.739	17.04101
288.267	20.04969
288.795	32.08475
289.323	-14.03382
289.851	51.1219
290.378	23.05238
290.906	47.11679
291.433	63.15877
291.961	20.04677
292.488	37.09318
293.015	41.09856
293.542	70.18184
294.069	68.17048
294.596	61.15075
295.122	69.16757
295.649	7.01572
296.175	26.06375
296.702	75.18541
297.228	-9.02222
297.754	-7.01621
298.28	37.08692
298.806	24.05902
299.332	37.08464
299.857	55.12718
300.383	21.05379
300.908	46.11499
301.433	51.12701
301.958	8.01881
302.483	-24.06112
303.008	30.07605
303.533	32.08384
304.058	6.01433
304.582	50.12017
305.107	6.01593
305.631	8.01862
306.155	11.02628
306.679	18.04336
307.203	40.09475
307.727	40.09661
308.251	42.10541
308.775	89.21881
309.298	0
309.822	22.05634
310.345	76.18405
310.868	26.0641
311.391	61.15235
311.914	10.02563
312.437	26.0609
312.96	51.12237
313.482	16.03851
314.005	18.04586
314.527	26.06877
315.049	1.00259
315.571	5.0116
316.093	70.17562
316.615	29.07106
317.137	42.09377
317.659	47.11589
318.18	19.04633
318.702	21.05048
319.223	-10.02117
319.744	13.03013
320.265	23.05736
320.786	37.09431
321.307	9.02278
321.828	55.12667
322.348	37.08905
322.869	61.14798
323.389	100.19983
323.909	16.03758
324.43	42.1024
324.95	27.06345
325.47	73.18364
325.989	44.10668
326.509	39.08968
327.029	30.0704
327.548	55.12738
328.067	43.10662
328.587	55.14039
329.106	37.08549
329.625	60.15832
330.144	41.0977
330.662	55.13197
331.181	108.2577
331.7	17.04063
332.218	32.07156
332.736	44.10547
333.255	56.13475
333.773	-2.00487
334.291	72.18291
334.808	89.20416
335.326	55.12652
335.844	41.09894
336.361	112.29075
336.879	88.21062
337.396	53.13189
337.913	54.12781
338.43	76.175
338.947	41.10039
339.464	49.10884
339.981	36.08758
340.497	61.15279
341.014	69.17127
341.53	33.07667
342.046	119.3
342.562	25.06386
343.078	78.18712
343.594	67.16253
344.11	75.1831
344.626	99.25288
345.141	58.13606
345.657	82.1895
346.172	64.15767
346.687	33.07797
347.202	123.28476
347.717	88.21343
348.232	72.18245
348.747	82.19334
349.261	121.26998
349.776	126.30284
350.29	74.18859
350.805	77.19349
351.319	40.09559
351.833	97.2275
352.347	69.16656
352.861	112.26663
353.374	44.10294
353.888	92.22856
354.401	30.07046
354.915	72.16685
355.428	67.17018
355.941	98.23214
356.454	58.1326
356.967	38.09112
357.48	40.09339
357.993	67.16794
358.505	49.12189
359.018	115.28492
359.53	109.26956
360.042	92.21049
360.554	119.29451
361.066	29.07246
361.578	166.36955
362.09	84.20358
362.602	95.21644
363.113	118.28156
363.625	91.21101
364.136	103.23077
364.647	71.1721
365.158	82.19484
365.669	87.21144
366.18	88.21094
366.691	116.25856
367.201	118.28608
367.712	108.25157
368.222	108.25295
368.733	61.13667
369.243	92.21032
369.753	86.20229
370.263	132.32171
370.773	47.11704
371.282	151.36285
371.792	148.34596
372.301	83.20391
372.811	137.36034
373.32	130.28616
373.829	93.22297
374.338	88.20005
374.847	122.28541
375.356	100.23943
375.865	135.29424
376.373	132.30395
376.882	128.32597
377.39	148.35881
377.898	140.34578
378.407	168.38344
378.915	156.34484
379.423	98.23169
379.93	277.63207
380.438	129.31234
380.946	156.3648
381.453	149.35913
381.96	196.46605
382.468	184.43213
382.975	214.51939
383.482	213.47466
383.989	235.5943
384.495	279.63818
385.002	196.41239
385.509	276.64488
386.015	322.64227
386.521	309.68429
387.028	307.67845
387.534	288.60249
388.04	350.811
388.546	326.69707
389.051	338.71835
389.557	351.7802
390.063	359.77676
390.568	342.7887
391.073	419.87903
391.578	417.96103
392.084	466.99034
392.589	414.84573
393.093	553.20978
393.598	587.22309
394.103	609.30833
394.607	647.39603
395.112	728.57868
395.616	824.72935
396.12	761.52154
396.624	869.75619
397.128	924.89256
397.632	1092.10194
398.136	1120.09327
398.639	1197.25352
399.143	1345.60064
399.646	1490.63526
400.15	1639.72614
400.653	1850.83821
401.156	2111.96073
401.659	2543.49989
402.162	2980.30779
402.664	3869.88143
403.167	5531.6099
403.67	10110.15653
404.172	31188.65188
404.674	59923.40876
405.176	63738.15102
405.678	63977.72923
406.18	64011.81569
406.682	63863.44694
407.184	63926.60148
407.686	46616.07435
408.187	17527.85694
408.688	10266.55487
409.19	7158.80192
409.691	5808.46825
410.192	4841.89771
410.693	4268.52912
411.194	3809.02086
411.694	3504.41137
412.195	3310.7633
412.696	3029.37549
413.196	2803.79322
413.696	2645.42716
414.196	2757.02684
414.696	2771.63363
415.196	2577.27395
415.696	2344.03083
416.196	1910.97403
416.695	1495.61631
417.195	1213.32708
417.694	1219.98598
418.194	1103.87646
418.693	1100.04166
419.192	1055.04655
419.691	962.87831
420.19	969.95848
420.688	954.97601
421.187	878.51146
421.685	848.6922
422.184	801.63931
422.682	708.35497
423.18	533.12221
423.678	510.07158
424.176	462.98056
424.674	454.94005
425.172	428.94125
425.669	412.94818
426.167	371.81506
426.664	295.64403
427.161	352.76926
427.659	254.59744
428.156	328.66822
428.652	216.5319
429.149	222.52645
429.646	229.49931
430.143	268.62225
430.639	181.42284
431.135	181.44548
431.632	183.41288
432.128	177.41934
432.624	224.56396
433.12	157.35538
433.616	193.41725
434.111	153.3601
434.607	109.26063
435.103	165.34281
435.598	190.39008
436.093	118.2741
436.588	157.35016
437.083	147.32705
437.578	159.36429
438.073	90.22522
438.568	115.28179
439.062	115.24618
439.557	120.27919
440.051	80.18061
440.546	51.11699
441.04	112.26776
441.534	105.263
442.028	116.27785
442.522	67.16137
443.015	8.0175
443.509	87.21128
444.002	67.16424
444.496	40.08783
444.989	56.13638
445.482	66.16355
445.975	81.18752
446.468	93.20158
446.961	87.18938
447.454	43.09733
447.947	41.09856
448.439	83.20316
448.931	49.11331
449.424	86.21793
449.916	73.17802
450.408	32.07392
450.9	28.06852
451.392	61.15483
451.884	50.11555
452.375	20.04989
452.867	26.05908
453.358	30.06938
453.849	12.02608
454.341	65.14719
454.832	21.04598
455.323	77.19119
455.814	20.04624
456.304	71.16431
456.795	45.10335
457.285	6.01341
457.776	55.12576
458.266	23.05502
458.756	0
459.247	27.06501
459.737	64.15476
460.226	66.15064
460.716	39.09361
461.206	37.08888
461.695	-1.00249
462.185	38.0906
462.674	32.07366
463.163	73.16369
463.653	112.23669
464.142	54.13087
464.63	34.08265
465.119	86.19898
465.608	97.22563
466.096	5.011
466.585	51.11671
467.073	-3.00715
467.561	35.0842
468.05	12.02788
468.538	13.03195
469.026	5.01196
469.513	32.06807
470.001	71.16268
470.489	50.1189
470.976	85.19749
471.463	57.14148
471.951	79.19487
472.438	55.12905
472.925	29.06857
473.412	7.0171
473.899	40.092
474.385	26.06384
474.872	36.08419
475.359	41.10084
475.845	50.10395
476.331	-56.12229
476.817	45.10945
477.303	51.11854
477.789	6.01439
478.275	-14.03507
478.761	24.0572
479.247	8.01802
479.732	-3.00754
480.218	47.12283
480.703	8.01982
481.188	33.07186
481.673	18.04166
482.158	24.0523
482.643	67.17018
483.128	53.12358
483.612	52.12384
484.097	28.06768
484.581	40.09273
485.066	85.20658
485.55	45.09983
486.034	24.05243
486.518	74.1763
487.002	-17.04177
487.486	-2.00489
487.969	21.05121
488.453	25.06233
488.936	5.01137
489.42	30.06673
489.903	-15.03767
490.386	-49.1038
490.869	85.18526
491.352	-5.01213
491.835	4.00829
492.318	-44.10083
492.8	25.05222
493.283	24.06138
493.765	7.01727
494.247	55.12784
494.73	25.05569
495.212	-22.0528
495.694	79.18514
496.175	60.14383
496.657	53.12533
497.139	30.05203
497.62	35.08436
498.102	37.09218
498.583	-27.06709
499.064	56.12482
499.545	40.09137
500.026	61.13785
500.507	40.09226
500.988	87.21563
501.469	44.10951
501.949	32.07912
502.43	64.15377
502.91	168.34834
503.39	52.12858
503.87	102.23871
504.35	96.22238
504.83	92.19962
505.31	115.2734
505.79	61.14374
506.269	93.21154
506.749	85.19287
507.228	162.37303
507.707	218.47019
508.187	208.48181
508.666	220.52753
509.145	205.46477
509.623	274.61324
510.102	270.62541
510.581	288.66313
511.059	320.76523
511.538	293.72161
512.016	353.79669
512.494	386.86741
512.972	464.02055
513.45	429.92621
513.928	530.16939
514.406	600.31743
514.884	603.39899
515.361	569.22386
515.839	716.42914
516.316	766.60752
516.793	778.70007
517.27	829.69361
517.747	844.8552
518.224	912.73771
518.701	891.62424
519.178	927.94352
519.654	984.90501
520.131	952.96047
520.607	909.85804
521.083	872.6445
521.56	974.87935
522.036	922.63812
522.512	901.8699
522.987	889.79746
523.463	836.67748
523.939	882.85034
524.414	790.53769
524.89	809.64675
525.365	665.31338
525.84	675.42726
526.315	665.42142
526.79	639.26785
527.265	616.26284
527.74	543.19287
528.215	496.05356
528.689	481.96008
529.164	455.89217
529.638	421.99493
530.112	420.91668
530.587	420.82918
531.061	399.90232
531.534	358.81242
532.008	366.83764
532.482	358.77311
532.956	335.81071
533.429	313.72887
533.903	290.60452
534.376	255.54066
534.849	250.55238
535.322	247.5609
535.795	218.50977
536.268	217.50913
536.741	180.41679
537.213	210.46788
537.686	195.46448
538.158	249.54476
538.631	158.37512
539.103	164.36267
539.575	146.29501
540.047	135.28974
540.519	173.404
540.991	168.40086
541.463	104.24778
541.934	87.19549
542.406	89.21257
542.877	132.29361
543.348	138.32815
543.82	125.29992
544.291	140.32173
544.762	87.20604
545.233	139.34702
545.703	121.26618
546.174	97.22341
546.645	73.17622
547.115	101.24197
547.585	101.23057
548.056	124.30153
548.526	101.23818
548.996	89.21167
549.466	71.17223
549.935	37.08891
550.405	57.12566
550.875	45.10731
551.344	31.07438
551.814	60.13778
552.283	42.09234
552.752	63.14793
553.221	22.04916
553.69	127.28419
554.159	60.14955
554.628	38.08687
555.096	43.1098
555.565	7.0157
556.033	82.19521
556.502	-2.00489
556.97	68.15163
557.438	35.08273
557.906	31.0737
558.374	41.09571
558.842	33.0796
559.31	37.08351
559.777	29.0714
560.245	10.02322
560.712	-20.04664
561.18	25.05594
561.647	-7.01579
562.114	11.02553
562.581	57.14045
563.048	50.11504
563.514	76.19033
563.981	43.09908
564.448	31.07069
564.914	44.10269
565.381	88.20053
565.847	79.18362
566.313	-25.05907
566.779	54.12201
567.245	-1.00235
567.711	27.0651
568.176	8.01819
568.642	52.13112
569.108	35.08646
569.573	-11.02585
570.038	10.02123
570.504	77.17387
570.969	30.07472
571.434	76.16877
571.899	83.19611
572.363	64.14702
572.828	110.25097
573.293	66.15143
573.757	118.27139
574.222	93.20768
574.686	102.23328
575.15	102.24394
575.614	154.35786
576.078	93.21727
576.542	97.22001
577.006	72.16281
577.469	123.29904
577.933	143.32145
578.396	69.16354
578.86	102.23853
579.323	87.2089
579.786	120.25816
580.249	126.29384
580.712	88.21295
581.175	78.19166
581.637	105.23796
582.1	92.19988
582.563	115.24245
583.025	116.27954
583.487	139.28273
583.95	78.16722
584.412	127.26421
584.874	118.2849
585.336	84.19867
585.797	105.2272
586.259	138.31853
586.721	83.19421
587.182	50.11573
587.643	84.19049
588.105	30.07139
588.566	53.11125
589.027	132.3193
589.488	75.17212
589.949	134.32121
590.41	74.14712
590.87	117.26559
591.331	138.29803
591.791	85.19639
592.252	117.27022
592.712	116.2753
593.172	116.26177
593.632	121.26674
594.092	94.20874
594.552	92.19886
595.011	60.13778
595.471	102.23008
595.931	85.19162
596.39	64.15377
596.849	57.13311
597.308	42.0902
597.768	74.19038
598.227	88.21054
598.685	37.08494
599.144	53.12537
599.603	35.08238
600.062	21.04486
600.52	49.11132
600.978	17.04056
601.437	49.11195
601.895	93.19882
602.353	72.15829
602.811	100.22447
603.269	87.20604
603.727	63.15128
604.184	72.16414
604.642	85.20797
605.099	95.22081
605.557	31.07579
606.014	10.02186
606.471	40.10068
606.928	78.17336
607.385	41.10303
607.842	-12.02797
608.299	15.03541
608.755	23.05611
609.212	84.187
609.668	72.16248
610.125	76.1826
610.581	61.14307
611.037	30.06776
611.493	16.03768
611.949	50.12204
612.405	18.03719
612.861	15.03482
613.316	25.06028
613.772	36.08293
614.227	60.14421
614.683	19.04073
615.138	6.01422
615.593	-8.01882
616.048	-2.00463
616.503	24.05858
616.958	24.06039
617.412	-7.01683
617.867	32.0721
618.321	23.04796
618.776	43.09511
619.23	20.04717
619.684	47.10513
620.138	41.09409
620.592	5.01223
621.046	49.11591
621.5	30.07246
621.954	-7.01568
622.407	83.18251
622.861	-2.0049
623.314	25.05691
623.768	36.08528
624.221	-10.02002
624.674	3.007
625.127	12.02811
625.58	23.05194
626.033	26.05716
626.485	-16.03872
626.938	57.13546
627.39	46.10761
627.843	57.13118
628.295	31.07171
628.747	43.10258
629.199	48.10929
629.651	-13.03017
630.103	13.03002
630.555	17.03609
631.006	-36.08501
631.458	25.05902
631.909	-27.06137
632.361	7.01626
632.812	15.03492
633.263	53.11493
633.714	-5.01071
634.165	-19.04604
634.616	-27.06464
635.067	-30.06709
635.518	15.03572
635.968	10.01983
636.419	34.07447
636.869	26.06171
637.319	5.01169
637.769	48.10783
638.219	15.03554
638.669	-16.03841
639.119	-44.10684
639.569	-32.07773
640.019	-9.02099
640.468	6.01355
640.918	1.00239
641.367	17.03825
641.816	-34.07676
642.265	29.0678
642.714	7.01615
643.163	50.11537
643.612	14.03445
644.061	-1.00216
644.51	20.04605
644.958	13.0289
645.406	-23.05558
645.855	-9.02202
646.303	39.09011
646.751	7.01631
647.199	68.15326
647.647	37.08597
648.095	14.03208
648.543	30.06109
648.99	15.03618
649.438	8.01861
649.885	60.14885
650.333	36.07014
650.78	9.02186
651.227	32.07834
651.674	33.07543
652.121	35.08586
652.568	5.01232
653.015	-45.11284
653.461	-12.02879
653.908	-30.0698
654.354	5.01197
654.801	-8.01892
655.247	22.04782
655.693	16.04166
656.139	11.02635
656.585	42.1001
657.031	19.04481
657.477	54.11772
657.922	-56.12962
658.368	-8.01979
658.813	11.02512
659.259	36.08722
659.704	55.1299
660.149	-41.09594
660.594	16.03809
661.039	21.048
661.484	12.02852
661.929	27.06315
662.373	11.02767
662.818	4.00993
663.262	2.00486
663.707	18.04584
664.151	42.1021
664.595	-8.01948
665.039	25.06203
665.483	25.06357
665.927	14.03294
666.371	10.02363
666.814	2.00477
667.258	35.08427
667.701	46.09785
668.145	64.15807
668.588	62.15257
669.031	-6.01421
669.474	27.06476
669.917	-35.07777
670.36	55.13647
670.803	54.12979
671.245	-43.0895
671.688	38.0922
672.13	45.10153
672.573	-4.01014
673.015	9.02177
673.457	5.01094
673.899	43.10361
674.341	32.07694
674.783	13.03122
675.225	35.08592
675.666	41.10002
676.108	11.02387
676.549	16.03731
676.991	4.00882
677.432	11.02195
677.873	24.05478
678.314	-10.02393
678.755	82.19985
679.196	17.0389
679.637	4.0096
680.078	59.13675
680.518	-7.01615
680.959	6.01431
681.399	-9.02236
681.839	12.02914
682.28	38.09403
682.72	4.00917
683.16	19.04735
683.6	84.18855
684.039	26.05365
684.479	29.0714
684.919	62.14465
685.358	-4.00998
685.798	31.08032
686.237	12.02861
686.676	67.14993
687.115	42.09841
687.554	34.08104
687.993	40.08805
688.432	6.01371
688.871	53.1206
689.309	39.09304
689.748	69.14189
690.186	-30.07068
690.625	65.15108
691.063	-34.08175
691.501	23.05669
691.939	48.11995
692.377	12.02905
692.815	35.08516
693.253	0
693.69	22.04804
694.128	44.10603
694.565	10.02366
695.003	36.09142
695.44	35.08244
695.877	-21.04968
696.314	24.05034
696.751	50.11223
697.188	36.08296
697.625	0
698.061	-2.00479
698.498	10.02358
698.934	14.03335
699.371	5.01176
699.807	26.06104
700.243	42.10049
700.679	-27.06052
701.115	16.03718
701.551	1.00232
701.987	-12.02626
702.422	20.04754
702.858	36.08524
703.294	52.11802
703.729	21.05079
704.164	3.00715
704.599	63.13888
705.035	-20.04504
705.47	25.0603
705.904	11.02539
706.339	19.04339
706.774	58.13409
707.209	-3.00698
707.643	41.09714
708.078	4.0097
708.512	25.06226
708.946	21.04941
709.38	46.10812
709.814	45.1007
710.248	25.06074
710.682	33.07864
711.116	95.2269
711.549	-36.09213
711.983	-3.00692
712.416	37.08702
712.85	18.04426
713.283	34.07951
713.716	46.11257
714.149	8.01843
714.582	16.03575
715.015	10.02437
715.448	17.04254
715.881	-1.00214
716.313	12.02786
716.746	51.11915
717.178	18.04298
717.61	54.13548
718.043	3.00737
718.475	56.13393
718.907	45.11084
719.339	35.07855
719.77	22.05229
720.202	-3.00748
720.634	32.07779
721.065	9.02107
721.497	45.10871
721.928	39.09411
722.359	-25.06092
722.79	30.07109
723.221	-21.05201
723.652	-3.00758
724.083	11.02455
724.514	67.1511
724.945	-20.04675
725.375	32.07401
725.806	3.00734
726.236	67.16806
726.666	57.13207
727.096	24.05806
727.526	52.13205
727.956	55.12374
728.386	13.03157
728.816	70.176
729.246	87.21017
729.675	-53.12963
730.105	17.04113
730.534	40.09181
730.964	13.03209
731.393	13.03151
731.822	47.11828
732.251	38.0951
732.68	36.08204
733.109	-1.00245
733.537	16.03879
733.966	48.11808
734.395	56.12715
734.823	14.0306
735.251	7.01666
735.68	24.05838
736.108	-17.04224
736.536	32.0738
736.964	37.0844
737.392	22.05428
737.82	21.04947
738.247	33.0774
738.675	23.05327
739.102	9.02222
739.53	28.07118
739.957	34.08686
740.384	-1.00238
740.811	-9.0222
741.238	41.09909
741.665	79.18166
742.092	-13.02964
742.519	6.01477
742.945	39.09347
743.372	52.12702
743.798	23.05809
744.225	-9.02112
744.651	-37.09228
745.077	19.04676
745.503	5.01193
745.929	62.14732
746.355	44.10499
746.781	-34.08317
747.207	2.00471
747.632	58.14152
748.058	77.18994
748.483	41.09258
748.908	20.04922
749.334	45.10912
749.759	51.11943
750.184	62.14658
750.609	36.08669
751.033	-7.01617
751.458	23.05045
751.883	30.0726
752.307	33.07643
752.732	85.21252
753.156	-8.01952
753.58	51.11765
754.005	13.03217
754.429	37.08641
754.853	30.07366
755.277	55.12809
755.7	18.04408
756.124	38.09293
756.548	-13.03045
756.971	61.14558
757.394	-13.03294
757.818	11.02806
758.241	27.06765
758.664	30.07459
759.087	33.0733
759.51	2.00487
759.933	52.12346
760.356	62.15689
760.778	-14.03413
761.201	43.10176
761.623	17.03978
762.046	29.06645
762.468	31.07282
762.89	5.01203
763.312	68.16269
763.734	48.11348
764.156	52.12579
764.578	28.06257
765	19.04561
765.421	22.05541
765.843	22.0567
766.264	10.02329
766.686	-56.13847
767.107	44.10447
767.528	89.223
767.949	42.10446
768.37	55.13362
768.791	58.13553
769.212	12.02988
769.632	36.08286
770.053	-4.01033
770.473	-14.03335
770.894	-15.03644
771.314	-10.02327
771.734	49.1115
772.154	22.05514
772.575	17.03843
772.994	-18.04029
773.414	36.08363
773.834	-25.06165
774.254	37.08834
774.673	43.10313
775.093	15.03681
775.512	21.05102
775.931	17.04244
776.351	29.07109
776.77	-5.01214
777.189	31.07217
777.607	19.04769
778.026	41.09998
778.445	43.10704
778.864	-15.0375
779.282	7.01638
779.701	26.06393
780.119	16.03991
780.537	5.01224
780.955	40.09872
781.373	42.10129
781.791	39.0867
782.209	23.05064
782.627	-8.02081
783.045	4.00892
783.462	-3.00755
783.88	-13.03329
784.297	27.06658
784.715	23.05827
785.132	-15.03557
785.549	-10.02462
785.966	51.12511
786.383	12.02916
786.8	62.13951
787.217	52.12127
787.633	38.09372
788.05	44.09933
788.466	-1.00228
788.883	20.05052
789.299	5.01164
789.715	49.1165
790.131	25.06083
790.547	16.03904
790.963	19.04606
791.379	42.10366
791.795	13.02863
792.21	8.01817
792.626	-1.00231
793.041	26.06251
793.457	21.05035
793.872	-53.12221
794.287	50.11803
794.702	2.00474
795.117	13.03181
795.532	38.09372
795.947	6.0139
796.362	-18.04127
796.776	40.08894
797.191	25.05987
797.605	2.00467
798.02	-9.02146
798.434	25.0541
798.848	61.14786
799.262	-14.03416
799.676	37.08776
800.09	2.00481
800.504	-18.04267
800.918	-18.04049
801.331	-52.13163
801.745	18.03999
802.158	-33.0805
802.572	25.05902
802.985	17.03962
803.398	21.04858
803.811	-58.14431
804.224	15.03591
804.637	14.03269
805.05	15.03354
805.462	40.09475
805.875	38.09633
806.288	4.0095
806.7	-30.07336
807.112	53.11743
807.525	4.00948
807.937	16.0387
808.349	-13.03168
808.761	44.10543
809.173	36.08511
809.584	26.06209
809.996	-13.03114
810.408	5.01279
810.819	-11.02537
811.231	46.11995
811.642	57.13744
812.053	27.06422
812.464	-49.11439
812.875	35.08751
813.286	20.05074
813.697	-8.01776
814.108	27.0637
814.519	94.20205
814.929	13.03222
815.34	-38.0896
815.75	40.09967
816.16	-30.07241
816.571	6.01517
816.981	-1.00227
817.391	-16.0374
817.801	52.12555
818.211	-7.01624
818.62	35.08215
819.03	38.08991
819.44	-22.05535
819.849	-14.03413
820.259	4.00988
820.668	-1.00241
821.077	24.05856
821.486	18.0415
821.895	29.06836
822.304	-11.0285
822.713	23.05246
823.122	1.00243
823.531	-29.06626
823.939	27.06414
824.348	10.02348
824.756	16.03873
825.164	10.02436
825.573	-4.00981
825.981	3.0072
826.389	36.08741
826.797	56.13806
827.205	21.04709
827.612	37.0878
828.02	-36.08237
828.428	16.03959
828.835	-31.08082
829.243	-26.06011
829.65	2.00489
830.057	-10.02354
830.464	27.06464
830.871	62.14339
831.278	18.04224
831.685	31.06633
832.092	32.07498
832.499	34.07204
832.905	20.04882
833.312	-57.12508
833.718	12.0293
834.124	44.09706
834.531	-18.04389
834.937	64.159
835.343	-37.08664
835.749	-1.00223
836.155	-8.02049
836.561	5.01198
836.966	34.08001
837.372	15.03691
837.777	2.00487
838.183	3.00642
838.588	16.03886
838.993	15.03546
839.399	16.03816
839.804	-17.04057
840.209	23.05761
840.613	30.06412
841.018	22.05374
841.423	36.08957
841.828	18.04448
842.232	31.07288
842.637	36.08293
843.041	-7.01762
843.445	15.03624
843.849	28.06745
844.253	35.07993
844.657	40.09814
845.061	75.16568
845.465	5.01174
845.869	17.0382
846.272	10.02379
846.676	-54.12583
847.079	39.09684
847.483	30.07219
847.886	7.01636
848.289	44.11548
848.692	-23.05655
849.095	20.04626
849.498	-17.04141
849.901	-3.00661
850.304	43.0988
850.707	-6.01486
851.109	6.01467
851.512	-7.01681
851.914	-14.03474
852.316	48.11864
852.718	35.09003
853.121	17.04042
853.523	15.03365
853.925	6.01543
854.326	25.06103
854.728	21.05266
855.13	17.0431
855.531	-27.0632
855.933	-5.01154
856.334	15.03663
856.736	30.0654
857.137	23.05217
857.538	0
857.939	53.12813
858.34	4.00935
858.741	21.05313
859.142	22.05078
859.542	18.04657
859.943	16.03853
860.343	17.04115
860.744	36.08472
861.144	66.15604
861.544	23.0543
861.945	-32.07976
862.345	13.03065
862.745	48.11594
863.145	-2.00454
863.544	41.10047
863.944	22.05017
864.344	-22.0526
864.743	22.05274
865.143	45.1128
865.542	-54.12101
865.941	36.08643
866.34	61.13808
866.74	19.04971
867.139	50.11688
867.537	8.01958
867.936	51.11859
868.335	11.02711
868.734	-13.0325
869.132	-36.08054
869.531	-19.04418
869.929	-13.02895
870.327	-7.01631
870.726	23.05487
871.124	29.06471
871.522	-10.02474
871.92	33.07861
872.318	36.08419
872.715	-16.03797
873.113	1.00235
873.511	-12.02902
873.908	8.01998
874.306	-19.04654
874.703	16.03838
875.1	-8.01964
875.497	10.02311
875.894	56.1346
876.291	34.08072
876.688	-5.01259
877.085	17.03912
877.482	22.05328
877.878	42.0988
878.275	13.03216
878.671	-34.07122
879.068	33.07673
879.464	36.08379
879.86	-2.00459
880.256	12.02819
880.652	20.04929
881.048	39.09208
881.444	-22.05017
881.84	0
882.236	12.02922
882.631	38.09047
883.027	46.10656
883.422	-12.02972
883.817	13.03197
884.213	41.10169
884.608	111.26511
885.003	-24.05588
885.398	3.0073
885.793	1.00243
886.188	-44.10696
886.582	28.0688
886.977	26.05903
887.371	-19.04652
887.766	1.00243
888.16	1.00238
888.554	15.03562
888.949	21.051
889.343	26.06094
889.737	-22.05801
890.131	14.03406
890.525	9.02253
890.918	11.02682
891.312	5.01145
891.706	-7.01787
892.099	12.02952
892.492	38.07781
892.886	8.01891
893.279	12.02958
893.672	40.09909
894.065	0
894.458	16.03856
894.851	21.04933
895.244	-16.03984
895.637	-1.00235
896.029	10.02385
896.422	2.00468
896.814	22.0527
897.206	27.06295
897.599	87.20509
897.991	22.05175
898.383	35.07977
898.775	35.07683
899.167	26.05939
899.559	17.04129
899.951	47.10517
900.342	-2.00489
900.734	52.1274
901.125	-8.02032
901.517	15.03572
901.908	35.07942
902.299	5.0119
902.69	41.0939
903.082	10.02344
903.473	41.09609
903.863	-1.00247
904.254	60.13496
904.645	-4.00953
905.036	43.10239
905.426	31.06702
905.817	24.05645
906.207	-44.10124
906.597	24.05471
906.987	37.09184
907.378	66.16128
907.768	29.07462
908.158	4.00943
908.547	2.0051
908.937	-18.04446
909.327	20.04679
909.717	5.01211
910.106	6.01388
910.495	5.01196
910.885	43.10533
911.274	10.02418
911.663	-6.01467
912.052	-16.03793
912.441	20.04969
912.83	19.04166
913.219	3.00761
913.608	25.05939
913.997	37.09046
914.385	49.11231
914.774	1.00235
915.162	37.0859
915.55	62.14237
915.939	21.05176
916.327	29.06926
916.715	49.12238
917.103	11.02571
917.491	17.04051
917.878	21.04973
918.266	16.04007
918.654	37.09211
919.041	37.09478
919.429	42.09513
919.816	13.03189
920.203	24.05678
920.591	21.05046
920.978	35.08254
921.365	3.0077
921.752	-64.14714
922.139	33.06859
922.525	26.06049
922.912	-14.03305
923.299	-15.03636
923.685	-57.14478
924.072	-27.0589
924.458	9.02172
924.844	16.03834
925.231	-24.05374
925.617	-10.02507
926.003	32.07875
926.389	5.01223
926.774	2.0049
927.16	9.0216
927.546	67.16721
927.931	23.05506
928.317	14.03082
928.702	-2.00456
929.088	60.13915
929.473	9.02242
929.858	11.02625
930.243	30.07018
930.628	16.03808
931.013	1.00241
931.398	44.09502
931.783	-8.02029
932.167	52.12351
932.552	33.07948
932.937	-3.00718
933.321	13.0319
933.705	-25.06074
934.09	-9.02163
934.474	31.07003
934.858	16.04037
935.242	19.04225
935.626	17.04243
936.009	43.11188
936.393	69.17108
936.777	36.08967
937.16	7.01786
937.544	-17.03818
937.927	15.03712
938.311	42.09776
938.694	35.0899
939.077	11.02545
939.46	27.06238
939.843	6.01169
940.226	-18.04477
940.609	41.09145
940.991	-16.03942
941.374	25.05939
941.757	37.08749
942.139	-5.01091
942.522	38.08558
942.904	27.06256
943.286	20.04898
943.668	54.13635
944.05	26.06187
944.432	-47.11299
944.814	-12.0284
945.196	2.00477
945.578	48.11154
945.959	-29.06535
946.341	-1.00233
946.722	30.06723
947.104	26.05989
947.485	38.08488
947.866	14.03449
948.247	37.09103
948.628	-19.04411
949.009	9.02237
949.39	21.05014
949.771	-20.04397
950.152	-37.08881
950.532	49.11945
950.913	32.07413
951.293	22.05833
951.674	6.01404
952.054	63.15283
952.434	-3.00724
952.814	-36.0824
953.194	9.02255
953.574	35.08254
953.954	-9.02047
954.334	56.13541
954.714	50.11766
955.093	24.05689
955.473	27.06601
955.853	23.05771
956.232	12.03197
956.611	7.01599
956.99	-9.0221
957.37	-22.05428
957.749	-20.04554
958.128	53.12929
958.506	-14.0355
958.885	2.00488
959.264	17.04085
959.643	72.15703
960.021	14.03384
960.4	9.01962
960.778	2.00469
961.156	-13.03156
961.535	21.04655
961.913	50.1127
962.291	50.12535
962.669	10.02471
963.047	41.10155
963.424	15.03765
963.802	-16.03837
964.18	10.02407
964.557	31.06808
964.935	13.02967
965.312	-13.03323
965.69	25.0598
966.067	-7.01632
966.444	-44.10378
966.821	26.06495
967.198	-4.00928
967.575	-2.00473
967.952	87.19396
968.329	68.15933
968.705	110.22318
969.082	45.113
969.458	-17.04025
969.835	5.01177
970.211	2.00505
970.587	19.04583
970.963	3.0074
971.339	17.0433
971.715	32.07723
972.091	30.07109
972.467	-28.06699
972.843	44.10644
973.219	49.11141
973.594	-12.03063
973.97	-4.00895
974.345	29.06714
974.721	9.0207
975.096	26.06118
975.471	16.0364
975.846	-21.04862
976.221	-15.03716
976.596	10.0236
976.971	55.13131
977.346	-29.06498
977.72	12.02945
978.095	21.05251
978.469	18.04118
978.844	20.04825
979.218	-8.01891
979.593	7.01611
979.967	-61.14262
980.341	22.04896
980.715	18.044
981.089	-20.04869
981.463	26.05733
981.837	35.08344
982.21	-28.0614
982.584	2.0047
982.957	1.00244
983.331	1.00225
983.704	46.1101
984.078	-11.02627
984.451	-7.01659
984.824	15.03555
985.197	-44.10257
985.57	-10.02394
985.943	-13.03055
986.316	42.09729
986.688	25.0579
987.061	64.14366
987.434	71.18027
987.806	-27.06268
988.179	-27.06161
988.551	-18.04423
988.923	-20.04758
989.295	26.06228
989.667	23.05384
990.039	57.1376
990.411	-24.05265
990.783	23.05007
991.155	9.02101
991.527	39.09029
991.898	8.01941
992.27	22.05312
992.641	-23.05577
993.012	-17.03767
993.384	-32.07383
993.755	8.0199
994.126	56.13019
994.497	2.00476
994.868	31.06734
995.239	49.1134
995.61	-32.07869
995.98	-17.04003
996.351	38.0913
996.722	12.02717
997.092	22.05046
997.462	12.0274
997.833	25.05638
998.203	19.04366
998.573	19.04592
998.943	16.03636
999.313	41.09492
999.683	33.07643
1000.053	-6.01299
1000.423	31.07183
1000.792	-2.00498
1001.162	-14.0332
1001.531	60.14196
1001.901	-4.00961
1002.27	-20.04225
1002.639	-25.06176
1003.009	19.04338
1003.378	27.06685
1003.747	6.01357
1004.116	-19.04402
1004.485	32.07339
1004.853	-32.0779
1005.222	-11.02641
1005.591	37.08389
1005.959	44.09519
1006.328	17.03691
1006.696	7.01623
1007.064	-28.06791
1007.433	7.01678
1007.801	34.0787
1008.169	-10.02424
1008.537	64.13425
1008.905	33.07433
1009.273	24.05663
1009.64	31.07211
1010.008	9.02064
1010.375	21.04812
1010.743	19.04067
1011.11	55.12708
1011.478	34.08163
1011.845	-15.03393
1012.212	57.1245
1012.579	39.09219
1012.946	35.07884
1013.313	29.06559
1013.68	7.01502
1014.047	-59.1374
1014.414	1.00228
1014.78	-11.02666
1015.147	3.00691
1015.513	37.08556
1015.88	52.12669
1016.246	11.02585
1016.612	-7.01531
1016.978	41.09718
1017.344	0
1017.71	47.10894
1018.076	38.08477
1018.442	53.13155
1018.808	56.13567
1019.174	14.03371
1019.539	-66.14156
1019.905	1.00229
1020.27	-25.05987
1020.636	14.03184
1021.001	47.10812
1021.366	-17.03981
1021.731	77.19245
1022.096	14.03453
1022.461	20.04567
1022.826	86.19582
1023.191	22.05593
1023.556	32.07142
1023.92	6.0141
1024.285	23.05337
1024.649	-21.04962
1025.014	34.07992
1025.378	8.01961
1025.742	11.02613
1026.107	37.07958
1026.471	17.03784
1026.835	13.03112
1027.199	-37.08695
1027.562	-8.01774
1027.926	1.00235
1028.29	-1.00246
1028.654	-7.01546
1029.017	58.13686
1029.381	-37.08637
1029.744	3.00742
1030.107	46.10402
1030.471	25.0579
1030.834	19.04069
1031.197	66.15131
1031.56	-1.00226
1031.923	4.01006
1032.286	76.1694
1032.648	2.00454
1033.011	73.16167
1033.374	-21.04721
1033.736	-5.01281
1034.099	-2.00472
1034.461	31.07619
1034.823	-4.00971
1035.185	-13.03145
1035.548	39.09158
1035.91	5.01153
1036.272	7.01542
1036.634	43.10077
1036.995	-13.02928
1037.357	23.0542
1037.719	62.14431
1038.08	50.11454
1038.442	8.01826
1038.803	-19.04343
1039.165	-16.03902
1039.526	-10.02342
1039.887	30.06881
1040.248	40.09647
1040.609	-19.04503
1040.97	-16.03778
1041.331	46.11282
1041.692	36.08214
1042.053	-4.00871
1042.413	-5.01116
1042.774	51.11901
1043.134	5.0113
1043.495	55.13247
1043.855	58.13611
1044.215	19.04517
1044.576	2.00466
1044.936	19.04148
1045.296	49.11721
1045.656	-23.05416
1046.016	6.01388
1046.375	5.01171
1046.735	-1.00223
1047.095	35.07848
1047.454	11.02197
1047.814	37.08539
1048.173	26.05865
1048.533	11.02421
1048.892	-17.03976
1049.251	20.04802
1049.61	2.00477
1049.969	40.08986
1050.328	-1.00208
1050.687	-8.0187
1051.046	-12.02817
1051.405	-1.00238
1051.763	-8.01798
1052.122	-6.01448
1052.48	40.09446
1052.839	89.20211
1053.197	-41.09371
1053.555	38.08062
1053.914	53.12353
1054.272	-21.04806
1054.63	34.0801
1054.988	23.05308
1055.345	-22.0449
1055.703	36.08326
1056.061	17.04284
1056.419	79.19923
1056.776	-49.11371
1057.134	-24.05272
1057.491	15.03629
1057.848	18.04292
1058.206	-3.00669
1058.563	-42.08942
1058.92	11.02422
1059.277	5.01191
1059.634	-19.04257
1059.991	66.15107
1060.348	-27.05935
1060.704	66.15374
1061.061	14.03056
1061.418	20.04677
1061.774	42.09953
1062.131	30.07801
1062.487	-2.00448
1062.843	24.0576
1063.199	35.08375
1063.555	34.07619
1063.911	-9.0219
1064.267	55.10631
1064.623	59.1387
1064.979	17.03715
1065.335	42.09505
1065.691	-14.03193
1066.046	17.03562
1066.402	-20.04356
1066.757	56.13562
1067.112	61.14223
1067.468	20.04609
1067.823	-6.01362
1068.178	-6.01392
1068.533	80.18429
1068.888	7.01601
1069.243	-6.01434
1069.598	-2.00466
1069.952	17.03762
1070.307	21.05041
1070.662	63.14464
1071.016	23.05015
1071.371	32.07003
1071.725	-18.04125
1072.079	46.10614
1072.434	16.03762
1072.788	-37.08433
1073.142	62.1459
1073.496	-28.06424
1073.85	15.0333
1074.203	24.05606
1074.557	61.15822
1074.911	65.14641
1075.265	12.02677
1075.618	46.1077
1075.971	26.05925
1076.325	49.12069
1076.678	-6.01324
1077.031	-83.1796
1077.385	-1.0021
1077.738	38.08154
1078.091	17.03748
1078.444	1.0022
1078.796	-18.04316
1079.149	47.11238
1079.502	-7.01611
1079.855	18.04037
1080.207	20.04725
1080.56	12.03026
1080.912	7.0164
1081.264	66.15222
1081.617	29.06823
1081.969	4.00984
1082.321	20.04681
1082.673	33.07333
1083.025	-11.02504
1083.377	10.02259
1083.728	32.07097
1084.08	-24.05782
1084.432	-32.07463
1084.783	10.02202
1085.135	3.00732
1085.486	13.02877
1085.838	6.01433
1086.189	16.03778
1086.54	-16.03678
1086.891	71.1754
1087.242	52.12351
1087.593	-8.01852
1087.944	38.08295
1088.295	14.0304
1088.646	49.11609
1088.996	32.07454
1089.347	-11.02596
1089.698	24.05518
1090.048	1.0025
1090.398	26.05728
1090.749	-30.06894
1091.099	-14.03468
1091.449	28.06748
1091.799	-13.03157
1092.149	10.02393
1092.499	-10.02363
1092.849	17.04184
1093.199	5.012
1093.548	16.03748
1093.898	-44.10696
1094.248	-24.05941
1094.597	-12.03021
1094.947	17.04411
1095.296	4.00961
1095.645	10.02508
1095.994	25.05767
1096.343	48.11646
1096.692	8.02078
1097.041	65.17258
1097.39	-12.02902
1097.739	25.06276
1098.088	25.06437
1098.437	-8.0208
1098.785	3.0078
1099.134	-14.03559
1099.482	47.12562
1099.83	-5.01279
1100.179	45.11555
1100.527	-11.02813
1100.875	-22.05729
1101.223	53.13676
1101.571	-25.06742
1101.919	12.03117
1102.267	14.03881
1102.615	3.00964
1102.962	2.00642
1103.31	6.01926
1103.658	-5.01604
