Data from N3 R5 sample 8_Subt2__5__13-32-40-118.txt Node

Date: Thu Sep 18 13:32:40 PDT 2025
User: uwsun
Spectrometer: HDX01956
Trigger mode: 0
Integration Time (sec): 5.000000E-1
Scans to average: 1
Nonlinearity correction enabled: true
Boxcar width: 0
Storing dark spectrum: false
XAxis mode: Wavelengths
Number of Pixels in Spectrum: 2068
>>>>>Begin Spectral Data<<<<<
194.03	25.07234
194.578	32.1037
195.127	30.09595
195.676	16.05121
196.225	4.01057
196.773	32.08896
197.321	51.14132
197.87	130.32942
198.418	123.31517
198.966	120.31312
199.513	136.34218
200.061	81.20427
200.609	79.20702
201.156	64.13739
201.704	58.1452
202.251	80.21089
202.798	84.21776
203.345	98.24009
203.892	109.27114
204.438	93.22008
204.985	73.17322
205.532	147.38899
206.078	118.28608
206.624	109.26709
207.17	118.26922
207.716	21.05075
208.262	98.18965
208.808	100.24681
209.354	51.124
209.899	104.258
210.445	101.25124
210.99	47.11376
211.535	90.20898
212.08	95.21758
212.625	88.21799
213.17	116.28861
213.715	105.2337
214.259	113.26077
214.804	94.22798
215.348	70.15861
215.892	115.27288
216.436	139.31668
216.98	101.21752
217.524	88.20571
218.068	129.31867
218.612	109.26759
219.155	83.19284
219.698	47.11023
220.242	96.23493
220.785	104.23948
221.328	136.3322
221.871	93.23176
222.414	82.19851
222.956	68.16325
223.499	58.12901
224.041	94.21143
224.583	83.17445
225.126	96.21132
225.668	92.22062
226.21	46.11482
226.751	45.09625
227.293	85.18872
227.835	42.10133
228.376	100.22336
228.918	102.2523
229.459	147.36153
230	115.2674
230.541	104.23268
231.082	84.20067
231.622	114.25652
232.163	131.31312
232.704	75.18289
233.244	78.1906
233.784	139.32804
234.324	96.2099
234.864	115.25288
235.404	111.25493
235.944	69.15936
236.484	79.19164
237.023	74.17298
237.563	126.28318
238.102	105.24241
238.641	129.32101
239.18	100.231
239.719	153.37643
240.258	61.13414
240.797	87.20572
241.335	67.15929
241.874	67.12764
242.412	71.1673
242.95	102.24142
243.488	113.25182
244.026	129.29057
244.564	159.31382
245.102	142.30943
245.64	66.15616
246.177	55.12069
246.715	112.25914
247.252	46.10313
247.789	-28.04975
248.326	43.10129
248.863	104.22104
249.4	153.34039
249.936	105.20939
250.473	68.15677
251.009	101.2289
251.546	147.31495
252.082	167.35563
252.618	116.25417
253.154	74.17508
253.69	66.14577
254.226	111.25779
254.761	60.13075
255.297	101.21696
255.832	94.21671
256.367	72.16586
256.903	50.10752
257.438	102.23131
257.972	79.17087
258.507	118.26737
259.042	34.07138
259.576	99.20927
260.111	142.31625
260.645	142.29838
261.179	89.2022
261.713	105.22613
262.247	128.29038
262.781	121.24848
263.315	126.30134
263.849	74.18237
264.382	74.1659
264.915	130.29875
265.449	101.2428
265.982	42.09315
266.515	99.23681
267.048	97.2018
267.58	75.15763
268.113	142.29957
268.646	119.28975
269.178	88.1929
269.71	82.17428
270.243	126.27922
270.775	124.30862
271.307	102.23628
271.838	145.33075
272.37	104.25176
272.902	87.19533
273.433	90.19103
273.965	130.31233
274.496	72.17423
275.027	119.28672
275.558	103.24422
276.089	102.25156
276.62	91.22612
277.15	85.20534
277.681	54.11317
278.211	120.28436
278.741	138.29841
279.272	92.20617
279.802	150.36503
280.332	86.19961
280.861	109.25645
281.391	99.21861
281.921	75.17508
282.45	160.39285
282.98	121.30994
283.509	100.21957
284.038	45.09958
284.567	98.21925
285.096	112.2653
285.625	158.35232
286.153	61.14066
286.682	101.22415
287.21	128.29991
287.739	133.30326
288.267	124.29474
288.795	109.28028
289.323	133.30742
289.851	151.34082
290.378	133.29062
290.906	155.36736
291.433	131.31921
291.961	127.27786
292.488	114.27805
293.015	180.41315
293.542	141.34678
294.069	121.29065
294.596	164.39281
295.122	136.31654
295.649	142.30693
296.175	110.25703
296.702	87.20493
297.228	58.13686
297.754	149.32323
298.28	143.31405
298.806	149.35069
299.332	103.22306
299.857	144.31405
300.383	95.23391
300.908	126.30215
301.433	164.38892
301.958	137.30164
302.483	205.50063
303.008	137.32721
303.533	84.21158
304.058	137.31276
304.582	152.34986
305.107	157.40228
305.631	140.30701
306.155	194.4401
306.679	112.25739
307.203	148.33494
307.727	100.23458
308.251	131.31515
308.775	160.36798
309.298	152.35782
309.822	130.32038
310.345	169.38798
310.868	181.41803
311.391	173.41144
311.914	160.39111
312.437	153.33488
312.96	188.42978
313.482	178.4102
314.005	164.40044
314.527	197.50264
315.049	160.39052
315.571	246.5349
316.093	234.56003
316.615	174.41056
317.137	129.27113
317.659	188.43531
318.18	172.40332
318.702	203.45575
319.223	196.38585
319.744	237.51062
320.265	172.40694
320.786	182.43775
321.307	236.56697
321.828	227.49684
322.348	219.49873
322.869	180.4047
323.389	197.35343
323.909	200.4432
324.43	200.46089
324.95	221.48882
325.47	258.61015
325.989	249.57323
326.509	227.48193
327.029	231.49961
327.548	214.46611
328.067	225.5217
328.587	271.64647
329.106	261.56305
329.625	218.54255
330.144	226.49538
330.662	217.48478
331.181	268.59932
331.7	220.49462
332.218	307.63327
332.736	253.56076
333.255	266.58994
333.773	264.59816
334.291	266.62639
334.808	213.453
335.326	305.65175
335.844	309.68857
336.361	265.64182
336.879	352.76796
337.396	300.67778
337.913	337.72293
338.43	389.8215
338.947	319.71879
339.464	288.5838
339.981	357.79847
340.497	298.70009
341.014	274.6309
341.53	383.81309
342.046	372.8582
342.562	324.76265
343.078	357.78365
343.594	396.88587
344.11	402.88445
344.626	409.96509
345.141	385.82375
345.657	335.70313
346.172	407.90465
346.687	390.83571
347.202	420.86927
347.717	381.85039
348.232	412.96066
348.747	415.8814
349.261	426.87576
349.776	405.8759
350.29	406.93923
350.805	400.91102
351.319	444.95345
351.833	422.89138
352.347	376.80954
352.861	455.97391
353.374	460.95801
353.888	433.95723
354.401	494.0265
354.915	496.01462
355.428	499.13596
355.941	457.98031
356.454	498.00721
356.967	446.973
357.48	462.96517
357.993	523.1633
358.505	501.12903
359.018	456.00963
359.53	474.03734
360.042	455.90481
360.554	495.08225
361.066	483.06708
361.578	537.05572
362.09	556.18791
362.602	574.12144
363.113	493.01645
363.625	577.1649
364.136	549.07225
364.647	555.15785
365.158	552.1554
365.669	640.37471
366.18	538.10766
366.691	582.13495
367.201	607.27379
367.712	570.13257
368.222	639.30209
368.733	614.18158
369.243	610.16655
369.753	644.28998
370.263	623.29476
370.773	657.42912
371.282	678.39639
371.792	647.28674
372.301	685.44654
372.811	662.51873
373.32	702.26841
373.829	718.47423
374.338	783.46447
374.847	734.42853
375.356	782.59209
375.865	807.42185
376.373	875.63526
376.882	909.91246
377.39	917.82794
377.898	911.8806
378.407	917.65489
378.915	981.66465
379.423	1091.02641
379.93	1074.88632
380.438	1193.25581
380.946	1225.16969
381.453	1291.31536
381.96	1300.29302
382.468	1428.44592
382.975	1504.63146
383.482	1577.39704
383.989	1580.86845
384.495	1591.49114
385.002	1754.29042
385.509	1773.65782
386.015	1965.25413
386.521	2014.61425
387.028	2186.75071
387.534	2233.53902
388.04	2298.95578
388.546	2214.6273
389.051	2382.61103
389.557	2617.90782
390.063	2803.9127
390.568	2870.01515
391.073	3042.6995
391.578	3032.03925
392.084	3182.52216
392.589	3358.40388
393.093	3570.6843
393.598	4009.2581
394.103	4247.40336
394.607	4750.04002
395.112	5011.10639
395.616	5291.7745
396.12	5760.25192
396.624	6373.13153
397.128	7009.25594
397.632	7612.40172
398.136	8410.29087
398.639	9016.40055
399.143	9809.36969
399.646	11226.28425
400.15	12489.0084
400.653	13997.25895
401.156	15559.32039
401.659	18004.41705
402.162	22175.85247
402.664	29633.81845
403.167	42289.96394
403.67	58382.92613
404.172	55487.84425
404.674	37291.05854
405.176	4428.40989
405.678	533.47942
406.18	0
406.682	0
407.184	6962.89417
407.686	50953.82939
408.187	59237.6763
408.688	61091.12691
409.19	51862.96264
409.691	41842.284
410.192	35089.6772
410.693	30346.38883
411.194	27486.90847
411.694	25902.41222
412.195	24005.42431
412.696	21864.39231
413.196	19995.02196
413.696	19808.07648
414.196	19977.41708
414.696	19552.90465
415.196	18488.11907
415.696	16669.80563
416.196	13462.76885
416.695	10590.36424
417.195	9074.52548
417.694	8582.54663
418.194	8046.64566
418.693	7507.27252
419.192	7364.3382
419.691	7238.28298
420.19	7031.24415
420.688	6825.39011
421.187	6633.56091
421.685	6117.18855
422.184	5541.47777
422.682	4823.51855
423.18	4041.29787
423.678	3584.47032
424.176	3295.59518
424.674	3092.42478
425.172	2976.81697
425.669	2759.14473
426.167	2646.78076
426.664	2465.70432
427.161	2230.66215
427.659	2108.96837
428.156	1960.30714
428.652	1829.93034
429.149	1726.6856
429.646	1571.20779
430.143	1522.4786
430.639	1468.38072
431.135	1356.39596
431.632	1327.13191
432.128	1261.23142
432.624	1169.25534
433.12	1172.98629
433.616	1111.7951
434.111	1061.95631
434.607	1020.89789
435.103	971.53187
435.598	959.50678
436.093	901.65908
436.588	831.5047
437.083	912.61863
437.578	758.41588
438.073	717.48905
438.568	745.51152
439.062	675.19437
439.557	674.31967
440.051	599.15792
440.546	655.26456
441.04	554.1294
441.534	621.36102
442.028	582.20217
442.522	558.16592
443.015	621.14379
443.509	606.28147
444.002	548.17281
444.496	494.92177
444.989	550.18065
445.482	523.13682
445.975	550.08819
446.468	554.02091
446.961	500.91864
447.454	499.9692
447.947	474.00894
448.439	494.07072
448.931	515.01286
449.424	447.98818
449.916	451.95993
450.408	506.01734
450.9	459.98757
451.392	376.86605
451.884	396.80051
452.375	380.84623
452.867	429.85549
453.358	342.69389
453.849	366.6934
454.341	438.87567
454.832	414.79202
455.323	395.86924
455.814	377.77207
456.304	376.77403
456.795	360.73175
457.285	336.66614
457.776	340.68321
458.266	392.84362
458.756	352.75461
459.247	340.73046
459.737	357.77936
460.226	357.72284
460.716	386.83285
461.206	328.7062
461.695	359.82047
462.185	361.77341
462.674	309.63768
463.163	340.67061
463.653	361.67941
464.142	301.65907
464.63	298.6653
465.119	325.69027
465.608	262.55174
466.096	309.61161
466.585	248.51858
467.073	251.54751
467.561	315.70281
468.05	270.56884
468.538	308.70124
469.026	310.68235
469.513	198.38704
470.001	244.50886
470.489	263.57247
470.976	254.53936
471.463	283.65565
471.951	277.63819
472.438	212.46529
472.925	198.42742
473.412	225.50763
473.899	252.53558
474.385	194.44582
474.872	174.37899
475.359	250.56529
475.845	175.33761
476.331	185.36943
476.817	150.34098
477.303	179.38897
477.789	164.37099
478.275	168.39425
478.761	177.39803
479.247	152.31742
479.732	139.33135
480.218	157.38684
480.703	195.46109
481.188	130.26099
481.673	159.3439
482.158	186.37307
482.643	156.37479
483.128	108.23284
483.612	77.17131
484.097	168.38607
484.581	86.1874
485.066	119.27331
485.55	118.24281
486.034	165.33883
486.518	115.25766
487.002	130.30281
487.486	136.31541
487.969	160.37474
488.453	153.36724
488.936	74.15892
489.42	135.28261
489.903	126.30226
490.386	130.26425
490.869	111.22454
491.352	80.18605
491.835	87.16849
492.318	154.32987
492.8	84.1635
493.283	118.28887
493.765	115.27151
494.247	49.10902
494.73	69.14598
495.212	55.12728
495.694	96.21443
496.175	75.17143
496.657	130.29672
497.139	51.08053
497.62	50.1155
498.102	81.19428
498.583	36.08616
499.064	81.17557
499.545	112.2425
500.026	64.13751
500.507	23.05111
500.988	51.12106
501.469	71.17003
501.949	45.10624
502.43	34.07801
502.91	72.14154
503.39	58.13967
503.87	87.19677
504.35	70.15635
504.83	39.08255
505.31	71.16639
505.79	14.03259
506.269	44.0984
506.749	33.07272
507.228	52.11778
507.707	75.15888
508.187	68.15446
508.666	3.00714
509.145	17.03856
509.623	21.04773
510.102	-2.0047
510.581	1.00233
511.059	39.09581
511.538	44.10979
512.016	55.12768
512.494	36.08379
512.972	55.12733
513.45	28.06383
513.928	40.09416
514.406	67.15935
514.884	60.15134
515.361	69.16088
515.839	29.06374
516.316	27.06256
516.793	10.02458
517.27	72.16884
517.747	44.10979
518.224	29.0646
518.701	40.08639
519.178	48.11764
519.654	-18.04092
520.131	-4.00957
520.607	32.07694
521.083	49.10879
521.56	21.04794
522.036	45.0957
522.512	48.11432
522.987	36.08402
523.463	43.09943
523.939	44.10435
524.414	58.12783
524.89	9.02063
525.365	29.06439
525.84	67.158
526.315	2.00467
526.79	17.03691
527.265	-4.00878
527.74	-13.03095
528.215	71.16169
528.689	48.1042
529.164	-16.03321
529.638	26.06523
530.112	17.03958
530.587	68.14144
531.061	4.00948
531.534	1.00235
532.008	28.06579
532.482	-38.08379
532.956	51.1282
533.429	-13.02998
533.903	1.00213
534.376	-9.01935
534.849	-4.0091
535.322	3.00691
535.795	29.06881
536.268	58.13574
536.741	19.04432
537.213	92.20439
537.686	-30.07134
538.158	-19.04185
538.631	3.00706
539.103	8.01747
539.575	-8.01619
540.047	23.04887
540.519	18.04143
540.991	3.00709
541.463	48.11309
541.934	2.00448
542.406	-13.03047
542.877	-8.0176
543.348	-60.13943
543.82	15.0357
544.291	13.02899
544.762	7.01616
545.233	38.09368
545.703	47.101
546.174	20.0455
546.645	38.09005
547.115	18.04241
547.585	47.10609
548.056	53.12644
548.526	32.07345
548.996	27.0631
549.466	16.03778
549.935	32.07504
550.405	21.04536
550.875	-19.044
551.344	34.08007
551.814	-48.10704
552.283	10.02099
552.752	42.09463
553.221	17.03598
553.69	49.10585
554.159	87.20962
554.628	-3.00656
555.096	37.0912
555.565	42.09039
556.033	3.00686
556.502	24.05639
556.97	-1.00215
557.438	35.08051
557.906	5.01157
558.374	4.00894
558.842	-11.02582
559.31	33.07098
559.777	17.04032
560.245	4.00904
560.712	-25.05571
561.18	-1.00215
561.647	-23.05013
562.114	-27.06049
562.581	44.10563
563.048	-11.02442
563.514	7.01689
563.981	6.01331
564.448	-1.0022
564.914	-15.03404
565.381	4.00873
565.847	24.05427
566.313	21.04728
566.779	86.18804
567.245	-2.00458
567.711	27.06343
568.176	60.13374
568.642	42.10324
569.108	20.04802
569.573	-20.0455
570.038	60.1224
570.504	68.14912
570.969	28.06811
571.434	82.17481
571.899	74.17094
572.363	76.1661
572.828	60.13124
573.293	80.17691
573.757	101.22405
574.222	86.18732
574.686	76.16561
575.15	81.18663
575.614	84.18483
576.078	81.18275
576.542	130.28364
577.006	106.23098
577.469	125.29283
577.933	51.10969
578.396	146.33444
578.86	42.09532
579.323	45.10418
579.786	78.16101
580.249	98.21509
580.712	91.21209
581.175	78.1859
581.637	153.33743
582.1	88.18353
582.563	52.10415
583.025	63.14788
583.487	69.1328
583.95	90.18611
584.412	150.29377
584.874	124.28644
585.336	115.26147
585.797	132.26929
586.259	86.19066
586.721	148.33016
587.182	141.30666
587.643	200.42359
588.105	160.35973
588.566	171.33703
589.027	171.39446
589.488	232.48814
589.949	232.51753
590.41	174.3211
590.87	176.36836
591.331	237.4625
591.791	246.51782
592.252	244.51745
592.712	294.64768
593.172	327.66755
593.632	314.60244
594.092	358.71607
594.552	408.76883
595.011	379.78951
595.471	424.83825
595.931	447.87358
596.39	533.11581
596.849	473.96515
597.308	549.00889
597.768	574.27348
598.227	618.27379
598.685	668.25487
599.144	689.34368
599.603	784.51948
600.062	738.24014
600.52	885.56369
600.978	961.80868
601.437	954.68987
601.895	1035.63517
602.353	1038.70826
602.811	1077.78005
603.269	1223.13823
603.727	1300.25039
604.184	1448.21652
604.642	1383.40047
605.099	1495.3287
605.557	1520.49314
606.014	1593.16901
606.471	1730.88892
606.928	1870.49249
607.385	1926.96848
607.842	2012.71965
608.299	2060.74331
608.755	2109.92661
609.212	2232.64766
609.668	2285.6565
610.125	2355.00037
610.581	2397.84135
611.037	2487.7443
611.493	2556.91934
611.949	2552.08691
612.405	2662.23149
612.861	2658.84851
613.316	2725.10335
613.772	2741.84071
614.227	2792.99424
614.683	2804.46522
615.138	2803.02862
615.593	2716.84021
616.048	2781.71813
616.503	2801.20519
616.958	2755.34317
617.412	2733.9919
617.867	2754.71239
618.321	2618.19458
618.776	2628.61144
619.23	2562.98626
619.684	2526.65819
620.138	2473.72384
620.592	2455.05602
621.046	2388.84724
621.5	2402.04937
621.954	2341.6249
622.407	2248.57288
622.861	2107.8688
623.314	2211.68632
623.768	2077.75308
624.221	2049.09267
624.674	1923.55726
625.127	1943.68606
625.58	1867.42437
626.033	1848.32643
626.485	1798.67112
626.938	1742.58674
627.39	1724.51989
627.843	1633.39014
628.295	1629.42619
628.747	1561.46332
629.199	1578.36127
629.651	1484.25755
630.103	1457.27029
630.555	1355.89431
631.006	1406.26421
631.458	1294.12126
631.909	1360.12463
632.361	1247.04884
632.812	1188.00587
633.263	1238.83133
633.714	1142.70782
634.165	1066.90933
634.616	1083.91952
635.067	1050.68706
635.518	1036.83931
635.968	1056.50184
636.419	967.55273
636.869	943.72271
637.319	934.66977
637.769	937.62233
638.219	865.60221
638.669	856.63794
639.119	847.64529
639.569	858.67657
640.019	846.53698
640.468	730.29092
640.918	776.5104
641.367	744.35199
641.816	756.36619
642.265	697.32456
642.714	699.34191
643.163	582.10807
643.612	656.34375
644.061	632.08707
644.51	686.29634
644.958	634.15464
645.406	622.26481
645.855	560.17321
646.303	608.18574
646.751	530.04169
647.199	539.02181
647.647	585.15675
648.095	527.02774
648.543	513.86669
648.99	495.0343
649.438	516.04607
649.885	549.18482
650.333	499.79234
650.78	532.13361
651.227	494.05751
651.674	511.00545
652.121	416.8841
652.568	405.87739
653.015	421.92683
653.461	444.93004
653.908	461.93511
654.354	404.84139
654.801	374.78654
655.247	431.81836
655.693	389.91684
656.139	359.77012
656.585	453.95874
657.031	340.72291
657.477	418.79773
657.922	408.83914
658.368	356.78655
658.813	351.70939
659.259	382.82457
659.704	388.81275
660.149	312.65761
660.594	373.79428
661.039	358.73498
661.484	362.77605
661.929	360.75076
662.373	329.76823
662.818	321.73246
663.262	302.65945
663.707	282.65346
664.151	291.65919
664.595	271.60165
665.039	276.62712
665.483	338.79219
665.927	240.51586
666.371	287.61276
666.814	283.61548
667.258	286.62742
667.701	254.48755
668.145	245.56019
668.588	327.73259
669.031	257.56202
669.474	237.52617
669.917	254.50875
670.36	202.46439
670.803	268.59041
671.245	292.54833
671.688	259.57788
672.13	236.48343
672.573	305.71388
673.015	258.56671
673.457	255.51087
673.899	261.57704
674.341	239.53149
674.783	229.512
675.225	248.56237
675.666	203.45743
676.108	343.6681
676.549	255.55058
676.991	220.4429
677.432	220.39216
677.873	228.4831
678.314	253.55351
678.755	252.56935
679.196	249.52702
679.637	194.43671
680.078	224.48085
680.518	188.39765
680.959	269.58901
681.399	220.50212
681.839	258.57624
682.28	226.52122
682.72	213.44708
683.16	286.65589
683.6	268.55444
684.039	199.37691
684.479	228.51975
684.919	213.46029
685.358	257.59825
685.798	194.47386
686.237	263.58
686.676	224.47587
687.115	238.51354
687.554	197.43355
687.993	216.42963
688.432	243.51432
688.871	251.51985
689.309	295.66037
689.748	227.43036
690.186	272.58514
690.625	270.58958
691.063	257.57271
691.501	276.62712
691.939	270.61995
692.377	244.5506
692.815	276.61237
693.253	285.61561
693.69	200.40356
694.128	275.6189
694.565	247.5429
695.003	309.72012
695.44	260.5562
695.877	303.65
696.314	284.54593
696.751	297.60548
697.188	273.57503
697.625	343.69354
698.061	260.57303
698.498	276.60854
698.934	257.56131
699.371	274.59324
699.807	316.67774
700.243	314.69522
700.679	337.6814
701.115	316.66399
701.551	334.71294
701.987	281.5627
702.422	264.57159
702.858	269.57956
703.294	284.57569
703.729	301.67519
704.164	288.63739
704.599	320.63175
705.035	324.65257
705.47	315.70629
705.904	305.63847
706.339	277.5737
706.774	291.61294
707.209	251.52637
707.643	316.68651
708.078	323.70843
708.512	332.77021
708.946	357.75922
709.38	336.7085
709.814	328.66427
710.248	289.6312
710.682	370.79388
711.116	368.79572
711.549	322.75145
711.983	305.62858
712.416	348.72381
712.85	424.94653
713.283	412.85958
713.716	359.80427
714.149	368.76881
714.582	390.77103
715.015	374.8308
715.448	386.85496
715.881	366.68357
716.313	363.76324
716.746	416.86908
717.178	369.78747
717.61	450.00791
718.043	367.81
718.475	421.89453
718.907	417.91841
719.339	400.79637
719.77	441.93212
720.202	438.97697
720.634	424.92031
721.065	386.80677
721.497	455.98149
721.928	418.91579
722.359	402.87591
722.79	421.88752
723.221	422.92883
723.652	425.9611
724.083	416.8128
724.514	380.74985
724.945	460.94097
725.375	408.83612
725.806	397.86043
726.236	418.94777
726.666	425.87115
727.096	414.88828
727.526	408.92623
727.956	439.86445
728.386	434.91954
728.816	459.02452
729.246	443.95397
729.675	420.92404
730.105	435.93272
730.534	437.88927
730.964	407.89827
731.393	446.9462
731.822	412.93948
732.251	480.07214
732.68	382.76726
733.109	455.98401
733.537	375.80097
733.966	370.81406
734.395	468.92004
734.823	450.8609
735.251	398.84622
735.68	457.99382
736.108	413.91836
736.536	427.87564
736.964	416.83516
737.392	412.90112
737.82	426.88642
738.247	388.80807
738.675	418.85622
739.102	407.91291
739.53	400.9158
739.957	355.81492
740.384	413.88059
740.811	393.89056
741.238	371.79551
741.665	404.83316
742.092	390.80646
742.519	368.82256
742.945	353.75006
743.372	396.87162
743.798	335.77456
744.225	349.73284
744.651	332.74303
745.077	351.78117
745.503	358.76748
745.929	317.67533
746.355	370.79696
746.781	345.76114
747.207	334.70861
747.632	293.65022
748.058	298.66282
748.483	268.54574
748.908	323.72006
749.334	311.68499
749.759	311.65103
750.184	277.59372
750.609	323.70455
751.033	250.52045
751.458	329.65638
751.883	301.66519
752.307	287.61727
752.732	256.59298
753.156	256.5739
753.58	271.57508
754.005	288.66895
754.429	161.34211
754.853	283.63768
755.277	242.52307
755.7	256.57532
756.124	253.58081
756.548	211.46026
756.971	260.57135
757.394	196.46695
757.818	283.66914
758.241	218.50497
758.664	184.4355
759.087	272.55641
759.51	176.40462
759.933	247.54495
760.356	170.40423
760.778	276.62712
761.201	150.3306
761.623	126.27829
762.046	146.31003
762.468	200.43655
762.89	154.35192
763.312	200.44339
763.734	163.3643
764.156	144.33211
764.578	152.31672
765	186.41733
765.421	138.3352
765.843	154.37966
766.264	150.3313
766.686	204.47648
767.107	201.45367
767.528	154.36872
767.949	131.31156
768.37	93.21308
768.791	133.29651
769.212	186.44091
769.632	67.1464
770.053	161.39786
770.473	154.34795
770.894	107.24712
771.314	112.24488
771.734	112.24053
772.154	147.35297
772.575	153.3244
772.994	88.18703
773.414	78.17105
773.834	165.38562
774.254	103.23438
774.673	75.17046
775.093	114.26638
775.512	134.31041
775.931	143.34258
776.351	79.1834
776.77	125.28674
777.189	79.1743
777.607	97.23451
778.026	111.26125
778.445	104.24863
778.864	91.21859
779.282	69.15434
779.701	77.18335
780.119	24.05746
780.537	48.11331
780.955	112.26561
781.373	92.21312
781.791	93.19564
782.209	150.31908
782.627	41.10388
783.045	79.16948
783.462	60.14415
783.88	61.15097
784.297	68.16176
784.715	81.20032
785.132	72.16361
785.549	78.18669
785.966	101.23725
786.383	72.16818
786.8	49.10702
787.217	33.07366
787.633	54.12806
788.05	85.18227
788.466	38.08344
788.883	50.12254
789.299	67.14981
789.715	58.13398
790.131	71.16522
790.547	26.06037
790.963	76.17759
791.379	61.14636
791.795	19.04069
792.21	70.15215
792.626	19.04255
793.041	51.11793
793.457	38.08834
793.872	70.15435
794.287	63.14545
794.702	35.08103
795.117	5.01175
795.532	54.12994
795.947	57.12708
796.362	56.12379
796.776	5.01066
797.191	-5.0116
797.605	77.17323
798.02	44.10209
798.434	54.11046
798.848	20.0464
799.262	106.2505
799.676	10.02287
800.09	16.03712
800.504	12.02756
800.918	15.03262
801.331	45.11104
801.745	-20.04336
802.158	32.07562
802.572	40.09071
802.985	1.00226
803.398	28.06293
803.811	48.11581
804.224	34.0796
804.637	-31.0692
805.05	50.10812
805.462	28.06468
805.875	24.06067
806.288	10.0232
806.7	3.00718
807.112	29.06307
807.525	44.10298
807.937	37.08668
808.349	25.05907
808.761	-5.01151
809.173	-3.00681
809.584	19.04413
809.996	20.04672
810.408	2.00497
810.819	14.03119
811.231	36.09113
811.642	70.16363
812.053	64.14561
812.464	75.16839
812.875	37.09006
813.286	32.07793
813.697	-13.02786
814.108	33.07503
814.519	0
814.929	25.05971
815.34	8.01832
815.75	30.07235
816.16	-30.07007
816.571	7.01739
816.981	-29.0639
817.391	31.07014
817.801	28.06691
818.211	24.05412
818.62	-16.0365
819.03	-45.10414
819.44	29.07161
819.849	15.03607
820.259	40.09731
820.668	9.02131
821.077	-2.00475
821.486	11.02465
821.895	-50.11573
822.304	26.06584
822.713	40.08816
823.122	37.0879
823.531	6.01352
823.939	-9.0209
824.348	49.11227
824.756	39.09169
825.164	27.06365
825.573	17.04051
825.981	45.10513
826.389	-34.08044
826.797	9.02146
827.205	-5.01081
827.612	-18.0419
828.02	0
828.428	-21.0509
828.835	-39.09937
829.243	30.06676
829.65	-26.06206
830.057	19.04409
830.464	15.03503
830.871	49.10911
831.278	-50.11431
831.685	-59.12296
832.092	2.00467
832.499	24.04843
832.905	47.11281
833.312	-6.01274
833.718	30.0701
834.124	60.12758
834.531	-10.02384
834.937	-4.00968
835.343	-5.01144
835.749	6.013
836.155	17.04227
836.561	-47.10829
836.966	-6.01384
837.372	-13.03141
837.777	-27.06375
838.183	-50.1021
838.588	18.04259
838.993	-16.03645
839.399	-7.01615
839.804	50.11601
840.209	13.03181
840.613	-8.01691
841.018	-41.09823
841.423	-61.14886
841.828	5.012
842.232	-12.02763
842.637	-23.05041
843.041	47.11611
843.445	-15.03544
843.849	-19.04481
844.253	-31.06908
844.657	0
845.061	19.04036
845.465	56.12983
845.869	-28.06112
846.272	11.02531
846.676	19.04343
847.079	18.04387
847.483	37.08654
847.886	-9.02029
848.289	32.08293
848.692	21.0502
849.095	-21.04715
849.498	-23.05424
849.901	-34.07277
850.304	-9.02011
850.707	-6.01451
851.109	-29.06844
851.512	20.04683
851.914	64.15528
852.316	2.00483
852.718	17.0424
853.121	-31.07245
853.523	25.05447
853.925	-29.07287
854.326	-3.00724
854.728	-7.01718
855.13	7.01738
855.531	47.10717
855.933	23.05157
856.334	6.01429
856.736	-69.1454
857.137	-17.03732
857.538	13.03101
857.939	7.01653
858.34	-17.03893
858.741	3.00747
859.142	9.02044
859.542	38.09759
859.943	42.09918
860.343	-1.00237
860.744	35.08058
861.144	-3.00692
861.544	14.03232
861.945	-41.09935
862.345	-13.0295
862.745	-25.05921
863.145	-22.04853
863.544	79.18948
863.944	-20.04441
864.344	-40.09328
864.743	47.10937
865.143	-22.05402
865.542	0
865.941	18.04254
866.34	26.05848
866.74	4.01027
867.139	-5.01141
867.537	-11.02648
867.936	30.06809
868.335	16.03895
868.734	21.05153
869.132	56.12193
869.531	47.10583
869.929	18.03884
870.327	-23.05225
870.726	32.07469
871.124	8.01733
871.522	-44.10624
871.92	27.06248
872.318	-8.01858
872.715	14.03248
873.113	19.04374
873.511	-20.04754
873.908	19.04671
874.306	-15.03565
874.703	-4.00947
875.1	3.00723
875.497	-27.06089
875.894	10.02364
876.291	27.0629
876.688	-33.08137
877.085	-30.06778
877.482	-18.04244
877.878	-8.01828
878.275	-22.05308
878.671	-60.12202
879.068	4.00907
879.464	39.08857
879.86	10.02259
880.256	-28.06466
880.652	-25.0606
881.048	-23.05335
881.444	-43.09551
881.84	-13.03126
882.236	30.07131
882.631	43.09919
883.027	-13.0292
883.422	-18.04382
883.817	22.05306
884.213	51.12367
884.608	6.01409
885.003	33.07491
885.398	-13.03094
885.793	-9.02133
886.188	27.06424
886.582	-30.07189
886.977	10.02221
887.371	10.02391
887.766	1.00238
888.16	29.06828
888.554	-10.02309
888.949	-6.01404
889.343	-24.05469
889.737	22.05699
890.131	1.00239
890.525	-34.08283
890.918	19.04568
891.312	-87.19509
891.706	16.04034
892.099	-20.04825
892.492	-2.00401
892.886	-29.0669
893.279	-4.0097
893.672	31.07492
894.065	33.07737
894.458	10.02373
894.851	-31.0708
895.244	1.00243
895.637	22.04989
896.029	17.03912
896.422	-26.05992
896.814	-11.02602
897.206	-7.01595
897.599	-1.00228
897.991	-12.02757
898.383	-25.05553
898.775	35.07291
899.167	-6.01335
899.559	13.03092
899.951	30.06576
900.342	-22.05223
900.734	51.1219
901.125	-7.01734
901.517	-1.00234
901.908	-4.00892
902.299	-2.00465
902.69	8.01775
903.082	15.03409
903.473	37.08403
903.863	21.05136
904.254	-49.10716
904.645	-15.0348
905.036	8.01861
905.426	-33.06865
905.817	-5.01159
906.207	-64.14655
906.597	24.05274
906.987	-58.14231
907.378	-32.07671
907.768	28.0707
908.158	15.03453
908.547	-36.08957
908.937	11.02661
909.327	18.04082
909.717	41.09676
910.106	-6.0136
910.495	31.0733
910.885	-33.07821
911.274	34.08044
911.663	59.14194
912.052	12.0276
912.441	19.04623
912.83	14.02978
913.219	-7.01723
913.608	16.03683
913.997	-66.15881
914.385	-11.02441
914.774	10.02279
915.162	-4.00892
915.55	10.02275
915.939	1.00241
916.327	-10.02363
916.715	27.06577
917.103	30.06856
917.491	-10.02302
917.878	-17.03881
918.266	14.03438
918.654	36.088
919.041	-42.10552
919.429	-21.04705
919.816	-5.01195
920.203	-18.04138
920.591	-25.05836
920.978	29.06634
921.365	-39.09772
921.752	46.10279
922.139	51.10246
922.525	7.01581
922.912	-51.11788
923.299	4.00946
923.685	-2.00498
924.072	-9.01916
924.458	-10.0235
924.844	-5.01169
925.231	-47.1027
925.617	36.08807
926.003	22.05314
926.389	-11.02666
926.774	32.07688
927.16	-43.10117
927.546	-43.10572
927.931	-12.02837
928.317	-46.0979
928.702	-42.09307
929.088	-42.09474
929.473	9.02174
929.858	39.09029
930.243	33.07473
930.628	-25.05742
931.013	41.0968
931.398	8.01695
931.783	-41.10355
932.167	25.05698
932.552	-20.04684
932.937	-28.06478
933.321	-47.11217
933.705	39.09372
934.09	-25.05905
934.474	-10.02229
934.858	21.05194
935.242	22.04845
935.626	-26.0632
936.009	-1.00254
936.393	45.10892
936.777	19.04654
937.16	-60.14809
937.544	31.06765
937.927	-20.04856
938.311	41.09258
938.694	30.07516
939.077	-53.11958
939.46	37.08539
939.843	-3.00565
940.226	-11.02668
940.609	-38.08175
940.991	6.01448
941.374	-52.12036
941.757	26.06004
942.139	-33.0689
942.522	-34.07465
942.904	20.04523
943.286	0
943.668	0
944.05	30.0693
944.432	38.08838
944.814	-44.10201
945.196	22.05119
945.578	-11.02504
945.959	4.00881
946.341	-40.09115
946.722	16.03526
947.104	5.01111
947.485	26.05615
947.866	25.06005
948.247	-2.00479
948.628	16.03633
949.009	-20.04905
949.39	-41.09507
949.771	27.05785
950.152	33.07646
950.532	69.16404
950.913	-77.17515
951.293	15.03911
951.674	-16.03621
952.054	-23.05439
952.434	-12.02794
952.814	-5.01096
953.194	69.17027
953.574	-30.06892
953.954	-21.04707
954.334	31.07311
954.714	-2.00462
955.093	-6.01371
955.473	-30.07079
955.853	11.02716
956.232	-4.01052
956.611	-53.11806
956.99	6.01434
957.37	-1.00242
957.749	-34.07582
958.128	-3.00726
958.506	30.07442
958.885	4.0095
959.264	-22.05125
959.643	26.05507
960.021	-21.04948
960.4	39.0832
960.778	5.01135
961.156	-39.09322
961.535	-19.0405
961.913	-23.04941
962.291	7.01731
962.669	21.05044
963.047	-51.12288
963.424	-14.03417
963.802	-16.0368
964.18	-1.00237
964.557	4.00843
964.935	17.03745
965.312	-8.02001
965.69	26.0608
966.067	-35.0801
966.444	22.05084
966.821	-6.0146
967.198	16.03574
967.575	1.00229
967.952	23.05058
968.329	-9.02055
968.705	-15.02926
969.082	-3.00737
969.458	6.01374
969.835	-4.00915
970.211	-13.03182
970.587	14.03284
970.963	-10.02432
971.339	2.00502
971.715	-36.08399
972.091	24.05527
972.467	-90.21162
972.843	-19.04477
973.219	3.00664
973.594	15.03734
973.97	-21.04633
974.345	-35.07919
974.721	22.04948
975.096	5.01124
975.471	32.071
975.846	78.17494
976.221	10.02409
976.596	-34.07726
976.971	-12.02803
977.346	-1.00214
977.72	-28.06781
978.095	-22.05444
978.469	15.03359
978.844	16.03778
979.218	-31.07111
979.593	36.08058
979.967	10.02306
980.341	-43.09257
980.715	-5.01186
981.089	13.03031
981.463	20.04332
981.837	2.00465
982.21	42.08954
982.584	-6.01356
982.957	-3.00716
983.331	50.10965
983.704	13.03031
984.078	-58.13547
984.451	0
984.824	12.02776
985.197	-26.05949
985.57	-6.01408
985.943	-45.10319
986.316	17.03914
986.688	-11.02484
987.061	-11.02389
987.434	22.05446
987.806	-24.05462
988.179	-33.07293
988.551	8.01901
988.923	-10.02317
989.295	38.08865
989.667	-15.03462
990.039	15.03511
990.411	29.06267
990.783	31.06576
991.155	-2.00461
991.527	-14.03175
991.898	-27.06343
992.27	10.02338
992.641	2.00471
993.012	80.17477
993.384	-43.09722
993.755	-15.03614
994.126	38.08547
994.497	-23.05342
994.868	5.01076
995.239	1.0023
995.61	-23.05481
995.98	18.04153
996.351	-18.04265
996.722	-16.03521
997.092	-6.01353
997.462	-12.02673
997.833	4.00883
998.203	-22.04999
998.573	23.05439
998.943	-82.18081
999.313	-7.0159
999.683	-42.09447
1000.053	4.00864
1000.423	22.05009
1000.792	8.01972
1001.162	-11.02578
1001.531	23.05363
1001.901	6.01403
1002.27	49.10149
1002.639	9.02187
1003.009	41.09224
1003.378	20.04845
1003.747	8.0176
1004.116	0
1004.485	39.08749
1004.853	20.04783
1005.222	45.10777
1005.591	-16.03538
1005.959	51.10776
1006.328	-25.05247
1006.696	-11.02524
1007.064	16.03802
1007.433	40.09431
1007.801	-13.02986
1008.169	17.04014
1008.537	42.08596
1008.905	0
1009.273	21.04864
1009.64	-12.02717
1010.008	-13.02905
1010.375	38.08582
1010.743	56.11601
1011.11	-28.06277
1011.478	-7.01632
1011.845	-32.06964
1012.212	-66.1396
1012.579	0
1012.946	-34.07503
1013.313	9.01996
1013.68	0
1014.047	16.03633
1014.414	41.0911
1014.78	39.0919
1015.147	-35.07874
1015.513	51.11643
1015.88	-41.09849
1016.246	46.10639
1016.612	18.03781
1016.978	10.02294
1017.344	44.10306
1017.71	-6.01345
1018.076	29.06339
1018.442	-38.09289
1018.808	-5.01185
1019.174	-46.10934
1019.539	12.02481
1019.905	13.0289
1020.27	11.02586
1020.636	5.01121
1021.001	-5.01116
1021.366	67.15246
1021.731	-1.00245
1022.096	-2.00483
1022.461	-6.01315
1022.826	-14.03137
1023.191	4.01
1023.556	-19.04117
1023.92	-21.04819
1024.285	-25.0574
1024.649	7.01615
1025.014	1.00233
1025.378	13.03123
1025.742	-7.01641
1026.107	-3.00623
1026.471	-11.02346
1026.835	-10.02315
1027.199	-14.03202
1027.562	37.08037
1027.926	45.10215
1028.29	-40.09694
1028.654	-4.00849
1029.017	34.07854
1029.381	9.02028
1029.744	34.08234
1030.107	-3.00651
1030.471	-37.08338
1030.834	-31.06481
1031.197	0
1031.56	39.08662
1031.923	6.01469
1032.286	-11.02402
1032.648	21.04651
1033.011	33.07049
1033.374	-49.10702
1033.736	-3.00751
1034.099	44.10075
1034.461	22.05298
1034.823	-16.03753
1035.185	-2.00468
1035.548	12.02733
1035.91	39.08781
1036.272	45.09466
1036.634	-11.02499
1036.995	35.07735
1037.357	-27.06238
1037.719	-16.03665
1038.08	-30.06576
1038.442	52.11725
1038.803	42.09304
1039.165	-8.01918
1039.526	33.07455
1039.887	26.05858
1040.248	-6.01431
1040.609	57.13091
1040.97	-8.01841
1041.331	-67.15947
1041.692	53.11581
1042.053	16.0334
1042.413	-9.01936
1042.774	-5.01137
1043.134	25.0547
1043.495	-28.0663
1043.855	-34.07817
1044.215	20.04646
1044.576	-8.01816
1044.936	14.03001
1045.296	15.03499
1045.656	17.03911
1046.016	-3.0067
1046.375	-23.05325
1046.735	8.01714
1047.095	7.01534
1047.454	24.04642
1047.814	-21.04719
1048.173	-13.02856
1048.533	22.04715
1048.892	-1.00228
1049.251	26.06133
1049.61	-84.19559
1049.969	16.03553
1050.328	-56.11185
1050.687	-37.08508
1051.046	51.11676
1051.405	-35.08145
1051.763	5.0108
1052.122	35.08292
1052.48	-21.04833
1052.839	-17.03768
1053.197	17.03741
1053.555	-17.03472
1053.914	4.00915
1054.272	25.0562
1054.63	-33.07594
1054.988	25.05525
1055.345	0
1055.703	39.08637
1056.061	-34.08361
1056.419	-7.01734
1056.776	20.04511
1057.134	-10.02159
1057.491	13.03055
1057.848	-20.04679
1058.206	-2.00439
1058.563	33.06783
1058.92	-11.02339
1059.277	-40.09178
1059.634	-11.02367
1059.991	77.17117
1060.348	3.00638
1060.704	-27.06092
1061.061	-57.12181
1061.418	36.08217
1061.774	63.14724
1062.131	31.0796
1062.487	-10.02172
1062.843	8.01876
1063.199	0
1063.555	42.09102
1063.911	-2.00475
1064.267	33.06076
1064.623	-35.08161
1064.979	-24.05188
1065.335	-35.07742
1065.691	31.07003
1066.046	-26.05266
1066.402	-22.04674
1066.757	23.05474
1067.112	-27.06186
1067.468	16.03602
1067.823	36.08094
1068.178	14.03195
1068.533	-16.03621
1068.888	-25.05555
1069.243	18.04198
1069.598	-51.11558
1069.952	16.03417
1070.307	27.06394
1070.662	1.00224
1071.016	24.05039
1071.371	38.07943
1071.725	-18.03929
1072.079	-16.03614
1072.434	-10.02285
1072.788	10.02247
1073.142	36.08363
1073.496	-39.08752
1073.85	3.00647
1074.203	27.06089
1074.557	8.02042
1074.911	-2.00441
1075.265	17.03623
1075.618	27.06194
1075.971	-36.08031
1076.325	-16.03866
1076.678	-17.03642
1077.031	-32.06769
1077.385	48.09775
1077.738	-8.0169
1078.091	33.07073
1078.444	-25.05359
1078.796	-8.01867
1079.149	-16.03708
1079.502	-10.02225
1079.855	19.04153
1080.207	35.08032
1080.56	-40.09872
1080.912	-58.1319
1081.264	-10.02263
1081.617	19.04355
1081.969	22.05342
1082.321	-44.10209
1082.673	27.05805
1083.025	-47.10439
1083.377	-23.04488
1083.728	-38.08154
1084.08	27.06377
1084.432	-34.07557
1084.783	67.14634
1085.135	49.11685
1085.486	1.00216
1085.838	7.01623
1086.189	21.04769
1086.54	0
1086.891	69.16562
1087.242	-44.10071
1087.593	-37.08437
1087.944	17.03551
1088.295	-31.0651
1088.646	23.05227
1088.996	-32.07274
1089.347	-42.09706
1089.698	-16.03599
1090.048	-19.04658
1090.398	-3.00654
1090.749	35.07826
1091.099	-26.06292
1091.449	-2.00466
1091.799	-62.14788
1092.149	29.06802
1092.499	-6.01385
1092.849	4.00964
1093.199	31.07239
1093.548	14.03175
1093.898	-6.01424
1094.248	25.06055
1094.597	25.06128
1094.947	-12.03053
1095.296	-13.03016
1095.645	11.02696
1095.994	37.08331
1096.343	18.04323
1096.692	-33.08409
1097.041	-26.06826
1097.39	-1.00236
1097.739	35.0863
1098.088	-31.0786
1098.437	-50.12702
1098.785	-38.09787
1099.134	-39.09783
1099.482	-14.03662
1099.83	-21.05243
1100.179	16.04027
1100.527	-43.10883
1100.875	-33.08364
1101.223	11.02806
1101.571	-13.03475
1101.919	-35.08861
1102.267	13.03563
1102.615	7.02249
1102.962	6.01925
1103.31	10.03209
1103.658	-2.00641
