Data from N3 R5 sample 8_Subt2__2__13-32-37-118.txt Node

Date: Thu Sep 18 13:32:37 PDT 2025
User: uwsun
Spectrometer: HDX01956
Trigger mode: 0
Integration Time (sec): 5.000000E-1
Scans to average: 1
Nonlinearity correction enabled: true
Boxcar width: 0
Storing dark spectrum: false
XAxis mode: Wavelengths
Number of Pixels in Spectrum: 2068
>>>>>Begin Spectral Data<<<<<
194.03	20.05791
194.578	19.06167
195.127	21.06724
195.676	14.04482
196.225	53.13884
196.773	69.19071
197.321	54.14956
197.87	70.17927
198.418	116.2976
198.966	101.2644
199.513	154.38621
200.061	60.15188
200.609	85.22252
201.156	33.07131
201.704	63.15757
202.251	66.17439
202.798	74.19217
203.345	106.25931
203.892	58.14562
204.438	111.26176
204.985	137.32106
205.532	166.43786
206.078	125.30265
206.624	76.18737
207.17	111.25361
207.716	55.13207
208.262	96.18587
208.808	128.31428
209.354	58.14083
209.899	69.17227
210.445	78.19484
210.99	94.2255
211.535	126.29048
212.08	124.28234
212.625	64.15923
213.17	90.22498
213.715	98.21844
214.259	123.28329
214.804	104.25176
215.348	93.20974
215.892	116.2752
216.436	130.29672
216.98	84.18157
217.524	85.19881
218.068	71.17726
218.612	111.27239
219.155	105.24289
219.698	51.11952
220.242	85.20844
220.785	88.20328
221.328	106.26037
221.871	91.22686
222.414	74.17941
222.956	30.07254
223.499	97.21402
224.041	77.1738
224.583	128.26635
225.126	185.39961
225.668	92.22062
226.21	77.19113
226.751	41.08777
227.293	31.0696
227.835	25.06051
228.376	77.1728
228.918	117.2886
229.459	112.27724
230	91.2126
230.541	76.17102
231.082	71.17003
231.622	94.21239
232.163	95.22863
232.704	110.26649
233.244	88.21463
233.784	90.21442
234.324	156.33676
234.864	79.17503
235.404	37.08624
235.944	13.03036
236.484	74.17968
237.023	110.25532
237.563	91.20598
238.102	120.27621
238.641	138.34284
239.18	59.1374
239.719	115.28492
240.258	103.22449
240.797	104.24511
241.335	58.13813
241.874	113.21287
242.412	53.12533
242.95	84.19951
243.488	50.11288
244.026	113.25537
244.564	68.13708
245.102	104.22845
245.64	68.16083
246.177	93.20244
246.715	53.12406
247.252	42.09424
247.789	12.0211
248.326	40.09427
248.863	30.06479
249.4	97.21831
249.936	83.16636
250.473	106.24252
251.009	97.22001
251.546	121.2607
252.082	118.25396
252.618	91.20044
253.154	44.10471
253.69	77.16968
254.226	95.22133
254.761	67.14578
255.297	111.23792
255.832	67.1553
256.367	111.25371
256.903	105.22312
257.438	100.22686
257.972	65.14101
258.507	95.21626
259.042	58.12112
259.576	67.14262
260.111	112.25099
260.645	79.16831
261.179	45.10315
261.713	107.23034
262.247	128.29038
262.781	111.22846
263.315	130.31067
263.849	62.15313
264.382	113.2513
264.915	131.30099
265.449	82.19783
265.982	93.20407
266.515	96.22977
267.048	122.2524
267.58	104.21718
268.113	93.19831
268.646	129.31351
269.178	83.18213
269.71	143.29989
270.243	125.27706
270.775	100.24998
271.307	50.11702
271.838	68.15752
272.37	125.3014
272.902	159.35169
273.433	106.22421
273.965	145.34737
274.496	69.16707
275.027	70.17022
275.558	67.15996
276.089	119.29257
276.62	74.18445
277.15	95.22907
277.681	67.14001
278.211	95.2262
278.741	143.30889
279.272	121.26954
279.802	97.23839
280.332	95.22011
280.861	108.25414
281.391	110.24234
281.921	96.22318
282.45	157.3857
282.98	141.3599
283.509	127.27727
284.038	75.16492
284.567	47.10626
285.096	126.29765
285.625	152.33936
286.153	159.35946
286.682	94.20892
287.21	99.23328
287.739	94.21602
288.267	103.24582
288.795	126.32303
289.323	162.37228
289.851	106.24145
290.378	144.31392
290.906	141.33509
291.433	137.33345
291.961	83.18328
292.488	127.309
293.015	145.33515
293.542	111.27451
294.069	141.33741
294.596	145.34857
295.122	166.38407
295.649	151.32575
296.175	97.22724
296.702	116.27169
297.228	129.30019
297.754	117.25555
298.28	103.22811
298.806	103.24459
299.332	102.22094
299.857	129.28223
300.383	93.22907
300.908	130.3115
301.433	160.37972
301.958	112.24789
302.483	203.49593
303.008	115.27582
303.533	90.22644
304.058	135.30831
304.582	136.31404
305.107	115.29684
305.631	175.38093
306.155	186.42264
306.679	144.3288
307.203	162.36557
307.727	164.3799
308.251	141.33856
308.775	116.26914
309.298	175.41011
309.822	157.38499
310.345	146.33673
310.868	134.31237
311.391	154.3676
311.914	155.37924
312.437	181.39382
312.96	162.37228
313.482	178.4102
314.005	151.36959
314.527	151.3884
315.049	161.39289
315.571	240.52252
316.093	211.50721
316.615	200.46952
317.137	144.30165
317.659	165.3838
318.18	199.46416
318.702	190.4277
319.223	155.30809
319.744	193.41975
320.265	198.4661
320.786	232.5527
321.307	199.48145
321.828	219.48014
322.348	218.49655
322.869	142.32175
323.389	184.33121
323.909	232.51068
324.43	138.32195
324.95	234.51616
325.47	209.49897
325.989	222.51383
326.509	240.50808
327.029	204.44377
327.548	221.48065
328.067	220.51061
328.587	273.65099
329.106	282.60561
329.625	246.60911
330.144	241.52659
330.662	231.51456
331.181	283.6309
331.7	213.47957
332.218	279.57914
332.736	192.43097
333.255	212.47546
333.773	293.65994
334.291	295.69075
334.808	253.53337
335.326	297.63575
335.844	305.68022
336.361	297.71498
336.879	268.59511
337.396	287.65013
337.913	276.59987
338.43	373.79048
338.947	327.73561
339.464	342.6847
339.981	351.78603
340.497	375.8677
341.014	294.67424
341.53	340.72858
342.046	357.82607
342.562	381.88683
343.078	348.76534
343.594	364.81966
344.11	387.85414
344.626	421.99108
345.141	421.89375
345.657	328.6895
346.172	360.808
346.687	368.79232
347.202	454.93248
347.717	437.96406
348.232	450.03928
348.747	398.84843
349.261	468.953
349.776	422.90934
350.29	396.91792
350.805	401.91311
351.319	461.98633
351.833	443.93143
352.347	366.7897
352.861	473.00658
353.374	473.98223
353.888	449.98928
354.401	473.98924
354.915	472.97251
355.428	463.06151
355.941	484.03026
356.454	519.04473
356.967	428.93729
357.48	458.95766
357.993	480.077
358.505	504.1351
359.018	503.10301
359.53	500.08836
360.042	475.94019
360.554	503.09791
361.066	531.16158
361.578	572.11541
362.09	564.20294
362.602	528.04263
363.113	512.0512
363.625	523.06875
364.136	535.04832
364.647	510.07441
365.158	572.19205
365.669	592.28458
366.18	540.11129
366.691	638.22785
367.201	580.22428
367.712	596.17717
368.222	646.31429
368.733	653.24502
369.243	607.16164
369.753	656.31042
370.263	619.28758
370.773	643.40278
371.282	679.39814
371.792	673.33045
372.301	641.36652
372.811	711.61526
373.32	700.26543
373.829	754.53571
374.338	736.39236
374.847	714.39613
375.356	808.63539
375.865	827.44959
376.373	858.61015
376.882	932.95101
377.39	884.77553
377.898	909.8773
378.407	962.71642
378.915	912.576
379.423	1038.95434
379.93	1073.88505
380.438	1132.17185
380.946	1201.14017
381.453	1187.18462
381.96	1360.3622
382.468	1393.40779
382.975	1527.65599
383.482	1486.31789
383.989	1498.77489
384.495	1627.52188
385.002	1717.26878
385.509	1753.643
386.015	1934.24272
386.521	1998.60672
387.028	2137.73185
387.534	2040.47746
388.04	2224.92799
388.546	2283.6464
389.051	2403.61449
389.557	2567.90178
390.063	2872.91112
390.568	2825.01529
391.073	2982.70886
391.578	3059.0365
392.084	3195.51874
392.589	3416.38353
393.093	3561.68757
393.598	3870.32656
394.103	4208.42394
394.607	4676.08205
395.112	4970.12944
395.616	5330.75433
396.12	5788.24169
396.624	6335.13622
397.128	6852.22674
397.632	7775.53772
398.136	8213.01117
398.639	8748.87479
399.143	10008.98165
399.646	11093.63247
400.15	12322.89267
400.653	13780.3501
401.156	15395.52684
401.659	18031.77898
402.162	21994.21469
402.664	29197.67688
403.167	41626.41313
403.67	58351.47057
404.172	55487.84425
404.674	37291.05854
405.176	4428.40989
405.678	533.47942
406.18	0
406.682	0
407.184	6962.89417
407.686	50953.82939
408.187	59237.6763
408.688	61091.12691
409.19	51250.04049
409.691	40791.87313
410.192	34408.24254
410.693	30046.44826
411.194	27070.92661
411.694	25867.96398
412.195	23737.64463
412.696	21298.15681
413.196	20250.70575
413.696	19580.85531
414.196	19819.15038
414.696	19453.50487
415.196	18414.11397
415.696	16514.92308
416.196	13359.9267
416.695	10399.5975
417.195	8947.25687
417.694	8470.32608
418.194	8044.64289
418.693	7444.22944
419.192	7343.32759
419.691	7258.29147
420.19	7023.2421
420.688	6779.38752
421.187	6483.53589
421.685	5936.23857
422.184	5489.50165
422.682	4756.55597
423.18	4018.30953
423.678	3573.47467
424.176	3310.5908
424.674	3146.41097
425.172	3077.80278
425.669	2797.1474
426.167	2652.78107
426.664	2469.70489
427.161	2222.65973
427.659	2140.98469
428.156	1977.31357
428.652	1789.89759
429.149	1745.70072
429.646	1629.24889
430.143	1578.5308
430.639	1490.4019
431.135	1404.45051
431.632	1285.08839
432.128	1270.2422
432.624	1095.14946
433.12	1125.93044
433.616	1102.785
434.111	1068.96582
434.607	1010.88389
435.103	983.54554
435.598	1001.55404
436.093	935.7072
436.588	908.61235
437.083	852.53537
437.578	767.42954
438.073	672.40944
438.568	754.52667
439.062	699.22923
439.557	627.24111
440.051	650.24139
440.546	611.19188
441.04	611.22971
441.534	590.30142
442.028	639.30327
442.522	632.29919
443.015	574.06949
443.509	583.23896
444.002	562.19919
444.496	487.91029
444.989	547.17495
445.482	465.02296
445.975	544.0778
446.468	472.88901
446.961	491.90415
447.454	435.85779
447.947	529.1128
448.439	482.04733
448.931	455.90903
449.424	443.98015
449.916	423.90582
450.408	469.95264
450.9	477.0204
451.392	451.02113
451.884	382.77469
452.375	433.95364
452.867	442.87876
453.358	377.75879
453.849	400.75153
454.341	442.88285
454.832	402.77129
455.323	399.8773
455.814	370.75893
456.304	366.75514
456.795	366.74292
457.285	373.7331
457.776	376.74928
458.266	357.77408
458.756	291.63207
459.247	349.74835
459.737	366.79748
460.226	375.75615
460.716	334.72869
461.206	284.61726
461.695	302.69813
462.185	355.76154
462.674	346.7081
463.163	245.49402
463.653	321.61007
464.142	278.61167
464.63	281.62955
465.119	336.71192
465.608	308.64204
466.096	291.57841
466.585	241.50473
467.073	251.54751
467.561	380.83641
468.05	249.52702
468.538	293.66912
469.026	329.72128
469.513	220.4278
470.001	239.49899
470.489	228.49998
470.976	243.51724
471.463	283.65565
471.951	244.56586
472.438	224.49038
472.925	181.39215
473.412	201.45571
473.899	221.47287
474.385	199.45685
474.872	213.46009
475.359	183.41945
475.845	220.41984
476.331	205.40747
476.817	177.40015
477.303	197.42645
477.789	171.38628
478.275	189.44171
478.761	177.39803
479.247	221.45444
479.732	196.46211
480.218	161.3964
480.703	213.50189
481.188	120.24147
481.673	129.2808
482.158	161.32479
482.643	121.29264
483.128	113.24336
483.612	128.28176
484.097	145.33475
484.581	104.22576
485.066	130.29791
485.55	71.14764
486.034	181.37034
486.518	112.25109
487.002	128.29827
487.486	132.30638
487.969	139.3269
488.453	143.34389
488.936	80.17159
489.42	166.34512
489.903	119.28585
490.386	104.21265
490.869	90.18294
491.352	98.2271
491.835	110.21186
492.318	106.22941
492.8	99.192
493.283	105.25767
493.765	106.2507
494.247	76.16814
494.73	104.21834
495.212	125.28525
495.694	104.23191
496.175	87.19837
496.657	163.36956
497.139	12.01916
497.62	58.13377
498.102	77.18482
498.583	37.08854
499.064	78.16917
499.545	69.15077
500.026	42.09067
500.507	34.07538
500.988	96.2259
501.469	51.1226
501.949	44.1039
502.43	78.17739
502.91	89.17426
503.39	81.1942
503.87	74.16781
504.35	28.06308
504.83	62.13057
505.31	51.11999
505.79	21.04881
506.269	43.09618
506.749	0
507.228	41.09307
507.707	47.10018
508.187	44.10043
508.666	-3.00715
509.145	30.06787
509.623	52.11744
510.102	50.11638
510.581	51.11741
511.059	60.14683
511.538	42.10484
512.016	62.14374
512.494	43.09994
512.972	58.1342
513.45	30.06836
513.928	30.07076
514.406	63.14995
514.884	37.09371
515.361	52.12165
515.839	-6.01329
516.316	4.00931
516.793	10.02458
517.27	94.21947
517.747	10.02511
518.224	55.12186
518.701	34.07352
519.178	63.15397
519.654	-30.06836
520.131	-4.00957
520.607	21.0506
521.083	25.05578
521.56	-15.03449
522.036	45.0957
522.512	73.17302
522.987	29.06778
523.463	39.09025
523.939	25.05951
524.414	63.13871
524.89	-12.02762
525.365	62.13671
525.84	13.03098
526.315	-21.04923
526.79	42.09071
527.265	-29.06398
527.74	9.02134
528.215	16.03684
528.689	9.0197
529.164	-28.05827
529.638	79.1963
530.112	10.02331
530.587	10.02107
531.061	11.02603
531.534	19.04444
532.008	33.07746
532.482	-21.04614
532.956	41.10325
533.429	-42.09741
533.903	-8.01708
534.376	43.09141
534.849	23.05204
535.322	44.10051
535.795	-14.0335
536.268	37.08695
536.741	-11.02581
537.213	13.02935
537.686	-45.10731
538.158	7.01533
538.631	-11.02594
539.103	-31.06825
539.575	24.04823
540.047	7.01493
540.519	-39.09079
540.991	-25.05941
541.463	37.08736
541.934	13.02905
542.406	5.01168
542.877	20.04373
543.348	-36.08326
543.82	11.0262
544.291	-32.07204
544.762	1.00231
545.233	39.09613
545.703	35.07541
546.174	55.12424
546.645	-15.03591
547.115	10.0236
547.585	51.11502
548.056	45.10752
548.526	5.01154
548.996	6.01408
549.466	10.02364
549.935	40.09365
550.405	33.0711
550.875	-5.01155
551.344	5.01184
551.814	-26.05771
552.283	48.09993
552.752	19.04301
553.221	-10.02129
553.69	72.15476
554.159	73.17635
554.628	25.05433
555.096	24.0593
555.565	56.12016
556.033	-6.01375
556.502	39.09136
556.97	19.04071
557.438	62.14185
557.906	-3.00695
558.374	8.01787
558.842	7.01637
559.31	26.05601
559.777	16.03796
560.245	-39.08893
560.712	-37.08266
561.18	10.02143
561.647	-8.01738
562.114	-5.01115
562.581	47.11277
563.048	-16.03556
563.514	51.122
563.981	-5.01112
564.448	28.0612
564.914	-12.02721
565.381	-8.0175
565.847	64.14354
566.313	5.01129
566.779	53.11669
567.245	14.03195
567.711	5.0118
568.176	111.2448
568.642	55.13487
569.108	30.07189
569.573	32.07204
570.038	114.22971
570.504	71.1556
570.969	22.05358
571.434	50.10733
571.899	76.17549
572.363	90.19612
572.828	38.08351
573.293	76.16821
573.757	92.20447
574.222	113.24472
574.686	105.22739
575.15	57.13196
575.614	18.04016
576.078	53.12026
576.542	110.24102
577.006	117.25436
577.469	94.22154
577.933	16.03467
578.396	92.21303
578.86	65.14683
579.323	77.17713
579.786	88.18124
580.249	60.13274
580.712	66.15458
581.175	84.19997
581.637	140.3096
582.1	59.12384
582.563	42.08432
583.025	83.19406
583.487	97.18542
583.95	109.22444
584.412	110.21747
584.874	112.25934
585.336	135.3057
585.797	127.25938
586.259	92.20371
586.721	130.29109
587.182	134.29187
587.643	164.35008
588.105	157.3532
588.566	176.34648
589.027	211.48284
589.488	162.34611
589.949	167.37755
590.41	214.39095
590.87	160.33606
591.331	252.49002
591.791	215.45566
592.252	249.52748
592.712	269.59572
593.172	298.61236
593.632	294.56679
594.092	370.73801
594.552	364.69332
595.011	441.90599
595.471	472.92266
595.931	449.87707
596.39	464.98781
596.849	511.0319
597.308	559.02473
597.768	572.26956
598.227	629.2933
598.685	645.21843
599.144	704.3681
599.603	779.51157
600.062	822.35019
600.52	806.45304
600.978	868.67054
601.437	965.70454
601.895	1043.64409
602.353	1023.69046
602.811	1066.76714
603.269	1172.07598
603.727	1313.26524
604.184	1303.07779
604.642	1399.41821
605.099	1470.30591
605.557	1560.53115
606.014	1644.20287
606.471	1688.85015
606.928	1871.49304
607.385	1828.89523
607.842	1966.69538
608.299	2028.72772
608.755	2083.91326
609.212	2204.63919
609.668	2247.6463
610.125	2311.98596
610.581	2362.83272
611.037	2402.72996
611.493	2478.90586
611.949	2483.07148
612.405	2618.23533
612.861	2658.84851
613.316	2612.08912
613.772	2643.83668
614.227	2713.99065
614.683	2706.47367
615.138	2723.02473
615.593	2686.83913
616.048	2690.71946
616.503	2731.19873
616.958	2728.33926
617.412	2662.98639
617.867	2588.70905
618.321	2690.18703
618.776	2676.61164
619.23	2575.98834
619.684	2503.65592
620.138	2431.71719
620.592	2433.05009
621.046	2448.86068
621.5	2385.04417
621.954	2317.6198
622.407	2187.55611
622.861	2118.87407
623.314	2122.65478
623.768	2047.73884
624.221	2032.08872
624.674	1961.57671
625.127	1949.68942
625.58	1831.40514
626.033	1897.34978
626.485	1754.63907
626.938	1743.58747
627.39	1694.49795
627.843	1626.38481
628.295	1630.42697
628.747	1530.43526
629.199	1569.35394
629.651	1468.24349
630.103	1454.26753
630.555	1367.904
631.006	1355.21272
631.458	1271.09658
631.909	1225.98803
632.361	1212.01026
632.812	1199.01854
633.263	1150.7457
633.714	1114.6797
634.165	1018.84555
634.616	1022.83969
635.067	1061.69952
635.518	1006.79975
635.968	972.4182
636.419	1008.60009
636.869	913.68038
637.319	932.66704
637.769	911.58803
638.219	874.61529
638.669	851.63032
639.119	804.57759
639.569	829.63091
640.019	796.46427
640.468	750.31948
640.918	814.57021
641.367	749.35937
641.816	754.36326
642.265	657.26054
642.714	688.32425
643.163	635.19364
643.612	624.28733
644.061	590.02603
644.51	630.20661
644.958	590.0863
645.406	604.23318
645.855	570.19156
646.303	580.13854
646.751	575.11835
647.199	534.01354
647.647	576.14132
648.095	566.09375
648.543	562.9369
648.99	571.17335
649.438	554.11353
649.885	498.08629
650.333	486.77456
650.78	514.09946
651.227	449.97228
651.674	474.94238
652.121	422.89568
652.568	467.9983
653.015	400.88448
653.461	467.97323
653.908	473.95682
654.354	389.81286
654.801	437.90627
655.247	424.80644
655.693	378.89283
656.139	393.83686
656.585	418.89144
657.031	355.75234
657.477	414.79087
657.922	415.85219
658.368	376.82726
658.813	350.70753
659.259	360.78075
659.704	367.77233
660.149	380.78895
660.594	393.83322
661.039	339.69896
661.484	345.74232
661.929	355.74116
662.373	346.80522
662.818	353.80026
663.262	312.67984
663.707	220.51606
664.151	337.75624
664.595	285.63089
665.039	288.6528
665.483	335.78562
665.927	299.6345
666.371	258.55431
666.814	284.61752
667.258	318.69291
667.701	276.52697
668.145	301.68046
668.588	306.68851
669.031	256.55996
669.474	260.57447
669.917	292.57972
670.36	220.50394
670.803	245.54235
671.245	267.50447
671.688	244.5461
672.13	234.47955
672.573	285.66969
673.015	247.54381
673.457	336.66054
673.899	216.48204
674.341	254.56309
674.783	245.54597
675.225	265.59884
675.666	211.47468
676.108	230.46004
676.549	252.54445
676.991	229.46006
677.432	168.3035
677.873	271.56881
678.314	249.54522
678.755	258.58219
679.196	244.517
679.637	218.48832
680.078	255.54373
680.518	201.42394
680.959	244.53709
681.399	211.48246
681.839	266.59313
682.28	236.54319
682.72	179.37853
683.16	245.5665
683.6	212.44409
684.039	232.43587
684.479	240.54578
684.919	267.57031
685.358	248.57833
685.798	243.58811
686.237	233.51708
686.676	262.55198
687.115	219.47447
687.554	253.55024
687.993	174.34948
688.432	276.57994
688.871	188.39486
689.309	292.65406
689.748	229.43394
690.186	249.53831
690.625	304.65903
691.063	252.56215
691.501	277.62927
691.939	233.53897
692.377	267.59967
692.815	288.63739
693.253	230.50266
693.69	222.44569
694.128	320.71352
694.565	261.57198
695.003	277.64962
695.44	222.47882
695.877	249.54039
696.314	299.57269
696.751	255.52483
697.188	336.69791
697.625	292.59732
698.061	291.63718
698.498	310.67863
698.934	251.5489
699.371	268.581
699.807	286.61737
700.243	284.63273
700.679	275.56395
701.115	324.67959
701.551	302.64911
701.987	278.55708
702.422	269.5818
702.858	271.58361
703.294	333.66745
703.729	359.79566
704.164	301.66435
704.599	261.52241
705.035	295.59812
705.47	315.70629
705.904	267.56363
706.339	355.72241
706.774	295.62082
707.209	280.58342
707.643	334.72283
708.078	323.70843
708.512	363.83695
708.946	308.66201
709.38	327.69088
709.814	317.64361
710.248	302.65777
710.682	345.74424
711.116	336.7315
711.549	342.79497
711.983	294.60741
712.416	360.74676
712.85	333.75738
713.283	319.6793
713.716	382.85174
714.149	387.80509
714.582	398.78537
715.015	383.8492
715.448	386.85496
715.881	375.69882
716.313	382.79982
716.746	370.78087
717.178	367.78354
717.61	392.89028
718.043	397.8707
718.475	395.84404
718.907	389.86178
719.339	369.73995
719.77	439.9283
720.202	384.8661
720.634	407.88662
721.065	404.84102
721.497	390.85301
721.928	399.87767
722.359	435.94117
722.79	432.9085
723.221	408.90066
723.652	420.95076
724.083	405.79337
724.514	360.71372
724.945	435.89487
725.375	434.88417
725.806	329.72341
726.236	476.06451
726.666	400.82454
727.096	409.8785
727.526	421.95322
727.956	412.81644
728.386	394.84209
728.816	367.83638
729.246	431.93052
729.675	406.89587
730.105	399.86218
730.534	436.88743
730.964	401.88614
731.393	372.80196
731.822	476.06932
732.251	416.94324
732.68	426.84695
733.109	418.91115
733.537	405.85941
733.966	420.91435
734.395	413.82244
734.823	411.7937
735.251	408.86559
735.68	414.90855
736.108	385.86109
736.536	342.71481
736.964	385.77846
737.392	373.82255
737.82	403.84286
738.247	387.80617
738.675	395.81332
739.102	410.91907
739.53	420.95771
739.957	397.90364
740.384	416.88641
740.811	407.91965
741.238	334.7219
741.665	330.69187
742.092	338.70708
742.519	350.78524
742.945	364.77158
743.372	372.82292
743.798	372.85376
744.225	330.69585
744.651	319.71585
745.077	378.83654
745.503	315.68157
745.929	379.79653
746.355	316.68855
746.781	345.76114
747.207	298.63721
747.632	326.71847
748.058	267.5977
748.483	275.5591
748.908	325.72422
749.334	291.64363
749.759	293.6158
750.184	303.64579
750.609	299.65552
751.033	254.5283
751.458	343.68209
751.883	282.62568
752.307	314.67141
752.732	254.58859
753.156	267.5972
753.58	306.64439
754.005	268.62496
754.429	213.44747
754.853	222.50648
755.277	278.59624
755.7	237.5347
756.124	304.69074
756.548	214.46651
756.971	222.49174
757.394	213.50579
757.818	230.54941
758.241	157.36808
758.664	214.50356
759.087	194.40387
759.51	220.50131
759.933	232.51347
760.356	179.4249
760.778	218.50117
761.201	151.33274
761.623	210.45565
762.046	196.41167
762.468	189.4135
762.89	210.47446
763.312	130.2924
763.734	192.42654
764.156	195.44516
764.578	177.36676
765	173.3892
765.421	156.37764
765.843	195.4771
766.264	149.32916
766.686	174.40881
767.107	180.40801
767.528	131.31503
767.949	106.25332
768.37	104.23776
768.791	164.36328
769.212	143.3418
769.632	89.19357
770.053	126.31337
770.473	189.42397
770.894	97.22448
771.314	110.24061
771.734	141.30092
772.154	108.26125
772.575	96.20608
772.994	112.2368
773.414	106.23108
773.834	107.25292
774.254	94.21429
774.673	88.19948
775.093	140.32546
775.512	126.29234
775.931	114.27462
776.351	105.24251
776.77	101.2328
777.189	77.16996
777.607	114.27472
778.026	77.18243
778.445	89.21338
778.864	90.21623
779.282	73.16315
779.701	99.23473
780.119	51.12148
780.537	34.08048
780.955	63.15082
781.373	61.14217
781.791	101.21209
782.209	100.21504
782.627	94.23591
783.045	122.2593
783.462	47.1132
783.88	68.16808
784.297	85.20154
784.715	74.18324
785.132	49.11186
785.549	105.25001
785.966	112.26253
786.383	74.17278
786.8	79.17145
787.217	52.11562
787.633	88.20732
788.05	4.00873
788.466	120.25893
788.883	98.23804
789.299	46.1033
789.715	94.21559
790.131	89.20637
790.547	29.0673
790.963	92.2143
791.379	70.16767
791.795	68.14409
792.21	65.14143
792.626	14.03139
793.041	25.05811
793.457	74.17081
793.872	65.14347
794.287	133.30277
794.702	68.1564
795.117	-13.03067
795.532	57.13708
795.947	66.14687
796.362	100.21902
796.776	29.06152
797.191	39.08968
797.605	44.09966
798.02	40.09288
798.434	55.11248
798.848	36.08326
799.262	60.14306
799.676	16.03655
800.09	33.07631
800.504	48.10943
800.918	31.06719
801.331	18.04464
801.745	61.12996
802.158	30.07093
802.572	33.07494
802.985	51.11394
803.398	31.06963
803.811	76.18239
804.224	44.10281
804.637	-57.12792
805.05	40.08668
805.462	38.08761
805.875	54.13577
806.288	53.12192
806.7	23.05485
807.112	28.06091
807.525	47.10993
807.937	-13.03075
808.349	43.10125
808.761	-25.05776
809.173	13.02943
809.584	19.04413
809.996	21.04904
810.408	-5.01245
810.819	7.01562
811.231	26.06593
811.642	45.10571
812.053	51.11634
812.464	33.07473
812.875	25.06099
813.286	-5.01226
813.697	-6.01284
814.108	1.00229
814.519	3.00621
814.929	20.04781
815.34	0
815.75	45.10822
816.16	-37.08654
816.571	18.04462
816.981	7.01531
817.391	11.02499
817.801	50.11899
818.211	21.04738
818.62	-2.00455
819.03	5.01146
819.44	6.01488
819.849	22.05284
820.259	46.11178
820.668	36.08481
821.077	30.07082
821.486	-12.02701
821.895	14.03199
822.304	41.10355
822.713	13.02881
823.122	21.05004
823.531	22.0494
823.939	28.06455
824.348	27.06214
824.756	14.03307
825.164	19.04486
825.573	28.06658
825.981	20.04695
826.389	-18.04246
826.797	22.05233
827.205	-4.00865
827.612	15.03469
828.02	2.00449
828.428	14.03371
828.835	12.0303
829.243	-15.03369
829.65	-10.0238
830.057	55.12672
830.464	19.04434
830.871	23.05149
831.278	-10.02268
831.685	-19.03925
832.092	34.07889
832.499	10.02024
832.905	26.06266
833.312	30.06318
833.718	40.09328
834.124	32.06846
834.531	-5.01191
834.937	5.01208
835.343	54.12206
835.749	42.09032
836.155	25.06208
836.561	-57.13159
836.966	9.0207
837.372	7.01685
837.777	-3.00705
838.183	-33.06712
838.588	7.0166
838.993	0
839.399	-42.0976
839.804	40.09299
840.209	21.05131
840.613	25.05245
841.018	8.01899
841.423	-44.10704
841.828	11.02636
842.232	-17.03919
842.637	-24.05261
843.041	5.01245
843.445	-9.02124
843.849	24.05612
844.253	4.00885
844.657	-18.04374
845.061	0
845.465	79.18231
845.869	1.00217
846.272	-8.01848
846.676	0
847.079	12.02928
847.483	12.02821
847.886	-29.06564
848.289	44.11379
848.692	23.05495
849.095	-17.03814
849.498	-32.0756
849.901	-24.05125
850.304	3.00669
850.707	19.04573
851.109	8.01874
851.512	35.0817
851.914	-20.04929
852.316	19.04573
852.718	-13.0326
853.121	1.00232
853.523	-41.09057
853.925	-8.02003
854.326	25.05998
854.728	-26.06405
855.13	-2.00497
855.531	52.11845
855.933	-2.00451
856.334	39.09229
856.736	-34.0711
857.137	-8.01753
857.538	-39.09397
857.939	30.07051
858.34	21.04773
858.741	-5.01247
859.142	9.02044
859.542	60.1535
859.943	51.12022
860.343	-14.03327
860.744	28.06455
861.144	41.09375
861.544	48.11004
861.945	-10.02409
862.345	-12.02722
862.745	-15.03546
863.145	-31.06851
863.544	37.08945
863.944	29.06374
864.344	-14.03248
864.743	51.11859
865.143	4.00977
865.542	-25.05447
865.941	33.07776
866.34	37.08304
866.74	5.01283
867.139	53.11953
867.537	-12.0289
867.936	21.04775
868.335	41.09935
868.734	30.0735
869.132	50.109
869.531	3.00682
869.929	-16.03478
870.327	-10.02266
870.726	-10.02353
871.124	-33.07211
871.522	-34.08194
871.92	-11.02565
872.318	22.05078
872.715	60.13794
873.113	21.04833
873.511	38.08932
873.908	-17.04207
874.306	-6.01423
874.703	4.00945
875.1	13.03125
875.497	36.08014
875.894	17.04014
876.291	48.11137
876.688	-16.03933
877.085	17.03804
877.482	10.02345
877.878	-24.05502
878.275	-20.04823
878.671	-53.10761
879.068	2.00454
879.464	10.02284
879.86	49.10979
880.256	-34.0786
880.652	5.01205
881.048	-16.03706
881.444	1.0022
881.84	-25.06026
882.236	3.00717
882.631	-11.02565
883.027	-22.0495
883.422	-31.07565
883.817	12.029
884.213	2.00489
884.608	0
885.003	-3.00686
885.398	-10.02379
885.793	11.02597
886.188	-7.01676
886.582	-16.03824
886.977	21.04653
887.371	-11.0264
887.766	-20.04787
888.16	41.09631
888.554	-26.06023
888.949	-28.06581
889.343	-31.07074
889.737	30.07761
890.131	29.06903
890.525	0
890.918	37.08864
891.312	-16.03535
891.706	16.04034
892.099	-3.00721
892.492	-8.01606
892.886	-11.02528
893.279	15.03625
893.672	-16.03901
894.065	29.06804
894.458	34.08032
894.851	-20.04558
895.244	-11.02682
895.637	10.02273
896.029	23.05287
896.422	-21.04835
896.814	20.04703
897.206	-8.01824
897.599	-38.08715
897.991	0
898.383	-47.10487
898.775	23.04804
899.167	-9.02003
899.559	8.01905
899.951	-10.02211
900.342	-19.04508
900.734	22.05288
901.125	-1.00247
901.517	36.08349
901.908	11.02445
902.299	-8.01862
902.69	-5.01112
903.082	33.07473
903.473	21.04784
903.863	-3.00737
904.254	-27.05877
904.645	-8.01853
905.036	35.08096
905.426	-58.12134
905.817	7.01619
906.207	-7.01585
906.597	-10.02213
906.987	-11.02675
907.378	1.00238
907.768	10.02533
908.158	33.0757
908.547	-8.0198
908.937	12.02903
909.327	-23.05259
909.717	17.04031
910.106	-15.03406
910.495	24.05683
910.885	-9.02123
911.274	3.00714
911.663	64.15382
912.052	15.03448
912.441	13.03167
912.83	3.0064
913.219	-27.0667
913.608	19.04371
913.997	-32.0765
914.385	-10.02219
914.774	-26.05968
915.162	-31.06954
915.55	23.05219
915.939	-2.00482
916.327	-29.06879
916.715	-15.03682
917.103	-9.02073
917.491	-13.02994
917.878	-3.00683
918.266	-16.0395
918.654	21.05148
919.041	-18.04503
919.429	27.0599
919.816	23.05468
920.203	-23.05293
920.591	-37.08658
920.978	11.02525
921.365	-18.04493
921.752	10.02251
922.139	26.05254
922.525	-21.04769
922.912	-5.01145
923.299	0
923.685	-4.00996
924.072	0
924.458	27.063
924.844	-21.04927
925.231	11.02374
925.617	17.04173
926.003	-2.00485
926.389	26.06259
926.774	26.06254
927.16	-7.01635
927.546	-5.01221
927.931	18.04231
928.317	-4.00843
928.702	-8.0176
929.088	6.0134
929.473	4.00967
929.858	23.05342
930.243	1.00228
930.628	-38.0875
931.013	12.02849
931.398	43.09042
931.783	18.04498
932.167	-16.03677
932.552	-19.04449
932.937	-62.14442
933.321	-29.06897
933.705	14.0338
934.09	-24.05667
934.474	10.0222
934.858	8.01983
935.242	25.05502
935.626	-33.08032
936.009	-55.14093
936.393	60.14481
936.777	29.0709
937.16	-68.16808
937.544	8.01754
937.927	14.03378
938.311	17.03857
938.694	-22.05563
939.077	-26.05834
939.46	3.00697
939.843	-10.01888
940.226	-14.03398
940.609	0
940.991	-7.01694
941.374	-66.15319
941.757	-23.05363
942.139	-35.07311
942.522	-15.0328
942.904	49.11015
943.286	11.02615
943.668	-9.02218
944.05	10.02319
944.432	34.07914
944.814	-16.03689
945.196	1.00234
945.578	28.06324
945.959	2.00441
946.341	-1.00226
946.722	29.06374
947.104	-31.0694
947.485	3.00651
947.866	49.11717
948.247	-58.14041
948.628	-25.05723
949.009	3.00733
949.39	-19.04387
949.771	-22.04763
950.152	30.06955
950.532	15.03603
950.913	-2.00448
951.293	-4.01046
951.674	-26.05896
952.054	-14.03305
952.434	-14.03261
952.814	-5.01096
953.194	6.01498
953.574	-8.0183
953.954	6.01337
954.334	14.03312
954.714	7.01614
955.093	10.02278
955.473	-49.11605
955.853	43.10556
956.232	19.04976
956.611	-2.00441
956.99	-13.03119
957.37	2.00483
957.749	21.04629
958.128	-10.02422
958.506	-15.03752
958.885	-10.02382
959.264	-14.03256
959.643	-20.04279
960.021	-10.02351
960.4	45.09587
960.778	-31.07088
961.156	-9.02139
961.535	-61.1312
961.913	-60.12991
962.291	-17.04221
962.669	25.06001
963.047	-48.11559
963.424	14.03399
963.802	-61.14156
964.18	-13.03094
964.557	3.00633
964.935	1.00221
965.312	37.09181
965.69	10.02346
966.067	-50.11477
966.444	57.13081
966.821	-31.07579
967.198	-13.02921
967.575	-7.01604
967.952	29.06369
968.329	-3.00684
968.705	-49.09635
969.082	50.12168
969.458	-3.00688
969.835	7.01598
970.211	26.06318
970.587	-10.02357
970.963	-5.01215
971.339	5.01255
971.715	-42.0981
972.091	6.01387
972.467	-56.1308
972.843	-44.10419
973.219	23.05068
973.594	-1.0025
973.97	-31.06854
974.345	16.03583
974.721	28.0629
975.096	-40.09078
975.471	23.05113
975.846	-5.01141
976.221	-19.04602
976.596	-26.05898
976.971	14.03253
977.346	-78.16982
977.72	30.07186
978.095	2.00493
978.469	38.0847
978.844	-14.03325
979.218	-1.00228
979.593	50.11159
979.967	29.06663
980.341	-8.01709
980.715	16.03778
981.089	-44.10374
981.463	25.0541
981.837	31.07168
982.21	4.0086
982.584	-48.10943
982.957	6.01429
983.331	43.09444
983.704	42.09737
984.078	-33.0767
984.451	-31.07137
984.824	-10.02324
985.197	-19.04341
985.57	-42.09926
985.943	-34.07779
986.316	34.07801
986.688	30.06717
987.061	-23.05009
987.434	-29.07246
987.806	-24.05462
988.179	1.00219
988.551	-17.04059
988.923	-13.03014
989.295	22.05149
989.667	17.03898
990.039	15.03511
990.411	7.0152
990.783	11.02344
991.155	51.11624
991.527	-9.02039
991.898	-51.12036
992.27	19.04434
992.641	20.0469
993.012	48.10557
993.384	42.09331
993.755	-24.05792
994.126	12.02714
994.497	-4.00925
994.868	12.02578
995.239	-13.02993
995.61	-23.05481
995.98	25.0576
996.351	-10.02366
996.722	2.00438
997.092	39.08713
997.462	5.0111
997.833	45.09845
998.203	11.02483
998.573	40.09427
998.943	-27.05885
999.313	47.10556
999.683	-63.14232
1000.053	-12.026
1000.423	0
1000.792	-11.02721
1001.162	27.06281
1001.531	14.0327
1001.901	8.01869
1002.27	30.0624
1002.639	-21.05132
1003.009	44.09893
1003.378	26.06292
1003.747	-19.04203
1004.116	-22.05007
1004.485	59.13181
1004.853	20.04783
1005.222	35.08398
1005.591	-15.03316
1005.959	34.07211
1006.328	-11.02302
1006.696	3.00687
1007.064	-24.05746
1007.433	36.08495
1007.801	-29.06682
1008.169	7.01656
1008.537	85.17226
1008.905	-8.01758
1009.273	6.01394
1009.64	11.02479
1010.008	-13.02905
1010.375	42.09478
1010.743	9.01884
1011.11	-23.05151
1011.478	27.06253
1011.845	-40.0872
1012.212	-34.07141
1012.579	14.03243
1012.946	-62.13762
1013.313	16.03543
1013.68	57.11658
1014.047	-8.01825
1014.414	39.0867
1014.78	7.0166
1015.147	-22.04936
1015.513	57.12997
1015.88	1.00238
1016.246	26.06037
1016.612	14.02943
1016.978	-11.02533
1017.344	11.02593
1017.71	-42.09482
1018.076	13.02851
1018.442	12.02906
1018.808	-8.01896
1019.174	-47.11174
1019.539	3.00622
1019.905	5.01113
1020.27	-37.0878
1020.636	18.04024
1021.001	3.00668
1021.366	7.01612
1021.731	-3.00736
1022.096	-24.05825
1022.461	-47.10387
1022.826	36.07984
1023.191	16.03991
1023.556	-47.10244
1023.92	-6.01373
1024.285	20.0455
1024.649	-13.03011
1025.014	19.04413
1025.378	12.02883
1025.742	-5.01171
1026.107	-54.11342
1026.471	-34.07286
1026.835	-14.03243
1027.199	5.01139
1027.562	21.04577
1027.926	3.00687
1028.29	22.0527
1028.654	-2.00424
1029.017	42.09687
1029.381	22.04944
1029.744	-13.03176
1030.107	-66.14516
1030.471	33.0733
1030.834	-23.048
1031.197	-17.03789
1031.56	35.0778
1031.923	-18.04428
1032.286	25.05416
1032.648	-28.06264
1033.011	-21.04538
1033.374	-24.05214
1033.736	-17.04267
1034.099	25.05746
1034.461	21.05058
1034.823	-20.04695
1035.185	-20.04697
1035.548	-20.04585
1035.91	15.03394
1036.272	-12.02556
1036.634	-51.1168
1036.995	7.01556
1037.357	-34.07867
1037.719	-32.07354
1038.08	0
1038.442	62.13951
1038.803	47.104
1039.165	1.00239
1039.526	7.0159
1039.887	10.0226
1040.248	33.07809
1040.609	20.04627
1040.97	1.0023
1041.331	-59.14022
1041.692	10.02205
1042.053	2.00419
1042.413	-50.10849
1042.774	17.0385
1043.134	-27.05972
1043.495	0
1043.855	46.10406
1044.215	-10.02337
1044.576	23.05189
1044.936	2.0043
1045.296	-34.08007
1045.656	-6.01387
1046.016	-11.02461
1046.375	46.10504
1046.735	-1.00215
1047.095	5.01096
1047.454	1.00194
1047.814	-17.03817
1048.173	-11.02416
1048.533	38.08115
1048.892	-30.06878
1049.251	14.0331
1049.61	-9.02065
1049.969	-17.03801
1050.328	-42.08362
1050.687	-27.06196
1051.046	6.01386
1051.405	-32.07442
1051.763	9.01942
1052.122	7.01667
1052.48	-13.02987
1052.839	-9.01992
1053.197	-26.05774
1053.555	-55.1133
1053.914	23.0524
1054.272	48.10739
1054.63	-19.0436
1054.988	-15.03343
1055.345	7.01369
1055.703	-25.05611
1056.061	2.00489
1056.419	-2.00495
1056.776	-6.01361
1057.134	-15.03242
1057.491	-31.07347
1057.848	16.03717
1058.206	21.04591
1058.563	4.00828
1058.92	-21.04476
1059.277	-80.18502
1059.634	-36.07788
1059.991	39.08738
1060.348	12.02548
1060.704	-10.02248
1061.061	31.06498
1061.418	-10.02304
1061.774	27.06355
1062.131	13.03349
1062.487	-29.06323
1062.843	-23.05426
1063.199	49.11475
1063.555	33.07165
1063.911	-16.03813
1064.267	-36.06743
1064.623	10.02311
1064.979	-48.10429
1065.335	-54.11992
1065.691	39.08796
1066.046	-18.03639
1066.402	-14.02969
1066.757	20.04763
1067.112	-3.00684
1067.468	24.05394
1067.823	24.05409
1068.178	59.13344
1068.533	3.00676
1068.888	17.03745
1069.243	37.08597
1069.598	-81.18469
1069.952	-2.00429
1070.307	-18.043
1070.662	-8.01792
1071.016	-23.04879
1071.371	-32.06792
1071.725	-21.04587
1072.079	-14.03161
1072.434	-15.03431
1072.788	26.05824
1073.142	49.11353
1073.496	-3.00668
1073.85	32.06861
1074.203	-5.01135
1074.557	28.07123
1074.911	10.022
1075.265	-28.06026
1075.618	38.08698
1075.971	7.01548
1076.325	15.03603
1076.678	11.02343
1077.031	7.01468
1077.385	30.06134
1077.738	32.067
1078.091	2.00432
1078.444	-31.06653
1078.796	-25.05854
1079.149	-37.0861
1079.502	12.02658
1079.855	-8.01759
1080.207	-25.05806
1080.56	-40.09872
1080.912	-53.12041
1081.264	21.04723
1081.617	18.04127
1081.969	10.02434
1082.321	23.05266
1082.673	-14.03036
1083.025	-25.05527
1083.377	-15.02922
1083.728	-29.06211
1084.08	22.05201
1084.432	-43.09575
1084.783	78.16997
1085.135	58.13808
1085.486	-29.06297
1085.838	26.06004
1086.189	-33.07576
1086.54	40.08875
1086.891	19.04604
1087.242	-52.11921
1087.593	4.00905
1087.944	8.01674
1088.295	-45.09479
1088.646	18.04095
1088.996	-9.02036
1089.347	-28.06453
1089.698	-12.02697
1090.048	-37.091
1090.398	27.0585
1090.749	27.06047
1091.099	-15.03622
1091.449	-19.04444
1091.799	12.02822
1092.149	14.03293
1092.499	-13.03005
1092.849	-30.07276
1093.199	-12.02826
1093.548	31.07006
1093.898	-16.03805
1094.248	31.075
1094.597	3.00738
1094.947	-12.03053
1095.296	4.00925
1095.645	-19.04683
1095.994	36.08107
1096.343	61.1453
1096.692	-3.0076
1097.041	-20.05246
1097.39	-14.03311
1097.739	-17.04232
1098.088	-18.04553
1098.437	-24.06069
1098.785	-4.01024
1099.134	-5.01247
1099.482	-41.10773
1099.83	-15.03741
1100.179	31.07782
1100.527	-36.091
1100.875	-23.05819
1101.223	17.04332
1101.571	-33.0885
1101.919	-35.08861
1102.267	-8.022
1102.615	5.01607
1102.962	-2.00642
1103.31	1.00321
1103.658	-5.01604
