Data from N3 R5 sample 7_Subt2__0__13-31-09-619.txt Node

Date: Thu Sep 18 13:31:09 PDT 2025
User: uwsun
Spectrometer: HDX01956
Trigger mode: 0
Integration Time (sec): 5.000000E-1
Scans to average: 1
Nonlinearity correction enabled: true
Boxcar width: 0
Storing dark spectrum: false
XAxis mode: Wavelengths
Number of Pixels in Spectrum: 2068
>>>>>Begin Spectral Data<<<<<
194.03	-2.00581
194.578	10.03249
195.127	10.03206
195.676	-8.02568
196.225	-7.01852
196.773	9.02511
197.321	20.05569
197.87	9.0233
198.418	91.23448
198.966	18.04778
199.513	61.15554
200.061	8.02044
200.609	16.04238
201.156	-16.03494
201.704	-2.00506
202.251	4.01068
202.798	41.10708
203.345	42.10397
203.892	-8.02032
204.438	69.16404
204.985	11.02641
205.532	63.16906
206.078	12.02967
206.624	17.04237
207.17	38.0881
207.716	-3.00728
208.262	36.0707
208.808	31.07748
209.354	23.05621
209.899	-10.02532
210.445	34.08561
210.99	9.02194
211.535	79.18384
212.08	32.07422
212.625	-10.02521
213.17	23.05819
213.715	2.00455
214.259	45.10525
214.804	19.04673
215.348	12.02751
215.892	49.11775
216.436	30.06985
216.98	-5.01101
217.524	7.01662
218.068	17.04286
218.612	7.01751
219.155	17.04001
219.698	16.03775
220.242	35.08662
220.785	36.08402
221.328	58.14373
221.871	34.08564
222.414	-24.05926
222.956	13.03154
223.499	20.04484
224.041	-16.0368
224.583	41.08697
225.126	60.13307
225.668	30.07279
226.21	-7.01764
226.751	-26.05646
227.293	-25.05677
227.835	14.03396
228.376	43.09718
228.918	10.02515
229.459	91.22612
230	13.03084
230.541	3.00685
231.082	30.07241
231.622	13.02986
232.163	47.11414
232.704	-4.0099
233.244	56.1374
233.784	6.01452
234.324	2.00446
234.864	-15.03388
235.404	21.0491
235.944	24.05593
236.484	-38.0942
237.023	18.04254
237.563	-12.02773
238.102	-19.04495
238.641	54.13621
239.18	26.06094
239.719	54.13528
240.258	-2.00446
240.797	34.08122
241.335	18.0432
241.874	72.137
242.412	17.04048
242.95	17.0409
243.488	53.11958
244.026	6.01385
244.564	40.08116
245.102	-31.07003
245.64	43.10219
246.177	-21.04682
246.715	17.04007
247.252	-11.02495
247.789	20.0351
248.326	4.00949
248.863	-13.02833
249.4	66.14949
249.936	-2.00409
250.473	31.072
251.009	64.14614
251.546	51.11153
252.082	65.14149
252.618	20.04471
253.154	18.04305
253.69	-15.03369
254.226	33.07782
254.761	20.04395
255.297	20.04371
255.832	29.06772
256.367	59.13627
256.903	2.00435
257.438	-11.02552
257.972	-29.06417
258.507	28.0646
259.042	-35.0746
259.576	-6.01297
260.111	3.00687
260.645	45.09658
261.179	-27.06278
261.713	31.06782
262.247	63.14481
262.781	38.0795
263.315	14.0342
263.849	-7.01751
264.382	30.06787
264.915	44.10285
265.449	-18.04425
265.982	-31.0698
266.515	39.09436
267.048	13.02755
267.58	-13.02785
268.113	-2.00435
268.646	44.10864
269.178	-18.04034
269.71	34.07302
270.243	9.02043
270.775	26.06586
271.307	18.04239
271.838	31.07234
272.37	8.01972
272.902	34.07717
273.433	-10.02169
273.965	83.20119
274.496	30.07317
275.027	21.05153
275.558	39.09361
276.089	52.12943
276.62	0
277.15	5.01226
277.681	-7.01487
278.211	18.04349
278.741	37.08174
279.272	39.08835
279.802	7.01749
280.332	32.07507
280.861	40.09537
281.391	12.02698
281.921	9.02128
282.45	115.28471
282.98	51.13224
283.509	31.06906
284.038	-15.03361
284.567	-9.02058
285.096	22.05302
285.625	52.1185
286.153	-32.07516
286.682	49.10992
287.21	38.0906
287.739	-3.00703
288.267	37.08942
288.795	39.10151
289.323	81.18916
289.851	58.1334
290.378	19.04252
290.906	31.07523
291.433	42.10404
291.961	1.00225
292.488	63.15512
293.015	58.13638
293.542	1.00252
294.069	0
294.596	63.1538
295.122	54.12772
295.649	101.22023
296.175	-10.02392
296.702	29.06908
297.228	-18.0431
297.754	12.02679
298.28	-9.0204
298.806	45.10805
299.332	16.03529
299.857	26.05812
300.383	19.04744
300.908	51.12404
301.433	56.13557
301.958	9.02035
302.483	62.15544
303.008	18.04397
303.533	-7.01792
304.058	31.07228
304.582	41.09646
305.107	35.09159
305.631	-26.05901
306.155	62.14442
306.679	60.13932
307.203	28.06491
307.727	83.19535
308.251	1.00246
308.775	51.11985
309.298	38.09144
309.822	70.17442
310.345	52.12218
310.868	17.04054
311.391	53.12896
311.914	39.09747
312.437	50.11182
312.96	28.06607
313.482	67.15782
314.005	28.0701
314.527	33.08662
315.049	5.01256
315.571	80.18009
316.093	99.24304
316.615	25.06069
317.137	40.08572
317.659	14.03353
318.18	43.10337
318.702	81.18641
319.223	42.08568
319.744	52.11648
320.265	39.09464
320.786	56.13791
321.307	31.07737
321.828	102.22914
322.348	89.208
322.869	3.00699
323.389	-8.01511
323.909	66.15034
324.43	67.15849
324.95	60.13717
325.47	69.16914
325.989	96.22775
326.509	30.06643
327.029	54.12121
327.548	31.07014
328.067	33.07942
328.587	59.14645
329.106	68.15276
329.625	64.16374
330.144	34.07754
330.662	36.08343
331.181	51.11915
331.7	40.09325
332.218	85.18408
332.736	9.02096
333.255	21.04895
333.773	57.13458
334.291	34.08367
334.808	40.08827
335.326	77.17266
335.844	125.28916
336.361	56.14095
336.879	95.21854
337.396	25.05964
337.913	71.16104
338.43	87.19589
338.947	83.19604
339.464	49.10476
339.981	43.10239
340.497	51.12557
341.014	56.13454
341.53	92.2077
342.046	102.24794
342.562	103.25286
343.078	128.29451
343.594	100.23733
344.11	127.29553
344.626	117.29168
345.141	142.31979
345.657	47.10491
346.172	71.1688
346.687	77.17614
347.202	116.25642
347.717	114.26847
348.232	127.31269
348.747	102.2314
349.261	150.32755
349.776	65.15078
350.29	85.20913
350.805	71.17243
351.319	135.30918
351.833	110.24823
352.347	78.17868
352.861	133.30448
353.374	91.20506
353.888	94.22249
354.401	152.34048
354.915	134.29707
355.428	125.30652
355.941	135.30968
356.454	169.36818
356.967	130.30257
357.48	101.22788
357.993	136.32724
358.505	120.29192
359.018	157.36995
359.53	133.31254
360.042	84.18149
360.554	145.34101
361.066	120.28567
361.578	155.33266
362.09	158.36716
362.602	113.24524
363.113	92.2071
363.625	147.3265
364.136	160.34184
364.647	106.2435
365.158	142.32463
365.669	213.50013
366.18	70.15951
366.691	223.47261
367.201	134.3109
367.712	174.37819
368.222	180.40553
368.733	195.41363
369.243	142.30272
369.753	118.26541
370.263	143.32935
370.773	197.47086
371.282	169.38829
371.792	157.34828
372.301	155.36566
372.811	179.45076
373.32	170.34934
373.829	211.48323
374.338	221.47124
374.847	199.43703
375.356	214.49237
375.865	233.47263
376.373	206.44907
376.882	257.61847
377.39	250.57587
377.898	218.52015
378.407	218.46413
378.915	290.58462
379.423	311.69044
379.93	256.54646
380.438	347.79241
380.946	351.76367
381.453	361.80276
381.96	353.77715
382.468	363.79983
382.975	420.94457
383.482	449.91285
383.989	483.11895
384.495	479.99292
385.002	440.83239
385.509	434.91431
386.015	561.98652
386.521	550.06989
387.028	584.14641
387.534	584.08116
388.04	621.2579
388.546	635.19012
389.051	623.15437
389.557	722.39047
390.063	797.50613
390.568	748.46134
391.073	864.54038
391.578	835.60885
392.084	871.50057
392.589	992.63047
393.093	966.72358
393.598	1068.77046
394.103	1149.96654
394.607	1343.14446
395.112	1404.30028
395.616	1502.30941
396.12	1594.22019
396.624	1738.33576
397.128	1929.51023
397.632	2075.41315
398.136	2394.46149
398.639	2577.56814
399.143	2814.74116
399.646	3216.27791
400.15	3600.97168
400.653	3820.72501
401.156	4359.01425
401.659	5132.77351
402.162	6332.17099
402.664	8430.05528
403.167	12493.25534
403.67	25366.93802
404.172	51286.36105
404.674	37291.05854
405.176	4428.40989
405.678	533.47942
406.18	0
406.682	0
407.184	6962.89417
407.686	50953.82939
408.187	35677.06221
408.688	20917.05018
409.19	14485.47594
409.691	11590.80209
410.192	9633.49277
410.693	8442.72736
411.194	7524.80171
411.694	7092.38352
412.195	6449.26846
412.696	5937.14704
413.196	5422.86383
413.696	5268.56223
414.196	5302.08274
414.696	5103.73448
415.196	4775.71291
415.696	4308.9159
416.196	3534.82682
416.695	2844.37685
417.195	2408.54586
417.694	2306.87482
418.194	2070.99586
418.693	1937.29648
419.192	1967.48124
419.691	1930.46737
420.19	1820.4371
420.688	1850.59625
421.187	1722.88391
421.685	1595.24764
422.184	1514.23205
422.682	1275.87109
423.18	1139.87365
423.678	1041.74498
424.176	906.5822
424.674	867.4548
425.172	812.50124
425.669	785.56235
426.167	763.41294
426.664	674.25808
427.161	569.09194
427.659	611.26865
428.156	541.97277
428.652	462.02634
429.149	454.96946
429.646	393.76112
430.143	421.89803
430.639	384.81361
431.135	319.71644
431.632	332.68499
432.128	393.85322
432.624	266.62468
433.12	352.72952
433.616	284.56673
434.111	284.62592
434.607	259.57334
435.103	260.49498
435.598	268.50599
436.093	247.52988
436.588	221.46284
437.083	201.42301
437.578	206.43782
438.073	179.41669
438.568	166.38163
439.062	144.29043
439.557	175.38352
440.051	162.34641
440.546	177.38135
441.04	130.29097
441.534	137.33121
442.028	171.38628
442.522	92.21236
443.015	91.19016
443.509	191.44112
444.002	117.27409
444.496	38.07893
444.989	143.33434
445.482	93.22093
445.975	126.27445
446.468	144.2931
446.961	108.21802
447.454	92.19605
447.947	124.28451
448.439	140.32687
448.931	133.28557
449.424	93.22076
449.916	76.17494
450.408	120.26315
450.9	74.17237
451.392	113.27391
451.884	36.07878
452.375	100.23559
452.867	84.18094
453.358	31.06737
453.849	68.13822
454.341	76.1647
454.832	62.12873
455.323	64.1506
455.814	62.13602
456.304	66.14535
456.795	15.03289
457.285	48.10157
457.776	38.08168
458.266	63.14516
458.756	16.03678
459.247	51.11638
459.737	58.13462
460.226	102.21858
460.716	83.1907
461.206	32.07327
461.695	75.18119
462.185	63.14365
462.674	39.08536
463.163	30.06348
463.653	49.0993
464.142	-3.00699
464.63	61.14285
465.119	52.11701
465.608	65.14281
466.096	52.10912
466.585	37.08099
467.073	62.14066
467.561	102.23759
468.05	-27.06059
468.538	100.23724
469.026	53.12294
469.513	75.15088
470.001	10.02194
470.489	60.13623
470.976	89.19579
471.463	81.19516
471.951	42.10129
472.438	22.05021
472.925	1.00225
473.412	43.10062
473.899	92.20235
474.385	46.10884
474.872	-62.1418
475.359	25.05912
475.845	11.02206
476.331	36.07438
476.817	23.05363
477.303	75.16659
477.789	15.03496
478.275	7.01694
478.761	-27.06325
479.247	64.13626
479.732	35.0851
480.218	6.01519
480.703	10.02449
481.188	-22.04572
481.673	4.00894
482.158	-6.01257
482.643	41.10065
483.128	-17.03763
483.612	-19.04311
484.097	26.06145
484.581	21.04639
485.066	-15.03537
485.55	8.01687
486.034	42.08864
486.518	21.04796
487.002	1.00239
487.486	21.04981
487.969	38.09112
488.453	-6.01484
488.936	-4.00873
489.42	24.05148
489.903	23.05625
490.386	6.01254
490.869	-17.0354
491.352	3.00708
491.835	-57.1142
492.318	28.06161
492.8	-33.06602
493.283	-3.00751
493.765	44.10531
494.247	17.03807
494.73	22.04702
495.212	17.03964
495.694	-28.06414
496.175	-38.08883
496.657	88.20256
497.139	-41.06646
497.62	-2.00467
498.102	2.00487
498.583	-30.07271
499.064	-12.02653
499.545	-24.05347
500.026	-17.03716
500.507	-40.09005
500.988	-32.07717
501.469	-33.08059
501.949	-17.04062
502.43	-38.08845
502.91	-34.06851
503.39	13.03157
503.87	-3.00691
504.35	-14.03181
504.83	36.07625
505.31	-19.04531
505.79	-51.12022
506.269	7.01577
506.749	-72.16215
507.228	-19.04366
507.707	-2.00431
508.187	-18.0416
508.666	-26.06223
509.145	-60.13822
509.623	-46.10597
510.102	-2.0047
510.581	5.01162
511.059	1.00247
511.538	-37.09368
512.016	5.01172
512.494	-14.03291
512.972	-32.07536
513.45	-74.17217
513.928	-5.01187
514.406	2.00482
514.884	-8.02042
515.361	11.02594
515.839	-36.08021
516.316	-51.11999
516.793	-27.06682
517.27	-25.05973
517.747	-2.00503
518.224	-48.10863
518.701	10.02174
519.178	25.06153
519.654	-80.18414
520.131	-82.19903
520.607	-11.02666
521.083	-26.05863
521.56	-72.16745
522.036	-21.0453
522.512	-15.03616
522.987	-5.01176
523.463	22.05108
523.939	-16.03838
524.414	-5.01117
524.89	-39.09025
525.365	13.02896
525.84	16.03811
526.315	-40.09413
526.79	-48.10566
527.265	-84.18747
527.74	-47.11264
528.215	-23.05337
528.689	-4.00878
529.164	-24.0499
529.638	-7.01767
530.112	-26.06104
530.587	14.02947
531.061	-18.04284
531.534	-54.12811
532.008	-33.07846
532.482	-104.23249
532.956	-6.01524
533.429	-70.16325
533.903	-13.02779
534.376	-37.08003
534.849	12.02721
535.322	-45.10463
535.795	-9.02151
536.268	10.02362
536.741	-35.08251
537.213	26.05855
537.686	-35.08331
538.158	-10.02199
538.631	-35.08292
539.103	-2.00438
539.575	10.02016
540.047	-37.07965
540.519	-34.07907
540.991	-46.10976
541.463	-3.00714
541.934	-18.04049
542.406	-26.06109
542.877	-18.03967
543.348	-94.21991
543.82	-3.00717
544.291	-28.06298
544.762	-19.04409
545.233	28.06916
545.703	-5.01087
546.174	13.02962
546.645	-11.02631
547.115	-10.02369
547.585	8.0182
548.056	44.10515
548.526	-6.01388
548.996	-16.03771
549.466	4.00947
549.935	38.089
550.405	-7.01521
550.875	-31.07197
551.344	-23.05477
551.814	-70.1568
552.283	-26.05502
552.752	9.02041
553.221	35.07379
553.69	28.06076
554.159	79.19063
554.628	-2.00437
555.096	15.03712
555.565	1.00217
556.033	14.03195
556.502	25.05873
556.97	40.08531
557.438	37.08508
557.906	72.16434
558.374	4.00894
558.842	60.13888
559.31	60.1283
559.777	73.17128
560.245	21.0473
560.712	5.01107
561.18	18.03851
561.647	-7.01521
562.114	-2.00446
562.581	39.09372
563.048	11.02431
563.514	40.09588
563.981	-7.01557
564.448	34.07421
564.914	33.07415
565.381	32.06941
565.847	21.04752
566.313	46.10304
566.779	39.08612
567.245	31.07051
567.711	80.18598
568.176	98.21672
568.642	46.11299
569.108	50.11935
569.573	54.12101
570.038	127.25514
570.504	51.11224
570.969	107.25644
571.434	122.25783
571.899	117.26796
572.363	111.2408
572.828	153.32809
573.293	88.19428
573.757	107.23707
574.222	125.27001
574.686	113.2443
575.15	127.28993
575.614	118.25779
576.078	105.23574
576.542	179.38649
577.006	146.31544
577.469	107.25154
577.933	102.21698
578.396	145.33222
578.86	113.25276
579.323	87.19973
579.786	81.16709
580.249	89.19571
580.712	93.21667
581.175	97.23035
581.637	110.24478
582.1	66.13832
582.563	18.03634
583.025	107.24899
583.487	81.15544
583.95	77.15969
584.412	105.20783
584.874	84.19559
585.336	109.24813
585.797	53.11007
586.259	51.11389
586.721	56.1273
587.182	41.09107
587.643	106.22912
588.105	110.24985
588.566	96.19255
589.027	76.17863
589.488	71.15468
589.949	89.20441
590.41	154.28561
590.87	80.17099
591.331	94.18967
591.791	81.17669
592.252	68.14975
592.712	80.18414
593.172	88.1894
593.632	80.16217
594.092	135.28399
594.552	147.29478
595.011	125.2751
595.471	194.40423
595.931	125.26295
596.39	132.30128
596.849	137.30088
597.308	216.43084
597.768	174.41867
598.227	244.54588
598.685	207.43352
599.144	231.50004
599.603	269.58603
600.062	298.56153
600.52	304.61905
600.978	384.82569
601.437	362.74051
601.895	360.68003
602.353	366.71544
602.811	427.8333
603.269	424.89796
603.727	465.98413
604.184	518.01039
604.642	532.13017
605.099	574.13311
605.557	595.22604
606.014	657.16728
606.471	693.48389
606.928	747.36605
607.385	793.62658
607.842	815.53269
608.299	778.47626
608.755	853.65853
609.212	909.59704
609.668	929.6212
610.125	975.8288
610.581	947.71437
611.037	1053.80168
611.493	1063.89079
611.949	1026.91662
612.405	1149.65712
612.861	1150.96039
613.316	1174.10851
613.772	1216.03018
614.227	1192.07673
614.683	1280.90655
615.138	1274.19009
615.593	1237.05364
616.048	1180.93123
616.503	1232.22772
616.958	1298.3819
617.412	1226.11723
617.867	1249.00127
618.321	1251.72646
618.776	1232.93204
619.23	1254.15668
619.684	1152.87369
620.138	1142.89885
620.592	1072.97615
621.046	1098.91656
621.5	1102.01912
621.954	1065.7708
622.407	1054.74237
622.861	985.82766
623.314	999.7364
623.768	1011.81196
624.221	947.40322
624.674	878.57104
625.127	922.69062
625.58	805.42054
626.033	854.44502
626.485	871.65505
626.938	813.54541
627.39	810.51469
627.843	707.32794
628.295	762.43109
628.747	783.51068
629.199	723.35939
629.651	649.23139
630.103	694.32045
630.555	692.17088
631.006	682.32213
631.458	585.14756
631.909	628.18886
632.361	538.05744
632.812	568.11967
633.263	564.00456
633.714	526.93342
634.165	484.99723
634.616	459.94594
635.067	505.9374
635.518	466.95022
635.968	451.76437
636.419	411.76478
636.869	433.89356
637.319	404.82155
637.769	457.8927
638.219	396.81996
638.669	422.89294
639.119	387.83483
639.569	463.99018
640.019	418.84266
640.468	345.67199
640.918	377.80419
641.367	352.70406
641.816	367.72981
642.265	378.77499
642.714	364.75607
643.163	305.62066
643.612	365.79784
644.061	256.48523
644.51	360.73542
644.958	338.66259
645.406	355.76679
645.855	304.67392
646.303	326.67926
646.751	333.68597
647.199	316.63264
647.647	335.7022
648.095	279.57707
648.543	272.48963
648.99	343.74214
649.438	362.76097
649.885	348.7846
650.333	247.4206
650.78	319.71232
651.227	309.68914
651.674	346.70842
652.121	224.49597
652.568	236.52972
653.015	260.59173
653.461	260.56678
653.908	299.62896
654.354	245.52831
654.801	271.58286
655.247	312.60959
655.693	274.66025
656.139	227.50083
656.585	316.68884
657.031	230.50075
657.477	240.47782
657.922	278.58852
658.368	226.5129
658.813	187.39216
659.259	234.52113
659.704	224.48624
660.149	214.46077
660.594	226.49664
661.039	230.48585
661.484	227.50083
661.929	209.45049
662.373	223.53157
662.818	207.4832
663.262	158.35553
663.707	169.40039
664.151	244.55802
664.595	155.35242
665.039	162.3766
665.483	191.46053
665.927	190.41279
666.371	154.33828
666.814	173.38505
667.258	200.44671
667.701	194.37778
668.145	184.42588
668.588	212.4862
669.031	150.33545
669.474	159.35873
669.917	157.32153
670.36	111.25983
670.803	208.464
671.245	196.37677
671.688	180.40818
672.13	125.26249
672.573	165.39679
673.015	114.25799
673.457	195.3961
673.899	174.39169
674.341	147.33315
674.783	143.3254
675.225	178.40938
675.666	169.38347
676.108	163.3311
676.549	118.26226
676.991	129.26514
677.432	121.22122
677.873	136.29396
678.314	174.38703
678.755	156.35936
679.196	167.35981
679.637	143.32527
680.078	146.31868
680.518	118.25342
680.959	161.36057
681.399	122.28395
681.839	141.32254
682.28	157.36707
682.72	102.21934
683.16	155.36481
683.6	161.34107
684.039	109.21099
684.479	113.26358
684.919	134.29447
685.358	149.35423
685.798	142.3502
686.237	128.29027
686.676	132.28605
687.115	154.33828
687.554	151.33553
687.993	114.23215
688.432	148.31976
688.871	97.20782
689.309	242.54765
689.748	178.3415
690.186	176.38644
690.625	177.39411
691.063	174.39441
691.501	123.28814
691.939	150.3527
692.377	145.33382
692.815	168.38112
693.253	121.27054
693.69	118.24259
694.128	168.38638
694.565	140.31464
695.003	183.43707
695.44	100.22133
695.877	154.34098
696.314	146.28999
696.751	104.22133
697.188	174.37449
697.625	177.37151
698.061	156.35131
698.498	184.41352
698.934	134.30029
699.371	171.37839
699.807	174.38462
700.243	153.35013
700.679	156.32852
701.115	152.33094
701.551	175.38643
701.987	128.2654
702.422	137.30467
702.858	122.27115
703.294	154.32146
703.729	157.3626
704.164	182.41171
704.599	181.369
705.035	96.2035
705.47	152.35224
705.904	144.31219
706.339	174.36868
706.774	142.3089
707.209	124.26734
707.643	162.36348
708.078	157.35639
708.512	184.43937
708.946	172.38052
709.38	119.26288
709.814	119.25253
710.248	107.24269
710.682	153.34364
711.116	124.28211
711.549	124.30063
711.983	132.28263
712.416	137.29834
712.85	232.53846
713.283	179.39278
713.716	156.36409
714.149	138.30301
714.582	167.34743
715.015	160.37122
715.448	140.32597
715.881	166.32541
716.313	201.43771
716.746	214.4671
717.178	145.32447
717.61	196.46282
718.043	118.27399
718.475	149.33535
718.907	173.4005
719.339	175.36667
719.77	189.42153
720.202	149.35219
720.634	212.48094
721.065	203.4415
721.497	221.50064
721.928	181.41636
722.359	185.42165
722.79	200.44209
723.221	124.28997
723.652	192.45478
724.083	172.35552
724.514	160.33205
724.945	206.44564
725.375	183.39411
725.806	156.35548
726.236	205.48492
726.666	122.2672
727.096	151.34235
727.526	198.46863
727.956	196.40803
728.386	185.41329
728.816	196.46211
729.246	208.47052
729.675	208.47799
730.105	220.49361
730.534	176.37944
730.964	214.49138
731.393	188.4213
731.822	253.59543
732.251	197.46654
732.68	221.46038
733.109	258.58148
733.537	181.40285
733.966	254.57246
734.395	262.54008
734.823	262.52405
735.251	231.50901
735.68	246.55897
736.108	244.56161
736.536	285.60321
736.964	246.51326
737.392	221.50288
737.82	254.54877
738.247	255.5468
738.675	268.5676
739.102	300.68772
739.53	275.64544
739.957	277.64582
740.384	248.54773
740.811	298.68834
741.238	248.5459
741.665	313.6587
742.092	265.56333
742.519	272.62004
742.945	294.63273
743.372	324.72393
743.798	235.55415
744.225	297.63081
744.651	235.53646
745.077	282.6366
745.503	300.6512
745.929	231.50132
746.355	299.65386
746.781	323.71589
747.207	311.66313
747.632	321.70819
748.058	249.55947
748.483	319.64205
748.908	263.59359
749.334	271.6019
749.759	240.5103
750.184	277.59372
750.609	300.65757
751.033	254.5283
751.458	360.71306
751.883	293.64859
752.307	300.64343
752.732	276.63677
753.156	321.70997
753.58	296.62471
754.005	359.82212
754.429	235.49129
754.853	289.6504
755.277	255.54963
755.7	313.69517
756.124	303.6886
756.548	277.59577
756.971	284.62093
757.394	277.64962
757.818	293.69143
758.241	271.62113
758.664	257.59966
759.087	293.59651
759.51	287.64511
759.933	278.60936
760.356	302.6998
760.778	297.67196
761.201	218.47362
761.623	261.56015
762.046	290.59646
762.468	309.65887
762.89	344.75591
763.312	250.54845
763.734	281.61269
764.156	289.64721
764.578	233.47674
765	322.70222
765.421	256.608
765.843	262.63301
766.264	261.56305
766.686	328.74737
767.107	283.62803
767.528	260.60988
767.949	260.60297
768.37	239.53149
768.791	217.47536
769.212	287.66702
769.632	233.49121
770.053	243.59143
770.473	233.51794
770.894	211.47721
771.314	212.45372
771.734	187.3951
772.154	249.58625
772.575	243.50509
772.994	222.45804
773.414	170.36556
773.834	199.46197
774.254	218.4845
774.673	214.47264
775.093	222.50771
775.512	198.45282
775.931	277.64658
776.351	185.42046
776.77	208.46918
777.189	158.34283
777.607	207.49003
778.026	208.48028
778.445	203.4761
778.864	169.39992
779.282	172.37655
779.701	175.40883
780.119	127.29809
780.537	137.31779
780.955	181.42351
781.373	181.41186
781.791	192.39508
782.209	226.47279
782.627	154.38231
783.045	184.38578
783.462	116.27573
783.88	129.31527
784.297	162.37839
784.715	186.4511
785.132	163.36354
785.549	155.36552
785.966	151.35124
786.383	161.36947
786.8	156.333
787.217	103.22659
787.633	101.23735
788.05	114.24293
788.466	125.26943
788.883	124.29973
789.299	80.17839
789.715	179.40352
790.131	97.22456
790.547	70.16112
790.963	111.25759
791.379	118.28005
791.795	117.24525
792.21	91.19691
792.626	100.22022
793.041	92.211
793.457	77.17763
793.872	92.20192
794.287	138.31383
794.702	98.22404
795.117	60.13954
795.532	109.25954
795.947	118.25975
796.362	90.19753
796.776	70.14716
797.191	55.12607
797.605	117.26106
798.02	87.20013
798.434	110.22216
798.848	31.07177
799.262	90.21335
799.676	76.17151
800.09	66.15161
800.504	83.18788
800.918	51.11007
801.331	11.02731
801.745	55.11733
802.158	31.07328
802.572	58.13105
802.985	33.074
803.398	98.21708
803.811	57.13729
804.224	54.12593
804.637	-17.03784
805.05	104.22229
805.462	82.18739
805.875	72.18044
806.288	45.10368
806.7	76.1794
807.112	59.1275
807.525	78.18133
807.937	31.07271
808.349	25.05907
808.761	4.00919
809.173	34.07663
809.584	34.07873
809.996	6.01405
810.408	25.0619
810.819	3.0067
811.231	21.0533
811.642	83.19353
812.053	51.11634
812.464	68.15289
812.875	39.09489
813.286	21.05125
813.697	6.01281
814.108	10.02284
814.519	66.13458
814.929	18.04305
815.34	42.09552
815.75	25.06035
816.16	5.0116
816.571	35.0865
816.981	-17.03737
817.391	-9.02053
817.801	34.08116
818.211	73.16295
818.62	24.05431
819.03	-23.05299
819.44	35.08634
819.849	50.11944
820.259	49.119
820.668	44.1035
821.077	2.00475
821.486	0
821.895	0
822.304	20.0507
822.713	41.09035
823.122	31.07373
823.531	40.08949
823.939	44.10112
824.348	43.09864
824.756	1.00237
825.164	-11.02612
825.573	-1.00239
825.981	6.01412
826.389	-18.04246
826.797	33.07834
827.205	5.01079
827.612	10.02315
828.02	10.02241
828.428	12.02891
828.835	20.05043
829.243	6.01342
829.65	27.0638
830.057	19.04409
830.464	37.08603
830.871	19.04257
831.278	-29.06602
831.685	-13.02682
832.092	61.14077
832.499	55.11019
832.905	37.08898
833.312	3.00636
833.718	36.08402
834.124	76.16104
834.531	8.01901
834.937	-6.01452
835.343	50.11311
835.749	26.0561
836.155	7.01744
836.561	-65.1503
836.966	33.07555
837.372	13.03125
837.777	1.00235
838.183	-42.08561
838.588	37.08722
838.993	2.00454
839.399	-29.06722
839.804	10.02339
840.209	22.05374
840.613	67.13926
841.018	-34.08135
841.423	-35.085
841.828	-9.02165
842.232	-8.01841
842.637	-57.12582
843.041	30.07434
843.445	3.00706
843.849	-14.03298
844.253	12.0265
844.657	13.03141
845.061	26.05514
845.465	30.06991
845.869	37.07965
846.272	-10.02311
846.676	36.082
847.079	31.07537
847.483	15.03524
847.886	-3.00675
848.289	79.20307
848.692	17.04067
849.095	7.01563
849.498	14.03278
849.901	18.03809
850.304	-27.06057
850.707	29.06966
851.109	-52.12327
851.512	54.12559
851.914	7.01717
852.316	9.0217
852.718	-3.00751
853.121	-29.06775
853.523	-23.05062
853.925	23.05726
854.326	33.07906
854.728	-3.00736
855.13	1.00248
855.531	54.12295
855.933	-1.00225
856.334	0
856.736	-37.07742
857.137	-5.01095
857.538	13.03101
857.939	0
858.34	14.03186
858.741	30.07432
859.142	33.07458
859.542	22.05666
859.943	10.02376
860.343	19.04486
860.744	23.05308
861.144	-10.0231
861.544	-7.01623
861.945	-42.10179
862.345	-38.08666
862.745	-37.08783
863.145	-30.06629
863.544	32.07744
863.944	-4.00885
864.344	-40.09328
864.743	51.11859
865.143	32.07779
865.542	-48.10508
865.941	-1.00237
866.34	26.05848
866.74	12.03077
867.139	33.07473
867.537	12.02877
867.936	40.0906
868.335	47.11376
868.734	24.05886
869.132	1.0022
869.531	70.15687
869.929	30.06457
870.327	-35.07971
870.726	-2.0047
871.124	-6.01304
871.522	-29.06982
871.92	-23.05375
872.318	-20.04655
872.715	-7.01631
873.113	41.09398
873.511	-2.00474
873.908	38.0931
874.306	12.02837
874.703	20.04712
875.1	-11.02656
875.497	-9.02022
875.894	10.02364
876.291	52.12055
876.688	-41.10125
877.085	15.03358
877.482	-22.05191
877.878	11.02504
878.275	-49.11882
878.671	-39.07893
879.068	6.0136
879.464	27.06146
879.86	33.07418
880.256	-9.0207
880.652	-25.0606
881.048	-43.10014
881.444	-40.08879
881.84	-1.0024
882.236	-10.02395
882.631	0
883.027	-17.03821
883.422	-24.05849
883.817	1.00242
884.213	3.00734
884.608	26.06083
885.003	13.02963
885.398	-28.06684
885.793	15.03539
886.188	-48.11585
886.582	-43.10329
886.977	17.0377
887.371	-4.00959
887.766	-2.00477
888.16	23.05422
888.554	-27.06256
888.949	-22.05165
889.343	-16.0364
889.737	-26.06791
890.131	10.02389
890.525	-1.00242
890.918	52.12422
891.312	-18.03979
891.706	25.06294
892.099	10.02399
892.492	28.05575
892.886	-10.02298
893.279	-2.00485
893.672	-14.03412
894.065	-22.05213
894.458	36.08501
894.851	-15.03415
895.244	8.01944
895.637	7.01592
896.029	-16.03706
896.422	14.03201
896.814	2.00472
897.206	12.02725
897.599	-58.13356
897.991	9.02059
898.383	-55.12292
898.775	-12.02526
899.167	1.00222
899.559	-14.03347
899.951	8.01762
900.342	-22.05223
900.734	20.04809
901.125	3.00742
901.517	10.02331
901.908	-7.01562
902.299	-28.06543
902.69	38.08379
903.082	21.04767
903.473	-2.00458
903.863	35.08538
904.254	-12.02604
904.645	4.00924
905.036	2.00466
905.426	-22.04566
905.817	14.03234
906.207	-77.17678
906.597	1.00221
906.987	4.0097
907.378	18.04274
907.768	29.07321
908.158	-30.06969
908.547	-11.02724
908.937	-1.00242
909.327	10.02271
909.717	0
910.106	5.01131
910.495	31.0733
910.885	-31.07345
911.274	18.04272
911.663	57.13718
912.052	-17.03933
912.441	23.05592
912.83	13.02766
913.219	-75.18691
913.608	-22.05102
913.997	-31.0741
914.385	-37.08256
914.774	-1.00228
915.162	-40.0899
915.55	36.08147
915.939	-22.05322
916.327	4.00943
916.715	-7.01716
917.103	-11.02534
917.491	8.01835
917.878	-21.04798
918.266	-33.08173
918.654	18.04415
919.041	-19.04754
919.429	8.01782
919.816	-9.02153
920.203	-43.09935
920.591	-27.06305
920.978	8.01838
921.365	-23.05746
921.752	-25.05668
922.139	35.07057
922.525	-7.01585
922.912	18.04103
923.299	29.06826
923.685	9.02236
924.072	-2.00425
924.458	-13.03057
924.844	23.0535
925.231	-34.07409
925.617	39.09535
926.003	-13.03161
926.389	20.0482
926.774	-17.04122
927.16	22.0511
927.546	-28.06865
927.931	-5.0118
928.317	6.01262
928.702	35.07632
929.088	-23.05168
929.473	-10.02424
929.858	25.05804
930.243	-6.01369
930.628	-15.03438
931.013	37.08742
931.398	29.06117
931.783	18.04498
932.167	-14.03216
932.552	-28.06568
932.937	-62.14442
933.321	-47.11217
933.705	40.0961
934.09	-16.03772
934.474	14.03105
934.858	-5.01242
935.242	27.0594
935.626	-36.08767
936.009	-19.04838
936.393	15.03651
936.777	12.02943
937.16	-77.19064
937.544	6.01316
937.927	-20.04856
938.311	4.0091
938.694	-1.00252
939.077	-53.11958
939.46	45.10368
939.843	28.05237
940.226	6.01451
940.609	-30.06443
940.991	-27.06557
941.374	-82.19093
941.757	12.02779
942.139	2.00414
942.522	-24.05259
942.904	62.139
943.286	-23.05504
943.668	18.04415
944.05	-21.049
944.432	-17.03997
944.814	-11.02533
945.196	3.00701
945.578	2.00454
945.959	15.03296
946.341	-22.04995
946.722	-6.01329
947.104	-52.11692
947.485	15.03247
947.866	24.05766
948.247	2.00479
948.628	9.02046
949.009	-1.00244
949.39	-70.16325
949.771	-55.11993
950.152	60.13827
950.532	19.04561
950.913	0
951.293	-29.07618
951.674	-17.03848
952.054	-13.03068
952.434	-60.14103
952.814	-17.03735
953.194	21.05228
953.574	-15.03435
953.954	-2.00447
954.334	41.0965
954.714	-16.03706
955.093	4.00912
955.473	-66.15682
955.853	7.0173
956.232	-33.08718
956.611	-8.01765
956.99	37.08793
957.37	-12.02907
957.749	-22.04894
958.128	34.08166
958.506	33.08182
958.885	-23.05491
959.264	-32.07469
959.643	31.06559
960.021	-17.04003
960.4	29.062
960.778	-30.06858
961.156	-1.00237
961.535	-40.08565
961.913	-21.04509
962.291	-20.04969
962.669	-6.01449
963.047	-61.14725
963.424	17.04125
963.802	-49.11344
964.18	-22.05246
964.557	-23.04879
964.935	10.02206
965.312	10.02493
965.69	21.04916
966.067	-41.09394
966.444	13.0301
966.821	3.00729
967.198	-24.05405
967.575	-3.00687
967.952	-4.00885
968.329	3.00683
968.705	-35.06859
969.082	-20.04931
969.458	3.00688
969.835	-1.00229
970.211	5.0122
970.587	-10.02357
970.963	-4.00972
971.339	27.06751
971.715	6.01388
972.091	-9.02086
972.467	-34.07907
972.843	13.03044
973.219	-22.04894
973.594	-31.07782
973.97	-22.04855
974.345	-53.12036
974.721	-17.03854
975.096	-27.06112
975.471	3.0067
975.846	34.07695
976.221	-31.07526
976.596	-46.10478
976.971	16.03717
977.346	-19.04085
977.72	-18.04351
978.095	6.01477
978.469	32.07142
978.844	1.00237
979.218	-27.06189
979.593	19.04268
979.967	32.07348
980.341	3.00639
980.715	-6.01423
981.089	-52.12279
981.463	-2.00435
981.837	-18.04203
982.21	32.06837
982.584	-38.08645
982.957	-2.00477
983.331	47.10313
983.704	58.13404
984.078	-34.07904
984.451	-10.02293
984.824	16.03699
985.197	-20.0457
985.57	-61.14469
985.943	-33.07549
986.316	54.1234
986.688	6.0135
987.061	-14.03043
987.434	28.06923
987.806	28.06306
988.179	-15.03303
988.551	12.02849
988.923	-8.01853
989.295	31.07242
989.667	14.03212
990.039	-14.03296
990.411	4.00869
990.783	-1.00214
991.155	-17.03928
991.527	-47.1073
991.898	-30.07051
992.27	-33.07779
992.641	4.00941
993.012	28.06184
993.384	-22.04953
993.755	-38.09196
994.126	17.0384
994.497	4.00924
994.868	73.15478
995.239	5.01147
995.61	-29.06918
995.98	8.0185
996.351	-8.01892
996.722	15.03279
997.092	1.00225
997.462	3.00666
997.833	30.06584
998.203	-14.03176
998.573	-7.01665
998.943	-65.14281
999.313	-7.0159
999.683	-47.10583
1000.053	63.13434
1000.423	16.03648
1000.792	-38.09448
1001.162	38.0882
1001.531	33.07679
1001.901	-19.04463
1002.27	53.10967
1002.639	35.08465
1003.009	30.06764
1003.378	-3.0073
1003.747	-13.02872
1004.116	-2.00453
1004.485	42.09416
1004.853	-2.0048
1005.222	7.01689
1005.591	7.01541
1005.959	35.07421
1006.328	-4.00836
1006.696	39.0886
1007.064	32.0758
1007.433	28.06617
1007.801	-5.01147
1008.169	-2.00474
1008.537	34.06971
1008.905	20.04369
1009.273	0
1009.64	24.05394
1010.008	15.03333
1010.375	28.06337
1010.743	6.01257
1011.11	-6.01339
1011.478	5.01163
1011.845	-41.0894
1012.212	-33.0693
1012.579	14.03243
1012.946	-28.06171
1013.313	45.09904
1013.68	8.01654
1014.047	6.01365
1014.414	37.08228
1014.78	21.04966
1015.147	-20.04486
1015.513	59.13448
1015.88	-19.04545
1016.246	57.13154
1016.612	29.06076
1016.978	15.03437
1017.344	22.05175
1017.71	-49.11078
1018.076	7.01537
1018.442	2.00485
1018.808	55.1288
1019.174	-22.05205
1019.539	-6.01246
1019.905	22.04881
1020.27	29.06794
1020.636	-2.00449
1021.001	25.05544
1021.366	32.07333
1021.731	-22.05418
1022.096	-30.0729
1022.461	-58.12848
1022.826	28.0622
1023.191	7.01749
1023.556	-32.06952
1023.92	-12.02749
1024.285	-12.02748
1024.649	0
1025.014	14.03255
1025.378	13.03123
1025.742	-6.01406
1026.107	37.07615
1026.471	-26.05562
1026.835	-22.05104
1027.199	-73.16894
1027.562	-1.00219
1027.926	-14.03216
1028.29	10.02401
1028.654	-35.07479
1029.017	13.03016
1029.381	-3.00678
1029.744	31.07512
1030.107	-9.01956
1030.471	-52.11754
1030.834	-41.08591
1031.197	-32.07153
1031.56	43.09543
1031.923	-13.03195
1032.286	10.02174
1032.648	34.07509
1033.011	0
1033.374	15.03232
1033.736	-42.1059
1034.099	-3.00693
1034.461	11.02654
1034.823	-34.08004
1035.185	-35.08244
1035.548	-9.02059
1035.91	-16.03643
1036.272	-8.01703
1036.634	8.0181
1036.995	59.12974
1037.357	-47.10903
1037.719	-13.02976
1038.08	-11.02402
1038.442	20.04539
1038.803	-47.10604
1039.165	16.03818
1039.526	-19.04338
1039.887	30.06753
1040.248	31.07339
1040.609	6.01392
1040.97	-24.0554
1041.331	-73.17395
1041.692	7.01544
1042.053	-19.03997
1042.413	-16.03447
1042.774	20.04526
1043.134	22.04816
1043.495	-27.06392
1043.855	16.03642
1044.215	-18.04213
1044.576	-5.01135
1044.936	33.07046
1045.296	-4.00937
1045.656	-27.06266
1046.016	-31.06963
1046.375	7.01611
1046.735	20.04273
1047.095	22.04806
1047.454	69.13203
1047.814	-49.11073
1048.173	-42.09284
1048.533	1.00215
1048.892	4.00911
1049.251	-1.00237
1049.61	-53.12265
1049.969	45.09933
1050.328	-36.07157
1050.687	-30.06889
1051.046	32.07354
1051.405	-34.0791
1051.763	-10.02166
1052.122	10.02381
1052.48	-19.04371
1052.839	-38.0846
1053.197	31.06802
1053.555	-44.09042
1053.914	51.11554
1054.272	-1.00226
1054.63	-34.07826
1054.988	-32.07156
1055.345	-46.09111
1055.703	-4.00894
1056.061	18.04384
1056.419	-6.01486
1056.776	-13.02952
1057.134	-11.02375
1057.491	-21.04968
1057.848	8.01861
1058.206	37.08061
1058.563	22.04533
1058.92	-20.04262
1059.277	-14.03195
1059.634	-22.04745
1059.991	47.10513
1060.348	36.07605
1060.704	15.03355
1061.061	-3.00634
1061.418	15.03438
1061.774	56.13106
1062.131	34.08726
1062.487	-17.03697
1062.843	-50.11858
1063.199	21.04945
1063.555	26.05654
1063.911	19.04498
1064.267	-19.03544
1064.623	26.05989
1064.979	-20.04319
1065.335	-13.02862
1065.691	3.00682
1066.046	-39.07922
1066.402	-53.11336
1066.757	11.02624
1067.112	-3.00684
1067.468	44.09848
1067.823	33.07424
1068.178	5.01143
1068.533	6.01352
1068.888	27.05935
1069.243	10.02336
1069.598	-88.20094
1069.952	15.03204
1070.307	-20.0478
1070.662	-22.04942
1071.016	-25.05305
1071.371	8.01683
1071.725	-55.12099
1072.079	-2.0045
1072.434	-19.0435
1072.788	39.08713
1073.142	59.13643
1073.496	-6.01337
1073.85	-2.00432
1074.203	11.02489
1074.557	30.07629
1074.911	26.05702
1075.265	-29.06243
1075.618	62.14123
1075.971	-15.03332
1076.325	-8.0193
1076.678	10.0213
1077.031	-9.01894
1077.385	66.13385
1077.738	-18.03811
1078.091	-9.01947
1078.444	18.03822
1078.796	16.03717
1079.149	-2.00462
1079.502	-53.11899
1079.855	5.01096
1080.207	-10.02316
1080.56	-35.0863
1080.912	-42.09521
1081.264	-20.04535
1081.617	-33.07643
1081.969	25.06067
1082.321	19.04353
1082.673	-44.09604
1083.025	-24.05305
1083.377	-1.00194
1083.728	-33.07073
1084.08	-4.0095
1084.432	-84.18863
1084.783	33.0726
1085.135	39.09318
1085.486	3.00647
1085.838	-1.00232
1086.189	-22.0504
1086.54	30.0667
1086.891	11.02669
1087.242	-21.04784
1087.593	-19.04317
1087.944	-31.06544
1088.295	-18.03769
1088.646	16.03642
1088.996	-39.08878
1089.347	-67.1556
1089.698	-12.02697
1090.048	-30.07369
1090.398	23.04987
1090.749	13.0292
1091.099	-28.06778
1091.449	-8.01867
1091.799	0
1092.149	26.06102
1092.499	21.04821
1092.849	-52.12664
1093.199	26.06078
1093.548	10.0227
1093.898	-28.06674
1094.248	8.01944
1094.597	24.05884
1094.947	6.01522
1095.296	-15.03481
1095.645	8.01962
1095.994	23.05194
1096.343	40.09567
1096.692	19.04797
1097.041	-30.07882
1097.39	0
1097.739	11.02724
1098.088	-28.07095
1098.437	-38.09633
1098.785	-43.11084
1099.134	-43.10794
1099.482	-17.04449
1099.83	-39.09769
1100.179	7.01765
1100.527	-49.12415
1100.875	-26.06582
1101.223	16.04078
1101.571	-11.02939
1101.919	-34.08607
1102.267	28.07655
1102.615	-3.00965
1102.962	5.01604
1103.31	2.00642
1103.658	-11.0353
