Data from N3 R1 sample 11_Subt2__4__15-11-13-074.txt Node

Date: Wed Sep 17 15:11:13 PDT 2025
User: uwsun
Spectrometer: HDX01956
Trigger mode: 0
Integration Time (sec): 5.000000E-1
Scans to average: 1
Nonlinearity correction enabled: true
Boxcar width: 0
Storing dark spectrum: false
XAxis mode: Wavelengths
Number of Pixels in Spectrum: 2068
>>>>>Begin Spectral Data<<<<<
194.03	41.11832
194.578	30.0972
195.127	26.0831
195.676	40.12809
196.225	42.11139
196.773	71.19624
197.321	91.2512
197.87	163.41517
198.418	129.33297
198.966	178.46587
199.513	180.45466
200.061	166.42005
200.609	123.32527
201.156	172.37464
201.704	134.33775
202.251	150.39793
202.798	137.35521
203.345	161.39772
203.892	154.38857
204.438	148.35084
204.985	183.43188
205.532	129.33976
206.078	104.25583
206.624	213.52847
207.17	197.45805
207.716	194.47209
208.262	204.3999
208.808	167.41843
209.354	186.45719
209.899	131.33037
210.445	129.32392
210.99	181.43939
211.535	180.42208
212.08	184.42419
212.625	165.41044
213.17	181.4584
213.715	179.40715
214.259	194.44921
214.804	157.3837
215.348	215.49101
215.892	180.43458
216.436	162.36826
216.98	141.30966
217.524	190.45074
218.068	200.49957
218.612	215.53985
219.155	163.38393
219.698	160.37914
220.242	119.29419
220.785	200.46438
221.328	142.34995
221.871	206.51809
222.414	145.35714
222.956	90.21664
223.499	108.24163
224.041	148.3363
224.583	115.24277
225.126	152.33136
225.668	144.3482
226.21	147.37045
226.751	181.39884
227.293	126.28445
227.835	155.3774
228.376	112.25481
228.918	115.28607
229.459	155.38402
230	164.39072
230.541	141.32267
231.082	152.36782
231.622	106.24008
232.163	79.19171
232.704	192.4742
233.244	168.41264
233.784	135.32551
234.324	156.34901
234.864	111.25095
235.404	96.22661
235.944	163.3799
236.484	153.37907
237.023	135.31675
237.563	170.39129
238.102	171.39995
238.641	153.38128
239.18	138.32271
239.719	140.34857
240.258	169.37552
240.797	142.33753
241.335	138.33369
241.874	232.44102
242.412	190.4556
242.95	149.35818
243.488	168.37291
244.026	162.37392
244.564	156.31883
245.102	157.35349
245.64	158.37368
246.177	138.30505
246.715	179.4249
247.252	165.37044
247.789	156.28687
248.326	133.31972
248.863	156.34109
249.4	165.37044
249.936	217.44602
250.473	185.43219
251.009	166.37628
251.546	202.44427
252.082	136.29245
252.618	156.34656
253.154	135.32391
253.69	170.37719
254.226	193.45565
254.761	154.34326
255.297	164.35479
255.832	127.3017
256.367	186.4312
256.903	160.35338
257.438	168.38978
257.972	177.38954
258.507	151.34402
259.042	150.3245
259.576	213.46344
260.111	125.28651
260.645	158.33873
261.179	210.48355
261.713	186.41132
262.247	113.25818
262.781	143.30055
263.315	152.36588
263.849	173.42877
264.382	173.39302
264.915	171.40105
265.449	108.2641
265.982	203.4535
266.515	191.46227
267.048	161.33883
267.58	177.37709
268.113	124.26825
268.646	157.38099
269.178	150.33324
269.71	183.40037
270.243	173.39732
270.775	188.47672
271.307	128.30343
271.838	214.49571
272.37	151.36753
272.902	139.31361
273.433	204.44547
273.965	175.42052
274.496	158.38837
275.027	183.4504
275.558	194.46732
276.089	185.457
276.62	146.36575
277.15	184.44659
277.681	144.30845
278.211	153.37045
278.741	189.41472
279.272	184.4164
279.802	207.50626
280.332	149.35028
280.861	139.33097
281.391	193.43277
281.921	199.46818
282.45	181.44334
282.98	193.49625
283.509	197.44246
284.038	205.46213
284.567	201.46144
285.096	235.55845
285.625	150.33573
286.153	206.4853
286.682	204.46204
287.21	131.3112
287.739	200.46567
288.267	184.4434
288.795	179.46234
289.323	185.42998
289.851	200.46438
290.378	186.4096
290.906	226.54316
291.433	207.50815
291.961	219.49207
292.488	236.57299
293.015	177.41447
293.542	227.57366
294.069	240.58292
294.596	199.47927
295.122	240.56407
295.649	185.4003
296.175	224.52893
296.702	254.6072
297.228	194.46094
297.754	191.42493
298.28	267.59893
298.806	196.46659
299.332	226.49726
299.857	231.51541
300.383	174.43369
300.908	206.49998
301.433	228.54942
301.958	242.54297
302.483	156.38459
303.008	248.60416
303.533	206.52366
304.058	204.4688
304.582	206.48039
305.107	183.47152
305.631	259.57286
306.155	221.50674
306.679	208.48296
307.203	217.49637
307.727	215.50207
308.251	197.48056
308.775	275.65274
309.298	207.49287
309.822	248.60979
310.345	328.75642
310.868	235.55695
311.391	246.59369
311.914	268.65555
312.437	293.65022
312.96	271.62287
313.482	232.53548
314.005	219.538
314.527	176.45372
315.049	248.61541
315.571	245.54144
316.093	264.63904
316.615	247.58064
317.137	289.61221
317.659	278.65617
318.18	259.60314
318.702	252.57909
319.223	269.53468
319.744	280.61452
320.265	284.67449
320.786	310.75178
321.307	262.63301
321.828	269.59299
322.348	316.72003
322.869	316.72962
323.389	522.94124
323.909	266.59411
324.43	334.76964
324.95	335.7397
325.47	350.83631
325.989	324.74392
326.509	369.79225
327.029	329.72675
327.548	307.67533
328.067	339.79468
328.587	348.842
329.106	307.67107
329.625	313.79037
330.144	365.81535
330.662	361.8154
331.181	385.8696
331.7	300.67806
332.218	370.76956
332.736	372.83562
333.255	403.90542
333.773	342.77926
334.291	430.0201
334.808	410.87969
335.326	368.79334
335.844	412.92393
336.361	446.08812
336.879	458.01618
337.396	469.07572
337.913	450.98297
338.43	408.87691
338.947	427.96994
339.464	421.86256
339.981	430.96824
340.497	468.08307
341.014	465.06781
341.53	450.95884
342.046	518.20939
342.562	490.14571
343.078	445.99237
343.594	460.03077
344.11	568.25597
344.626	498.17944
345.141	508.08426
345.657	508.07207
346.172	517.16419
346.687	453.98262
347.202	582.22206
347.717	542.1994
348.232	514.19675
348.747	548.1723
349.261	569.14978
349.776	580.27079
350.29	594.37076
350.805	608.37803
351.319	584.24728
351.833	591.24944
352.347	569.24064
352.861	613.3158
353.374	579.2096
353.888	657.45995
354.401	592.23489
354.915	676.37603
355.428	645.46582
355.941	596.27294
356.454	594.20889
356.967	600.2815
357.48	602.24744
357.993	605.3654
358.505	601.34091
359.018	679.50451
359.53	695.52977
360.042	705.41138
360.554	710.56248
361.066	660.456
361.578	672.33685
362.09	670.44108
362.602	747.4749
363.113	683.44987
363.625	754.51553
364.136	745.44619
364.647	754.58857
365.158	769.58156
365.669	738.57048
366.18	734.53895
366.691	768.4785
367.201	760.61594
367.712	797.60097
368.222	810.63272
368.733	777.48188
369.243	806.57482
369.753	803.62118
370.263	840.77146
370.773	789.69399
371.282	834.73959
371.792	925.82856
372.301	861.80507
372.811	917.08228
373.32	898.65643
373.829	864.7624
374.338	944.77098
374.847	1013.95145
375.356	999.97594
375.865	1039.82991
376.373	1099.03728
376.882	1062.246
377.39	1144.24532
377.898	1171.33334
378.407	1265.24545
378.915	1216.09213
379.423	1329.38621
379.93	1412.48253
380.438	1420.59236
380.946	1517.59724
381.453	1568.75544
381.96	1676.84637
382.468	1713.82253
382.975	1916.1588
383.482	1892.77455
383.989	1955.40517
384.495	2006.01494
385.002	2110.63927
385.509	2227.23975
386.015	2392.61271
386.521	2439.09106
387.028	2534.10236
387.534	2647.82398
388.04	2767.45344
388.546	2758.98188
389.051	2909.96272
389.557	3099.21864
390.063	3345.02673
390.568	3550.3619
391.073	3649.82616
391.578	3875.35923
392.084	3952.84645
392.589	4064.47573
393.093	4321.00092
393.598	4843.43244
394.103	5158.49391
394.607	5806.24062
395.112	6112.25992
395.616	6511.0547
396.12	7075.68227
396.624	7794.10436
397.128	8419.7266
397.632	9311.07798
398.136	10027.87074
398.639	10713.11001
399.143	11866.9569
399.646	13459.36248
400.15	14861.42176
400.653	16494.69755
401.156	18528.98355
401.659	21821.01715
402.162	26297.85694
402.664	34723.88996
403.167	48733.29829
403.67	61587.68567
404.172	63919.58413
404.674	63858.43483
405.176	63738.15102
405.678	63977.72923
406.18	64011.81569
406.682	63863.44694
407.184	63926.60148
407.686	63841.39382
408.187	64025.8516
408.688	63892.51763
409.19	63833.37461
409.691	51549.29078
410.192	43676.79223
410.693	37673.43588
411.194	33898.34499
411.694	32053.10116
412.195	29925.38956
412.696	26934.93812
413.196	24692.40838
413.696	23975.80584
414.196	24225.58045
414.696	24028.63778
415.196	22985.2454
415.696	20760.02102
416.196	17110.34454
416.695	13150.2086
417.195	11096.55734
417.694	10624.18315
418.194	9989.89994
418.693	9344.12817
419.192	8922.35833
419.691	8756.06796
420.19	8536.85305
420.688	8297.65996
421.187	7929.73972
421.685	7427.85418
422.184	6754.83909
422.682	5902.55128
423.18	4980.34591
423.678	4469.5866
424.176	4168.7301
424.674	3817.72684
425.172	3728.10648
425.669	3509.45366
426.167	3328.13853
426.664	2965.05629
427.161	2779.12797
427.659	2578.39014
428.156	2452.72065
428.652	2263.47189
429.149	2176.23345
429.646	2073.80152
430.143	1956.03728
430.639	1854.91541
431.135	1796.08971
431.632	1644.60961
432.128	1567.71035
432.624	1530.93196
433.12	1414.38205
433.616	1345.19507
434.111	1308.38
434.607	1282.37003
435.103	1257.98227
435.598	1262.97142
436.093	1197.18227
436.588	1072.93681
437.083	1062.91285
437.578	1028.94115
438.073	984.05465
438.568	976.00113
439.062	938.65027
439.557	902.77098
440.051	796.53176
440.546	776.51827
441.04	849.73921
441.534	788.72483
442.028	797.65684
442.522	766.59622
443.015	727.34682
443.509	711.52051
444.002	765.62763
444.496	681.29159
444.989	754.59205
445.482	753.62635
445.975	692.40481
446.468	643.22829
446.961	734.37638
447.454	603.2069
447.947	631.34343
448.439	670.45712
448.931	668.35171
449.424	675.52662
449.916	637.38616
450.408	559.1533
450.9	588.28564
451.392	627.42717
451.884	563.16572
452.375	569.27414
452.867	562.13587
453.358	568.17058
453.849	553.06168
454.341	550.12021
454.832	528.03043
455.323	549.2424
455.814	510.06169
456.304	520.09359
456.795	494.03015
457.285	478.96362
457.776	541.1136
458.266	486.05694
458.756	436.95481
459.247	494.08119
459.737	543.19137
460.226	538.10866
460.716	462.01699
461.206	483.05908
461.695	452.0319
462.185	488.0604
462.674	422.89529
463.163	450.93052
463.653	450.88049
464.142	457.02089
464.63	403.91136
465.119	429.92462
465.608	447.96754
466.096	377.76438
466.585	381.81378
467.073	364.80657
467.561	363.81858
468.05	391.83984
468.538	331.76531
469.026	353.7879
469.513	379.74525
470.001	408.87125
470.489	354.79226
470.976	415.90097
471.463	351.82409
471.951	336.78935
472.438	325.72212
472.925	301.67408
473.412	330.75709
473.899	360.77476
474.385	304.70778
474.872	275.61281
475.359	336.78103
475.845	307.60167
476.331	255.5201
476.817	311.71851
477.303	315.6938
477.789	271.61714
478.275	259.61666
478.761	260.59149
479.247	296.62717
479.732	269.64292
480.218	272.68331
480.703	219.52144
481.188	259.5369
481.673	229.50778
482.158	242.5029
482.643	228.56248
483.128	230.51753
483.612	302.68452
484.097	243.56343
484.581	253.56169
485.066	252.5932
485.55	275.58077
486.034	238.49635
486.518	228.52709
487.002	180.42603
487.486	201.47306
487.969	209.4917
488.453	186.45009
488.936	222.48251
489.42	204.43735
489.903	204.49196
490.386	80.16469
490.869	243.51184
491.352	188.43963
491.835	195.38687
492.318	164.36009
492.8	200.40152
493.283	216.53367
493.765	192.45742
494.247	228.51177
494.73	205.43959
495.212	204.46842
495.694	223.50784
496.175	217.50455
496.657	271.61364
497.139	269.43709
497.62	256.5911
498.102	241.57799
498.583	206.49002
499.064	283.60107
499.545	279.60652
500.026	317.67886
500.507	290.63539
500.988	333.78794
501.469	309.73173
501.949	338.78847
502.43	395.88891
502.91	441.85858
503.39	383.88902
503.87	419.91933
504.35	423.91599
504.83	447.89636
505.31	501.1
505.79	482.04023
506.269	580.18678
506.749	659.31856
507.228	722.47379
507.707	792.4963
508.187	877.75862
508.666	917.90228
509.145	986.87804
509.623	1076.00686
510.102	1178.23223
510.581	1238.30542
511.059	1305.52552
511.538	1458.80697
512.016	1534.62861
512.494	1659.75968
512.972	1780.85336
513.45	1936.859
513.928	2107.15385
514.406	2325.31309
514.884	2517.68447
515.361	2614.27356
515.839	2810.08375
516.316	3043.40975
516.793	3083.6598
517.27	3298.31221
517.747	3424.76111
518.224	3503.98126
518.701	3564.69947
519.178	3727.50055
519.654	3717.09666
520.131	3854.37839
520.607	3747.30825
521.083	3801.7634
521.56	3787.03769
522.036	3701.55465
522.512	3736.39613
522.987	3533.27959
523.463	3439.18889
523.939	3422.51768
524.414	3224.00939
524.89	3170.28394
525.365	3033.96213
525.84	2858.3375
526.315	2736.37021
526.79	2679.96154
527.265	2602.08314
527.74	2404.29076
528.215	2305.04674
528.689	2171.70985
529.164	2065.57676
529.638	2040.31478
530.112	1869.84867
530.587	1846.46623
531.061	1714.84346
531.534	1635.75188
532.008	1620.77402
532.482	1540.4915
532.956	1435.74359
533.429	1386.54018
533.903	1350.15755
534.376	1245.07151
534.849	1238.16965
535.322	1246.25313
535.795	1129.16245
536.268	1103.1338
536.741	976.89939
537.213	1000.86152
537.686	956.93966
538.158	928.73749
538.631	895.81868
539.103	895.67518
539.575	791.36167
540.047	770.42486
540.519	830.68456
540.991	773.62686
541.463	724.51596
541.934	665.31461
542.406	697.4674
542.877	669.32006
543.348	681.44687
543.82	635.37245
544.291	637.31566
544.762	605.28633
545.233	604.37726
545.703	492.99776
546.174	519.09221
546.645	548.20109
547.115	555.2116
547.585	506.05849
548.056	548.22378
548.526	486.05783
548.996	489.07091
549.466	480.07214
549.935	467.0278
550.405	430.87363
550.875	438.96525
551.344	465.02082
551.814	403.86151
552.283	454.91145
552.752	411.89912
553.221	478.96716
553.69	480.99566
554.159	421.9799
554.628	469.9787
555.096	433.02664
555.565	387.80008
556.033	488.06849
556.502	373.84765
556.97	363.75988
557.438	366.80932
557.906	334.7475
558.374	349.76512
558.842	335.76162
559.31	386.80891
559.777	355.82111
560.245	357.77177
560.712	367.79033
561.18	363.75551
561.647	358.74692
562.114	332.72126
562.581	367.85223
563.048	356.76879
563.514	412.96858
563.981	397.84979
564.448	344.7346
564.914	403.87381
565.381	421.89453
565.847	424.91796
566.313	406.87862
566.779	433.90239
567.245	392.84905
567.711	388.87119
568.176	412.85996
568.642	440.02942
569.108	450.02402
569.573	455.97139
570.038	502.9511
570.504	538.09822
570.969	474.08222
571.434	553.1041
571.899	518.11806
572.363	528.09777
572.828	602.23465
573.293	582.19464
573.757	588.22273
574.222	640.2654
574.686	639.30091
575.15	672.42866
575.614	724.48991
576.078	654.35655
576.542	640.28906
577.006	636.27041
577.469	672.46209
577.933	689.37294
578.396	647.35904
578.86	681.40855
579.323	708.49548
579.786	686.29444
580.249	677.40464
580.712	641.38602
581.175	618.36326
581.637	604.2276
582.1	641.22801
582.563	641.19371
583.025	606.3217
583.487	649.16558
583.95	605.14775
584.412	653.19804
584.874	612.33649
585.336	589.2539
585.797	562.09535
586.259	537.13858
586.721	564.19253
587.182	498.04771
587.643	522.07611
588.105	497.0738
588.566	478.90916
589.027	534.191
589.488	477.0041
589.949	523.15801
590.41	450.81636
590.87	493.03148
591.331	465.93375
591.791	459.9812
592.252	458.98563
592.712	409.91551
593.172	439.92505
593.632	468.95646
594.092	362.75896
594.552	405.81664
595.011	330.71661
595.471	394.83553
595.931	380.80479
596.39	327.74615
596.849	376.82274
597.308	304.61595
597.768	358.87498
598.227	342.77832
598.685	310.67261
599.144	351.78214
599.603	253.57009
600.062	255.51702
600.52	306.65884
600.978	281.63628
601.437	254.55629
601.895	290.5935
602.353	313.65319
602.811	272.58891
603.269	250.57334
603.727	276.63576
604.184	347.74695
604.642	256.60636
605.099	269.60366
605.557	237.55713
606.014	247.51271
606.471	257.62152
606.928	312.65963
607.385	315.75227
607.842	258.56934
608.299	327.72505
608.755	266.61932
609.212	329.69511
609.668	306.65743
610.125	332.75862
610.581	305.68106
611.037	258.5555
611.493	219.4953
611.949	270.63185
612.405	291.56438
612.861	220.48996
613.316	237.54844
613.772	263.5783
614.227	317.7245
614.683	268.54351
615.138	286.64088
615.593	269.59845
616.048	280.61245
616.503	238.55763
616.958	214.51998
617.412	245.56064
617.867	252.54212
618.321	274.53941
618.776	265.55892
619.23	253.56963
619.684	240.51541
620.138	255.56001
620.592	221.51871
621.046	267.60483
621.5	240.55659
621.954	188.40427
622.407	243.51634
622.861	244.57034
623.314	267.57797
623.768	274.61905
624.221	193.36823
624.674	237.52727
625.127	203.45762
625.58	181.3955
626.033	231.48593
626.485	196.45528
626.938	224.51516
627.39	209.47326
627.843	205.45778
628.295	162.36498
628.747	230.52896
629.199	213.46876
629.651	184.41029
630.103	203.45107
630.555	201.40959
631.006	179.40501
631.458	139.3209
631.909	151.33078
632.361	141.3189
632.812	171.3858
633.263	165.34923
633.714	150.31046
634.165	138.32448
634.616	126.2928
635.067	190.40558
635.518	126.29361
635.968	131.25236
636.419	175.37186
636.869	137.31817
637.319	136.30966
637.769	194.42273
638.219	160.36842
638.669	138.32157
639.119	100.23623
639.569	121.28545
640.019	136.30816
640.468	151.33092
640.918	98.22953
641.367	154.33671
641.816	137.29847
642.265	172.39083
642.714	85.19311
643.163	166.37414
643.612	105.25404
644.061	150.31366
644.51	143.32118
644.958	123.26717
645.406	127.29821
645.855	127.30286
646.303	174.39121
646.751	183.41153
647.199	152.3367
647.647	132.30092
648.095	103.23182
648.543	126.25097
648.99	147.34571
649.438	118.26846
649.885	121.29682
650.333	146.277
650.78	113.26906
651.227	149.35682
651.674	128.28696
652.121	165.39498
652.568	152.36421
653.015	87.21295
653.461	131.30568
653.908	106.23999
654.354	69.16316
654.801	89.20653
655.247	103.22001
655.693	116.29687
656.139	91.21468
656.585	143.33421
657.031	97.22528
657.477	135.28924
657.922	121.27021
658.368	136.32749
658.813	60.13568
659.259	139.33021
659.704	193.44361
660.149	84.19173
660.594	143.33211
661.039	83.18734
661.484	111.25881
661.929	113.25984
662.373	107.26452
662.818	82.20067
663.262	104.24797
663.707	121.30253
664.151	111.26633
664.595	94.22455
665.039	134.32585
665.483	120.29997
665.927	140.32134
666.371	121.27979
666.814	91.21351
667.258	113.26803
667.701	140.29171
668.145	139.33858
668.588	122.29689
669.031	73.17021
669.474	78.18526
669.917	104.22441
670.36	115.28221
670.803	107.25458
671.245	41.08374
671.688	94.22567
672.13	113.2514
672.573	99.24636
673.015	123.29107
673.457	126.26873
673.899	135.31959
674.341	100.23733
674.783	68.16157
675.225	79.19236
675.666	83.20089
676.108	131.27703
676.549	50.11582
676.991	97.2098
677.432	65.12805
677.873	84.1894
678.314	85.19975
678.755	120.29039
679.196	96.2162
679.637	34.0811
680.078	83.19147
680.518	65.14785
680.959	71.16724
681.399	58.14236
681.839	90.21533
682.28	77.18917
682.72	52.11811
683.16	72.1777
683.6	92.20617
684.039	74.15103
684.479	84.20472
684.919	112.25872
685.358	51.12594
685.798	64.16488
686.237	44.10427
686.676	62.13888
687.115	132.30383
687.554	77.18201
687.993	105.22798
688.432	54.12221
688.871	127.28466
689.309	139.32524
689.748	127.25773
690.186	46.10677
690.625	44.10269
691.063	108.25266
691.501	97.23583
691.939	73.18159
692.377	81.19354
692.815	107.25683
693.253	48.11326
693.69	19.04152
694.128	72.17259
694.565	81.18901
695.003	96.24119
695.44	83.19368
695.877	107.24683
696.314	66.13716
696.751	100.22216
697.188	77.176
697.625	58.12826
698.061	69.16303
698.498	35.08212
698.934	54.12767
699.371	25.05857
699.807	106.24496
700.243	81.19235
700.679	78.17105
701.115	59.13594
701.551	34.07839
701.987	49.10585
702.422	105.24549
702.858	112.2613
703.294	136.30339
703.729	32.07723
704.164	34.08051
704.599	117.25501
705.035	75.16562
705.47	43.10337
705.904	74.16863
706.339	100.22465
706.774	117.26731
707.209	64.14696
707.643	57.13463
708.078	47.11303
708.512	66.16313
708.946	43.10073
709.38	84.19597
709.814	46.10292
710.248	88.21127
710.682	101.23753
711.116	104.24797
711.549	18.04563
711.983	77.17472
712.416	100.23229
712.85	56.13674
713.283	45.10501
713.716	107.25888
714.149	9.02073
714.582	120.26238
715.015	38.09213
715.448	90.22221
715.881	86.18055
716.313	85.19452
716.746	110.254
717.178	56.13275
717.61	121.2999
718.043	54.13136
718.475	13.03135
718.907	93.22704
719.339	84.18661
719.77	65.15323
720.202	10.02486
720.634	56.13552
721.065	95.21862
721.497	106.25312
721.928	16.03878
722.359	89.21224
722.79	58.1367
723.221	47.11496
723.652	74.18438
724.083	89.19546
724.514	82.18437
724.945	76.17431
725.375	62.14254
725.806	54.13087
726.236	59.14821
726.666	59.13665
727.096	70.16786
727.526	78.19717
727.956	109.24251
728.386	87.20835
728.816	91.22793
729.246	99.23862
729.675	0
730.105	95.22646
730.534	31.07128
730.964	37.09093
731.393	75.17968
731.822	84.20998
732.251	75.18643
732.68	79.17846
733.109	39.09486
733.537	99.23627
733.966	97.23645
734.395	50.11366
734.823	67.14479
735.251	31.07345
735.68	85.20441
736.108	55.13487
736.536	54.124
736.964	63.14295
737.392	34.0837
737.82	69.16101
738.247	29.06807
738.675	55.12657
739.102	25.06153
739.53	85.2139
739.957	60.15259
740.384	39.09226
740.811	-2.00493
741.238	71.17062
741.665	134.30474
742.092	-14.03193
742.519	24.05889
742.945	88.20893
743.372	54.13186
743.798	46.1157
744.225	39.09065
744.651	39.09592
745.077	44.1078
745.503	51.12064
745.929	92.21734
746.355	99.23374
746.781	63.15133
747.207	69.1605
747.632	108.26105
748.058	88.21663
748.483	101.22527
748.908	54.13205
749.334	89.21403
749.759	82.19086
750.184	76.17919
750.609	65.15566
751.033	39.08925
751.458	83.17975
751.883	40.09661
752.307	44.10168
752.732	75.18786
753.156	61.14692
753.58	64.14726
754.005	32.07892
754.429	81.18752
754.853	45.11019
755.277	89.20588
755.7	89.21509
756.124	42.10263
756.548	6.014
756.971	98.23223
757.394	3.00758
757.818	63.15922
758.241	80.19854
758.664	56.13857
759.087	50.11066
759.51	15.03646
759.933	56.13286
760.356	82.20676
760.778	64.15377
761.201	68.16014
761.623	33.07697
762.046	25.05733
762.468	57.13322
762.89	29.06945
763.312	121.28656
763.734	44.1041
764.156	43.10419
764.578	81.17901
765	64.1523
765.421	5.01263
765.843	63.16121
766.264	39.09033
766.686	23.05605
767.107	40.09504
767.528	98.24516
767.949	83.20489
768.37	73.17675
768.791	22.05177
769.212	27.06704
769.632	42.09656
770.053	16.04116
770.473	32.07557
770.894	9.02177
771.314	27.06236
771.734	44.10023
772.154	44.10983
772.575	52.11672
772.994	12.02669
773.414	57.13186
773.834	3.00736
774.254	42.10018
774.673	89.21159
775.093	81.19634
775.512	41.09924
775.931	52.129
776.351	41.10028
776.77	11.02663
777.189	54.12514
777.607	36.09009
778.026	57.13858
778.445	68.16851
778.864	57.14066
779.282	45.10451
779.701	23.05659
780.119	34.08453
780.537	32.07793
780.955	28.06926
781.373	62.14896
781.791	56.12405
782.209	61.13323
782.627	21.05436
783.045	18.04002
783.462	61.15174
783.88	59.14917
784.297	52.12763
784.715	1.00254
785.132	10.0236
785.549	45.10965
785.966	60.14694
786.383	55.13257
786.8	96.21451
787.217	69.16038
787.633	41.10106
788.05	60.13501
788.466	79.17722
788.883	60.15048
789.299	7.01628
789.715	63.14938
790.131	62.14981
790.547	40.09716
790.963	19.04606
791.379	39.09631
791.795	47.10279
792.21	52.11706
792.626	54.1231
793.041	43.10306
793.457	21.05035
793.872	32.07254
794.287	70.16459
794.702	8.01896
795.117	56.13592
795.532	19.04702
795.947	37.08522
796.362	26.05908
796.776	71.15685
797.191	41.09789
797.605	69.15885
798.02	11.02613
798.434	80.17107
798.848	70.16939
799.262	46.11098
799.676	88.20668
800.09	33.07897
800.504	27.06345
800.918	-23.05179
801.331	-28.07058
801.745	0
802.158	-3.00728
802.572	63.14764
802.985	50.11578
803.398	12.02781
803.811	5.0123
804.224	6.01439
804.637	32.07445
805.05	19.04245
805.462	70.16485
805.875	23.05846
806.288	5.01188
806.7	0
807.112	19.04239
807.525	28.06602
807.937	27.06518
808.349	-2.00486
808.761	37.08878
809.173	57.13421
809.584	34.08107
809.996	-7.01675
810.408	46.11682
810.819	40.0913
811.231	102.26342
811.642	88.21094
812.053	64.15113
812.464	37.08491
812.875	78.1935
813.286	56.14115
813.697	42.09226
814.108	50.11743
814.519	65.14059
814.929	94.22952
815.34	-21.04935
815.75	48.11943
816.16	-2.0048
816.571	-5.01267
816.981	26.05872
817.391	16.03717
817.801	72.17318
818.211	40.09192
818.62	46.10774
819.03	58.1367
819.44	8.02002
819.849	28.06773
820.259	11.02712
820.668	-1.00241
821.077	50.12141
821.486	49.11227
821.895	-2.00474
822.304	4.01034
822.713	19.04338
823.122	53.12746
823.531	29.06548
823.939	86.20198
824.348	43.1003
824.756	4.00971
825.164	19.04621
825.573	-10.02455
825.981	46.10951
826.389	36.08741
826.797	89.21808
827.205	95.20978
827.612	30.07128
828.02	-51.11704
828.428	25.06176
828.835	36.09278
829.243	28.06404
829.65	29.07056
830.057	19.04448
830.464	69.16385
830.871	115.26317
831.278	29.06791
831.685	23.0493
832.092	43.10054
832.499	41.08674
832.905	39.09486
833.312	14.03026
833.718	56.13562
834.124	50.11016
834.531	41.09886
834.937	39.09733
835.343	45.10368
835.749	8.01782
836.155	40.10158
836.561	3.00719
836.966	50.11729
837.372	21.05161
837.777	25.06065
838.183	57.12054
838.588	49.11829
838.993	73.17061
839.399	20.04767
839.804	-2.00476
840.209	35.08748
840.613	36.07685
841.018	10.02448
841.423	47.1167
841.828	41.10088
842.232	42.09853
842.637	47.10803
843.041	-12.03024
843.445	1.00242
843.849	19.04585
844.253	47.10708
844.657	-15.03718
845.061	83.18305
845.465	12.02814
845.869	68.15119
846.272	15.03565
846.676	-27.06258
847.079	40.0993
847.483	54.12934
847.886	54.12504
848.289	28.07369
848.692	-10.02453
849.095	25.05776
849.498	28.06763
849.901	9.01978
850.304	31.0714
850.707	66.16128
851.109	47.11406
851.512	59.13989
851.914	20.04933
852.316	69.16989
852.718	54.13844
853.121	50.11812
853.523	32.07153
853.925	49.12507
854.326	26.06346
854.728	33.08257
855.13	14.03552
855.531	17.03945
855.933	40.09148
856.334	27.06579
856.736	74.15981
857.137	24.05443
857.538	54.13195
857.939	69.16631
858.34	22.05127
858.741	51.12834
859.142	-3.00696
859.542	43.11076
859.943	37.08874
860.343	28.06763
860.744	16.0378
861.144	37.08797
861.544	76.17759
861.945	28.06903
862.345	15.03535
862.745	51.12311
863.145	22.04975
863.544	41.10047
863.944	49.11114
864.344	33.07806
864.743	71.1686
865.143	120.29671
865.542	7.01549
865.941	32.07688
866.34	20.04565
866.74	35.09131
867.139	71.16529
867.537	26.06342
867.936	54.12549
868.335	27.06636
868.734	14.03483
869.132	11.02437
869.531	3.00695
869.929	63.13807
870.327	74.16965
870.726	-9.0216
871.124	52.11548
871.522	33.08101
871.92	66.15622
872.318	63.14655
872.715	36.08458
873.113	4.0094
873.511	-15.03629
873.908	63.1558
874.306	38.0921
874.703	5.01202
875.1	39.09489
875.497	23.05302
875.894	37.08925
876.291	56.13239
876.688	29.07259
877.085	37.08481
877.482	4.00972
877.878	53.1244
878.275	43.1058
878.671	-3.00624
879.068	53.12275
879.464	13.03039
879.86	70.15822
880.256	15.03522
880.652	29.07135
881.048	-6.01429
881.444	18.04072
881.84	28.06875
882.236	45.10892
882.631	63.14926
883.027	-9.02108
883.422	1.00247
883.817	10.02461
884.213	54.13362
884.608	117.27912
885.003	10.02313
885.398	52.12546
885.793	12.02907
886.188	-35.08494
886.582	32.07857
886.977	51.11521
887.371	54.13043
887.766	29.07019
888.16	-19.04538
888.554	43.10156
888.949	23.05584
889.343	44.10277
889.737	0
890.131	44.10644
890.525	66.16349
890.918	-15.03676
891.312	21.04794
891.706	1.00255
892.099	12.02952
892.492	32.06561
892.886	32.0753
893.279	39.09567
893.672	67.16515
894.065	47.1135
894.458	14.03375
894.851	15.03528
895.244	-14.03485
895.637	59.13675
896.029	50.11835
896.422	-1.00234
896.814	12.0288
897.206	65.15042
897.599	96.2259
897.991	58.13547
898.383	60.13606
898.775	49.10725
899.167	-6.01379
899.559	43.10392
899.951	17.03828
900.342	19.04632
900.734	54.13225
901.125	29.07316
901.517	34.08066
901.908	63.14214
902.299	-2.00476
902.69	29.06658
903.082	28.0654
903.473	54.12623
903.863	-33.08185
904.254	84.18801
904.645	49.11555
905.036	70.16581
905.426	42.09059
905.817	40.0938
906.207	-29.06653
906.597	6.01373
906.987	34.08444
907.378	42.10309
907.768	32.0823
908.158	53.12372
908.547	68.17152
908.937	1.00246
909.327	33.077
909.717	10.02419
910.106	29.06677
910.495	1.00239
910.885	74.18022
911.274	57.13661
911.663	56.13531
912.052	18.04239
912.441	53.13088
912.83	6.01319
913.219	34.08573
913.608	40.09475
913.997	22.05394
914.385	60.13722
914.774	32.07489
915.162	70.16145
915.55	48.11053
915.939	24.05913
916.327	13.03114
916.715	56.13969
917.103	10.02338
917.491	40.0949
917.878	45.10608
918.266	21.05254
918.654	82.20246
919.041	10.02574
919.429	63.14208
919.816	34.08308
920.203	62.14561
920.591	55.13131
920.978	38.08956
921.365	45.11458
921.752	3.0068
922.139	65.13414
922.525	-8.01874
922.912	42.09806
923.299	37.08881
923.685	-11.02771
924.072	-25.05451
924.458	76.18107
924.844	53.1261
925.231	1.00223
925.617	46.11416
926.003	57.13962
926.389	6.01468
926.774	45.10941
927.16	27.06459
927.546	54.13509
927.931	64.15201
928.317	5.01103
928.702	29.06564
929.088	55.12768
929.473	63.1554
929.858	41.09729
930.243	37.08644
930.628	34.08063
931.013	2.00482
931.398	-3.00654
931.783	53.13299
932.167	74.17502
932.552	21.05069
932.937	67.15819
933.321	26.06365
933.705	22.05298
934.09	17.04065
934.474	19.04303
934.858	25.06298
935.242	31.06877
935.626	34.08459
936.009	55.1428
936.393	99.24412
936.777	22.05494
937.16	65.16416
937.544	48.10637
937.927	30.07404
938.311	69.15974
938.694	58.14839
939.077	32.07372
939.46	37.08532
939.843	35.06775
940.226	12.02968
940.609	93.20519
940.991	-6.01475
941.374	34.08063
941.757	27.06397
942.139	52.11206
942.522	63.14115
942.904	12.02789
943.286	72.17463
943.668	92.23073
944.05	67.15819
944.432	50.11798
944.814	-12.0284
945.196	16.03805
945.578	63.14597
945.959	34.07563
946.341	3.00698
946.722	34.07613
947.104	38.08733
947.485	40.08931
947.866	34.08345
948.247	49.12029
948.628	-10.02317
949.009	-14.03495
949.39	47.11165
949.771	10.02185
950.152	94.21999
950.532	60.14596
950.913	33.07643
951.293	40.10573
951.674	32.07451
952.054	76.18391
952.434	32.07677
952.814	14.03172
953.194	10.02505
953.574	45.10591
953.954	44.09901
954.334	81.19494
954.714	64.15019
955.093	85.19912
955.473	37.09029
955.853	23.05771
956.232	24.06382
956.611	-1.00229
956.99	-1.00245
957.37	1.00246
957.749	-36.08224
958.128	49.11962
958.506	34.08549
958.885	13.03164
959.264	27.06476
959.643	88.19127
960.021	53.12717
960.4	68.14635
960.778	44.10241
961.156	39.09375
961.535	10.02222
961.913	66.14827
962.291	71.17733
962.669	53.12992
963.047	29.07198
963.424	75.18623
963.802	76.17905
964.18	28.06717
964.557	46.10071
964.935	47.10652
965.312	30.0761
965.69	48.11432
966.067	2.00466
966.444	7.01635
966.821	61.15141
967.198	0
967.575	40.0938
967.952	52.11677
968.329	44.10358
968.705	103.20932
969.082	47.11798
969.458	77.17897
969.835	4.00942
970.211	80.19904
970.587	54.12939
970.963	52.12711
971.339	22.05599
971.715	54.12979
972.091	35.08286
972.467	-11.02623
972.843	62.14947
973.219	36.08207
973.594	3.00764
973.97	43.09523
974.345	29.06714
974.721	18.04133
975.096	78.18169
975.471	10.02278
975.846	33.07558
976.221	21.05169
976.596	90.20906
976.971	74.17603
977.346	6.01335
977.72	35.08554
978.095	-1.00251
978.469	49.11141
978.844	64.15312
979.218	60.13998
979.593	68.15458
979.967	6.01384
980.341	38.08428
980.715	49.11909
981.089	24.05795
981.463	8.01771
981.837	44.10471
982.21	-3.00654
982.584	36.08402
982.957	49.11846
983.331	40.08912
983.704	84.19959
984.078	14.03328
984.451	15.0354
984.824	31.07325
985.197	-1.00231
985.57	-11.02634
985.943	31.07222
986.316	9.02098
986.688	45.10381
987.061	76.17017
987.434	50.12742
987.806	-17.03939
988.179	9.02039
988.551	42.10206
988.923	37.08705
989.295	46.10976
989.667	75.17377
990.039	116.27689
990.411	30.06507
990.783	41.08891
991.155	43.09971
991.527	24.05573
991.898	59.14178
992.27	42.10102
992.641	18.04331
993.012	27.05927
993.384	41.09322
993.755	28.06941
994.126	45.10484
994.497	23.05447
994.868	70.15079
995.239	21.04887
995.61	51.12349
995.98	-9.02116
996.351	7.01692
996.722	55.12343
997.092	54.12305
997.462	33.07503
997.833	63.14098
998.203	-17.03934
998.573	14.03387
998.943	22.04993
999.313	47.10868
999.683	18.04181
1000.053	-4.00866
1000.423	17.0395
1000.792	-22.05494
1001.162	27.06352
1001.531	37.08793
1001.901	-1.0024
1002.27	9.01889
1002.639	9.02209
1003.009	20.04565
1003.378	-4.00996
1003.747	-18.04092
1004.116	15.03452
1004.485	10.02304
1004.853	0
1005.222	-39.09415
1005.591	47.10634
1005.959	41.08875
1006.328	9.01957
1006.696	-1.00232
1007.064	6.01446
1007.433	-4.00961
1007.801	2.00466
1008.169	24.05782
1008.537	70.14664
1008.905	33.07433
1009.273	-7.01662
1009.64	29.06748
1010.008	72.16301
1010.375	61.13864
1010.743	-11.0237
1011.11	62.14305
1011.478	69.16455
1011.845	-2.00451
1012.212	77.16747
1012.579	39.09219
1012.946	24.05418
1013.313	42.09474
1013.68	19.04067
1014.047	-6.01383
1014.414	-5.01139
1014.78	36.08649
1015.147	31.07103
1015.513	52.11988
1015.88	19.04658
1016.246	9.02116
1016.612	50.10803
1016.978	54.12767
1017.344	48.1141
1017.71	65.15012
1018.076	-24.05423
1018.442	22.05492
1018.808	77.18581
1019.174	-17.04118
1019.539	-20.04247
1019.905	41.09318
1020.27	4.00953
1020.636	9.02049
1021.001	34.07842
1021.366	-1.00233
1021.731	74.18505
1022.096	29.07133
1022.461	62.14037
1022.826	27.06221
1023.191	9.02293
1023.556	35.07806
1023.92	-2.00471
1024.285	-67.15825
1024.649	11.02583
1025.014	31.07291
1025.378	33.0805
1025.742	-7.01669
1026.107	29.06248
1026.471	37.08201
1026.835	6.01438
1027.199	4.00932
1027.562	9.01989
1027.926	-11.02588
1028.29	0
1028.654	51.11125
1029.017	48.11348
1029.381	23.05306
1029.744	3.00742
1030.107	54.12191
1030.471	74.16972
1030.834	-28.06057
1031.197	45.1036
1031.56	22.04955
1031.923	20.05014
1032.286	81.18036
1032.648	24.05427
1033.011	41.09141
1033.374	24.05345
1033.736	2.00512
1034.099	7.01649
1034.461	49.12003
1034.823	47.11294
1035.185	17.0409
1035.548	13.03068
1035.91	34.07792
1036.272	75.16284
1036.634	55.12859
1036.995	-15.0338
1037.357	58.13574
1037.719	59.1374
1038.08	100.22677
1038.442	-1.00229
1038.803	-6.01368
1039.165	-15.03658
1039.526	20.04657
1039.887	38.08701
1040.248	37.08928
1040.609	-4.00945
1040.97	10.0235
1041.331	33.08113
1041.692	32.07307
1042.053	22.04763
1042.413	-11.02457
1042.774	50.1167
1043.134	15.03384
1043.495	57.13723
1043.855	74.17312
1044.215	-2.00477
1044.576	18.04176
1044.936	24.05234
1045.296	85.20193
1045.656	24.05599
1046.016	40.09189
1046.375	12.02806
1046.735	32.07083
1047.095	36.08071
1047.454	33.06556
1047.814	-9.02096
1048.173	25.05641
1048.533	62.13499
1048.892	-9.02102
1049.251	41.09804
1049.61	50.11812
1049.969	21.04736
1050.328	52.1069
1050.687	3.007
1051.046	49.11367
1051.405	42.09922
1051.763	46.10224
1052.122	-2.00482
1052.48	88.20587
1052.839	70.15958
1053.197	12.02714
1053.555	34.0722
1053.914	28.06558
1054.272	3.00683
1054.63	-29.06916
1054.988	43.09884
1055.345	-3.0061
1055.703	7.01628
1056.061	47.11781
1056.419	103.25864
1056.776	-12.02764
1057.134	-12.02629
1057.491	7.01696
1057.848	15.03579
1058.206	-35.07852
1058.563	45.09399
1058.92	33.07232
1059.277	32.07586
1059.634	45.09949
1059.991	44.10116
1060.348	33.07162
1060.704	102.23591
1061.061	73.15735
1061.418	38.08855
1061.774	21.04997
1062.131	26.06766
1062.487	19.04236
1062.843	54.12885
1063.199	64.1523
1063.555	45.10062
1063.911	10.02424
1064.267	40.0776
1064.623	42.09907
1064.979	-10.02198
1065.335	45.10178
1065.691	-6.01366
1066.046	64.1327
1066.402	-11.02391
1066.757	80.19286
1067.112	56.1307
1067.468	52.11907
1067.823	-4.00908
1068.178	16.03696
1068.533	35.08135
1068.888	62.14026
1069.243	30.07123
1069.598	13.0302
1069.952	112.24292
1070.307	23.05519
1070.662	47.10825
1071.016	80.17233
1071.371	63.13696
1071.725	32.0726
1072.079	59.13578
1072.434	14.03293
1072.788	18.04057
1073.142	94.21982
1073.496	47.10621
1073.85	-6.01338
1074.203	87.20069
1074.557	91.23481
1074.911	32.07257
1075.265	58.12816
1075.618	52.1216
1075.971	69.15587
1076.325	31.07661
1076.678	18.03952
1077.031	-58.12483
1077.385	80.16528
1077.738	13.02805
1078.091	25.05502
1078.444	5.01101
1078.796	30.07128
1079.149	12.02889
1079.502	48.10925
1079.855	35.07822
1080.207	41.09646
1080.56	36.09038
1080.912	45.10463
1081.264	8.01866
1081.617	33.07758
1081.969	14.03438
1082.321	29.06775
1082.673	30.0667
1083.025	43.09682
1083.377	63.14075
1083.728	19.04225
1084.08	25.05967
1084.432	8.01851
1084.783	17.03738
1085.135	62.14953
1085.486	52.11413
1085.838	38.09022
1086.189	93.21633
1086.54	42.09544
1086.891	50.12399
1087.242	51.12116
1087.593	25.05749
1087.944	81.17519
1088.295	48.10349
1088.646	51.12078
1088.996	60.13899
1089.347	8.01881
1089.698	24.05518
1090.048	20.04989
1090.398	70.15279
1090.749	-43.09908
1091.099	64.15627
1091.449	62.14845
1091.799	41.09856
1092.149	8.01915
1092.499	9.02119
1092.849	-19.04708
1093.199	21.05023
1093.548	63.1462
1093.898	44.10519
1094.248	4.00985
1094.597	14.03509
1094.947	16.04152
1095.296	27.06459
1095.645	39.0973
1095.994	21.04848
1096.343	35.08513
1096.692	13.03373
1097.041	27.07214
1097.39	29.06958
1097.739	-15.03792
1098.088	48.1231
1098.437	21.05432
1098.785	11.02856
1099.134	-18.04579
1099.482	60.16003
1099.83	29.07374
1100.179	60.15366
1100.527	-23.05894
1100.875	17.04397
1101.223	51.13164
1101.571	-20.05389
1101.919	43.11111
1102.267	20.05539
1102.615	9.02889
1102.962	4.01283
1103.31	9.02889
1103.658	-5.01604
