Data from N3 R1 sample 7_Subt2__5__15-09-13-589.txt Node

Date: Wed Sep 17 15:09:13 PDT 2025
User: uwsun
Spectrometer: HDX01956
Trigger mode: 0
Integration Time (sec): 5.000000E-1
Scans to average: 1
Nonlinearity correction enabled: true
Boxcar width: 0
Storing dark spectrum: false
XAxis mode: Wavelengths
Number of Pixels in Spectrum: 2068
>>>>>Begin Spectral Data<<<<<
194.03	78.22387
194.578	85.27364
195.127	89.2823
195.676	92.29278
196.225	92.24194
196.773	94.25887
197.321	158.43152
197.87	210.53042
198.418	222.56373
198.966	249.64378
199.513	267.66388
200.061	230.57533
200.609	264.68149
201.156	229.49275
201.704	238.58866
202.251	222.5818
202.798	236.60139
203.345	261.63285
203.892	232.57718
204.438	274.63367
204.985	258.59999
205.532	237.61276
206.078	248.59376
206.624	308.75085
207.17	358.80583
207.716	295.70425
208.262	289.55514
208.808	298.72892
209.354	292.70361
209.899	268.6592
210.445	280.68388
210.99	284.67604
211.535	311.7105
212.08	310.69666
212.625	282.68645
213.17	322.79491
213.715	307.68015
214.259	245.56154
214.804	286.68211
215.348	327.72988
215.892	329.77185
216.436	213.47918
216.98	293.62285
217.524	307.7118
218.068	299.7334
218.612	350.85734
219.155	314.71779
219.698	293.67639
220.242	235.56853
220.785	318.72108
221.328	263.63363
221.871	309.76268
222.414	255.61529
222.956	206.48493
223.499	283.61024
224.041	248.55208
224.583	236.48496
225.126	258.54977
225.668	201.48079
226.21	267.65831
226.751	252.54701
227.293	241.53127
227.835	274.65224
228.376	250.55284
228.918	232.56476
229.459	243.59231
230	274.63895
230.541	241.54039
231.082	279.65891
231.622	193.42938
232.163	212.50157
232.704	247.60385
233.244	267.64375
233.784	236.55813
234.324	314.67955
234.864	307.66625
235.404	213.49134
235.944	204.47161
236.484	251.61066
237.023	229.5274
237.563	210.47949
238.102	262.60183
238.641	218.53683
239.18	228.52373
239.719	247.60296
240.258	263.57296
240.797	261.60612
241.335	239.56686
241.874	296.55392
242.412	254.60162
242.95	315.73324
243.488	238.52059
244.026	290.65225
244.564	271.53941
245.102	319.69435
245.64	230.53636
246.177	234.50686
246.715	289.6714
247.252	237.5242
247.789	300.53173
248.326	249.58534
248.863	276.58812
249.4	290.63432
249.936	296.59754
250.473	356.80362
251.009	248.55277
251.546	298.64217
252.082	227.47856
252.618	265.57535
253.154	265.62003
253.69	305.65768
254.226	277.64327
254.761	270.58733
255.297	243.51679
255.832	295.67802
256.367	283.64342
256.903	325.69298
257.438	293.66291
257.972	258.55813
258.507	217.48778
259.042	246.52124
259.576	305.65062
260.111	251.56073
260.645	253.53126
261.179	304.68682
261.713	331.70975
262.247	237.52792
262.781	286.58213
263.315	288.67529
263.849	247.60385
264.382	311.68671
264.915	307.7008
265.449	285.67386
265.982	307.67107
266.515	331.77988
267.048	270.55457
267.58	297.61622
268.113	250.52624
268.646	263.62546
269.178	292.62951
269.71	345.72891
270.243	338.75053
270.775	358.88018
271.307	258.5962
271.838	326.73831
272.37	259.61761
272.902	313.681
273.433	301.64376
273.965	299.70148
274.496	274.659
275.027	301.72461
275.558	334.78312
276.089	310.74811
276.62	253.62151
277.15	285.67855
277.681	286.5938
278.211	303.71281
278.741	271.58437
279.272	305.67318
279.802	314.7526
280.332	323.73345
280.861	301.6943
281.391	341.74129
281.921	288.66577
282.45	319.76123
282.98	301.75927
283.509	355.77139
284.038	310.68379
284.567	336.75043
285.096	317.74138
285.625	273.5955
286.153	343.78643
286.682	315.69729
287.21	258.59785
287.739	311.70821
288.267	316.74237
288.795	285.72251
289.323	281.64068
289.851	326.73801
290.378	339.72251
290.906	320.75528
291.433	297.71688
291.961	352.76926
292.488	334.79595
293.015	352.79589
293.542	357.88112
294.069	371.87885
294.596	292.69081
295.122	366.83899
295.649	350.73056
296.175	353.8126
296.702	368.86046
297.228	319.73962
297.754	390.83174
298.28	380.83255
298.806	349.80628
299.332	357.76385
299.857	367.79576
300.383	351.84654
300.908	345.81538
301.433	385.90002
301.958	367.80221
302.483	328.78286
303.008	402.95097
303.533	343.85062
304.058	337.75375
304.582	385.86605
305.107	344.86134
305.631	389.83698
306.155	363.80854
306.679	351.79185
307.203	368.81611
307.727	396.8917
308.251	427.9966
308.775	404.93497
309.298	360.83185
309.822	355.85554
310.345	424.95903
310.868	431.98259
311.391	447.03541
311.914	388.92778
312.437	412.8916
312.96	431.95878
313.482	394.87994
314.005	437.02778
314.527	388.96304
315.049	471.11862
315.571	399.85333
316.093	487.12689
316.615	399.91002
317.137	460.93798
317.659	452.02858
318.18	402.90965
318.702	526.1402
319.223	435.83119
319.744	454.9598
320.265	478.09049
320.786	486.13724
321.307	459.06535
321.828	479.00744
322.348	519.13194
322.869	508.12592
323.389	831.3798
323.909	512.08336
324.43	516.14367
324.95	530.12053
325.47	529.21841
325.989	522.14883
326.509	564.15816
327.029	527.11394
327.548	530.10928
328.067	595.32259
328.587	649.47848
329.106	543.12575
329.625	601.43654
330.144	612.29531
330.662	585.25886
331.181	682.44491
331.7	570.21523
332.218	625.22444
332.736	623.32523
333.255	630.3474
333.773	631.35158
334.291	687.55
334.808	625.27699
335.326	663.33698
335.844	698.47112
336.361	693.61365
336.879	710.49382
337.396	749.62253
337.913	694.43579
338.43	754.49813
338.947	724.54333
339.464	710.35815
339.981	683.45616
340.497	710.56509
341.014	754.63233
341.53	762.51194
342.046	828.81622
342.562	796.75039
343.078	766.59269
343.594	780.63405
344.11	868.80017
344.626	827.83491
345.141	872.71603
345.657	866.68584
346.172	846.77789
346.687	849.68441
347.202	936.81368
347.717	838.74099
348.232	877.89674
348.747	914.80215
349.261	894.67372
349.776	912.85956
350.29	952.03934
350.805	932.97416
351.319	941.85589
351.833	975.88981
352.347	922.86128
352.861	997.96463
353.374	957.83372
353.888	1024.10159
354.401	974.86142
354.915	975.85122
355.428	1048.18654
355.941	1000.95076
356.454	1026.88552
356.967	958.88902
357.48	1033.93684
357.993	1020.1065
358.505	1055.13284
359.018	1097.21889
359.53	1139.27366
360.042	1122.03122
360.554	1185.34824
361.066	1049.12551
361.578	1123.00169
362.09	1070.10373
362.602	1160.07055
363.113	1198.25925
363.625	1207.17518
364.136	1192.07021
364.647	1171.24202
365.158	1226.26393
365.669	1205.30507
366.18	1207.26798
366.691	1201.07441
367.201	1215.3287
367.712	1242.24133
368.222	1247.26349
368.733	1218.07784
369.243	1267.20858
369.753	1292.31893
370.263	1367.55205
370.773	1304.49075
371.282	1377.52928
371.792	1456.52588
372.301	1418.61068
372.811	1486.98847
373.32	1451.31436
373.829	1495.61902
374.338	1569.50142
374.847	1638.69274
375.356	1596.72399
375.865	1688.48598
376.373	1759.74305
376.882	1836.23848
377.39	1828.02531
377.898	1895.15859
378.407	1972.88704
378.915	2089.80198
379.423	2096.05693
379.93	2251.13638
380.438	2282.30482
380.946	2434.20999
381.453	2544.40435
381.96	2629.40102
382.468	2810.34509
382.975	3004.60232
383.482	3065.06742
383.989	3074.91628
384.495	3232.28884
385.002	3379.64688
385.509	3573.35578
386.015	3886.30049
386.521	4125.8165
387.028	4160.78233
387.534	4223.36634
388.04	4400.06467
388.546	4459.43176
389.051	4667.29264
389.557	5115.36364
390.063	5439.01424
390.568	5642.33505
391.073	5891.69312
391.578	6134.21958
392.084	6266.70876
392.589	6507.37808
393.093	6900.90652
393.598	7611.86985
394.103	8288.5206
394.607	9074.64162
395.112	9779.15819
395.616	10429.05588
396.12	11228.40174
396.624	12393.3272
397.128	13430.03091
397.632	14937.01337
398.136	16161.89143
398.639	17247.90483
399.143	19267.48913
399.646	21704.16624
400.15	23876.17607
400.653	26613.47903
401.156	30122.62827
401.659	34712.2447
402.162	42423.67979
402.664	55646.35593
403.167	62720.75156
403.67	63769.22307
404.172	63919.58413
404.674	63858.43483
405.176	63738.15102
405.678	63977.72923
406.18	64011.81569
406.682	63863.44694
407.184	63926.60148
407.686	63841.39382
408.187	64025.8516
408.688	63892.51763
409.19	63833.37461
409.691	63977.72923
410.192	63945.6488
410.693	60137.79491
411.194	54493.58139
411.694	51350.81089
412.195	47775.72916
412.696	43181.71376
413.196	40020.84726
413.696	38928.52495
414.196	39136.40652
414.696	38549.93286
415.196	36689.75861
415.696	33877.40091
416.196	27514.49392
416.695	21238.6509
417.195	18003.77818
417.694	17034.95602
418.194	16135.29116
418.693	14922.37867
419.192	14361.80948
419.691	14181.46939
420.19	13816.01753
420.688	13360.32908
421.187	12935.31539
421.685	12114.82725
422.184	11151.91539
422.682	9621.81158
423.18	8112.22908
423.678	7183.67252
424.176	6629.62825
424.674	6284.53761
425.172	5965.97619
425.669	5698.3963
426.167	5214.25572
426.664	4729.37507
427.161	4433.62925
427.659	4034.20892
428.156	3859.44266
428.652	3589.65015
429.149	3433.41894
429.646	3474.86993
430.143	3160.37844
430.639	3040.31615
431.135	2771.62426
431.632	2644.09615
432.128	2481.31789
432.624	2407.6829
433.12	2279.99202
433.616	2272.81067
434.111	2155.11941
434.607	2010.06725
435.103	1970.50293
435.598	2029.50438
436.093	1928.89129
436.588	1842.69839
437.083	1773.63265
437.578	1696.69301
438.073	1597.89002
438.568	1530.75225
439.062	1512.27221
439.557	1374.40164
440.051	1358.26622
440.546	1349.28722
441.04	1327.42743
441.534	1281.513
442.028	1318.42475
442.522	1271.35369
443.015	1195.96078
443.509	1244.35536
444.002	1176.27913
444.496	1128.91041
444.989	1102.14957
445.482	1077.16453
445.975	1203.16024
446.468	1135.91455
446.961	1161.95224
447.454	992.80923
447.947	1099.10283
448.439	1065.12177
448.931	1048.93855
449.424	1044.18298
449.916	1094.15001
450.408	1048.92796
450.9	971.95269
451.392	939.00154
451.884	892.71269
452.375	919.91067
452.867	934.72898
453.358	931.76411
453.849	948.64967
454.341	902.69205
454.832	842.52273
455.323	920.92587
455.814	846.63125
456.304	880.70583
456.795	842.62197
457.285	783.46664
457.776	789.53465
458.266	778.58824
458.756	788.59559
459.247	827.68419
459.737	801.66295
460.226	839.61348
460.716	767.58168
461.206	727.5132
461.695	730.57429
462.185	750.54002
462.674	665.33426
463.163	781.49385
463.653	718.31457
464.142	719.5204
464.63	679.447
465.119	701.42084
465.608	699.42969
466.096	663.25494
466.585	623.25908
467.073	601.26395
467.561	616.31515
468.05	620.26418
468.538	682.4644
469.026	597.26324
469.513	623.15322
470.001	619.25956
470.489	601.27449
470.976	641.32275
471.463	541.2208
471.951	529.19368
472.438	552.16661
472.925	540.14769
473.412	504.11379
473.899	490.02315
474.385	470.05625
474.872	470.00301
475.359	505.13249
475.845	441.83694
476.331	444.86669
476.817	520.14921
477.303	495.0471
477.789	412.91139
478.275	482.09609
478.761	415.91439
479.247	432.8881
479.732	412.95764
480.218	421.02683
480.703	376.86812
481.188	386.77744
481.673	411.87671
482.158	379.76351
482.643	435.02981
483.128	399.86661
483.612	416.921
484.097	377.85084
484.581	387.83519
485.066	450.01618
485.55	370.7651
486.034	366.74157
486.518	391.8745
487.002	332.76259
487.486	306.70541
487.969	292.67582
488.453	293.69465
488.936	327.69482
489.42	319.66689
489.903	262.62488
490.386	208.41584
490.869	328.67795
491.352	294.67316
491.835	234.46001
492.318	257.55323
492.8	334.64979
493.283	307.74576
493.765	262.61577
494.247	299.66132
494.73	296.62224
495.212	215.49259
495.694	303.67883
496.175	277.6364
496.657	323.72363
497.139	195.32344
497.62	298.68231
498.102	257.61448
498.583	192.45795
499.064	239.51249
499.545	271.59013
500.026	264.57184
500.507	250.55238
500.988	264.63302
501.469	215.51839
501.949	251.59555
502.43	207.48377
502.91	302.60742
503.39	163.3948
503.87	215.492
504.35	187.42534
504.83	182.38732
505.31	144.34044
505.79	176.40543
506.269	184.4108
506.749	157.35103
507.228	194.44386
507.707	189.41018
508.187	231.53264
508.666	209.50221
509.145	165.37713
509.623	171.39084
510.102	182.42893
510.581	235.54683
511.059	185.45381
511.538	234.58258
512.016	237.54756
512.494	161.37849
512.972	174.40673
513.45	154.35206
513.928	164.39012
514.406	165.39589
514.884	198.49672
515.361	160.37489
515.839	200.44745
516.316	241.56477
516.793	169.41702
517.27	181.42434
517.747	179.4485
518.224	143.32356
518.701	157.33972
519.178	148.36366
519.654	159.36868
520.131	118.28855
520.607	139.33376
521.083	140.31167
521.56	148.34229
522.036	134.28703
522.512	194.46626
522.987	181.4255
523.463	148.34433
523.939	227.54525
524.414	188.41869
524.89	194.45045
525.365	105.23487
525.84	113.26855
526.315	154.36591
526.79	155.3427
527.265	211.47274
527.74	102.24515
528.215	122.2807
528.689	118.25538
529.164	122.25805
529.638	90.22628
530.112	127.29437
530.587	132.27823
531.061	133.31705
531.534	166.39138
532.008	163.38826
532.482	159.358
532.956	92.2328
533.429	207.49211
533.903	144.30992
534.376	129.28104
534.849	137.30985
535.322	152.35182
535.795	146.34623
536.268	172.4071
536.741	131.30628
537.213	98.22341
537.686	144.34636
538.158	164.36525
538.631	99.23772
539.103	126.28085
539.575	138.27935
540.047	137.2939
540.519	131.30844
540.991	153.36612
541.463	146.34503
541.934	111.24818
542.406	128.30343
542.877	153.33884
543.348	162.38343
543.82	127.3046
544.291	170.38832
544.762	116.27318
545.233	159.39551
545.703	95.21013
546.174	121.27734
546.645	167.39595
547.115	167.39504
547.585	147.33247
548.056	217.51846
548.526	170.39551
548.996	133.31364
549.466	162.38625
549.935	171.40043
550.405	178.38244
550.875	182.42259
551.344	147.3449
551.814	130.29432
552.283	197.41897
552.752	191.43726
553.221	186.40152
553.69	237.51829
554.159	213.51609
554.628	228.50124
555.096	186.46292
555.565	156.33921
556.033	242.55834
556.502	172.40678
556.97	164.35843
557.438	104.24254
557.906	169.39109
558.374	174.39554
558.842	139.32855
559.31	109.2424
559.777	164.39371
560.245	67.15382
560.712	130.2942
561.18	90.1987
561.647	100.22059
562.114	135.30558
562.581	146.35383
563.048	96.21885
563.514	140.34654
563.981	116.26337
564.448	143.31868
564.914	70.16254
565.381	104.23623
565.847	115.26539
566.313	101.2328
566.779	106.23696
567.245	111.25483
567.711	120.28425
568.176	113.25151
568.642	101.25243
569.108	136.32972
569.573	104.23891
570.038	77.16105
570.504	146.32502
570.969	100.2459
571.434	146.31949
571.899	98.23088
572.363	142.3211
572.828	159.35917
573.293	101.23011
573.757	142.32502
574.222	125.27729
574.686	195.43761
575.15	172.40584
575.614	200.46052
576.078	126.29245
576.542	148.33221
577.006	169.37459
577.469	151.36519
577.933	189.42083
578.396	134.3136
578.86	127.29553
579.323	167.39488
579.786	162.34536
580.249	209.47942
580.712	157.37497
581.175	109.2663
581.637	150.33683
582.1	159.34051
582.563	178.37007
583.025	142.34051
583.487	214.42784
583.95	174.3653
584.412	215.43851
584.874	212.50274
585.336	184.42673
585.797	179.38119
586.259	174.39874
586.721	151.3486
587.182	187.42104
587.643	218.48087
588.105	190.4382
588.566	186.37894
589.027	250.59124
589.488	202.45173
589.949	262.61265
590.41	289.54577
590.87	272.59797
591.331	338.69862
591.791	306.67581
592.252	316.70081
592.712	286.65642
593.172	305.66163
593.632	374.78065
594.092	368.77051
594.552	322.66167
595.011	357.77078
595.471	455.95202
595.931	392.82802
596.39	432.96478
596.849	376.82274
597.308	391.77645
597.768	489.16366
598.227	515.12889
598.685	550.13038
599.144	556.18432
599.603	544.15068
600.062	621.15238
600.52	635.2687
600.978	635.33204
601.437	690.37016
601.895	719.32733
602.353	751.41351
602.811	924.72064
603.269	835.6874
603.727	859.74546
604.184	924.74104
604.642	928.90845
605.099	1069.00112
605.557	1054.07705
606.014	1112.86496
606.471	1141.29127
606.928	1258.11097
607.385	1331.5528
607.842	1332.27941
608.299	1376.38513
608.755	1470.6064
609.212	1509.37374
609.668	1495.39724
610.125	1578.70163
610.581	1647.66544
611.037	1604.46792
611.493	1632.63434
611.949	1719.88045
612.405	1722.23729
612.861	1750.67657
613.316	1795.87526
613.772	1851.73552
614.227	1862.9431
614.683	1913.47234
615.138	1831.81436
615.593	1883.80857
616.048	1894.75748
616.503	1884.99848
616.958	1906.15578
617.412	1941.94461
617.867	1921.68525
618.321	1901.3663
618.776	1899.60735
619.23	1809.78975
619.684	1847.62361
620.138	1916.76645
620.592	1795.92028
621.046	1782.80402
621.5	1722.82433
621.954	1721.50249
622.407	1705.49097
622.861	1708.84572
623.314	1669.54598
623.768	1665.70082
624.221	1601.04582
624.674	1616.57489
625.127	1508.49509
625.58	1520.38915
626.033	1551.32939
626.485	1447.52661
626.938	1538.60766
627.39	1514.52014
627.843	1459.41675
628.295	1455.41271
628.747	1453.52263
629.199	1485.40114
629.651	1404.3422
630.103	1420.36006
630.555	1354.04589
631.006	1392.37128
631.458	1393.41032
631.909	1310.17021
632.361	1321.2683
632.812	1352.31382
633.263	1347.12054
633.714	1360.06235
634.165	1374.44668
634.616	1349.37309
635.067	1412.22306
635.518	1367.40241
635.968	1415.90668
636.419	1566.33473
636.869	1407.44362
637.319	1482.45712
637.769	1510.38007
638.219	1548.57715
638.669	1570.62539
639.119	1564.64214
639.569	1604.69136
640.019	1666.60908
640.468	1745.55954
640.918	1720.75156
641.367	1768.56955
641.816	1833.58564
642.265	1901.82576
642.714	1918.76264
643.163	2007.852
643.612	2130.19553
644.061	2092.56597
644.51	2143.88571
644.958	2123.71156
645.406	2182.09749
645.855	2250.20829
646.303	2268.97222
646.751	2314.99889
647.199	2441.93094
647.647	2384.03777
648.095	2442.95995
648.543	2452.41953
648.99	2451.23641
649.438	2573.0587
649.885	2561.48167
650.333	2544.23749
650.78	2583.30599
651.227	2626.38917
651.674	2532.9853
652.121	2533.37931
652.568	2636.39822
653.015	2636.45185
653.461	2585.21258
653.908	2543.01473
654.354	2579.2178
654.801	2546.1285
655.247	2536.71928
655.693	2514.71595
656.139	2573.22732
656.585	2536.22271
657.031	2498.12996
657.477	2589.77257
657.922	2466.94481
658.368	2541.38389
658.813	2504.95263
659.259	2546.31163
659.704	2557.19118
660.149	2565.03795
660.594	2511.18208
661.039	2572.97931
661.484	2581.18562
661.929	2544.10452
662.373	2529.50166
662.818	2592.43362
663.262	2550.29538
663.707	2625.61703
664.151	2633.35964
664.595	2723.33165
665.039	2713.48285
665.483	2733.64394
665.927	2723.15267
666.371	2771.17762
666.814	2887.23511
667.258	2967.3296
667.701	3028.61297
668.145	3040.53381
668.588	3156.5032
669.031	3091.16756
669.474	2995.29545
669.917	3150.73622
670.36	3187.5499
670.803	3317.31158
671.245	3306.31743
671.688	3368.3468
672.13	3383.87083
672.573	3552.57536
673.015	3525.24938
673.457	3569.57096
673.899	3658.22925
674.341	3597.21807
674.783	3636.17058
675.225	3661.35532
675.666	3792.27296
676.108	3776.44093
676.549	3892.86997
676.991	3911.47163
677.432	3945.87084
677.873	3989.688
678.314	4065.94453
678.755	4099.20081
679.196	4215.58486
679.637	4166.93407
680.078	4223.73087
680.518	4320.55529
680.959	4319.81701
681.399	4359.09749
681.839	4463.88828
682.28	4478.07228
682.72	4475.44284
683.16	4622.02571
683.6	4737.25866
684.039	4686.66896
684.479	4689.90341
684.919	4950.38339
685.358	5085.738
685.798	5069.13724
686.237	5092.39427
686.676	5285.90792
687.115	5299.19177
687.554	5443.23142
687.993	5482.66228
688.432	5560.82714
688.871	5645.82298
689.309	5780.07905
689.748	5946.11734
690.186	6051.78145
690.625	6039.82094
691.063	6143.88787
691.501	6232.12131
691.939	6406.20671
692.377	6532.89273
692.815	6568.95156
693.253	6878.73748
693.69	6854.28245
694.128	6931.86499
694.565	7040.71997
695.003	7161.21493
695.44	7334.78413
695.877	7282.73354
696.314	7517.37122
696.751	7517.6453
697.188	7697.84852
697.625	7749.74005
698.061	7858.08959
698.498	8046.18064
698.934	8110.28077
699.371	8155.26904
699.807	8469.62921
700.243	8427.64428
700.679	8522.56944
701.115	8836.13845
701.551	8889.22177
701.987	8945.26416
702.422	9164.76516
702.858	9383.21727
703.294	9600.7383
703.729	9665.87891
704.164	9817.27853
704.599	9867.50619
705.035	9971.81279
705.47	10132.15929
705.904	10385.09237
706.339	10611.95111
706.774	10774.50391
707.209	10871.92074
707.643	11047.52982
708.078	11225.21909
708.512	11469.15262
708.946	11608.19604
709.38	11850.42657
709.814	11915.17318
710.248	12130.73132
710.682	12399.46659
711.116	12693.15953
711.549	12674.56749
711.983	12833.68295
712.416	13190.85872
712.85	13297.10535
713.283	13482.10057
713.716	13833.15881
714.149	13809.97027
714.582	14042.34154
715.015	14219.49984
715.448	14501.46965
715.881	14454.75321
716.313	14660.21816
716.746	15097.11112
717.178	15400.81565
717.61	15606.73842
718.043	15768.05097
718.475	16103.98692
718.907	16325.79168
719.339	16530.27188
719.77	16835.52751
720.202	17067.18307
720.634	17265.0145
721.065	17603.24355
721.497	17815.88765
721.928	18191.72616
722.359	18452.16749
722.79	18712.09149
723.221	19004.99583
723.652	19134.02803
724.083	19649.68037
724.514	19852.89766
724.945	20243.86047
725.375	20597.90647
725.806	20494.87025
726.236	20955.25529
726.666	21202.383
727.096	21847.57367
727.526	22219.19877
727.956	22536.65814
728.386	22716.14166
728.816	23149.95874
729.246	23620.97627
729.675	23767.5311
730.105	24040.37448
730.534	24386.78515
730.964	24645.36943
731.393	25272.72482
731.822	25676.95244
732.251	25994.50984
732.68	26452.33603
733.109	26729.14823
733.537	27085.99562
733.966	27607.0593
734.395	27983.75509
734.823	28391.75477
735.251	28528.38005
735.68	28864.71884
736.108	28879.54988
736.536	29020.75849
736.964	29505.45126
737.392	29715.06511
737.82	29778.82898
738.247	30124.61607
738.675	30388.72149
739.102	30602.66644
739.53	30502.8854
739.957	30752.37134
740.384	30795.44171
740.811	31282.70031
741.238	31510.17636
741.665	31431.21339
742.092	30966.10906
742.519	31583.6606
742.945	31458.84278
743.372	31680.5918
743.798	31749.70578
744.225	31536.1862
744.651	31426.00508
745.077	31753.26811
745.503	31870.03321
745.929	31774.99921
746.355	31571.00801
746.781	31523.3425
747.207	31418.91316
747.632	31056.39296
748.058	31326.81712
748.483	31382.21409
748.908	31649.25746
749.334	31311.1269
749.759	30896.63237
750.184	30734.73864
750.609	30506.08168
751.033	30804.19489
751.458	30570.69366
751.883	30570.67713
752.307	30386.65889
752.732	30062.30217
753.156	29994.51571
753.58	30050.09442
754.005	29547.15812
754.429	29398.73797
754.853	29164.93765
755.277	28846.41441
755.7	28773.5115
756.124	28406.08987
756.548	28519.76331
756.971	28289.19325
757.394	28238.36785
757.818	27808.76343
758.241	27850.70448
758.664	27445.81908
759.087	27307.03194
759.51	27012.99099
759.933	26780.42743
760.356	26695.42299
760.778	26381.77784
761.201	25944.46667
761.623	25274.78737
762.046	25412.22112
762.468	25330.35972
762.89	25130.01853
763.312	24699.79326
763.734	24482.2007
764.156	24073.64819
764.578	23962.61341
765	23430.84544
765.421	23376.47058
765.843	22863.24145
766.264	22555.14169
766.686	22183.2207
767.107	21707.00692
767.528	21848.03677
767.949	21558.36837
768.37	21279.01686
768.791	20731.34658
769.212	20422.2301
769.632	20401.22361
770.053	20110.76126
770.473	19811.17007
770.894	19304.59697
771.314	18907.44655
771.734	18690.83207
772.154	18480.47616
772.575	18406.41442
772.994	17988.4244
773.414	17820.025
773.834	17640.50082
774.254	17254.32021
774.673	17123.60736
775.093	16769.01024
775.512	16266.55968
775.931	16247.74028
776.351	16048.95704
776.77	15613.72376
777.189	15480.07975
777.607	15061.51115
778.026	14878.26027
778.445	14634.65494
778.864	14370.44283
779.282	14051.73854
779.701	13860.35858
780.119	13660.61708
780.537	13389.8729
780.955	13182.19036
781.373	12934.75685
781.791	12747.40971
782.209	12452.59802
782.627	12305.16973
783.045	12033.95315
783.462	11824.85047
783.88	11759.41095
784.297	11468.20493
784.715	11247.06968
785.132	11093.77868
785.549	10668.91762
785.966	10601.65165
786.383	10452.17845
786.8	10226.5925
787.217	9920.57809
787.633	9831.2919
788.05	9654.88461
788.466	9446.3587
788.883	9391.29204
789.299	9168.7504
789.715	9075.60363
790.131	8660.98162
790.547	8583.88294
790.963	8391.63235
791.379	8194.52255
791.795	8012.92439
792.21	7775.82004
792.626	7639.7826
793.041	7505.94446
793.457	7407.88824
793.872	7245.55893
794.287	7132.7642
794.702	6980.721
795.117	6672.94486
795.532	6611.04453
795.947	6433.61419
796.362	6327.53793
796.776	6152.46551
797.191	6017.98635
797.605	5838.83966
798.02	5746.02338
798.434	5556.49984
798.848	5495.37525
799.262	5372.38152
799.676	5210.32535
800.09	5060.47159
800.504	4864.43515
800.918	4793.09667
801.331	4530.09937
801.745	4522.21649
802.158	4296.94542
802.572	4398.72621
802.985	4177.73411
803.398	4087.73041
803.811	3966.21736
804.224	3864.06869
804.637	3767.92687
805.05	3680.67372
805.462	3600.12228
805.875	3439.65531
806.288	3324.16772
806.7	3157.34331
807.112	3196.81657
807.525	3072.18402
807.937	2965.33684
808.349	2911.34756
808.761	2896.30883
809.173	2772.20974
809.584	2710.25035
809.996	2597.20638
810.408	2580.61584
810.819	2477.9742
811.231	2483.74344
811.642	2368.24804
812.053	2398.15459
812.464	2184.90382
812.875	2179.3271
813.286	2173.38678
813.697	2060.65968
814.108	2013.93492
814.519	2015.59559
814.929	1904.07412
815.34	1749.69606
815.75	1809.04147
816.16	1727.77913
816.571	1708.98596
816.981	1658.50904
817.391	1663.60954
817.801	1543.66719
818.211	1508.44882
818.62	1453.46199
819.03	1436.47274
819.44	1363.5595
819.849	1287.36459
820.259	1303.43578
820.668	1335.39825
821.077	1268.36494
821.486	1232.14898
821.895	1177.14892
822.304	1089.26968
822.713	1104.96646
823.122	1080.08275
823.531	1044.86695
823.939	1025.9614
824.348	992.87762
824.756	954.89518
825.164	946.89496
825.573	939.89347
825.981	924.8236
826.389	842.7299
826.797	847.77804
827.205	819.53268
827.612	791.59985
828.02	715.38588
828.428	762.6223
828.835	720.62879
829.243	710.39813
829.65	697.47962
830.057	677.37713
830.464	681.423
830.871	697.40564
831.278	591.2287
831.685	654.20922
832.092	552.15897
832.499	538.01271
832.905	559.22395
833.312	503.97325
833.718	555.21467
834.124	526.0411
834.531	520.13724
834.937	486.11144
835.343	472.99436
835.749	493.98769
836.155	446.04796
836.561	496.07461
836.966	413.89968
837.372	429.97409
837.777	389.87863
838.183	466.89712
838.588	412.92583
838.993	420.91435
839.399	390.86309
839.804	305.68275
840.209	382.89423
840.613	341.67969
841.018	324.7466
841.423	357.83589
841.828	339.78785
842.232	344.75909
842.637	344.74351
843.041	275.65701
843.445	278.63806
843.849	285.65295
844.253	313.67464
844.657	311.7245
845.061	323.67645
845.465	267.59474
845.869	275.5851
846.272	259.58647
846.676	208.45958
847.079	223.53503
847.483	227.52571
847.886	251.55841
848.289	237.60149
848.692	199.46909
849.095	188.42025
849.498	241.55858
849.901	230.48201
850.304	238.52542
850.707	210.49934
851.109	214.50297
851.512	213.48997
851.914	139.33528
852.316	217.51965
852.718	220.54753
853.121	209.47846
853.523	159.3461
853.925	164.4101
854.326	174.41295
854.728	148.36258
855.13	155.38332
855.531	142.32136
855.933	145.3246
856.334	175.4146
856.736	186.39204
857.137	133.29492
857.538	127.30611
857.939	172.40647
858.34	135.30757
858.741	163.40192
859.142	135.30458
859.542	178.44768
859.943	136.32003
860.343	73.17482
860.744	138.31828
861.144	197.45389
861.544	139.32077
861.945	91.22174
862.345	128.29498
862.745	131.31144
863.145	109.2421
863.544	108.26135
863.944	90.20244
864.344	110.25633
864.743	100.23614
865.143	146.35927
865.542	77.1679
865.941	140.32944
866.34	128.28578
866.74	96.24784
867.139	128.29462
867.537	68.16455
867.936	126.28863
868.335	70.17067
868.734	104.25451
869.132	67.14671
869.531	73.16665
869.929	96.20892
870.327	58.1334
870.726	120.28095
871.124	88.19396
871.522	46.11266
871.92	89.20972
872.318	89.20596
872.715	95.22063
873.113	43.10026
873.511	54.12895
873.908	87.21421
874.306	82.19709
874.703	43.10262
875.1	48.11659
875.497	57.13049
875.894	98.23366
876.291	77.1813
876.688	65.16163
877.085	67.15265
877.482	69.16562
877.878	80.18679
878.275	80.19549
878.671	47.09669
879.068	65.15018
879.464	36.08379
879.86	58.13142
880.256	78.1809
880.652	84.20457
881.048	55.12945
881.444	40.09008
881.84	53.12953
882.236	45.10892
882.631	78.18426
883.027	61.14089
883.422	50.12241
883.817	74.17995
884.213	97.23813
884.608	89.21346
885.003	44.10108
885.398	54.13023
885.793	64.15353
886.188	30.07191
886.582	88.21383
886.977	103.2302
887.371	32.07761
887.766	46.11098
888.16	49.11551
888.554	54.12727
888.949	93.2228
889.343	81.18782
889.737	52.13541
890.131	91.21818
890.525	70.17327
890.918	33.08014
891.312	79.17824
891.706	21.05334
892.099	65.15833
892.492	66.13428
892.886	56.13116
893.279	37.0908
893.672	67.16515
894.065	92.22028
894.458	37.08881
894.851	68.15827
895.244	38.09368
895.637	91.20959
896.029	67.15806
896.422	43.09971
896.814	64.15207
897.206	79.18231
897.599	86.20277
897.991	75.1746
898.383	50.11362
898.775	124.26711
899.167	88.1985
899.559	28.06786
899.951	41.09186
900.342	42.10194
900.734	61.1492
901.125	25.06312
901.517	68.16027
901.908	71.15993
902.299	46.10858
902.69	38.08708
903.082	49.11398
903.473	71.16542
903.863	39.09546
904.254	97.21652
904.645	19.04507
905.036	82.19379
905.426	33.07131
905.817	-1.00236
906.207	-9.02056
906.597	67.15141
906.987	2.005
907.378	59.14436
907.768	18.04641
908.158	32.07501
908.547	62.15655
908.937	-20.04942
909.327	64.14843
909.717	25.0603
910.106	32.07363
910.495	15.0358
910.885	73.17782
911.274	6.01452
911.663	14.0341
912.052	49.1147
912.441	51.12599
912.83	35.07648
913.219	30.0757
913.608	59.13924
913.997	42.10259
914.385	40.09185
914.774	47.10967
915.162	52.12036
915.55	47.10825
915.939	36.08849
916.327	10.02397
916.715	62.15448
917.103	60.13888
917.491	52.12308
917.878	56.13173
918.266	36.08983
918.654	94.23157
919.041	43.11003
919.429	20.0455
919.816	14.03434
920.203	71.16646
920.591	62.14783
920.978	70.16395
921.365	60.15237
921.752	-2.00454
922.139	92.18871
922.525	39.0905
922.912	57.13269
923.299	32.07688
923.685	-2.00503
924.072	-14.03046
924.458	37.08881
924.844	44.10487
925.231	15.03332
925.617	48.11908
926.003	27.0665
926.389	-16.0393
926.774	47.11423
927.16	66.1567
927.546	58.14499
927.931	66.1567
928.317	21.04616
928.702	43.09706
929.088	88.20296
929.473	82.20156
929.858	47.1114
930.243	53.12343
930.628	41.0971
931.013	60.14295
931.398	7.01524
931.783	15.0379
932.167	87.20524
932.552	19.04588
932.937	44.10435
933.321	61.14836
933.705	-19.04611
934.09	27.06444
934.474	25.05654
934.858	21.05294
935.242	58.12794
935.626	56.13877
936.009	43.11188
936.393	52.12933
936.777	63.15615
937.16	45.11405
937.544	6.01341
937.927	0
938.311	64.14831
938.694	90.22896
939.077	7.01621
939.46	15.03474
939.843	4.0078
940.226	11.02721
940.609	71.15737
940.991	7.01717
941.374	57.13458
941.757	56.13193
942.139	33.07141
942.522	36.08111
942.904	59.13583
943.286	60.14585
943.668	95.23812
944.05	47.1114
944.432	18.04274
944.814	12.02827
945.196	22.05225
945.578	55.12763
945.959	-3.00672
946.341	41.09473
946.722	80.17743
947.104	76.17333
947.485	41.09152
947.866	62.15139
948.247	56.1373
948.628	40.09178
949.009	25.06196
949.39	27.06439
949.771	-23.0506
950.152	40.0946
950.532	66.16038
950.913	55.12683
951.293	30.07943
951.674	33.07682
952.054	83.20059
952.434	69.16436
952.814	7.01588
953.194	7.01755
953.574	81.18931
953.954	-5.01136
954.334	74.17833
954.714	51.11999
955.093	43.10156
955.473	45.10965
955.853	22.05521
956.232	21.05587
956.611	20.04556
956.99	15.03667
957.37	8.01963
957.749	1.00227
958.128	44.10752
958.506	17.04287
958.885	33.08002
959.264	57.13593
959.643	111.24008
960.021	26.0627
960.4	40.08661
960.778	37.08624
961.156	27.06505
961.535	34.07516
961.913	87.1946
962.291	25.06296
962.669	38.09341
963.047	64.15784
963.424	83.20579
963.802	54.12776
964.18	37.08861
964.557	64.13958
964.935	25.05691
965.312	46.11636
965.69	30.07169
966.067	-9.02099
966.444	29.06743
966.821	57.14159
967.198	49.11245
967.575	60.14015
967.952	54.12121
968.329	24.05672
968.705	103.20932
969.082	110.27298
969.458	56.1307
969.835	41.09586
970.211	56.13994
970.587	68.16251
970.963	28.06875
971.339	26.06612
971.715	72.17246
972.091	33.07815
972.467	-7.01668
972.843	77.1851
973.219	40.09111
973.594	13.03303
973.97	38.08425
974.345	47.10842
974.721	13.02988
975.096	62.14487
975.471	71.15973
975.846	22.0505
976.221	48.11755
976.596	56.13096
976.971	88.20877
977.346	45.09929
977.72	4.00983
978.095	27.06743
978.469	41.09337
978.844	80.19082
979.218	38.08904
979.593	18.04133
979.967	36.08257
980.341	112.24457
980.715	22.05374
981.089	49.11775
981.463	13.02874
981.837	94.22154
982.21	7.01524
982.584	70.16228
982.957	57.1376
983.331	10.02242
983.704	46.1101
984.078	22.05221
984.451	11.02598
984.824	37.08732
985.197	26.05977
985.57	-12.02874
985.943	36.08379
986.316	41.095
986.688	73.16746
987.061	73.16356
987.434	46.11731
987.806	8.01844
988.179	15.03394
988.551	25.06094
988.923	4.00947
989.295	59.14043
989.667	45.10488
990.039	40.09687
990.411	-6.01311
990.783	32.06952
991.155	41.09511
991.527	46.10635
991.898	15.03635
992.27	74.17691
992.641	21.0505
993.012	12.02643
993.384	13.02973
993.755	75.18432
994.126	37.08634
994.497	47.11079
994.868	43.09316
995.239	31.072
995.61	25.06083
995.98	35.08158
996.351	26.06261
996.722	40.09005
997.092	60.13656
997.462	14.03195
997.833	5.01132
998.203	20.04594
998.573	56.13439
998.943	48.10836
999.313	57.13154
999.683	61.14049
1000.053	-50.10928
1000.423	29.06722
1000.792	-20.04992
1001.162	23.05416
1001.531	53.12557
1001.901	18.04308
1002.27	1.0021
1002.639	31.07579
1003.009	-1.00229
1003.378	40.0988
1003.747	13.02937
1004.116	31.07111
1004.485	23.05285
1004.853	9.02174
1005.222	-10.02401
1005.591	68.1532
1005.959	52.1123
1006.328	62.13332
1006.696	7.01623
1007.064	12.02889
1007.433	30.07158
1007.801	16.03717
1008.169	5.01209
1008.537	64.13425
1008.905	40.08997
1009.273	8.01894
1009.64	42.09749
1010.008	29.06623
1010.375	60.1364
1010.743	14.03
1011.11	78.1794
1011.478	43.10306
1011.845	48.10717
1012.212	72.15676
1012.579	47.11092
1012.946	24.05418
1013.313	56.12596
1013.68	42.08946
1014.047	20.04585
1014.414	16.0363
1014.78	63.15059
1015.147	41.09375
1015.513	13.0302
1015.88	-21.05186
1016.246	51.11891
1016.612	68.14635
1016.978	54.12767
1017.344	13.03111
1017.71	61.141
1018.076	45.10024
1018.442	69.17077
1018.808	51.12367
1019.174	-6.0145
1019.539	18.03791
1019.905	16.03655
1020.27	-13.03106
1020.636	37.08375
1021.001	58.13313
1021.366	35.08113
1021.731	72.18012
1022.096	8.01975
1022.461	42.09548
1022.826	127.28677
1023.191	52.13149
1023.556	48.10677
1023.92	38.08876
1024.285	2.00466
1024.649	12.02817
1025.014	28.06589
1025.378	14.03427
1025.742	25.05923
1026.107	23.04962
1026.471	62.13671
1026.835	17.04067
1027.199	11.02561
1027.562	9.01989
1027.926	53.12314
1028.29	53.12891
1028.654	25.05484
1029.017	72.16943
1029.381	61.13965
1029.744	45.11051
1030.107	76.17081
1030.471	78.17875
1030.834	16.03429
1031.197	71.16261
1031.56	49.10974
1031.923	14.03514
1032.286	75.16721
1032.648	49.11024
1033.011	49.10906
1033.374	36.07998
1033.736	39.09916
1034.099	22.05169
1034.461	20.04925
1034.823	22.05312
1035.185	18.0433
1035.548	54.12643
1035.91	52.11874
1036.272	62.13499
1036.634	62.14476
1036.995	42.09354
1037.357	-11.02609
1037.719	46.1074
1038.08	127.28642
1038.442	36.0817
1038.803	3.00683
1039.165	6.01457
1039.526	48.11115
1039.887	53.12099
1040.248	78.18676
1040.609	31.07276
1040.97	22.05157
1041.331	67.16369
1041.692	74.16754
1042.053	55.11825
1042.413	14.03112
1042.774	75.17418
1043.134	8.01808
1043.495	36.08702
1043.855	69.16158
1044.215	60.14152
1044.576	32.07404
1044.936	75.1618
1045.296	60.14322
1045.656	16.03739
1046.016	60.13728
1046.375	43.09994
1046.735	73.16019
1047.095	84.18646
1047.454	44.08719
1047.814	54.1242
1048.173	-14.03184
1048.533	3.00661
1048.892	6.01397
1049.251	23.05519
1049.61	10.02381
1049.969	63.14086
1050.328	49.1008
1050.687	44.1018
1051.046	20.04666
1051.405	3.00714
1051.763	103.22621
1052.122	-5.01206
1052.48	14.03323
1052.839	104.23546
1053.197	53.11885
1053.555	9.01922
1053.914	48.11198
1054.272	-2.00456
1054.63	52.12208
1054.988	66.15101
1055.345	2.00406
1055.703	88.20142
1056.061	30.07543
1056.419	65.16434
1056.776	9.02065
1057.134	-17.03729
1057.491	21.05075
1057.848	59.13957
1058.206	0
1058.563	45.09399
1058.92	59.12859
1059.277	47.1111
1059.634	58.12789
1059.991	78.1781
1060.348	60.12947
1060.704	80.18583
1061.061	36.07821
1061.418	35.08161
1061.774	28.06653
1062.131	59.15266
1062.487	9.02011
1062.843	20.04803
1063.199	52.12403
1063.555	45.10062
1063.911	47.11316
1064.267	92.17625
1064.623	26.06152
1064.979	-4.00878
1065.335	32.07257
1065.691	8.01816
1066.046	58.12042
1066.402	30.06465
1066.757	55.13322
1067.112	30.07038
1067.468	55.12586
1067.823	-23.0524
1068.178	43.0988
1068.533	59.13648
1068.888	6.01373
1069.243	63.14863
1069.598	25.05795
1069.952	86.18756
1070.307	21.05041
1070.662	84.19204
1071.016	60.1298
1071.371	55.11977
1071.725	52.11749
1072.079	52.11984
1072.434	69.16057
1072.788	30.06745
1073.142	75.17604
1073.496	-3.00685
1073.85	12.02666
1074.203	76.1757
1074.557	50.12993
1074.911	74.16638
1075.265	29.06447
1075.618	55.12854
1075.971	80.18031
1076.325	77.18868
1076.678	11.02419
1077.031	-4.00851
1077.385	64.1327
1077.738	21.04523
1078.091	18.03967
1078.444	60.13058
1078.796	41.09721
1079.149	45.10764
1079.502	4.00919
1079.855	35.07822
1080.207	68.15914
1080.56	47.11777
1080.912	76.17563
1081.264	60.13855
1081.617	43.10089
1081.969	38.09289
1082.321	52.12094
1082.673	40.08875
1083.025	41.09235
1083.377	307.65119
1083.728	-7.01565
1084.08	9.02155
1084.432	29.06682
1084.783	4.00882
1085.135	51.12325
1085.486	27.05957
1085.838	75.1768
1086.189	69.16126
1086.54	25.057
1086.891	92.2264
1087.242	86.20293
1087.593	10.02306
1087.944	76.16456
1088.295	85.1818
1088.646	109.25525
1088.996	28.06527
1089.347	2.00471
1089.698	64.14596
1090.048	14.03496
1090.398	40.08787
1090.749	11.02507
1091.099	54.1321
1091.449	76.18148
1091.799	32.07706
1092.149	67.15855
1092.499	32.07501
1092.849	-9.02226
1093.199	72.17055
1093.548	63.1462
1093.898	31.0743
1094.248	4.00985
1094.597	50.12449
1094.947	45.1162
1095.296	42.10018
1095.645	29.07248
1095.994	38.08743
1096.343	22.05364
1096.692	39.10074
1097.041	64.16996
1097.39	22.05286
1097.739	28.07025
1098.088	27.0695
1098.437	51.13123
1098.785	-30.07844
1099.134	-15.03814
1099.482	62.1653
1099.83	39.09899
1100.179	98.24931
1100.527	-13.03325
1100.875	51.13114
1101.223	54.13931
1101.571	-39.10541
1101.919	32.08284
1102.267	9.02497
1102.615	1.00321
1102.962	-13.04177
1103.31	9.02889
1103.658	-11.03531
