Data from N3 R1 sample 10_Subt2__3__15-14-16-071.txt Node

Date: Wed Sep 17 15:14:16 PDT 2025
User: uwsun
Spectrometer: HDX01956
Trigger mode: 0
Integration Time (sec): 5.000000E-1
Scans to average: 1
Nonlinearity correction enabled: true
Boxcar width: 0
Storing dark spectrum: false
XAxis mode: Wavelengths
Number of Pixels in Spectrum: 2068
>>>>>Begin Spectral Data<<<<<
194.03	112.31982
194.578	136.43518
195.127	126.39785
195.676	121.38371
196.225	141.36772
196.773	125.34255
197.321	232.62607
197.87	317.7853
198.418	318.79367
198.966	361.91511
199.513	340.83409
200.061	324.79661
200.609	335.85404
201.156	341.71604
201.704	288.70577
202.251	322.82943
202.798	322.80801
203.345	384.90945
203.892	330.80627
204.438	314.72039
204.985	339.7757
205.532	328.83458
206.078	323.76221
206.624	391.93834
207.17	353.79539
207.716	359.84649
208.262	352.6659
208.808	371.8951
209.354	399.94187
209.899	331.80465
210.445	317.76889
210.99	357.83785
211.535	396.88915
212.08	354.78834
212.625	362.86795
213.17	372.90986
213.715	379.82703
214.259	402.89224
214.804	355.83543
215.348	320.71529
215.892	398.92109
216.436	328.72046
216.98	343.72119
217.524	363.83228
218.068	352.85488
218.612	380.92562
219.155	351.79638
219.698	336.769
220.242	336.79734
220.785	361.81141
221.328	274.65875
221.871	380.92562
222.414	316.75364
222.956	260.60559
223.499	308.66058
224.041	289.63787
224.583	347.69519
225.126	276.58582
225.668	326.76108
226.21	317.77437
226.751	344.73205
227.293	337.72792
227.835	329.77486
228.376	315.6871
228.918	266.6434
229.459	329.789
230	341.78467
230.541	331.72842
231.082	369.8562
231.622	246.54127
232.163	315.73035
232.704	340.81676
233.244	312.74582
233.784	316.73571
234.324	322.69567
234.864	327.70662
235.404	322.72659
235.944	303.68665
236.484	333.79767
237.023	310.70237
237.563	333.74143
238.102	345.77927
238.641	340.81831
239.18	265.60421
239.719	318.76596
240.258	329.70668
240.797	381.86372
241.335	297.69652
241.874	393.71783
242.412	354.82221
242.95	388.89012
243.488	268.58248
244.026	378.8348
244.564	358.69814
245.102	356.76879
245.64	310.7115
246.177	317.67445
246.715	377.86055
247.252	304.66297
247.789	303.53663
248.326	346.79792
248.863	342.7183
249.4	338.7318
249.936	410.80602
250.473	376.84529
251.009	329.72098
251.546	419.87942
252.082	320.66083
252.618	339.7244
253.154	373.85417
253.69	342.7316
254.226	337.7733
254.761	337.72262
255.297	348.72316
255.832	355.8061
256.367	360.80568
256.903	345.73243
257.438	342.76604
257.972	338.71866
258.507	316.69585
259.042	355.73425
259.576	406.84706
260.111	310.68407
260.645	316.65432
261.179	318.71639
261.713	396.8372
262.247	329.71885
262.781	364.72773
263.315	287.67307
263.849	370.88374
264.382	367.80085
264.915	384.86292
265.449	367.85391
265.982	396.84929
266.515	376.87812
267.048	342.69104
267.58	329.67773
268.113	345.71101
268.646	359.83794
269.178	312.66974
269.71	397.82921
270.243	405.88675
270.775	379.92818
271.307	354.80237
271.838	405.90245
272.37	339.79593
272.902	349.75351
273.433	439.91082
273.965	366.84739
274.496	357.84504
275.027	384.90981
275.558	424.97657
276.089	425.00105
276.62	328.79452
277.15	359.84254
277.681	354.72382
278.211	366.85041
278.741	394.82714
279.272	379.82353
279.802	380.89929
280.332	391.87558
280.861	372.84589
281.391	390.83895
281.921	349.79698
282.45	391.92013
282.98	402.9956
283.509	415.89023
284.038	424.91286
284.567	395.87142
285.096	428.9791
285.625	365.78062
286.153	393.89201
286.682	392.85376
287.21	376.85083
287.739	354.79911
288.267	393.90934
288.795	364.90975
289.323	386.86137
289.851	438.96889
290.378	393.82777
290.906	418.96774
291.433	423.99656
291.961	444.9514
292.488	393.92591
293.015	419.93441
293.542	470.13355
294.069	452.05177
294.596	402.93071
295.122	465.04264
295.649	462.94035
296.175	422.958
296.702	446.02472
297.228	417.948
297.754	388.82783
298.28	485.03709
298.806	425.96696
299.332	435.91501
299.857	492.03642
300.383	432.02368
300.908	453.04602
301.433	452.0406
301.958	470.00301
302.483	425.99544
303.008	513.18527
303.533	439.06723
304.058	452.98692
304.582	457.0108
305.107	456.11627
305.631	495.03887
306.155	436.95642
306.679	476.04436
307.203	450.98089
307.727	475.05025
308.251	506.1605
308.775	561.25568
309.298	486.09271
309.822	479.12498
310.345	512.13527
310.868	523.16811
311.391	535.21804
311.914	509.18672
312.437	512.08241
312.96	494.08256
313.482	439.97131
314.005	503.16811
314.527	501.21548
315.049	532.24892
315.571	502.04779
316.093	598.3537
316.615	537.18856
317.137	608.19641
317.659	554.23516
318.18	505.1167
318.702	579.24112
319.223	546.01369
319.744	587.20303
320.265	592.31999
320.786	637.44704
321.307	590.33449
321.828	618.26066
322.348	607.29955
322.869	646.39119
323.389	917.48715
323.909	629.29737
324.43	648.39729
324.95	635.31211
325.47	690.53873
325.989	625.3462
326.509	742.4633
327.029	733.48037
327.548	684.3835
328.067	713.54646
328.587	750.67399
329.106	664.33992
329.625	687.61534
330.144	737.51771
330.662	745.54864
331.181	761.58474
331.7	737.51499
332.218	786.48205
332.736	781.60482
333.255	780.61464
333.773	762.58647
334.291	796.75624
334.808	821.6038
335.326	800.56308
335.844	861.75032
336.361	864.94434
336.879	870.76663
337.396	848.7985
337.913	922.81115
338.43	868.67934
338.947	909.86056
339.464	922.67452
339.981	855.75545
340.497	920.93942
341.014	885.86275
341.53	892.7168
342.046	969.06112
342.562	970.0539
343.078	951.89666
343.594	958.92873
344.11	1047.08392
344.626	1030.18771
345.141	1017.93391
345.657	995.87827
346.172	1049.10526
346.687	952.84385
347.202	1101.04908
347.717	1081.12391
348.232	1110.28039
348.747	1129.11377
349.261	1080.93051
349.776	1133.19405
350.29	1146.35339
350.805	1170.34906
351.319	1175.19045
351.833	1183.1794
352.347	1167.22364
352.861	1154.18981
353.374	1172.12957
353.888	1217.39056
354.401	1191.15713
354.915	1174.1214
355.428	1225.45685
355.941	1255.30101
356.454	1297.22334
356.967	1270.32222
357.48	1273.24694
357.993	1301.52014
358.505	1267.43905
359.018	1345.56865
359.53	1369.58957
360.042	1328.28098
360.554	1405.64374
361.066	1285.46555
361.578	1319.23487
362.09	1378.51666
362.602	1406.35447
363.113	1431.54799
363.625	1417.4199
364.136	1450.35131
364.647	1480.6269
365.158	1445.52573
365.669	1470.63582
366.18	1446.56101
366.691	1444.3376
367.201	1470.64786
367.712	1478.51064
368.222	1513.56568
368.733	1496.36722
369.243	1683.6232
369.753	1596.64759
370.263	1698.91773
370.773	1569.80919
371.282	1688.86538
371.792	1686.75263
372.301	1770.98018
372.811	1808.37173
373.32	1755.56666
373.829	1801.91078
374.338	1898.75504
374.847	1933.92886
375.356	1966.0356
375.865	2061.70991
376.373	2144.99041
376.882	2222.54403
377.39	2241.30961
377.898	2297.43044
378.407	2438.09699
378.915	2513.93965
379.423	2576.24758
379.93	2759.27942
380.438	2785.46318
380.946	2944.29329
381.453	3028.47665
381.96	3270.43056
382.468	3386.31164
382.975	3638.52615
383.482	3717.90265
383.989	3801.8323
384.495	3956.07584
385.002	4165.3066
385.509	4376.02925
386.015	4627.90054
386.521	4843.42951
387.028	5053.29301
387.534	5178.83432
388.04	5414.50263
388.546	5407.90597
389.051	5752.72044
389.557	6132.87798
390.063	6668.608
390.568	6840.95611
391.073	7166.55847
391.578	7527.13352
392.084	7618.83911
392.589	7739.72668
393.093	8458.72711
393.598	9193.8109
394.103	10144.19025
394.607	11059.44193
395.112	11829.90513
395.616	12679.86586
396.12	13704.83906
396.624	15198.58394
397.128	16167.13251
397.632	18356.8615
398.136	19728.87411
398.639	20894.72995
399.143	23300.03964
399.646	26093.64658
400.15	29022.83901
400.653	32158.85155
401.156	36355.48795
401.659	42466.21039
402.162	51462.61036
402.664	60586.58044
403.167	63939.78289
403.67	63769.22307
404.172	63919.58413
404.674	63858.43483
405.176	63738.15102
405.678	63977.72923
406.18	64011.81569
406.682	63863.44694
407.184	63926.60148
407.686	63841.39382
408.187	64025.8516
408.688	63892.51763
409.19	63833.37461
409.691	63977.72923
410.192	63945.6488
410.693	63713.09355
411.194	63725.16496
411.694	61301.50899
412.195	57284.88144
412.696	51542.54133
413.196	47569.81669
413.696	46392.97165
414.196	46869.02704
414.696	46454.93914
415.196	44284.86976
415.696	40044.09148
416.196	32538.99915
416.695	25304.05595
417.195	21493.7946
417.694	20463.78722
418.194	19162.28145
418.693	17885.55478
419.192	17381.59982
419.691	17104.59061
420.19	16542.34537
420.688	16001.01796
421.187	15558.80136
421.685	14644.61672
422.184	13370.9065
422.682	11343.22778
423.18	9728.05012
423.678	8580.75584
424.176	7891.00887
424.674	7412.61979
425.172	7185.8046
425.669	6781.03788
426.167	6267.7874
426.664	5799.81218
427.161	5299.14544
427.659	4815.80877
428.156	4653.02033
428.652	4361.36195
429.149	4197.14996
429.646	4101.61177
430.143	3786.23297
430.639	3619.21138
431.135	3340.64278
431.632	3240.0793
432.128	3002.40028
432.624	2921.85299
433.12	2769.09772
433.616	2738.88951
434.111	2510.26497
434.607	2479.29602
435.103	2426.63999
435.598	2406.609
436.093	2261.0724
436.588	2143.86716
437.083	2034.79437
437.578	2050.94226
438.073	1902.18317
438.568	1840.05527
439.062	1781.47031
439.557	1737.75649
440.051	1641.53355
440.546	1572.50978
441.04	1584.71484
441.534	1573.87785
442.028	1539.67838
442.522	1464.58373
443.015	1406.17435
443.509	1435.59304
444.002	1452.63249
444.496	1384.18485
444.989	1346.47644
445.482	1341.53401
445.975	1368.35503
446.468	1337.1336
446.961	1308.11241
447.454	1295.1834
447.947	1276.33906
448.439	1297.44708
448.931	1190.12321
449.424	1195.41632
449.916	1275.40079
450.408	1154.06613
450.9	1159.22962
451.392	1138.32232
451.884	1094.99973
452.375	1102.19714
452.867	1091.94174
453.358	1098.99699
453.849	1045.77268
454.341	1080.93843
454.832	1031.77616
455.323	1039.11667
455.814	993.84801
456.304	990.86927
456.795	976.82035
457.285	981.74906
457.776	996.84308
458.266	990.92485
458.756	920.80722
459.247	953.88573
459.737	932.87891
460.226	968.80451
460.716	908.81374
461.206	878.7667
461.695	849.78459
462.185	887.76562
462.674	836.61194
463.163	855.60648
463.653	841.49271
464.142	824.70276
464.63	764.59839
465.119	807.59651
465.608	823.63656
466.096	760.40492
466.585	778.51717
467.073	724.48189
467.561	722.50644
468.05	704.4084
468.538	708.5118
469.026	677.40776
469.513	678.23806
470.001	714.42184
470.489	715.47896
470.976	706.43588
471.463	685.50081
471.951	664.4575
472.438	638.32332
472.925	600.2588
473.412	549.20202
473.899	609.23862
474.385	551.21807
474.872	527.11102
475.359	534.19051
475.845	615.11628
476.331	496.95626
476.817	520.14921
477.303	532.11642
477.789	508.09925
478.275	480.09198
478.761	488.0568
479.247	519.04425
479.732	488.11513
480.218	515.23453
480.703	436.99459
481.188	499.97891
481.673	463.97647
482.158	455.9006
482.643	488.14371
483.128	530.11711
483.612	487.06024
484.097	408.91496
484.581	443.94455
485.066	414.94366
485.55	433.88273
486.034	388.78219
486.518	396.88477
487.002	379.86233
487.486	423.95229
487.969	325.74726
488.453	338.79435
488.936	350.73996
489.42	381.78555
489.903	318.75027
490.386	273.53757
490.869	386.78746
491.352	299.68392
491.835	340.6517
492.318	302.6438
492.8	326.63544
493.283	337.81401
493.765	315.73266
494.247	274.60919
494.73	285.60057
495.212	227.51883
495.694	309.69142
496.175	288.66022
496.657	306.68795
497.139	287.46398
497.62	290.66507
498.102	279.66427
498.583	208.49458
499.064	247.52873
499.545	236.51774
500.026	291.62668
500.507	252.55656
500.988	317.75241
501.469	203.49057
501.949	251.59555
502.43	318.72693
502.91	262.53182
503.39	259.61595
503.87	241.5486
504.35	284.63326
504.83	246.51622
505.31	230.53467
505.79	173.39876
506.269	170.38065
506.749	190.42192
507.228	224.50939
507.707	243.52129
508.187	271.61988
508.666	239.57101
509.145	170.38817
509.623	207.46969
510.102	244.5681
510.581	244.56676
511.059	245.59429
511.538	221.55152
512.016	247.56953
512.494	206.48001
512.972	206.4785
513.45	155.35427
513.928	198.46791
514.406	229.54273
514.884	219.54732
515.361	233.53811
515.839	242.53671
516.316	230.54015
516.793	188.46228
517.27	196.45815
517.747	207.51602
518.224	187.41931
518.701	181.38963
519.178	221.53567
519.654	232.53015
520.131	142.34569
520.607	155.37105
521.083	130.29001
521.56	168.387
522.036	193.40814
522.512	221.52842
522.987	231.53773
523.463	213.48918
523.939	257.61378
524.414	200.44431
524.89	200.46383
525.365	119.26541
525.84	158.37223
526.315	189.44604
526.79	232.50467
527.265	221.49412
527.74	158.3757
528.215	123.28295
528.689	122.26381
529.164	187.3899
529.638	162.40202
530.112	156.3595
530.587	177.36938
531.061	143.34023
531.534	175.41188
532.008	198.46845
532.482	197.4401
532.956	156.39024
533.429	195.46465
533.903	199.42322
534.376	172.3713
534.849	211.47001
535.322	160.36975
535.795	136.32314
536.268	166.39336
536.741	140.32675
537.213	211.47001
537.686	182.43459
538.158	184.40809
538.631	141.33586
539.103	154.34127
539.575	218.43321
540.047	131.2814
540.519	152.35642
540.991	197.46744
541.463	169.3976
541.934	118.26345
542.406	180.42241
542.877	168.3709
543.348	173.4086
543.82	168.39978
544.291	233.52546
544.762	226.5208
545.233	235.57644
545.703	199.43059
546.174	207.46626
546.645	199.4689
547.115	202.47458
547.585	206.4603
548.056	251.59578
548.526	249.57025
548.996	209.48557
549.466	245.57481
549.935	266.61126
550.405	260.54873
550.875	256.58569
551.344	224.51764
551.814	252.55633
552.283	284.59254
552.752	329.73222
553.221	279.59025
553.69	365.77657
554.159	281.67211
554.628	328.7059
555.096	354.85393
555.565	317.66565
556.033	371.83388
556.502	291.67231
556.97	317.67034
557.438	259.58552
557.906	280.63363
558.374	329.72432
558.842	321.73187
559.31	340.71977
559.777	333.7736
560.245	283.62149
560.712	311.6778
561.18	311.65478
561.647	319.67132
562.114	325.70711
562.581	339.79158
563.048	375.80652
563.514	406.9556
563.981	413.88097
564.448	380.80514
564.914	381.82999
565.381	461.97097
565.847	426.9219
566.313	400.86675
566.779	420.87782
567.245	461.98377
567.711	444.98544
568.176	474.97575
568.642	503.16259
569.108	501.12857
569.573	481.0192
570.038	535.00384
570.504	586.18338
570.969	558.2528
571.434	587.16289
571.899	593.25969
572.363	618.25952
572.828	686.38058
573.293	568.16953
573.757	694.40952
574.222	664.30557
574.686	697.40049
575.15	691.46304
575.614	758.54807
576.078	695.42856
576.542	663.32841
577.006	685.35294
577.469	670.45836
577.933	713.41294
578.396	652.36805
578.86	677.40151
579.323	696.47396
579.786	648.23397
580.249	764.5547
580.712	646.39535
581.175	680.48077
581.637	650.30743
582.1	666.26831
582.563	645.19998
583.025	640.38592
583.487	623.12624
583.95	597.13475
584.412	669.22252
584.874	679.46202
585.336	640.34756
585.797	657.25205
586.259	612.27667
586.721	601.26062
587.182	636.29802
587.643	611.23479
588.105	654.36621
588.566	628.14947
589.027	699.50641
589.488	660.33428
589.949	749.58114
590.41	713.20618
590.87	695.39005
591.331	760.42103
591.791	641.31446
592.252	787.57214
592.712	709.48681
593.172	806.55995
593.632	881.63109
594.092	868.61537
594.552	851.53943
595.011	793.55048
595.471	939.75337
595.931	939.74474
596.39	948.88936
596.849	1004.90407
597.308	947.63709
597.768	1045.22008
598.227	1092.10394
598.685	1085.96483
599.144	1185.18202
599.603	1161.12705
600.062	1245.95986
600.52	1296.19864
600.978	1317.35136
601.437	1330.25301
601.895	1453.20278
602.353	1507.32325
602.811	1607.49918
603.269	1578.65597
603.727	1753.85284
604.184	1751.65085
604.642	1859.03968
605.099	1919.86824
605.557	2044.12545
606.014	2013.58947
606.471	2181.36867
606.928	2256.82084
607.385	2322.43921
607.842	2452.02412
608.299	2568.14825
608.755	2605.3531
609.212	2685.9202
609.668	2724.98244
610.125	2806.35633
610.581	2798.19345
611.037	2898.94
611.493	2940.169
611.949	2989.43688
612.405	3050.42313
612.861	3022.07627
613.316	3186.31502
613.772	3278.01622
614.227	3267.32743
614.683	3240.57405
615.138	3258.16482
615.593	3311.08816
616.048	3372.98392
616.503	3272.38618
616.958	3355.5928
617.412	3341.22907
617.867	3334.85858
618.321	3315.40363
618.776	3302.76901
619.23	3343.13533
619.684	3314.83853
620.138	3354.98074
620.592	3197.38506
621.046	3266.20684
621.5	3135.33769
621.954	3169.81485
622.407	3099.82788
622.861	3112.39456
623.314	3062.96591
623.768	3042.22536
624.221	2999.24663
624.674	3016.0912
625.127	3011.12771
625.58	3060.9156
626.033	2965.77856
626.485	2909.29977
626.938	3001.27345
627.39	3013.16141
627.843	2986.07648
628.295	3029.07327
628.747	3054.27863
629.199	3222.9696
629.651	3121.02882
630.103	3072.03748
630.555	3265.51121
631.006	3293.08169
631.458	3272.16232
631.909	3408.81773
632.361	3397.00612
632.812	3635.95683
633.263	3707.52071
633.714	3785.33503
634.165	3825.12602
634.616	3938.97855
635.067	4082.43117
635.518	4181.88646
635.968	4360.60706
636.419	4514.14871
636.869	4685.60986
637.319	4910.33605
637.769	5063.02915
638.219	5209.2848
638.669	5410.23132
639.119	5641.15954
639.569	5854.08007
640.019	6021.75177
640.468	6285.48486
640.918	6430.8015
641.367	6727.42421
641.816	6942.4025
642.265	7306.73033
642.714	7526.73342
643.163	7805.93674
643.612	8006.33276
644.061	8195.06902
644.51	8384.46641
644.958	8734.90209
645.406	8964.41053
645.855	9141.75263
646.303	9350.13557
646.751	9765.15695
647.199	9842.39654
647.647	9906.54678
648.095	10012.89069
648.543	10088.43077
648.99	10426.10744
649.438	10320.85092
649.885	10481.20339
650.333	10564.43076
650.78	10662.92892
651.227	10612.70745
651.674	10748.46859
652.121	10671.91302
652.568	10695.00231
653.015	10578.55783
653.461	10525.48353
653.908	10545.66994
654.354	10351.88166
654.801	10253.59265
655.247	10093.26269
655.693	9984.68223
656.139	9897.49132
656.585	9734.05377
657.031	9693.95818
657.477	9575.70754
657.922	9437.33609
658.368	9227.93231
658.813	9131.66301
659.259	9093.66195
659.704	8951.37396
660.149	8734.96694
660.594	8627.8718
661.039	8545.66193
661.484	8359.52591
661.929	8139.2493
662.373	8056.47323
662.818	7964.33593
663.262	7855.15903
663.707	7790.38308
664.151	7647.07972
664.595	7544.99457
665.039	7463.10606
665.483	7350.23342
665.927	7345.761
666.371	7299.76539
666.814	7184.78462
667.258	7159.86724
667.701	7105.24123
668.145	6945.05268
668.588	6949.02495
669.031	6853.6947
669.474	6784.81716
669.917	6761.30181
670.36	6770.08616
670.803	6873.86037
671.245	6546.96675
671.688	6567.93595
672.13	6494.48885
672.573	6435.23771
673.015	6483.89224
673.457	6391.28245
673.899	6370.9382
674.341	6460.88672
674.783	6335.88313
675.225	6291.08782
675.666	6245.06369
676.108	6234.26951
676.549	6151.73988
676.991	6160.37132
677.432	6123.86011
677.873	6014.65298
678.314	5953.95866
678.755	5969.22011
679.196	5846.72448
679.637	5822.0515
680.078	5694.93678
680.518	5666.82711
680.959	5677.07863
681.399	5509.4637
681.839	5481.32324
682.28	5517.49565
682.72	5385.93694
683.16	5349.61722
683.6	5357.91496
684.039	5185.39726
684.479	5252.58591
684.919	5156.26743
685.358	5157.69721
685.798	5114.1117
686.237	5064.41005
686.676	4949.09299
687.115	5079.31342
687.554	5062.44077
687.993	4924.95773
688.432	4941.1572
688.871	4917.20795
689.309	4921.53557
689.748	4922.5739
690.186	4761.42937
690.625	4827.42983
691.063	4793.56078
691.501	4830.8246
691.939	4875.95232
692.377	4812.67193
692.815	4839.73174
693.253	4834.51392
693.69	4772.96599
694.128	4782.70084
694.565	4843.47349
695.003	4786.12342
695.44	4727.54212
695.877	4866.41352
696.314	4814.6924
696.751	4788.18136
697.188	4872.29967
697.625	4787.09166
698.061	4858.54168
698.498	4740.50546
698.934	4801.55625
699.371	4825.43096
699.807	4875.42012
700.243	4859.59755
700.679	4729.09658
701.115	4783.38205
701.551	4871.30024
701.987	4803.91537
702.422	4846.52187
702.858	4886.49325
703.294	4920.18622
703.729	4936.60761
704.164	4943.45792
704.599	5093.90549
705.035	5073.94439
705.47	5062.52114
705.904	5117.13578
706.339	5118.07237
706.774	5220.15952
707.209	5221.11867
707.643	5177.34075
708.078	5198.45356
708.512	5290.65305
708.946	5324.17827
709.38	5382.17626
709.814	5286.87669
710.248	5482.34642
710.682	5480.20912
711.116	5502.3063
711.549	5408.72912
711.983	5538.88788
712.416	5634.03928
712.85	5576.38363
713.283	5695.96445
713.716	5729.30969
714.149	5612.86061
714.582	5733.61297
715.015	5701.23801
715.448	5769.42711
715.881	5781.3066
716.313	5828.8246
716.746	5999.85215
717.178	5873.01496
717.61	6083.36225
718.043	6075.12214
718.475	6184.95899
718.907	6130.18377
719.339	6144.51834
719.77	6181.86982
720.202	6165.19351
720.634	6388.98207
721.065	6357.6988
721.497	6448.93999
721.928	6337.95267
722.359	6492.89823
722.79	6473.78206
723.221	6513.01643
723.652	6594.17244
724.083	6524.38339
724.514	6697.49554
724.945	6662.60604
725.375	6753.59903
725.806	6806.91798
726.236	6771.18153
726.666	6781.63848
727.096	6948.86527
727.526	6984.23343
727.956	7015.48951
728.386	7073.88428
728.816	7029.18336
729.246	7083.93935
729.675	6931.84329
730.105	7078.8661
730.534	7173.60952
730.964	7203.00243
731.393	7150.88184
731.822	7246.17415
732.251	7281.13163
732.68	7372.63308
733.109	7348.97096
733.537	7411.94608
733.966	7372.0542
734.395	7507.69507
734.823	7485.48978
735.251	7397.83139
735.68	7438.98228
736.108	7354.03858
736.536	7332.67247
736.964	7398.64927
737.392	7384.04618
737.82	7409.7953
738.247	7431.79367
738.675	7284.66871
739.102	7188.99578
739.53	7305.22819
739.957	7310.26995
740.384	7257.78997
740.811	7147.96476
741.238	7137.89381
741.665	7146.65383
742.092	6946.47742
742.519	7023.95947
742.945	7122.83911
743.372	7002.96356
743.798	6904.15971
744.225	6837.63595
744.651	6775.00228
745.077	6690.99176
745.503	6564.7811
745.929	6682.80828
746.355	6600.82402
746.781	6497.91301
747.207	6456.71352
747.632	6353.05505
748.058	6282.18638
748.483	6315.52055
748.908	6334.07174
749.334	6259.02027
749.759	6092.83467
750.184	5990.95506
750.609	5915.08496
751.033	5870.74455
751.458	5898.44153
751.883	5841.14614
752.307	5700.89203
752.732	5669.57414
753.156	5570.28586
753.58	5501.98502
754.005	5355.54698
754.429	5366.12401
754.853	5249.56637
755.277	5222.20764
755.7	5109.60578
756.124	5102.6279
756.548	4980.28767
756.971	4967.54516
757.394	4829.0034
757.818	4891.06481
758.241	4772.00133
758.664	4665.99866
759.087	4609.18704
759.51	4483.8895
759.933	4534.73477
760.356	4497.28768
760.778	4424.90298
761.201	4278.83223
761.623	4145.77835
762.046	4188.624
762.468	4158.82036
762.89	4008.03058
763.312	4145.01682
763.734	3958.98399
764.156	3895.18608
764.578	3789.64191
765	3778.12701
765.421	3682.52795
765.843	3620.72713
766.264	3425.01949
766.686	3410.34903
767.107	3451.1859
767.528	3442.63577
767.949	3382.52731
768.37	3267.39464
768.791	3180.15194
769.212	3093.52349
769.632	3146.03505
770.053	3114.76213
770.473	2998.20327
770.894	2927.32657
771.314	2854.0662
771.734	2731.00291
772.154	2796.55852
772.575	2760.93253
772.994	2744.83853
773.414	2635.09266
773.834	2601.36315
774.254	2528.22495
774.673	2604.27579
775.093	2458.33553
775.512	2365.25094
775.931	2376.4033
776.351	2381.31476
776.77	2295.19348
777.189	2288.00877
777.607	2177.33166
778.026	2148.18532
778.445	2044.22505
778.864	2056.20234
779.282	2013.88011
779.701	1980.10501
780.119	1938.13316
780.537	1903.00883
780.955	1903.07673
781.373	1870.94923
781.791	1826.5796
782.209	1790.50738
782.627	1825.21647
783.045	1749.51291
783.462	1656.90649
783.88	1637.95234
784.297	1662.85094
784.715	1552.84139
785.132	1544.5551
785.549	1549.7029
785.966	1473.64859
786.383	1503.62083
786.8	1448.33629
787.217	1431.42838
787.633	1365.53084
788.05	1346.23144
788.466	1346.23387
788.883	1346.57733
789.299	1238.1753
789.715	1268.30001
790.131	1280.37217
790.547	1229.30943
790.963	1211.26775
791.379	1154.2544
791.795	1118.89239
792.21	1054.88391
792.626	1024.87431
793.041	1075.06173
793.457	1002.94729
793.872	1012.83465
794.287	1033.96818
794.702	959.84992
795.117	940.89678
795.532	858.79048
795.947	927.75225
796.362	877.64628
796.776	897.63767
797.191	852.71354
797.605	806.57929
798.02	780.57434
798.434	834.49137
798.848	810.68202
799.262	732.53273
799.676	772.56743
800.09	693.44555
800.504	698.42217
800.918	681.30981
801.331	675.48198
801.745	681.30227
802.158	646.37213
802.572	654.35233
802.985	617.26518
803.398	585.19892
803.811	556.22479
804.224	566.2093
804.637	514.07953
805.05	537.06912
805.462	534.14132
805.875	517.19547
806.288	507.08516
806.7	459.01734
807.112	450.91426
807.525	447.96754
807.937	448.99472
808.349	443.98669
808.761	447.98818
809.173	405.88862
809.584	409.90457
809.996	330.73855
810.408	388.92495
810.819	384.81539
811.231	428.03986
811.642	431.96513
812.053	460.00029
812.464	383.8177
812.875	373.87505
813.286	359.85535
813.697	331.68277
814.108	382.83869
814.519	397.79757
814.929	341.79406
815.34	291.64202
815.75	287.68279
816.16	268.61018
816.571	288.69135
816.981	272.58338
817.391	258.57053
817.801	273.63148
818.211	279.61039
818.62	253.56846
819.03	241.54772
819.44	237.5684
819.849	208.48601
820.259	201.47821
820.668	209.48422
821.077	236.55294
821.486	185.41227
821.895	232.52523
822.304	193.48235
822.713	186.41029
823.122	234.54332
823.531	152.33459
823.939	204.46805
824.348	197.44555
824.756	173.40638
825.164	163.38572
825.573	159.37815
825.981	141.32953
826.389	149.3541
826.797	185.44522
827.205	180.3904
827.612	135.31427
828.02	137.30252
828.428	165.39709
828.835	151.38134
829.243	129.28902
829.65	136.32426
830.057	153.34872
830.464	188.43618
830.871	192.43256
831.278	128.29392
831.685	138.28844
832.092	101.23345
832.499	160.32968
832.905	100.24044
833.312	107.22667
833.718	172.40741
834.124	161.34643
834.531	76.18204
834.937	121.29748
835.343	110.25016
835.749	90.19712
836.155	97.24384
836.561	90.2122
836.966	114.26408
837.372	104.25167
837.777	73.17549
838.183	147.30473
838.588	132.31364
838.993	135.31167
839.399	93.21855
839.804	82.19198
840.209	129.31692
840.613	123.2576
841.018	67.16229
841.423	103.25314
841.828	103.25051
842.232	94.21827
842.637	151.33985
843.041	51.12705
843.445	74.17678
843.849	91.2166
844.253	132.29556
844.657	46.11274
845.061	189.40756
845.465	71.16457
845.869	123.27036
846.272	73.17155
846.676	32.0733
847.079	112.27439
847.483	105.24905
847.886	86.19787
848.289	90.23436
848.692	43.10443
849.095	73.16706
849.498	108.25691
849.901	44.096
850.304	66.15095
850.707	85.20697
851.109	98.23554
851.512	34.081
851.914	17.04195
852.316	120.29268
852.718	50.12828
853.121	33.07821
853.523	58.12896
853.925	70.17802
854.326	92.22179
854.728	44.10987
855.13	68.17085
855.531	71.163
855.933	52.11864
856.334	46.11169
856.736	79.17043
857.137	64.14395
857.538	55.13437
857.939	92.22078
858.34	55.12733
858.741	64.16068
859.142	87.19821
859.542	64.16425
859.943	69.16449
860.343	44.10595
860.744	61.14285
861.144	50.11858
861.544	62.14527
861.945	49.12034
862.345	38.08914
862.745	49.11833
863.145	70.15674
863.544	61.14892
863.944	60.13579
864.344	34.08041
864.743	87.20596
865.143	96.23842
865.542	16.03534
865.941	84.19982
866.34	66.14924
866.74	56.14558
867.139	74.17217
867.537	-3.00736
867.936	66.15301
868.335	45.11023
868.734	60.14803
869.132	28.06182
869.531	11.02543
869.929	55.12074
870.327	17.03942
870.726	63.14915
871.124	73.1614
871.522	6.0148
871.92	64.15154
872.318	60.13965
872.715	33.07758
873.113	36.08405
873.511	58.1384
873.908	69.17046
874.306	48.11611
874.703	20.04794
875.1	41.09972
875.497	52.11917
875.894	23.05563
876.291	79.18594
876.688	9.02261
877.085	53.12109
877.482	71.17036
877.878	99.23029
878.275	53.13016
878.671	58.11902
879.068	72.16613
879.464	34.07917
879.86	24.05476
880.256	4.00941
880.652	48.11768
881.048	50.1178
881.444	41.09232
881.84	41.10043
882.236	35.08487
882.631	79.18659
883.027	79.1818
883.422	9.0222
883.817	38.09303
884.213	14.0349
884.608	92.22053
885.003	6.01389
885.398	76.18253
885.793	30.07243
886.188	14.03366
886.582	37.09077
886.977	12.02732
887.371	6.01462
887.766	-4.00974
888.16	12.02849
888.554	45.10624
888.949	80.19213
889.343	48.11203
889.737	22.05758
890.131	44.10644
890.525	62.1537
890.918	6.01465
891.312	28.06383
891.706	15.03814
892.099	33.08086
892.492	57.11621
892.886	45.10563
893.279	46.1127
893.672	46.11383
894.065	38.09192
894.458	18.04336
894.851	51.1191
895.244	13.0322
895.637	63.14591
896.029	30.07128
896.422	-1.00234
896.814	63.14972
897.206	69.15955
897.599	65.15388
897.991	34.07979
898.383	65.14725
898.775	81.17609
899.167	54.12266
899.559	36.08712
899.951	50.11182
900.342	17.04146
900.734	64.15645
901.125	41.10321
901.517	71.16724
901.908	70.15771
902.299	5.0119
902.69	118.26607
903.082	94.21671
903.473	56.13085
903.863	23.05646
904.254	49.11046
904.645	47.11088
905.036	84.19844
905.426	50.10766
905.817	40.0938
906.207	-48.11053
906.597	44.0999
906.987	63.15563
907.378	71.17333
907.768	40.10273
908.158	52.12141
908.547	68.17152
908.937	-3.00739
909.327	31.07237
909.717	51.12242
910.106	33.07591
910.495	33.07849
910.885	75.18262
911.274	53.12712
911.663	44.10656
912.052	41.09612
912.441	60.14798
912.83	89.19225
913.219	28.07068
913.608	39.0924
913.997	30.07344
914.385	73.16652
914.774	11.02585
915.162	56.12952
915.55	68.15596
915.939	31.07627
916.327	32.07639
916.715	45.11247
917.103	56.12972
917.491	67.15812
917.878	39.09204
918.266	39.09726
918.654	88.21703
919.041	57.14549
919.429	38.08614
919.816	64.15552
920.203	58.13633
920.591	55.13131
920.978	75.17549
921.365	61.15488
921.752	20.04521
922.139	24.04999
922.525	32.07436
922.912	21.04923
923.299	15.03616
923.685	-19.04793
924.072	27.05822
924.458	87.20684
924.844	19.0455
925.231	8.0178
925.617	38.09444
926.003	49.1202
926.389	29.07064
926.774	32.07799
927.16	89.21037
927.546	44.11027
927.931	13.03118
928.317	34.07453
928.702	69.15491
929.088	80.1848
929.473	118.28812
929.858	63.14886
930.243	53.12343
930.628	92.21573
931.013	57.13588
931.398	55.1185
931.783	32.0806
932.167	80.18899
932.552	2.00485
932.937	45.1067
933.321	35.08554
933.705	21.05058
934.09	18.04303
934.474	10.02269
934.858	57.14277
935.242	17.03782
935.626	42.10435
936.009	28.07304
936.393	86.21257
936.777	37.09214
937.16	53.13414
937.544	31.06894
937.927	57.13998
938.311	68.15746
938.694	71.18123
939.077	54.12385
939.46	10.02318
939.843	21.04079
940.226	17.04201
940.609	87.19219
940.991	28.06842
941.374	31.07356
941.757	54.12727
942.139	31.06711
942.522	29.06543
942.904	12.02789
943.286	9.02209
943.668	78.19611
944.05	67.15819
944.432	37.08753
944.814	36.08442
945.196	-2.00477
945.578	67.15511
945.959	37.08225
946.341	4.00931
946.722	27.06054
947.104	47.10782
947.485	55.12242
947.866	42.10294
948.247	53.13002
948.628	22.05066
949.009	10.02485
949.39	57.13515
949.771	-7.01535
950.152	60.14136
950.532	96.23196
950.913	24.05568
951.293	20.05304
951.674	16.03737
952.054	75.18153
952.434	59.14081
952.814	1.00227
953.194	1.00251
953.574	73.17088
953.954	-20.04559
954.334	74.17833
954.714	18.04262
955.093	29.06868
955.473	25.06115
955.853	37.09261
956.232	46.12187
956.611	42.09524
956.99	32.07799
957.37	16.0392
957.749	-4.00908
958.128	44.10752
958.506	20.05041
958.885	18.04377
959.264	41.09808
959.643	87.18914
960.021	43.10337
960.4	45.09733
960.778	24.05608
961.156	-21.05106
961.535	47.10361
961.913	78.1748
962.291	7.01769
962.669	25.0616
963.047	45.11137
963.424	29.07261
963.802	23.05474
964.18	-2.00483
964.557	21.04622
964.935	19.04331
965.312	18.04576
965.69	49.11667
966.067	37.08552
966.444	51.11807
966.821	68.16857
967.198	17.03926
967.575	57.13322
967.952	77.17202
968.329	75.17549
968.705	122.24685
969.082	93.23151
969.458	25.0587
969.835	74.1719
970.211	60.14983
970.587	32.077
970.963	26.06386
971.339	24.06106
971.715	45.10834
972.091	40.0946
972.467	25.05921
972.843	21.05102
973.219	44.10014
973.594	50.12621
973.97	-2.00447
974.345	32.07404
974.721	11.02529
975.096	36.08455
975.471	-4.00914
975.846	7.01612
976.221	-1.00247
976.596	98.22728
976.971	92.21809
977.346	50.1102
977.72	56.13633
978.095	63.15632
978.469	31.07074
978.844	73.17435
979.218	61.14229
979.593	50.11408
979.967	-5.01156
980.341	66.14553
980.715	63.15271
981.089	43.10345
981.463	19.04196
981.837	31.07396
982.21	44.09502
982.584	44.10253
982.957	8.01949
983.331	16.03583
983.704	108.25543
984.078	34.08051
984.451	7.01655
984.824	61.14329
985.197	39.08943
985.57	13.03099
985.943	7.01639
986.316	43.09959
986.688	85.19452
987.061	76.17017
987.434	62.15767
987.806	2.00462
988.179	4.00907
988.551	78.18825
988.923	16.0378
989.295	38.09081
989.667	80.18517
990.039	69.16619
990.411	26.05644
990.783	35.07599
991.155	34.07898
991.527	42.09718
991.898	52.12512
992.27	45.10818
992.641	30.07202
993.012	-11.02434
993.384	17.03884
993.755	33.08173
994.126	58.13478
994.497	-11.02622
994.868	45.09746
995.239	-4.00935
995.61	11.02683
995.98	-38.08984
996.351	-6.01454
996.722	29.06543
997.092	0
997.462	18.04105
997.833	48.10774
998.203	22.05052
998.573	78.1864
998.943	109.24301
999.313	60.13838
999.683	45.10397
1000.053	21.04521
1000.423	64.14731
1000.792	-41.10273
1001.162	23.05416
1001.531	46.10913
1001.901	49.11658
1002.27	19.03979
1002.639	0
1003.009	38.08642
1003.378	19.04711
1003.747	-21.04777
1004.116	10.02304
1004.485	45.10294
1004.853	-25.06078
1005.222	0
1005.591	35.07939
1005.959	40.08661
1006.328	28.06065
1006.696	-39.09122
1007.064	0
1007.433	52.12356
1007.801	11.02558
1008.169	12.02897
1008.537	51.10728
1008.905	79.17627
1009.273	53.12435
1009.64	54.12504
1010.008	64.14513
1010.375	23.05268
1010.743	-3.00645
1011.11	99.22674
1011.478	62.14805
1011.845	13.02923
1012.212	68.14818
1012.579	59.13892
1012.946	19.04294
1013.313	60.13485
1013.68	79.16692
1014.047	37.08454
1014.414	16.0363
1014.78	52.12455
1015.147	42.09602
1015.513	1.00233
1015.88	27.06609
1016.246	17.0399
1016.612	49.10589
1016.978	62.14635
1017.344	49.11645
1017.71	78.17968
1018.076	1.00225
1018.442	63.15609
1018.808	49.11887
1019.174	-8.01934
1019.539	21.0442
1019.905	48.10894
1020.27	-22.05266
1020.636	27.06124
1021.001	71.16254
1021.366	32.07422
1021.731	77.19245
1022.096	10.02468
1022.461	76.17158
1022.826	53.12148
1023.191	3.00765
1023.556	21.04697
1023.92	49.11421
1024.285	-11.0257
1024.649	22.05155
1025.014	14.03303
1025.378	43.1047
1025.742	15.03561
1026.107	15.03242
1026.471	45.09958
1026.835	34.08107
1027.199	17.03953
1027.562	25.05507
1027.926	39.09086
1028.29	27.06599
1028.654	31.06791
1029.017	84.19721
1029.381	34.07826
1029.744	-4.00991
1030.107	87.19509
1030.471	19.04406
1030.834	6.01289
1031.197	98.22323
1031.56	41.09198
1031.923	24.06013
1032.286	60.13418
1032.648	60.13468
1033.011	35.07813
1033.374	51.11295
1033.736	4.01023
1034.099	9.0212
1034.461	22.05416
1034.823	23.05552
1035.185	-13.03145
1035.548	73.17028
1035.91	30.06881
1036.272	80.17351
1036.634	29.06815
1036.995	34.07585
1037.357	19.04481
1037.719	69.16038
1038.08	110.24894
1038.442	15.03419
1038.803	17.03857
1039.165	33.07975
1039.526	24.05584
1039.887	44.10063
1040.248	66.15839
1040.609	24.05641
1040.97	7.01646
1041.331	44.10796
1041.692	52.11826
1042.053	42.09055
1042.413	1.00223
1042.774	78.18104
1043.134	32.07195
1043.495	78.18704
1043.855	71.1662
1044.215	31.07353
1044.576	40.0924
1044.936	40.08694
1045.296	80.19023
1045.656	-4.00938
1046.016	74.16883
1046.375	52.12065
1046.735	56.12332
1047.095	36.08071
1047.454	45.08915
1047.814	13.03014
1048.173	46.10334
1048.533	40.0875
1048.892	10.02327
1049.251	33.07903
1049.61	26.06171
1049.969	45.10099
1050.328	42.08654
1050.687	43.09951
1051.046	16.03736
1051.405	21.04981
1051.763	47.10444
1052.122	-16.03867
1052.48	45.10616
1052.839	72.16407
1053.197	33.0743
1053.555	36.07641
1053.914	57.13275
1054.272	-20.04576
1054.63	54.12673
1054.988	32.07372
1055.345	-2.00406
1055.703	83.19017
1056.061	87.2165
1056.419	77.19426
1056.776	19.0435
1057.134	7.01528
1057.491	55.13207
1057.848	23.05479
1058.206	-30.06723
1058.563	51.10639
1058.92	85.18424
1059.277	38.08998
1059.634	-7.01564
1059.991	43.09888
1060.348	41.08883
1060.704	47.10989
1061.061	46.09973
1061.418	77.17805
1061.774	13.03098
1062.131	29.07543
1062.487	30.06673
1062.843	16.03846
1063.199	54.12875
1063.555	55.12272
1063.911	7.01698
1064.267	111.21167
1064.623	65.15263
1064.979	-2.00439
1065.335	7.01595
1065.691	35.07903
1066.046	41.08545
1066.402	29.06251
1066.757	83.19998
1067.112	25.0587
1067.468	16.0369
1067.823	-6.01362
1068.178	33.07597
1068.533	64.1479
1068.888	33.07509
1069.243	56.13229
1069.598	46.10618
1069.952	33.07278
1070.307	29.0695
1070.662	129.29224
1071.016	49.10625
1071.371	52.11331
1071.725	21.04775
1072.079	23.05331
1072.434	50.11679
1072.788	-22.04999
1073.142	65.15287
1073.496	3.00684
1073.85	51.11238
1074.203	74.17115
1074.557	90.23227
1074.911	57.1286
1075.265	18.04011
1075.618	61.1424
1075.971	61.13802
1076.325	25.06185
1076.678	8.0176
1077.031	-9.01917
1077.385	73.15106
1077.738	28.06021
1078.091	30.06596
1078.444	63.13702
1078.796	63.14874
1079.149	71.16899
1079.502	31.0708
1079.855	41.09152
1080.207	33.07776
1080.56	44.11031
1080.912	52.12074
1081.264	10.02332
1081.617	35.08225
1081.969	86.20835
1082.321	44.10249
1082.673	60.13258
1083.025	16.03622
1083.377	287.61143
1083.728	1.00223
1084.08	-21.05056
1084.432	30.06911
1084.783	21.04614
1085.135	51.12325
1085.486	-3.00666
1085.838	35.08315
1086.189	23.05424
1086.54	28.06381
1086.891	75.18514
1087.242	85.2006
1087.593	8.01846
1087.944	39.08511
1088.295	45.09708
1088.646	127.29635
1088.996	30.06991
1089.347	-2.00471
1089.698	19.04373
1090.048	24.05982
1090.398	31.06823
1090.749	28.0636
1091.099	55.13452
1091.449	19.04587
1091.799	42.10095
1092.149	9.02154
1092.499	18.04231
1092.849	54.132
1093.199	58.13776
1093.548	58.13473
1093.898	24.0576
1094.248	16.03932
1094.597	19.04757
1094.947	54.13922
1095.296	68.16139
1095.645	38.09482
1095.994	37.08515
1096.343	49.11887
1096.692	50.12891
1097.041	34.09074
1097.39	-13.03144
1097.739	37.09268
1098.088	40.10273
1098.437	61.15669
1098.785	9.02338
1099.134	5.01267
1099.482	67.17849
1099.83	28.07121
1100.179	54.13844
1100.527	-9.02301
1100.875	6.01555
1101.223	59.15208
1101.571	-3.00806
1101.919	25.0648
1102.267	25.06919
1102.615	-4.01286
1102.962	5.01603
1103.31	7.02247
1103.658	-9.02889
