Data from N3 R1 sample 3_Subt2__3__15-36-47-539.txt Node

Date: Wed Sep 17 15:36:47 PDT 2025
User: uwsun
Spectrometer: HDX01956
Trigger mode: 0
Integration Time (sec): 5.000000E-1
Scans to average: 1
Nonlinearity correction enabled: true
Boxcar width: 0
Storing dark spectrum: false
XAxis mode: Wavelengths
Number of Pixels in Spectrum: 2068
>>>>>Begin Spectral Data<<<<<
194.03	50.1441
194.578	85.27364
195.127	75.2383
195.676	85.27073
196.225	120.31408
196.773	102.28054
197.321	150.4102
197.87	221.55711
198.418	255.64372
198.966	284.72979
199.513	249.62116
200.061	218.5465
200.609	246.63701
201.156	200.43303
201.704	240.59339
202.251	234.612
202.798	208.53267
203.345	293.70616
203.892	223.5557
204.438	231.53879
204.985	243.56678
205.532	224.58045
206.078	235.56403
206.624	268.65823
207.17	263.60352
207.716	265.63627
208.262	244.47379
208.808	262.64516
209.354	294.70816
209.899	262.64516
210.445	257.6304
210.99	275.65576
211.535	271.62412
212.08	264.59889
212.625	246.60286
213.17	292.72483
213.715	270.60279
214.259	285.64796
214.804	228.54983
215.348	287.6459
215.892	317.74545
216.436	221.49636
216.98	265.56677
217.524	252.59066
218.068	262.64706
218.612	304.75104
219.155	293.67262
219.698	251.58428
220.242	206.5011
220.785	281.64197
221.328	216.52503
221.871	273.6783
222.414	205.49932
222.956	202.47588
223.499	220.48081
224.041	187.42155
224.583	253.5179
225.126	216.46448
225.668	235.55845
226.21	288.70734
226.751	236.51403
227.293	190.42332
227.835	266.63418
228.376	228.50651
228.918	229.55777
229.459	248.60393
230	251.58797
230.541	253.56589
231.082	251.59601
231.622	204.45282
232.163	228.53775
232.704	290.70329
233.244	238.57698
233.784	199.474
234.324	252.5526
234.864	217.47997
235.404	253.57894
235.944	265.60518
236.484	241.58743
237.023	232.53399
237.563	251.56836
238.102	234.54053
238.641	223.54863
239.18	211.48634
239.719	228.55855
240.258	273.59348
240.797	279.64561
241.335	278.65439
241.874	280.52605
242.412	244.57906
242.95	250.5894
243.488	230.50394
244.026	295.66282
244.564	287.56913
245.102	299.65359
245.64	238.55414
246.177	202.44054
246.715	284.66044
247.252	233.51579
247.789	239.43033
248.326	248.5831
248.863	247.52965
249.4	249.54936
249.936	290.58624
250.473	279.63972
251.009	222.49748
251.546	253.55047
252.082	230.48457
252.618	229.50101
253.154	252.59112
253.69	245.5351
254.226	257.59919
254.761	267.58118
255.297	233.49661
255.832	298.68451
256.367	263.60037
256.903	291.62507
257.438	311.70105
257.972	275.59274
258.507	269.5982
259.042	258.54523
259.576	272.58438
260.111	254.56708
260.645	265.55499
261.179	299.67621
261.713	291.62937
262.247	213.47682
262.781	261.53427
263.315	271.63754
263.849	279.67801
264.382	239.53568
264.915	321.73069
265.449	273.64699
265.982	269.59274
266.515	300.71111
267.048	287.58723
267.58	241.50629
268.113	271.5678
268.646	300.70836
269.178	255.55411
269.71	293.62611
270.243	349.77318
270.775	267.6675
271.307	240.55659
271.838	294.67018
272.37	281.66723
272.902	284.62172
273.433	275.59146
273.965	292.686
274.496	264.63616
275.027	311.74726
275.558	298.70364
276.089	317.76398
276.62	249.61213
277.15	290.68979
277.681	269.56062
278.211	263.62354
278.741	304.65088
279.272	292.64624
279.802	270.65258
280.332	281.64353
280.861	273.63323
281.391	305.66811
281.921	269.6242
282.45	309.73879
282.98	295.74493
283.509	293.64507
284.038	320.70436
284.567	332.74211
285.096	321.75015
285.625	257.5625
286.153	357.81623
286.682	281.62644
287.21	234.54482
287.739	288.65889
288.267	320.75118
288.795	303.76568
289.323	320.72384
289.851	339.76541
290.378	304.65285
290.906	336.79058
291.433	317.76225
291.961	363.79145
292.488	320.76464
293.015	314.71548
293.542	363.89494
294.069	348.82803
294.596	318.74853
295.122	397.90437
295.649	301.63512
296.175	288.67159
296.702	350.82127
297.228	316.7331
297.754	345.74296
298.28	358.78799
298.806	320.74355
299.332	330.7102
299.857	341.74349
300.383	344.83076
300.908	366.86148
301.433	344.81066
301.958	357.782
302.483	297.71309
303.008	377.89615
303.533	365.90152
304.058	352.78486
304.582	378.85153
305.107	355.88711
305.631	350.75939
306.155	355.79204
306.679	380.85218
307.203	374.82838
307.727	378.85431
308.251	413.96658
308.775	400.92645
309.298	347.80389
309.822	379.90921
310.345	422.9549
310.868	425.97009
311.391	411.96078
311.914	412.98064
312.437	420.90736
312.96	367.82726
313.482	425.94308
314.005	373.89006
314.527	354.88413
315.049	455.08387
315.571	453.95748
316.093	393.92807
316.615	408.92886
317.137	460.93798
317.659	403.92803
318.18	422.95101
318.702	456.00292
319.223	419.80372
319.744	469.98826
320.265	426.98391
320.786	474.11171
321.307	461.06958
321.828	515.07474
322.348	472.03948
322.869	510.12989
323.389	845.39772
323.909	460.9861
324.43	522.15555
324.95	499.06202
325.47	605.37261
325.989	550.20346
326.509	570.16892
327.029	538.13449
327.548	557.15894
328.067	518.16954
328.587	561.30043
329.106	544.12758
329.625	557.34241
330.144	569.21546
330.662	592.27203
331.181	657.39946
331.7	598.26729
332.218	639.24778
332.736	608.29749
333.255	647.37873
333.773	606.30495
334.291	671.5188
334.808	657.33275
335.326	642.3008
335.844	682.4424
336.361	734.69541
336.879	708.49026
337.396	743.61158
337.913	711.46542
338.43	712.42838
338.947	707.5126
339.464	697.33742
339.981	731.54243
340.497	684.51591
341.014	733.59392
341.53	762.51194
342.046	804.77242
342.562	805.76686
343.078	774.60649
343.594	758.59561
344.11	847.76478
344.626	845.86788
345.141	794.59091
345.657	880.70745
346.172	868.81536
346.687	830.65394
347.202	907.76953
347.717	866.78803
348.232	830.81298
348.747	901.78189
349.261	914.70282
349.776	947.91572
350.29	912.97203
350.805	954.00946
351.319	905.79982
351.833	902.77847
352.347	920.85808
352.861	977.93417
353.374	934.79948
353.888	950.98346
354.401	988.88185
354.915	1001.8887
355.428	1004.11491
355.941	980.92072
356.454	1026.88552
356.967	948.87364
357.48	1019.9171
357.993	1039.13672
358.505	1017.07365
359.018	1095.21585
359.53	1102.2184
360.042	1146.06224
360.554	1164.31777
361.066	1045.11931
361.578	1111.98761
362.09	1100.14768
362.602	1142.0477
363.113	1171.22269
363.625	1157.11122
364.136	1091.94573
364.647	1164.23232
365.158	1210.24315
365.669	1187.28035
366.18	1205.26531
366.691	1194.06607
367.201	1239.36119
367.712	1243.24257
368.222	1186.18549
368.733	1224.08478
369.243	1346.2986
369.753	1335.37025
370.263	1317.48853
370.773	1296.48018
371.282	1392.5474
371.792	1430.49743
372.301	1409.59984
372.811	1496.00045
373.32	1475.33703
373.829	1449.56833
374.338	1562.49508
374.847	1619.6751
375.356	1618.74571
375.865	1710.50216
376.373	1809.7817
376.882	1785.18901
377.39	1864.05545
377.898	1842.11319
378.407	2009.90955
378.915	2092.80339
379.423	2069.04126
379.93	2343.17528
380.438	2270.29889
380.946	2479.22405
381.453	2462.37712
381.96	2608.39585
382.468	2818.34589
382.975	2965.60005
383.482	3095.06405
383.989	3153.9206
384.495	3180.29544
385.002	3457.62151
385.509	3662.33007
386.015	3811.33603
386.521	4177.79102
387.028	4086.81824
387.534	4252.35092
388.04	4484.02096
388.546	4483.41851
389.051	4724.26034
389.557	5078.38445
390.063	5452.00757
390.568	5656.32801
391.073	5874.69979
391.578	6108.22966
392.084	6369.68319
392.589	6474.38178
393.093	6939.90635
393.598	7693.91544
394.103	8263.49526
394.607	9133.74806
395.112	9831.2899
395.616	10418.01934
396.12	11262.55758
396.624	12417.47307
397.128	13476.37418
397.632	15042.01127
398.136	16311.54358
398.639	17185.15177
399.143	19132.67018
399.646	21635.16618
400.15	23848.78277
400.653	26594.22617
401.156	29834.51507
401.659	34526.70648
402.162	41933.58061
402.664	55276.2009
403.167	62741.12783
403.67	63769.22307
404.172	63919.58413
404.674	63858.43483
405.176	63738.15102
405.678	63977.72923
406.18	64011.81569
406.682	63863.44694
407.184	63926.60148
407.686	63841.39382
408.187	64025.8516
408.688	63892.51763
409.19	63833.37461
409.691	63977.72923
410.192	63945.6488
410.693	59785.15994
411.194	53871.74888
411.694	51196.24031
412.195	47980.83909
412.696	43508.42915
413.196	39818.02544
413.696	38935.58406
414.196	39756.7911
414.696	38938.14755
415.196	36941.76137
415.696	33845.1267
416.196	27585.38508
416.695	21304.60234
417.195	17975.41925
417.694	17128.08547
418.194	16152.48286
418.693	14953.67691
419.192	14591.84492
419.691	14140.11885
420.19	13901.70028
420.688	13616.22274
421.187	12900.06184
421.685	12174.16751
422.184	10988.2223
422.682	9512.52923
423.18	8132.2481
423.678	7070.65079
424.176	6623.62884
424.674	6250.54584
425.172	6011.958
425.669	5609.44146
426.167	5248.23702
426.664	4839.31264
427.161	4395.64969
427.659	4171.14746
428.156	3920.41386
428.652	3594.64899
429.149	3448.41581
429.646	3419.88632
430.143	3241.36968
430.639	3025.31667
431.135	2894.64432
431.632	2702.10332
432.128	2483.31854
432.624	2404.68136
433.12	2313.00412
433.616	2295.81784
434.111	2169.12687
434.607	2015.07056
435.103	1980.50748
435.598	1942.46638
436.093	1885.86171
436.588	1767.64556
437.083	1691.57091
437.578	1702.69807
438.073	1548.83545
438.568	1586.81314
439.062	1566.3166
439.557	1446.48087
440.051	1297.19975
440.546	1307.24057
441.04	1297.39014
441.534	1254.47545
442.028	1232.31452
442.522	1180.23387
443.015	1148.90783
443.509	1175.26155
444.002	1203.31668
444.496	1135.91869
444.989	1108.15825
445.482	1123.23341
445.975	1136.07434
446.468	1127.90511
446.961	1130.91587
447.454	1052.88997
447.947	1030.00315
448.439	1001.02349
448.931	1042.93029
449.424	1057.20389
449.916	933.9037
450.408	1016.8839
450.9	1024.03287
451.392	962.04047
451.884	955.80615
452.375	908.89238
452.867	902.68291
453.358	912.73603
453.849	924.61795
454.341	871.64622
454.832	814.48247
455.323	914.91583
455.814	834.61269
456.304	845.65152
456.795	791.54219
457.285	776.456
457.776	807.56301
458.266	791.61007
458.756	748.52831
459.247	777.60018
459.737	803.66636
460.226	852.63341
460.716	749.55075
461.206	727.5132
461.695	681.48389
462.185	725.49699
462.674	666.33597
463.163	718.39403
463.653	702.29039
464.142	750.5753
464.63	619.33611
465.119	648.32913
465.608	683.40197
466.096	590.1364
466.585	644.29534
467.073	597.25663
467.561	609.30215
468.05	603.2342
468.538	569.25111
469.026	556.18688
469.513	542.02325
470.001	565.16361
470.489	530.14107
470.976	578.20938
471.463	531.20064
471.951	525.1856
472.438	495.05897
472.925	558.18137
473.412	460.0257
473.899	518.07503
474.385	533.18264
474.872	461.98761
475.359	495.1123
475.845	452.85552
476.331	488.94264
476.817	466.04125
477.303	459.98035
477.789	422.93156
478.275	442.01308
478.761	405.89423
479.247	413.85268
479.732	391.91261
480.218	460.11399
480.703	378.87239
481.188	354.71824
481.673	332.72034
482.158	324.66098
482.643	409.97518
483.128	365.79851
483.612	431.95122
484.097	327.74554
484.581	323.70664
485.066	426.96865
485.55	358.74228
486.034	310.63615
486.518	409.91136
487.002	251.5859
487.486	297.68589
487.969	274.63643
488.453	249.59536
488.936	303.64719
489.42	349.72475
489.903	279.66325
490.386	181.36413
490.869	265.55548
491.352	221.51344
491.835	271.5281
492.318	216.46907
492.8	290.5701
493.283	265.64881
493.765	266.62468
494.247	272.605
494.73	254.53889
495.212	216.49478
495.694	269.60688
496.175	248.57309
496.657	251.57067
497.139	261.42504
497.62	232.53825
498.102	225.54127
498.583	176.42107
499.064	218.46958
499.545	239.52399
500.026	251.54519
500.507	227.50397
500.988	246.59189
501.469	191.46262
501.949	238.56613
502.43	234.54396
502.91	219.44891
503.39	183.44158
503.87	180.41481
504.35	172.39242
504.83	147.31522
505.31	186.43614
505.79	174.40098
506.269	151.33943
506.749	204.45169
507.228	140.32379
507.707	246.52739
508.187	201.46624
508.666	172.41621
509.145	117.27001
509.623	183.41726
510.102	125.29786
510.581	203.47535
511.059	160.3943
511.538	167.42084
512.016	210.48779
512.494	151.35567
512.972	196.45618
513.45	134.30757
513.928	169.40162
514.406	172.41213
514.884	161.4066
515.361	212.49166
515.839	152.34343
516.316	199.47018
516.793	151.37384
517.27	157.3698
517.747	146.36799
518.224	150.33891
518.701	119.25958
519.178	153.3756
519.654	97.22768
520.131	111.27179
520.607	96.2324
521.083	138.30734
521.56	81.18983
522.036	137.29327
522.512	150.36352
522.987	171.40278
523.463	158.36687
523.939	183.44324
524.414	140.3149
524.89	158.36948
525.365	136.30226
525.84	126.29869
526.315	134.31961
526.79	183.40223
527.265	175.39499
527.74	112.26868
528.215	109.25144
528.689	112.24271
529.164	123.26011
529.638	104.26082
530.112	73.17101
530.587	126.26593
531.061	113.27041
531.534	103.24582
532.008	154.36746
532.482	134.30325
532.956	92.2328
533.429	167.40008
533.903	122.26381
534.376	113.24702
534.849	111.25238
535.322	100.23385
535.795	61.14703
536.268	133.31717
536.741	72.17029
537.213	125.28341
537.686	141.33934
538.158	115.25872
538.631	123.294
539.103	103.23068
539.575	149.30086
540.047	96.20777
540.519	134.31532
540.991	196.46516
541.463	96.22907
541.934	95.21311
542.406	109.25934
542.877	135.3001
543.348	115.27467
543.82	134.32096
544.291	145.33289
544.762	139.32588
545.233	151.37616
545.703	114.25115
546.174	124.28405
546.645	118.28242
547.115	113.2701
547.585	137.31048
548.056	199.47709
548.526	182.42242
548.996	168.39348
549.466	113.27195
549.935	180.42076
550.405	180.38657
550.875	139.3255
551.344	122.28764
551.814	167.37524
552.283	181.38628
552.752	161.3708
553.221	177.38283
553.69	220.48284
554.159	201.48812
554.628	182.40399
555.096	215.53227
555.565	141.30757
556.033	191.44515
556.502	116.27732
556.97	147.32243
557.438	130.30162
557.906	118.27583
558.374	158.36033
558.842	115.27309
559.31	115.25543
559.777	116.28102
560.245	86.19669
560.712	62.14225
561.18	92.20303
561.647	86.19026
562.114	87.19885
562.581	95.23244
563.048	129.29212
563.514	134.33206
563.981	73.16719
564.448	116.25995
564.914	102.23534
565.381	97.22064
565.847	99.22919
566.313	74.17149
566.779	83.18642
567.245	66.15289
567.711	94.22378
568.176	62.13946
568.642	79.19823
569.108	101.24648
569.573	45.10459
570.038	74.15488
570.504	94.21152
570.969	69.17064
571.434	97.21446
571.899	72.17048
572.363	131.29689
572.828	145.32848
573.293	99.22564
573.757	149.34056
574.222	87.19452
574.686	137.31112
575.15	117.27901
575.614	171.39603
576.078	115.2675
576.542	111.25105
577.006	124.27742
577.469	159.38396
577.933	107.2423
578.396	94.22172
578.86	88.20635
579.323	168.39717
579.786	126.27071
580.249	152.35266
580.712	113.27216
581.175	123.29972
581.637	102.23131
582.1	99.21477
582.563	123.25886
583.025	127.30541
583.487	148.30042
583.95	84.17985
584.412	106.22156
584.874	132.31786
585.336	129.30243
585.797	147.31522
586.259	110.25532
586.721	129.29912
587.182	119.27167
587.643	189.41944
588.105	154.35772
588.566	126.26021
589.027	156.37565
589.488	165.37181
589.949	194.4597
590.41	184.35643
590.87	184.41199
591.331	236.49896
591.791	170.38613
592.252	215.48685
592.712	205.47816
593.172	168.37508
593.632	302.64045
594.092	242.52083
594.552	276.57304
595.011	212.47194
595.471	281.61061
595.931	313.67261
596.39	255.59032
596.849	309.68572
597.308	260.5321
597.768	323.79459
598.227	365.82679
598.685	280.61141
599.144	362.80481
599.603	393.86012
600.062	380.74845
600.52	419.8802
600.978	451.98578
601.437	513.06013
601.895	557.06938
602.353	490.98236
602.811	585.18
603.269	551.18508
603.727	594.27907
604.184	661.32501
604.642	681.47762
605.099	712.45007
605.557	781.63795
606.014	786.43426
606.471	874.86332
606.928	963.74517
607.385	988.04939
607.842	1017.88622
608.299	1126.07871
608.755	1143.19562
609.212	1145.98788
609.668	1214.09863
610.125	1336.43236
610.581	1348.36089
611.037	1352.23042
611.493	1360.35973
611.949	1502.66205
612.405	1492.08409
612.861	1560.51571
613.316	1638.73702
613.772	1625.56094
614.227	1690.79874
614.683	1739.37441
615.138	1730.73519
615.593	1744.70615
616.048	1885.75163
616.503	1862.98133
616.958	1859.11633
617.412	1867.89205
617.867	1914.68114
618.321	1954.38979
618.776	1909.61304
619.23	1914.86487
619.684	1891.65077
620.138	1947.78553
620.592	1900.00317
621.046	1920.9063
621.5	1843.92504
621.954	1903.61961
622.407	1890.61209
622.861	1821.94345
623.314	1794.63967
623.768	1830.83642
624.221	1765.13517
624.674	1713.65672
625.127	1640.61792
625.58	1735.56465
626.033	1719.457
626.485	1639.72171
626.938	1668.73198
627.39	1660.65611
627.843	1560.5143
628.295	1504.46127
628.747	1549.62293
629.199	1498.41356
629.651	1429.36801
630.103	1466.40656
630.555	1430.11327
631.006	1366.34287
631.458	1365.379
631.909	1307.16698
632.361	1285.22722
632.812	1246.19169
633.263	1245.01622
633.714	1237.94384
634.165	1194.22324
634.616	1089.04366
635.067	1088.87121
635.518	1089.05066
635.968	1131.66336
636.419	1065.8252
636.869	1035.97295
637.319	993.86627
637.769	1013.82299
638.219	927.80433
638.669	884.75353
639.119	900.79194
639.569	878.76266
640.019	884.69567
640.468	875.62318
640.918	861.71142
641.367	835.56114
641.816	765.44273
642.265	819.61424
642.714	754.47795
643.163	790.55081
643.612	806.68783
644.061	751.36025
644.51	726.43304
644.958	755.41758
645.406	675.41232
645.855	671.42993
646.303	664.34053
646.751	693.39309
647.199	671.32339
647.647	690.3931
648.095	609.22624
648.543	620.092
648.99	636.35028
649.438	579.19195
649.885	637.40961
650.333	645.07433
650.78	594.28072
651.227	631.36902
651.674	579.17537
652.121	537.19153
652.568	555.22489
653.015	495.11685
653.461	531.13906
653.908	539.11047
654.354	529.13672
654.801	500.06346
655.247	515.00001
655.693	497.18363
656.139	472.02861
656.585	521.12478
657.031	456.98343
657.477	532.04022
657.922	443.92322
658.368	473.06365
658.813	465.96433
659.259	461.02475
659.704	468.01427
660.149	436.92418
660.594	453.98722
661.039	451.94115
661.484	404.88736
661.929	428.92187
662.373	395.92447
662.818	400.92058
663.262	427.95461
663.707	453.06175
664.151	445.99934
664.595	375.84736
665.039	403.93025
665.483	390.92687
665.927	433.93524
666.371	397.8674
666.814	357.79387
667.258	409.91437
667.701	403.79057
668.145	375.87287
668.588	381.88193
669.031	375.82212
669.474	407.90503
669.917	404.81556
670.36	410.95073
670.803	420.93877
671.245	329.62802
671.688	376.85395
672.13	397.83104
672.573	383.90341
673.015	423.94255
673.457	399.80048
673.899	446.99193
674.341	392.87764
674.783	373.83391
675.225	422.96111
675.666	453.01735
676.108	392.78153
676.549	391.84418
676.991	400.80897
677.432	421.76004
677.873	329.70455
678.314	371.82294
678.755	460.03922
679.196	383.81167
679.637	378.84177
680.078	450.96176
680.518	410.86718
680.959	406.89362
681.399	435.99251
681.839	430.96151
682.28	449.02442
682.72	432.9053
683.16	432.99499
683.6	481.99127
684.039	373.7096
684.479	428.97556
684.919	484.03294
685.358	425.97673
685.798	411.99418
686.237	465.00969
686.676	431.89183
687.115	465.99875
687.554	494.07072
687.993	490.97646
688.432	514.05199
688.871	528.08362
689.309	589.2539
689.748	553.01167
690.186	481.01787
690.625	513.08429
691.063	520.11567
691.501	533.18705
691.939	585.31592
692.377	535.16443
692.815	601.30386
693.253	555.17783
693.69	603.15286
694.128	624.33513
694.565	666.37226
695.003	675.51486
695.44	653.34996
695.877	663.35719
696.314	652.17668
696.751	708.37196
697.188	727.44139
697.625	656.2674
698.061	720.483
698.498	752.51359
698.934	788.59414
699.371	745.4957
699.807	804.59687
700.243	756.55793
700.679	807.49606
701.115	913.74172
701.551	875.67556
701.987	872.55067
702.422	887.75172
702.858	924.80742
703.294	996.82478
703.729	974.92599
704.164	940.83097
704.599	1033.81363
705.035	961.72742
705.47	987.94127
705.904	977.81728
706.339	1039.88228
706.774	1059.95748
707.209	1073.96273
707.643	1057.00577
708.078	1108.11959
708.512	1069.14547
708.946	1099.03627
709.38	1161.12918
709.814	1131.9635
710.248	1188.24688
710.682	1212.2269
711.116	1187.23464
711.549	1167.33928
711.983	1194.09221
712.416	1234.21894
712.85	1165.24654
713.283	1201.15993
713.716	1231.33801
714.149	1239.14939
714.582	1255.08711
715.015	1213.28151
715.448	1307.49231
715.881	1273.98011
716.313	1331.28072
716.746	1331.3231
717.178	1317.35497
717.61	1428.67867
718.043	1398.5342
718.475	1383.46089
718.907	1424.60229
719.339	1402.26531
719.77	1517.56289
720.202	1475.67234
720.634	1464.59305
721.065	1544.52585
721.497	1547.66854
721.928	1525.63728
722.359	1545.64967
722.79	1598.63652
723.221	1597.76834
723.652	1676.94332
724.083	1697.48513
724.514	1687.55723
724.945	1753.67888
725.375	1813.72187
725.806	1763.89301
726.236	1790.07608
726.666	1886.8006
727.096	1887.96041
727.526	1925.24017
727.956	1976.7301
728.386	1978.03338
728.816	2043.29881
729.246	2133.17292
729.675	2033.0446
730.105	2104.0984
730.534	2155.89486
730.964	2185.24232
731.393	2268.18928
731.822	2322.45342
732.251	2273.38781
732.68	2306.91524
733.109	2372.27827
733.537	2425.2569
733.966	2434.37516
734.395	2548.97753
734.823	2498.73346
735.251	2530.1762
735.68	2573.3297
736.108	2531.39817
736.536	2664.05249
736.964	2613.99165
737.392	2675.4362
737.82	2714.16519
738.247	2757.1582
738.675	2754.07408
739.102	2802.4469
739.53	2775.65555
739.957	2746.68887
740.384	2811.21975
740.811	2797.42054
741.238	2880.35788
741.665	2970.09888
742.092	2787.94656
742.519	2880.43399
742.945	2905.30441
743.372	2930.44212
743.798	2920.6279
744.225	2868.11744
744.651	2986.47354
745.077	2942.4524
745.503	2943.23817
745.929	2999.27836
746.355	2947.28371
746.781	2827.34206
747.207	2914.15745
747.632	2938.44253
748.058	2979.53949
748.483	2950.94849
748.908	2908.45043
749.334	2962.38766
749.759	2936.1762
750.184	2860.24588
750.609	2912.33088
751.033	2936.0247
751.458	2867.77178
751.883	2866.35222
752.307	2766.08617
752.732	2896.63248
753.156	2854.35843
753.58	2829.08662
754.005	2700.45053
754.429	2769.13868
754.853	2786.43537
755.277	2862.14767
755.7	2738.39804
756.124	2804.42144
756.548	2735.09748
756.971	2694.28404
757.394	2744.5791
757.818	2681.63544
758.241	2744.55361
758.664	2650.48676
759.087	2738.85397
759.51	2568.31313
759.933	2601.22689
760.356	2604.61937
760.778	2562.29853
761.201	2574.19281
761.623	2508.08799
762.046	2481.98341
762.468	2497.12126
762.89	2483.22101
763.312	2529.2703
763.734	2438.15717
764.156	2372.26189
764.578	2361.82848
765	2365.18369
765.421	2366.45443
765.843	2360.58562
766.264	2326.00471
766.686	2257.22148
767.107	2245.10247
767.528	2282.45054
767.949	2166.29829
768.37	2202.20927
768.791	2074.95384
769.212	2143.26165
769.632	2049.85209
770.053	2056.37776
770.473	2030.95395
770.894	2000.0252
771.314	1964.81119
771.734	1976.77328
772.154	1862.09886
772.575	1897.67265
772.994	1873.58894
773.414	1827.75293
773.834	1842.97035
774.254	1849.8852
774.673	1847.90839
775.093	1690.84899
775.512	1762.87633
775.931	1769.9968
776.351	1757.91622
776.77	1672.7747
777.189	1623.59416
777.607	1559.80961
778.026	1531.68382
778.445	1598.83599
778.864	1465.66483
779.282	1456.43611
779.701	1485.65405
780.119	1449.65806
780.537	1466.60194
780.955	1431.61448
781.373	1413.51451
781.791	1441.27623
782.209	1315.11369
782.627	1307.60957
783.045	1280.10165
783.462	1266.44466
783.88	1239.45771
784.297	1258.38654
784.715	1187.36964
785.132	1196.16567
785.549	1187.26511
785.966	1156.24452
786.383	1146.183
786.8	1165.02683
787.217	1131.07191
787.633	1056.10623
788.05	1065.90119
788.466	1019.84222
788.883	1029.11896
789.299	954.80031
789.715	974.89818
790.131	979.94986
790.547	891.81301
790.963	928.85887
791.379	849.77833
791.795	871.57169
792.21	903.67606
792.626	842.61111
793.041	814.65956
793.457	798.62543
793.872	781.49817
794.287	796.603
794.702	755.52695
795.117	758.59282
795.532	723.55352
795.947	646.30414
796.362	665.31277
796.776	679.30721
797.191	622.3165
797.605	635.29393
798.02	611.2805
798.434	653.22152
798.848	664.42326
799.262	607.3057
799.676	619.30015
800.09	589.25661
800.504	515.09233
800.918	490.9869
801.331	425.98336
801.745	486.97434
802.158	471.03792
802.572	531.1278
802.985	419.89881
803.398	469.98782
803.811	424.96137
804.224	390.86633
804.637	431.92335
805.05	380.78543
805.462	368.81611
805.875	371.88427
806.288	352.77999
806.7	328.74828
807.112	368.76165
807.525	330.73216
807.937	320.72944
808.349	343.77981
808.761	343.77475
809.173	343.76242
809.584	330.7419
809.996	285.64377
810.408	282.68594
810.819	281.61009
811.231	353.87157
811.642	350.79684
812.053	345.77005
812.464	304.66016
812.875	314.74515
813.286	310.74556
813.697	307.63668
814.108	239.54053
814.519	346.70329
814.929	258.61062
815.34	232.51818
815.75	221.53245
816.16	207.47712
816.571	202.49284
816.981	226.48953
817.391	166.37414
817.801	163.38528
818.211	185.41278
818.62	183.41709
819.03	242.54988
819.44	158.38464
819.849	121.28756
820.259	145.3487
820.668	174.40593
821.077	185.43778
821.486	176.39294
821.895	137.31616
822.304	137.34587
822.713	209.4588
823.122	175.41107
823.531	124.27456
823.939	148.34338
824.348	132.3025
824.756	157.36995
825.164	142.3374
825.573	127.30391
825.981	102.24021
826.389	111.26572
826.797	210.50298
827.205	171.37159
827.612	101.2367
828.02	40.09012
828.428	138.33382
828.835	135.34191
829.243	85.19217
829.65	110.26358
830.057	66.15307
830.464	152.35517
830.871	126.2877
831.278	120.27599
831.685	148.30866
832.092	85.1971
832.499	124.25757
832.905	108.25928
833.312	81.17257
833.718	121.28944
834.124	103.2244
834.531	69.16549
834.937	133.32626
835.343	70.16048
835.749	22.04888
836.155	88.22157
836.561	101.23762
836.966	72.16818
837.372	52.12707
837.777	82.19679
838.183	96.20128
838.588	100.23907
838.993	112.25975
839.399	69.16291
839.804	35.0827
840.209	114.28084
840.613	105.22078
841.018	59.14312
841.423	98.24107
841.828	79.19301
842.232	82.19086
842.637	109.24743
843.041	60.14923
843.445	58.13898
843.849	56.13419
844.253	46.10482
844.657	56.13699
845.061	135.29449
845.465	2.0047
845.869	52.116
846.272	25.0593
846.676	57.12992
847.079	39.09684
847.483	45.10797
847.886	114.26083
848.289	72.18807
848.692	33.08029
849.095	63.14446
849.498	59.14167
849.901	32.07
850.304	81.18469
850.707	49.12011
851.109	36.08754
851.512	58.13755
851.914	19.04687
852.316	84.20625
852.718	93.2368
853.121	43.10172
853.523	30.06709
853.925	22.05642
854.326	72.17423
854.728	50.12472
855.13	30.07589
855.531	52.11984
855.933	64.14566
856.334	53.12852
856.736	94.20214
857.137	96.21451
857.538	58.14162
857.939	69.16631
858.34	57.13191
858.741	47.11836
859.142	19.04388
859.542	90.22993
859.943	44.10539
860.343	17.04115
860.744	75.17515
861.144	70.16536
861.544	36.08478
861.945	14.0346
862.345	53.12397
862.745	70.16837
863.145	41.09235
863.544	61.14892
863.944	43.09765
864.344	21.04979
864.743	73.17329
865.143	50.12522
865.542	-61.1369
865.941	93.22085
866.34	41.09318
866.74	26.06794
867.139	26.06106
867.537	-6.01472
867.936	49.11398
868.335	42.10294
868.734	38.09413
869.132	48.10553
869.531	23.05304
869.929	23.05083
870.327	50.11518
870.726	43.10219
871.124	61.13521
871.522	50.12236
871.92	67.15855
872.318	28.06558
872.715	28.06589
873.113	-8.01884
873.511	35.08388
873.908	29.07217
874.306	35.08487
874.703	35.08366
875.1	10.02446
875.497	20.04613
875.894	53.12746
876.291	35.08308
876.688	16.04014
877.085	46.10525
877.482	7.017
877.878	75.17529
878.275	5.01239
878.671	-7.01458
879.068	91.20917
879.464	62.14357
879.86	16.03656
880.256	19.04458
880.652	-3.00742
881.048	3.00713
881.444	-5.01136
881.84	31.07608
882.236	53.12809
882.631	34.081
883.027	39.09047
883.422	21.05169
883.817	30.07355
884.213	41.10169
884.608	70.1685
885.003	37.08512
885.398	32.0775
885.793	39.094
886.188	13.03126
886.582	20.04922
886.977	12.02732
887.371	27.06555
887.766	33.07981
888.16	23.05449
888.554	43.10156
888.949	1.00244
889.343	44.10277
889.737	0
890.131	61.14709
890.525	57.14143
890.918	31.07531
891.312	10.02288
891.706	36.0912
892.099	47.11487
892.492	67.13628
892.886	29.06828
893.279	51.12483
893.672	48.11873
894.065	56.135
894.458	21.05056
894.851	44.1029
895.244	64.15703
895.637	61.14133
896.029	49.116
896.422	14.03265
896.814	59.14032
897.206	26.06063
897.599	83.19581
897.991	51.11929
898.383	56.1271
898.775	68.14824
899.167	74.1674
899.559	39.09432
899.951	26.05843
900.342	18.04389
900.734	43.10552
901.125	22.05557
901.517	4.00954
901.908	93.20854
902.299	6.01427
902.69	18.04142
903.082	93.21445
903.473	65.15162
903.863	28.06868
904.254	60.13496
904.645	14.03324
905.036	70.16581
905.426	42.09059
905.817	5.0118
906.207	8.01822
906.597	32.07283
906.987	25.06219
907.378	54.13225
907.768	42.10783
908.158	29.06802
908.547	33.08376
908.937	20.04905
909.327	66.15301
909.717	33.07948
910.106	58.13276
910.495	10.02389
910.885	47.11504
911.274	17.04105
911.663	24.05834
912.052	19.04474
912.441	44.10884
912.83	12.02635
913.219	62.15555
913.608	48.11352
913.997	40.09774
914.385	88.20013
914.774	73.16947
915.162	49.11349
915.55	38.08768
915.939	65.15892
916.327	23.055
916.715	83.20602
917.103	20.04666
917.491	12.02862
917.878	64.15031
918.266	21.05254
918.654	89.21946
919.041	54.13791
919.429	29.06586
919.816	49.1194
920.203	47.11071
920.591	50.11949
920.978	80.18701
921.365	27.06897
921.752	-41.09383
922.139	75.15443
922.525	10.02334
922.912	48.11194
923.299	15.03616
923.685	-35.08855
924.072	5.01083
924.458	64.15283
924.844	35.08356
925.231	-10.02233
925.617	12.02997
926.003	12.02964
926.389	33.08032
926.774	14.03424
927.16	61.14497
927.546	52.13013
927.931	33.07885
928.317	41.08974
928.702	83.18581
929.088	73.16887
929.473	82.20156
929.858	72.16983
930.243	52.12113
930.628	43.1018
931.013	31.07427
931.398	47.10144
931.783	12.03033
932.167	70.16568
932.552	10.02419
932.937	7.01672
933.321	-16.03948
933.705	-9.0218
934.09	37.08814
934.474	38.08572
934.858	53.13285
935.242	-37.08324
935.626	61.15102
936.009	50.12993
936.393	66.16373
936.777	43.10697
937.16	56.14166
937.544	23.05123
937.927	49.12051
938.311	54.12539
938.694	42.10775
939.077	56.12838
939.46	6.01392
939.843	20.03885
940.226	-5.01241
940.609	76.16828
940.991	23.05625
941.374	31.07356
941.757	51.12027
942.139	50.1078
942.522	81.18081
942.904	44.1016
943.286	58.14104
943.668	95.23812
944.05	28.06661
944.432	0
944.814	45.10534
945.196	4.00953
945.578	50.11615
945.959	11.02458
946.341	17.03947
946.722	35.07835
947.104	46.10554
947.485	60.13341
947.866	70.17067
948.247	67.16393
948.628	-38.08855
949.009	-3.00747
949.39	53.12576
949.771	-4.00876
950.152	48.11335
950.532	87.21057
950.913	31.07183
951.293	41.10835
951.674	25.05829
952.054	94.2267
952.434	19.04569
952.814	20.04526
953.194	26.06495
953.574	55.1292
953.954	4.00907
954.334	73.17595
954.714	36.08495
955.093	58.13659
955.473	65.1578
955.853	41.10255
956.232	37.09818
956.611	40.09075
956.99	0
957.37	15.03676
957.749	-5.01135
958.128	77.187
958.506	-38.09677
958.885	44.10648
959.264	35.08382
959.643	42.09218
960.021	76.18155
960.4	13.02831
960.778	50.11624
961.156	22.05306
961.535	12.02665
961.913	89.199
962.291	55.13776
962.669	41.10073
963.047	30.07445
963.424	99.24474
963.802	26.06185
964.18	-5.01207
964.557	36.07898
964.935	34.07726
965.312	35.08871
965.69	41.09778
966.067	19.04407
966.444	17.03962
966.821	83.20519
967.198	46.10563
967.575	39.09147
967.952	70.15661
968.329	83.19391
968.705	71.14534
969.082	89.22172
969.458	33.07737
969.835	5.01177
970.211	52.13004
970.587	69.16486
970.963	38.09313
971.339	44.11154
971.715	29.07003
972.091	58.1367
972.467	-5.01191
972.843	77.1851
973.219	90.20293
973.594	-5.01274
973.97	-16.03587
974.345	68.15621
974.721	22.05048
975.096	91.21143
975.471	48.1085
975.846	16.03677
976.221	23.05659
976.596	91.21134
976.971	77.18306
977.346	59.12979
977.72	28.06852
978.095	24.05997
978.469	45.1024
978.844	65.15548
979.218	92.21328
979.593	41.09371
979.967	-11.02547
980.341	38.08428
980.715	68.16468
981.089	45.10822
981.463	56.1227
981.837	51.1212
982.21	2.00436
982.584	26.0608
982.957	63.15191
983.331	12.02689
983.704	62.14794
984.078	19.04512
984.451	22.05185
984.824	23.05443
985.197	2.00462
985.57	-11.02634
985.943	15.03506
986.316	45.10418
986.688	12.02786
987.061	96.21407
987.434	49.1249
987.806	20.046
988.179	-6.01363
988.551	46.11169
988.923	0
989.295	27.06466
989.667	42.09795
990.039	51.12325
990.411	18.03914
990.783	10.02183
991.155	7.01635
991.527	39.09029
991.898	40.09647
992.27	39.09386
992.641	58.1385
993.012	18.03959
993.384	-4.00918
993.755	47.11611
994.126	90.20782
994.497	23.05447
994.868	14.03052
995.239	22.05119
995.61	17.04143
995.98	21.04908
996.351	58.13882
996.722	26.0587
997.092	10.02299
997.462	28.06373
997.833	40.08993
998.203	-8.01848
998.573	32.07715
998.943	39.08821
999.313	50.11555
999.683	32.07413
1000.053	-8.01733
1000.423	37.08563
1000.792	-24.05995
1001.162	-11.02607
1001.531	95.22325
1001.901	-1.0024
1002.27	-4.00842
1002.639	-18.04441
1003.009	68.1537
1003.378	11.02731
1003.747	35.07871
1004.116	8.01844
1004.485	71.16156
1004.853	-16.03884
1005.222	-27.06503
1005.591	38.08614
1005.959	33.07156
1006.328	61.1312
1006.696	2.00464
1007.064	-4.00966
1007.433	5.01199
1007.801	11.02558
1008.169	12.02897
1008.537	41.08644
1008.905	11.02489
1009.273	-19.04521
1009.64	60.13877
1010.008	52.11821
1010.375	45.10261
1010.743	-13.02802
1011.11	82.18844
1011.478	51.12204
1011.845	56.12482
1012.212	24.05279
1012.579	15.03562
1012.946	54.12116
1013.313	66.14815
1013.68	23.04919
1014.047	10.02297
1014.414	16.0363
1014.78	28.06737
1015.147	-4.00923
1015.513	42.09702
1015.88	67.16277
1016.246	31.07257
1016.612	30.0651
1016.978	28.06653
1017.344	39.09286
1017.71	29.06746
1018.076	54.12007
1018.442	81.20003
1018.808	65.15721
1019.174	-13.03146
1019.539	27.05675
1019.905	47.10669
1020.27	2.00476
1020.636	10.02276
1021.001	45.10356
1021.366	-3.00701
1021.731	97.24156
1022.096	0
1022.461	52.11797
1022.826	60.13733
1023.191	37.09381
1023.556	46.10236
1023.92	10.02349
1024.285	1.00233
1024.649	-2.00471
1025.014	-13.03084
1025.378	32.07808
1025.742	-5.01191
1026.107	36.07745
1026.471	68.14975
1026.835	19.04543
1027.199	9.02096
1027.562	49.10739
1027.926	28.06538
1028.29	8.01962
1028.654	41.08963
1029.017	58.13686
1029.381	28.06453
1029.744	48.11782
1030.107	51.11521
1030.471	24.0556
1030.834	9.01932
1031.197	69.15809
1031.56	35.07861
1031.923	10.02512
1032.286	61.13639
1032.648	5.01135
1033.011	81.17909
1033.374	36.07998
1033.736	-16.04108
1034.099	3.00707
1034.461	5.01235
1034.823	51.12246
1035.185	19.04569
1035.548	84.19551
1035.91	36.08247
1036.272	90.19478
1036.634	102.23628
1036.995	22.0492
1037.357	26.06123
1037.719	73.16954
1038.08	37.08498
1038.442	8.01826
1038.803	26.05889
1039.165	15.03637
1039.526	62.14317
1039.887	50.11422
1040.248	54.12989
1040.609	35.08209
1040.97	43.10038
1041.331	30.0738
1041.692	64.14519
1042.053	56.12037
1042.413	44.09718
1042.774	62.14436
1043.134	1.00226
1043.495	42.10141
1043.855	116.26914
1044.215	-22.05272
1044.576	12.02788
1044.936	28.06101
1045.296	50.11958
1045.656	29.06759
1046.016	18.04153
1046.375	14.03273
1046.735	75.16451
1047.095	43.09626
1047.454	16.03191
1047.814	91.20774
1048.173	31.06986
1048.533	-7.01546
1048.892	16.03718
1049.251	14.03365
1049.61	19.04515
1049.969	38.0854
1050.328	27.05582
1050.687	29.0673
1051.046	33.07679
1051.405	0
1051.763	40.08901
1052.122	57.13588
1052.48	37.08742
1052.839	78.17753
1053.197	16.03615
1053.555	27.05742
1053.914	66.15343
1054.272	17.03861
1054.63	41.09646
1054.988	25.05767
1055.345	4.00812
1055.703	25.05795
1056.061	74.18458
1056.419	46.11669
1056.776	5.01148
1057.134	-45.09929
1057.491	38.09154
1057.848	11.02626
1058.206	16.03552
1058.563	33.06911
1058.92	37.08102
1059.277	58.1368
1059.634	-1.00223
1059.991	54.1239
1060.348	-19.04169
1060.704	37.08668
1061.061	49.10616
1061.418	22.05143
1061.774	13.03098
1062.131	58.1501
1062.487	35.07777
1062.843	48.11467
1063.199	57.13583
1063.555	49.10947
1063.911	-34.08311
1064.267	35.06798
1064.623	25.05916
1064.979	20.04367
1065.335	28.06355
1065.691	-1.00227
1066.046	37.07718
1066.402	-2.00434
1066.757	87.20946
1067.112	42.0983
1067.468	66.1507
1067.823	-10.02272
1068.178	18.04156
1068.533	25.05822
1068.888	51.11563
1069.243	31.07359
1069.598	12.02789
1069.952	72.15749
1070.307	13.03125
1070.662	45.10368
1071.016	90.19345
1071.371	79.17116
1071.725	20.04548
1072.079	71.163
1072.434	27.06335
1072.788	17.03832
1073.142	100.23358
1073.496	0
1073.85	24.05319
1074.203	30.06999
1074.557	44.11446
1074.911	25.05677
1075.265	51.11285
1075.618	80.18605
1075.971	44.0999
1076.325	45.11092
1076.678	40.08742
1077.031	-28.05987
1077.385	46.09576
1077.738	42.09004
1078.091	31.06814
1078.444	35.07658
1078.796	37.0878
1079.149	56.13368
1079.502	45.10248
1079.855	66.14656
1080.207	37.08712
1080.56	42.10533
1080.912	29.06764
1081.264	64.14767
1081.617	34.07992
1081.969	47.1147
1082.321	-5.01176
1082.673	26.05786
1083.025	13.02945
1083.377	290.61742
1083.728	61.13448
1084.08	3.00719
1084.432	35.08055
1084.783	26.05707
1085.135	27.06555
1085.486	12.02656
1085.838	30.07134
1086.189	36.08468
1086.54	35.07964
1086.891	65.16075
1087.242	86.20293
1087.593	30.06892
1087.944	79.17094
1088.295	49.10562
1088.646	73.17215
1088.996	25.05831
1089.347	8.01881
1089.698	56.12792
1090.048	34.08459
1090.398	51.11177
1090.749	0
1091.099	33.08104
1091.449	42.10095
1091.799	-7.01698
1092.149	18.043
1092.499	17.03997
1092.849	21.05165
1093.199	30.07164
1093.548	77.17819
1093.898	-14.03384
1094.248	-24.05941
1094.597	5.01255
1094.947	45.1162
1095.296	55.13086
1095.645	40.09978
1095.994	30.06914
1096.343	49.11887
1096.692	34.0879
1097.041	60.15944
1097.39	15.03609
1097.739	52.1299
1098.088	-10.02591
1098.437	12.03109
1098.785	-23.06007
1099.134	9.02279
1099.482	28.07507
1099.83	17.04332
1100.179	32.08236
1100.527	-21.05379
1100.875	22.05686
1101.223	50.12908
1101.571	-5.01344
1101.919	35.09056
1102.267	20.05539
1102.615	5.01606
1102.962	-1.00321
1103.31	3.00964
1103.658	-12.03853
