Data from N3 R1 sample 2_Subt2__2__16-11-30-492.txt Node

Date: Wed Sep 17 16:11:30 PDT 2025
User: uwsun
Spectrometer: HDX01956
Trigger mode: 0
Integration Time (sec): 5.000000E-1
Scans to average: 1
Nonlinearity correction enabled: true
Boxcar width: 0
Storing dark spectrum: false
XAxis mode: Wavelengths
Number of Pixels in Spectrum: 2068
>>>>>Begin Spectral Data<<<<<
194.03	328.90594
194.578	332.03387
195.127	308.95026
195.676	327.00731
196.225	358.89864
196.773	374.98365
197.321	547.39667
197.87	715.63876
198.418	796.81025
198.966	773.81196
199.513	782.75764
200.061	759.71253
200.609	733.73354
201.156	810.52365
201.704	709.59837
202.251	746.77548
202.798	787.80526
203.345	828.78958
203.892	783.74804
204.438	829.70279
204.985	755.58059
205.532	776.81368
206.078	807.72226
206.624	916.97479
207.17	829.68368
207.716	800.72167
208.262	813.36468
208.808	848.85777
209.354	862.84883
209.899	823.81243
210.445	857.86371
210.99	876.8442
211.535	841.7135
212.08	809.62958
212.625	758.67724
213.17	872.93037
213.715	833.6411
214.259	906.79805
214.804	808.73072
215.348	811.62688
215.892	830.75342
216.436	853.66482
216.98	836.56571
217.524	866.78245
218.068	847.86219
218.612	847.87929
219.155	783.61832
219.698	735.54478
220.242	704.54927
220.785	791.61882
221.328	770.67337
221.871	742.68198
222.414	710.56248
222.956	719.5204
223.499	709.38732
224.041	694.39991
224.583	693.27605
225.126	677.30961
225.668	723.55352
226.21	753.68656
226.751	684.34623
227.293	705.40097
227.835	710.5455
228.376	728.44707
228.918	763.66902
229.459	720.59509
230	699.49095
230.541	742.49001
231.082	728.56662
231.622	731.44259
232.163	759.60227
232.704	786.72478
233.244	692.53111
233.784	719.53829
234.324	781.51978
234.864	674.34643
235.404	692.44122
235.944	707.46826
236.484	772.69121
237.023	691.44201
237.563	738.50309
238.102	715.49083
238.641	729.62207
239.18	731.50737
239.719	792.73286
240.258	712.40142
240.797	752.57396
241.335	732.56782
241.874	768.26964
242.412	809.70716
242.95	769.62694
243.488	722.4158
244.026	822.6448
244.564	806.40419
245.102	790.5457
245.64	763.58961
246.177	727.40717
246.715	755.58964
247.252	716.42319
247.789	793.22637
248.326	731.55389
248.863	757.44298
249.4	733.45128
249.936	827.46553
250.473	846.71629
251.009	758.50889
251.546	783.50996
252.082	745.39053
252.618	788.51852
253.154	776.63068
253.69	778.50568
254.226	765.60225
254.761	767.49038
255.297	732.3895
255.832	779.61436
256.367	799.62416
256.903	803.53303
257.438	761.55525
257.972	794.51912
258.507	725.4575
259.042	839.54624
259.576	858.60936
260.111	783.55475
260.645	762.41916
261.179	791.60715
261.713	802.54332
262.247	744.48098
262.781	772.39659
263.315	775.64107
263.849	801.75219
264.382	815.60785
264.915	861.74318
265.449	842.77258
265.982	819.5946
266.515	884.85536
267.048	800.44588
267.58	805.47975
268.113	830.52312
268.646	829.75321
269.178	825.57358
269.71	873.62991
270.243	909.77679
270.775	858.91039
271.307	843.71836
271.838	823.673
272.37	866.82075
272.902	866.66109
273.433	858.61252
273.965	815.71608
274.496	801.73009
275.027	900.91629
275.558	896.86653
276.089	847.83261
276.62	840.83484
277.15	886.862
277.681	877.58012
278.211	854.78999
278.741	838.58568
279.272	864.68194
279.802	869.85865
280.332	862.74083
280.861	851.74488
281.391	856.6553
281.921	872.77873
282.45	878.867
282.98	924.06314
283.509	976.8392
284.038	868.68894
284.567	918.80159
285.096	948.93913
285.625	828.59191
286.153	937.88943
286.682	990.88111
287.21	865.76006
287.739	918.8312
288.267	925.91122
288.795	903.02984
289.323	939.85367
289.851	968.90252
290.378	948.75234
290.906	958.97725
291.433	952.00699
291.961	914.75836
292.488	990.05628
293.015	995.95244
293.542	1004.17571
294.069	950.99482
294.596	925.91633
295.122	1042.06006
295.649	982.76211
296.175	987.98126
296.702	1031.09182
297.228	995.99458
297.754	1031.89236
298.28	1058.98526
298.806	1053.08717
299.332	1038.89332
299.857	1082.98767
300.383	1051.19232
300.908	1059.15067
301.433	1030.09783
301.958	1074.99562
302.483	999.07179
303.008	1081.21528
303.533	1032.22887
304.058	1016.9521
304.582	1092.09693
305.107	1091.35388
305.631	1094.99672
306.155	1101.07433
306.679	1142.1565
307.203	1103.069
307.727	1158.19742
308.251	1091.20874
308.775	1142.25083
309.298	1138.21785
309.822	1132.31941
310.345	1219.30734
310.868	1232.35064
311.391	1187.34677
311.914	1221.4477
312.437	1220.18364
312.96	1219.26603
313.482	1210.24426
314.005	1225.43888
314.527	1235.58104
315.049	1194.44003
315.571	1279.21561
316.093	1268.4799
316.615	1262.37335
317.137	1359.2107
317.659	1343.50833
318.18	1350.46287
318.702	1361.43026
319.223	1338.00712
319.744	1412.3633
320.265	1327.51112
320.786	1444.74568
321.307	1365.60195
321.828	1444.40283
322.348	1429.52231
322.869	1415.54902
323.389	1798.22941
323.909	1469.46798
324.43	1426.56697
324.95	1606.61077
325.47	1560.85752
325.989	1580.71509
326.509	1616.54879
327.029	1629.62872
327.548	1615.58561
328.067	1618.84088
328.587	1745.10133
329.106	1639.5847
329.625	1661.16361
330.144	1675.73677
330.662	1756.84596
331.181	1759.86744
331.7	1728.77688
332.218	1794.57626
332.736	1846.90597
333.255	1866.94784
333.773	1813.91253
334.291	1951.28089
334.808	1822.74124
335.326	1853.74672
335.844	2034.06497
336.361	2099.54756
336.879	2021.0602
337.396	2071.25086
337.913	2135.04313
338.43	2119.92608
338.947	2204.23733
339.464	2163.75689
339.981	2175.1833
340.497	2273.4157
341.014	2163.31174
341.53	2158.94668
342.046	2305.52754
342.562	2300.50458
343.078	2302.21448
343.594	2324.27229
344.11	2393.3444
344.626	2383.62449
345.141	2437.12572
345.657	2468.08024
346.172	2422.39562
346.687	2510.15843
347.202	2519.14578
347.717	2556.37742
348.232	2627.6469
348.747	2652.23002
349.261	2602.96427
349.776	2632.38614
350.29	2679.70124
350.805	2801.64183
351.319	2775.27891
351.833	2810.23589
352.347	2772.37313
352.861	2739.33404
353.374	2815.1599
353.888	2907.59985
354.401	2844.16813
354.915	2999.13567
355.428	2939.72283
355.941	2939.30283
356.454	2922.04178
356.967	2942.30768
357.48	3043.13995
357.993	3064.63929
358.505	3147.56232
359.018	3154.61832
359.53	3255.59121
360.042	3160.06511
360.554	3250.60995
361.066	3118.56839
361.578	3226.97881
362.09	3237.41911
362.602	3291.01851
363.113	3305.34743
363.625	3350.11312
364.136	3373.90421
364.647	3445.36822
365.158	3480.23436
365.669	3597.37112
366.18	3547.28664
366.691	3472.86017
367.201	3557.40649
367.712	3589.10147
368.222	3649.12002
368.733	3803.6977
369.243	3807.87258
369.753	3876.03583
370.263	3999.31652
370.773	3815.43217
371.282	3944.25792
371.792	4108.97605
372.301	4167.23467
372.811	4213.88075
373.32	4309.42878
373.829	4386.94943
374.338	4537.46568
374.847	4610.68411
375.356	4768.7417
375.865	4979.99388
376.373	5206.24555
376.882	5395.94911
377.39	5456.52831
377.898	5552.61708
378.407	5873.90243
378.915	6166.57342
379.423	6156.94372
379.93	6526.84431
380.438	6801.00749
380.946	7053.81955
381.453	7308.03038
381.96	7668.12738
382.468	8148.38745
382.975	8831.31547
383.482	8980.38706
383.989	9166.96212
384.495	9427.32092
385.002	9781.2839
385.509	10559.51912
386.015	11202.83543
386.521	11653.44197
387.028	12162.23936
387.534	12492.7977
388.04	13104.69513
388.546	13176.18251
389.051	14054.17223
389.557	15064.59729
390.063	16294.9225
390.568	16732.5729
391.073	17184.6803
391.578	18001.5665
392.084	18626.46909
392.589	19166.03388
393.093	20607.50733
393.598	22368.10328
394.103	24464.35784
394.607	26964.11607
395.112	29049.24033
395.616	30534.8918
396.12	33304.39608
396.624	36891.33824
397.128	39774.7677
397.632	44134.92801
398.136	48628.705
398.639	51283.29931
399.143	56812.6835
399.646	62362.59349
400.15	63218.76213
400.653	63812.32447
401.156	63789.27002
401.659	63966.70148
402.162	63853.42274
402.664	62441.93235
403.167	63977.72923
403.67	63769.22307
404.172	63919.58413
404.674	63858.43483
405.176	63738.15102
405.678	63977.72923
406.18	64011.81569
406.682	63863.44694
407.184	63926.60148
407.686	63841.39382
408.187	64025.8516
408.688	63892.51763
409.19	63833.37461
409.691	63977.72923
410.192	63945.6488
410.693	63713.09355
411.194	63812.32447
411.694	63919.58413
412.195	64038.8851
412.696	63881.49072
413.196	63630.90911
413.696	63920.58661
414.196	63735.14409
414.696	63998.78251
415.196	63858.43483
415.696	63774.23477
416.196	63867.45664
416.695	61553.75551
417.195	52707.26719
417.694	49814.82205
418.194	47487.57936
418.693	44201.43139
419.192	42709.61942
419.691	41795.32348
420.19	40991.88372
420.688	39445.67089
421.187	37737.97369
421.685	35562.97031
422.184	32107.05547
422.682	28022.79369
423.18	24022.05639
423.678	21049.21097
424.176	19572.36099
424.674	18671.78857
425.172	17564.19529
425.669	16616.98546
426.167	15459.65117
426.664	14282.88545
427.161	13035.86539
427.659	12174.88445
428.156	11261.99001
428.652	10735.02905
429.149	10263.52894
429.646	9859.44484
430.143	9275.01083
430.639	8748.07701
431.135	8249.67231
431.632	7861.9949
432.128	7452.00138
432.624	6987.39745
433.12	6790.61952
433.616	6511.41995
434.111	6349.9277
434.607	6088.06615
435.103	5880.3113
435.598	5825.29557
436.093	5555.10405
436.588	5290.01003
437.083	5052.10907
437.578	4863.44158
438.073	4693.13118
438.568	4568.06092
439.062	4242.26294
439.557	4208.85301
440.051	4039.66704
440.546	4015.74795
441.04	3870.19306
441.534	3721.59026
442.028	3780.24633
442.522	3715.24095
443.015	3534.58406
443.509	3461.39957
444.002	3519.42682
444.496	3389.69656
444.989	3407.3895
445.482	3332.54021
445.975	3363.08689
446.468	3284.7166
446.961	3310.72698
447.454	3163.93848
447.947	3164.31738
448.439	3176.49167
448.931	3037.09192
449.424	3004.73656
449.916	2986.45884
450.408	2977.06987
450.9	2965.42658
451.392	2869.70117
451.884	2787.09419
452.375	2678.50256
452.867	2752.97041
453.358	2679.06745
453.849	2625.71542
454.341	2625.98449
454.832	2609.76137
455.323	2609.5205
455.814	2553.03577
456.304	2635.11021
456.795	2438.00195
457.285	2467.82946
457.776	2429.98755
458.266	2420.18876
458.756	2324.12767
459.247	2398.22039
459.737	2292.2379
460.226	2287.94602
460.716	2276.16727
461.206	2135.09915
461.695	2141.25855
462.185	2109.0495
462.674	2100.87453
463.163	2118.80256
463.653	2075.56834
464.142	2013.08349
464.63	1957.04146
465.119	1920.84175
465.608	1960.90026
466.096	1913.56194
466.585	1907.75742
467.073	1814.821
467.561	1802.87935
468.05	1784.70228
468.538	1781.93563
469.026	1689.73709
469.513	1713.34127
470.001	1749.66801
470.489	1696.75387
470.976	1667.66518
471.463	1652.89045
471.951	1591.81845
472.438	1540.56234
472.925	1495.52684
473.412	1509.64231
473.899	1420.36392
474.385	1434.59058
474.872	1443.43971
475.359	1391.55509
475.845	1350.00476
476.331	1330.05826
476.817	1298.40564
477.303	1260.22447
477.789	1208.22616
478.275	1252.40495
478.761	1211.22118
479.247	1185.02397
479.732	1208.36122
480.218	1213.51948
480.703	1141.22843
481.188	1146.90762
481.673	1118.01781
482.158	1101.85196
482.643	1138.32754
483.128	1140.08375
483.612	1130.12653
484.097	1030.01072
484.581	1006.88196
485.066	1025.04382
485.55	966.73067
486.034	941.65599
486.518	984.92947
487.002	893.8179
487.486	896.81948
487.969	858.75964
488.453	900.87984
488.936	887.65365
489.42	849.56548
489.903	878.84276
490.386	772.34127
490.869	853.55482
491.352	839.70787
491.835	827.39883
492.318	754.44803
492.8	827.42002
493.283	795.75075
493.765	755.60077
494.247	735.4756
494.73	767.44368
495.212	730.49688
495.694	726.48264
496.175	765.5832
496.657	770.56408
497.139	646.93975
497.62	703.47616
498.102	667.46686
498.583	618.35074
499.064	626.22843
499.545	674.34021
500.026	662.3102
500.507	627.27413
500.988	688.5134
501.469	595.3286
501.949	651.42265
502.43	645.37506
502.91	638.18252
503.39	596.32289
503.87	611.28445
504.35	599.24647
504.83	589.14073
505.31	579.25073
505.79	551.17187
506.269	551.13473
506.749	505.0459
507.228	524.11701
507.707	576.14505
508.187	599.27743
508.666	552.23729
509.145	533.12566
509.623	504.07245
510.102	573.24515
510.581	538.17468
511.059	569.29346
511.538	477.13246
512.016	534.15856
512.494	470.03593
512.972	523.13634
513.45	480.02306
513.928	550.20852
514.406	515.15069
514.884	525.23654
515.361	487.06562
515.839	542.12492
516.316	554.2163
516.793	496.14752
517.27	492.08089
517.747	509.19648
518.224	520.08399
518.701	492.98819
519.178	477.09804
519.654	478.03598
520.131	477.0858
520.607	427.96876
521.083	462.95961
521.56	472.01904
522.036	426.85484
522.512	529.18785
522.987	450.00005
523.463	429.94245
523.939	506.14844
524.414	489.01903
524.89	486.06097
525.365	422.882
525.84	453.0036
526.315	409.92379
526.79	422.88083
527.265	516.08136
527.74	415.93772
528.215	380.82904
528.689	347.71417
529.164	411.81427
529.638	403.95573
530.112	414.90473
530.587	451.8839
531.061	423.9519
531.534	421.94314
532.008	415.9404
532.482	443.93922
532.956	393.94063
533.429	444.00505
533.903	400.81342
534.376	426.86945
534.849	381.81871
535.322	396.87198
535.795	402.90595
536.268	378.85884
536.741	371.82636
537.213	411.87747
537.686	395.90454
538.158	418.88177
538.631	381.86548
539.103	399.83893
539.575	352.67764
540.047	419.8441
540.519	417.92687
540.991	396.90337
541.463	388.87369
541.934	370.78292
542.406	410.91869
542.877	376.79388
543.348	433.97081
543.82	407.92377
544.291	421.91283
544.762	427.94437
545.233	456.07025
545.703	440.90291
546.174	429.92224
546.645	475.05681
547.115	434.97325
547.585	443.94127
548.056	507.14164
548.526	491.0676
548.996	446.98741
549.466	540.19149
549.935	514.12031
550.405	522.03655
550.875	511.10693
551.344	518.12474
551.814	533.10547
552.283	530.04364
552.752	540.14719
553.221	617.20703
553.69	624.25101
554.159	595.33516
554.628	603.21915
555.096	576.32865
555.565	506.01641
556.033	583.25132
556.502	513.13064
556.97	473.96602
557.438	472.0186
557.906	453.98889
558.374	459.9829
558.842	409.91588
559.31	408.85086
559.777	392.90001
560.245	376.80954
560.712	373.80222
561.18	385.79737
561.647	366.76226
562.114	336.72933
562.581	373.86513
563.048	352.7608
563.514	408.95993
563.981	364.78471
564.448	374.79347
564.914	361.78976
565.381	370.79491
565.847	361.79209
566.313	342.75025
566.779	368.77801
567.245	330.72424
567.711	336.7625
568.176	322.68554
568.642	350.83503
569.108	315.73786
569.573	330.72363
570.038	347.68232
570.504	350.74612
570.969	287.68122
571.434	349.7309
571.899	352.78811
572.363	391.83912
572.828	428.91356
573.293	397.85015
573.757	399.86587
574.222	377.79232
574.686	431.92016
575.15	421.94507
575.614	470.02165
576.078	421.91983
576.542	318.68879
577.006	377.79931
577.469	344.80152
577.933	399.84964
578.396	369.82361
578.86	401.88244
579.323	376.85291
579.786	412.83057
580.249	453.98806
580.712	301.699
581.175	336.78596
581.637	321.69544
582.1	370.75619
582.563	291.58974
583.025	335.77363
583.487	356.68831
583.95	376.75416
584.412	418.81322
584.874	365.83988
585.336	327.73681
585.797	387.78681
586.259	387.84878
586.721	349.77382
587.182	362.78576
587.643	381.81166
588.105	341.7627
588.566	398.77173
589.027	389.89509
589.488	389.83626
589.949	408.92661
590.41	392.72163
590.87	419.89261
591.331	384.78551
591.791	346.75775
592.252	364.79918
592.712	330.75071
593.172	365.78164
593.632	382.79593
594.092	406.84293
594.552	413.83124
595.011	350.7568
595.471	394.83553
595.931	394.83188
596.39	418.93622
596.849	396.86284
597.308	362.72373
597.768	365.89092
598.227	385.86854
598.685	395.84149
599.144	412.90645
599.603	385.84403
600.062	383.75382
600.52	438.91625
600.978	403.88981
601.437	428.90286
601.895	458.90166
602.353	381.78308
602.811	466.96705
603.269	477.04194
603.727	394.88611
604.184	409.86866
604.642	443.00908
605.099	468.00521
605.557	439.99113
606.014	401.80375
606.471	503.15753
606.928	555.10913
607.385	595.34226
607.842	646.30772
608.299	628.30313
608.755	614.32898
609.212	611.20939
609.668	630.25724
610.125	645.37863
610.581	622.29583
611.037	565.13437
611.493	576.20572
611.949	592.29548
612.405	580.04594
612.861	526.09506
613.316	521.13535
613.772	605.23271
614.227	621.33013
614.683	542.02876
615.138	568.19681
615.593	568.18318
616.048	643.29659
616.503	583.2712
616.958	614.377
617.412	652.36745
617.867	596.18543
618.321	601.09081
618.776	590.15385
619.23	585.22539
619.684	530.0652
620.138	622.25849
620.592	530.16646
621.046	630.3195
621.5	523.1426
621.954	520.03641
622.407	558.1025
622.861	558.2215
623.314	548.11309
623.768	584.23381
624.221	544.94985
624.674	527.09982
625.127	521.09594
625.58	499.015
626.033	529.038
626.485	510.10875
626.938	499.08227
627.39	541.14008
627.843	517.07796
628.295	509.06313
628.747	497.07976
629.199	484.00255
629.651	491.0232
630.103	513.0644
630.555	499.94795
631.006	450.96176
631.458	481.03252
631.909	429.88451
632.361	449.95152
632.812	493.03694
633.263	514.00305
633.714	491.93866
634.165	493.0765
634.616	495.064
635.067	594.1551
635.518	537.1475
635.968	558.96506
636.419	634.21078
636.869	611.28332
637.319	605.24444
637.769	649.27573
638.219	668.37947
638.669	641.34287
639.119	616.30663
639.569	687.43936
640.019	734.45834
640.468	774.47151
640.918	764.55258
641.367	789.49171
641.816	797.49144
642.265	909.75417
642.714	855.63642
643.163	947.791
643.612	974.96456
644.061	984.6783
644.51	978.81779
644.958	1050.8306
645.406	1018.96999
645.855	1066.07724
646.303	1184.10814
646.751	1147.06667
647.199	1188.06215
647.647	1184.12221
648.095	1187.0761
648.543	1221.82186
648.99	1252.30408
649.438	1308.25716
649.885	1362.56073
650.333	1348.82662
650.78	1395.49632
651.227	1377.51671
651.674	1411.33032
652.121	1385.53518
652.568	1459.61667
653.015	1333.49569
653.461	1356.39719
653.908	1377.31123
654.354	1329.36924
654.801	1362.36074
655.247	1352.11325
655.693	1347.68339
656.139	1354.40475
656.585	1310.35495
657.031	1291.28591
657.477	1350.13928
657.922	1277.1703
658.368	1310.44352
658.813	1263.15442
659.259	1359.46261
659.704	1374.40915
660.149	1212.13384
660.594	1254.26765
661.039	1202.09094
661.484	1227.22706
661.929	1211.16913
662.373	1159.30088
662.818	1207.3255
663.262	1190.23867
663.707	1146.32184
664.151	1218.29819
664.595	1159.19667
665.039	1126.22026
665.483	1134.3027
665.927	1113.05209
666.371	1185.15598
666.814	1188.18375
667.258	1151.17619
667.701	1157.86979
668.145	1200.33344
668.588	1201.32273
669.031	1148.10473
669.474	1199.22544
669.917	1205.9893
670.36	1227.37987
670.803	1244.30524
671.245	1129.74262
671.688	1153.20219
672.13	1183.04642
672.573	1204.38099
673.015	1216.26211
673.457	1265.03508
673.899	1209.26067
674.341	1247.2977
674.783	1201.22367
675.225	1220.32657
675.666	1286.39744
676.108	1298.04927
676.549	1263.21769
676.991	1215.00148
677.432	1297.82969
677.873	1207.09472
678.314	1189.18614
678.755	1350.49986
679.196	1265.16591
679.637	1248.27615
680.078	1265.22699
680.518	1248.15654
680.959	1184.17854
681.399	1219.3375
681.839	1286.36569
682.28	1264.41185
682.72	1247.14402
683.16	1262.42074
683.6	1198.07194
684.039	1223.85341
684.479	1255.37911
684.919	1299.28829
685.358	1225.36026
685.798	1208.47532
686.237	1234.24489
686.676	1297.16678
687.115	1257.23922
687.554	1282.31613
687.993	1280.08658
688.432	1354.25337
688.871	1322.23458
689.309	1359.41428
689.748	1320.96071
690.186	1316.28301
690.625	1365.35418
691.063	1328.35837
691.501	1349.49985
691.939	1406.63343
692.377	1415.51036
692.815	1478.61393
693.253	1497.53431
693.69	1470.23604
694.128	1442.54602
694.565	1457.47673
695.003	1530.83438
695.44	1542.5643
695.877	1523.52216
696.314	1598.21177
696.751	1589.44814
697.188	1615.55372
697.625	1663.46122
698.061	1619.67364
698.498	1666.66431
698.934	1709.74527
699.371	1671.65516
699.807	1754.73282
700.243	1730.80185
700.679	1746.50622
701.115	1861.76206
701.551	1883.75864
701.987	1783.4528
702.422	1948.92178
702.858	1936.91033
703.294	2043.8008
703.729	2069.07948
704.164	2003.9518
704.599	2140.72754
705.035	2092.72565
705.47	2223.15428
705.904	2142.88711
706.339	2309.91032
706.774	2318.01184
707.209	2320.98511
707.643	2357.13407
708.078	2464.2574
708.512	2446.42612
708.946	2473.11294
709.38	2598.16293
709.814	2606.89802
710.248	2671.34522
710.682	2748.25069
711.116	2762.33721
711.549	2765.62304
711.983	2833.02224
712.416	2998.18394
712.85	2939.44499
713.283	2942.14755
713.716	3077.44868
714.149	3158.00356
714.582	3251.80912
715.015	3185.36846
715.448	3287.55121
715.881	3358.50446
716.313	3403.00714
716.746	3458.08385
717.178	3604.14808
717.61	3682.54203
718.043	3672.31036
718.475	3738.16646
718.907	3878.32089
719.339	3828.66265
719.77	4051.94527
720.202	3923.32663
720.634	4148.0851
721.065	4221.73188
721.497	4238.01283
721.928	4334.94668
722.359	4484.85041
722.79	4603.64973
723.221	4681.88062
723.652	4733.04756
724.083	4731.12066
724.514	4965.13795
724.945	5025.2362
725.375	5128.17568
725.806	5181.53502
726.236	5298.77483
726.666	5399.07785
727.096	5614.24295
727.526	5713.63429
727.956	5790.68547
728.386	5979.08944
728.816	6001.43883
729.246	6257.05141
729.675	6245.95288
730.105	6400.925
730.534	6534.58067
730.964	6721.00075
731.393	6785.86927
731.822	7000.16072
732.251	7079.11124
732.68	7243.58799
733.109	7438.99714
733.537	7566.0034
733.966	7713.18108
734.395	7857.91701
734.823	8069.96203
735.251	8089.25294
735.68	8351.60468
736.108	8473.79007
736.536	8502.62881
736.964	8763.99574
737.392	8904.37407
737.82	9198.82374
738.247	9214.85454
738.675	9403.25539
739.102	9610.74846
739.53	9837.30485
739.957	9918.5112
740.384	10092.06569
740.811	10295.63761
741.238	10686.01038
741.665	10670.10207
742.092	10569.82154
742.519	10877.69699
742.945	11125.8101
743.372	11515.45721
743.798	11575.56871
744.225	11700.73063
744.651	11822.95197
745.077	11954.66649
745.503	12155.0574
745.929	12501.06387
746.355	12607.7254
746.781	12501.95977
747.207	12841.47692
747.632	12908.41282
748.058	13160.96518
748.483	13437.20692
748.908	13652.73875
749.334	13892.77414
749.759	14022.34732
750.184	14177.47218
750.609	14390.08763
751.033	14626.06248
751.458	14768.188
751.883	14849.16845
752.307	14973.13927
752.732	15157.26833
753.156	15326.74159
753.58	15518.57792
754.005	15534.44992
754.429	15694.20708
754.853	15669.93229
755.277	16003.48264
755.7	16199.65541
756.124	16251.16789
756.548	16326.20137
756.971	16415.44861
757.394	16788.56681
757.818	16772.10156
758.241	16721.90265
758.664	16881.92393
759.087	17106.32377
759.51	17119.35682
759.933	17363.71491
760.356	17505.72264
760.778	17473.69454
761.201	17357.77015
761.623	17266.0674
762.046	17791.05205
762.468	17812.66406
762.89	17642.02972
763.312	18014.54184
763.734	18014.97256
764.156	17908.98814
764.578	17595.22735
765	17812.14568
765.421	17807.76106
765.843	17840.5243
766.264	17855.53672
766.686	17857.28586
767.107	17830.54064
767.528	18064.79737
767.949	18042.96847
768.37	17839.9874
768.791	17628.35368
769.212	17581.32642
769.632	17622.78214
770.053	17578.37563
770.473	17711.24658
770.894	17449.49676
771.314	17472.87904
771.734	17354.68437
772.154	17143.82726
772.575	17295.27617
772.994	17414.16518
773.414	17296.52633
773.834	17172.81352
774.254	17109.58327
774.673	17157.00634
775.093	16839.829
775.512	16766.19652
775.931	16687.64591
776.351	16882.28551
776.77	16596.3763
777.189	16594.18607
777.607	16424.54876
778.026	16197.63334
778.445	16051.58099
778.864	15994.10755
779.282	15867.11783
779.701	15736.60493
780.119	15562.55829
780.537	15329.65814
780.955	15318.24851
781.373	15062.20478
781.791	15181.92735
782.209	15112.4754
782.627	14944.82193
783.045	14853.78609
783.462	14701.20702
783.88	14558.65819
784.297	14279.76979
784.715	14158.32037
785.132	13900.34546
785.549	13618.54959
785.966	13582.16366
786.383	13500.77901
786.8	13311.23953
787.217	13083.15648
787.633	12795.59211
788.05	12676.75665
788.466	12797.55938
788.883	12705.79654
789.299	12403.77632
789.715	12189.21367
790.131	11897.44227
790.547	11850.18439
790.963	11734.63047
791.379	11503.34767
791.795	11417.69822
792.21	11081.92938
792.626	10952.29925
793.041	10658.93714
793.457	10734.23338
793.872	10410.22339
794.287	10303.73509
794.702	10134.20244
795.117	9872.40573
795.532	9678.91153
795.947	9430.3178
796.362	9335.09913
796.776	9250.90962
797.191	9056.57292
797.605	8839.14545
798.02	8563.77626
798.434	8312.23114
798.848	8338.60338
799.262	8090.33837
799.676	7961.15517
800.09	7820.09028
800.504	7630.88906
800.918	7353.51568
801.331	7149.0839
801.745	7122.41301
802.158	6842.85141
802.572	6768.71537
802.985	6630.63546
803.398	6379.63253
803.811	6321.05075
804.224	6039.96115
804.637	5938.82094
805.05	5781.5957
805.462	5705.06245
805.875	5440.74249
806.288	5285.2489
806.7	5175.48437
807.112	5160.8884
807.525	4915.43259
807.937	4815.67024
808.349	4708.74538
808.761	4621.74609
809.173	4514.68992
809.584	4320.85431
809.996	4152.9063
810.408	4128.4688
810.819	4077.66813
811.231	4065.72251
811.642	3960.1425
812.053	3915.01687
812.464	3757.84372
812.875	3669.49235
813.286	3531.61864
813.697	3354.71205
814.108	3281.15811
814.519	3219.68653
814.929	3078.49368
815.34	2965.11104
815.75	2828.54697
816.16	2783.259
816.571	2743.58817
816.981	2645.93011
817.391	2526.05173
817.801	2561.31349
818.211	2479.00986
818.62	2448.10815
819.03	2247.08001
819.44	2274.35849
819.849	2136.12591
820.259	2075.1691
820.668	2045.03407
821.077	1965.05583
821.486	1936.77884
821.895	1906.86452
822.304	1806.17705
822.713	1783.63824
823.122	1705.80923
823.531	1542.41299
823.939	1640.68277
824.348	1605.59397
824.756	1527.63522
825.164	1496.62146
825.573	1460.59655
825.981	1420.48116
826.389	1424.54649
826.797	1350.52206
827.205	1333.1838
827.612	1318.34775
828.02	1239.10539
828.428	1215.33316
828.835	1223.4831
829.243	1164.05006
829.65	1090.1161
830.057	1036.93724
830.464	1100.08607
830.871	1079.98759
831.278	1035.94155
831.685	956.63652
832.092	956.83049
832.499	928.5825
832.905	883.80241
833.312	848.50478
833.718	871.7803
834.124	767.43379
834.531	776.60635
834.937	787.69187
835.343	747.47697
835.749	744.40272
836.155	696.55659
836.561	702.45495
836.966	676.38852
837.372	631.37193
837.777	618.32854
838.183	610.13221
838.588	652.3909
838.993	581.21969
839.399	593.25477
839.804	510.09136
840.209	568.27894
840.613	532.01171
841.018	513.13536
841.423	510.15613
841.828	502.1269
842.232	453.97675
842.637	468.98463
843.041	449.03471
843.445	397.88938
843.849	382.85808
844.253	460.96014
844.657	419.95524
845.061	486.98109
845.465	389.84454
845.869	381.79191
846.272	368.81476
846.676	354.75825
847.079	359.83892
847.483	408.91082
847.886	380.82272
848.289	363.90052
848.692	312.71924
849.095	307.66937
849.498	311.71079
849.901	345.70462
850.304	268.58793
850.707	289.6767
851.109	303.69975
851.512	284.64399
851.914	275.64619
852.316	267.63326
852.718	299.7334
853.121	280.63183
853.523	232.49716
853.925	249.61304
854.326	274.63769
854.728	231.55717
855.13	244.59353
855.531	224.49845
855.933	247.5413
856.334	244.57034
856.736	214.44828
857.137	223.4852
857.538	187.44559
857.939	264.61272
858.34	208.46688
858.741	203.49685
859.142	192.42813
859.542	190.47683
859.943	190.44239
860.343	157.36995
860.744	201.45774
861.144	205.47157
861.544	161.36991
861.945	122.29556
862.345	152.34861
862.745	193.45335
863.145	170.3728
863.544	192.45724
863.944	173.38249
864.344	132.30626
864.743	192.44528
865.143	152.37362
865.542	111.24029
865.941	167.39091
866.34	145.3226
866.74	161.41094
867.139	185.42097
867.537	103.2476
867.936	172.39036
868.335	90.21861
868.734	131.31897
869.132	91.19825
869.531	146.32839
869.929	86.18756
870.327	110.25036
870.726	105.24655
871.124	91.20044
871.522	97.2353
871.92	111.26044
872.318	122.28048
872.715	64.14955
873.113	114.26209
873.511	98.23205
873.908	95.23356
874.306	132.31424
874.703	103.24299
875.1	96.23108
875.497	85.1935
875.894	118.28027
876.291	106.24817
876.688	95.23494
877.085	79.17955
877.482	117.27827
877.878	93.21659
878.275	102.24822
878.671	84.17137
879.068	96.22044
879.464	112.25677
879.86	124.27719
880.256	82.19003
880.652	64.15645
881.048	99.23101
881.444	36.08114
881.84	103.24939
882.236	95.22777
882.631	68.16095
883.027	114.26051
883.422	30.07372
883.817	23.05646
884.213	89.21881
884.608	106.25341
885.003	48.11018
885.398	36.08712
885.793	52.12503
886.188	48.11467
886.582	87.21144
886.977	69.1553
887.371	68.16381
887.766	36.08702
888.16	57.13416
888.554	99.23129
888.949	78.1874
889.343	69.16038
889.737	67.17402
890.131	68.16375
890.525	95.23408
890.918	69.16644
891.312	75.16935
891.706	58.14635
892.099	80.19432
892.492	68.13828
892.886	56.13116
893.279	43.10541
893.672	78.19187
894.065	85.20379
894.458	26.06254
894.851	52.12141
895.244	36.08879
895.637	68.15733
896.029	87.20445
896.422	23.05354
896.814	31.07413
897.206	79.18231
897.599	112.26273
897.991	57.13317
898.383	38.08656
898.775	63.13749
899.167	38.08659
899.559	62.1493
899.951	101.22349
900.342	20.04874
900.734	110.26659
901.125	59.14805
901.517	74.1742
901.908	48.10863
902.299	42.09922
902.69	121.27266
903.082	51.11859
903.473	70.16312
903.863	33.08086
904.254	116.25792
904.645	22.05215
905.036	107.25164
905.426	61.13103
905.817	63.14707
906.207	6.01367
906.597	49.11114
906.987	40.09923
907.378	95.23088
907.768	30.07718
908.158	63.14678
908.547	55.13905
908.937	-9.02219
909.327	56.13008
909.717	9.02178
910.106	9.0208
910.495	52.12322
910.885	40.09803
911.274	44.10571
911.663	49.11855
912.052	81.18842
912.441	52.12844
912.83	33.07214
913.219	-3.00761
913.608	61.14391
913.997	57.13884
914.385	61.13948
914.774	29.06791
915.162	74.17054
915.55	54.1242
915.939	37.09093
916.327	39.09297
916.715	74.18398
917.103	62.14345
917.491	72.16976
917.878	54.12707
918.266	36.08983
918.654	84.20732
919.041	48.12272
919.429	4.00913
919.816	84.20335
920.203	64.15025
920.591	49.11712
920.978	59.13849
921.365	53.13476
921.752	-26.05932
922.139	78.1605
922.525	16.0373
922.912	16.03755
923.299	45.10785
923.685	-22.05553
924.072	29.06251
924.458	29.06971
924.844	36.08593
925.231	17.03774
925.617	35.08703
926.003	98.23822
926.389	21.05123
926.774	24.05858
927.16	35.0836
927.546	54.13509
927.931	27.06459
928.317	36.07888
928.702	67.15049
929.088	127.29063
929.473	50.12363
929.858	41.09729
930.243	48.1119
930.628	57.13458
931.013	45.10752
931.398	43.09289
931.783	6.01518
932.167	103.24224
932.552	79.18861
932.937	60.14185
933.321	77.18672
933.705	-21.05098
934.09	1.0024
934.474	37.08348
934.858	26.06549
935.242	23.05111
935.626	50.12404
936.009	31.08082
936.393	72.17842
936.777	59.14634
937.16	40.10147
937.544	29.06452
937.927	54.13269
938.311	41.09545
938.694	56.14332
939.077	17.03928
939.46	6.01392
939.843	26.05044
940.226	15.03708
940.609	89.19653
940.991	23.05625
941.374	81.19035
941.757	52.1226
942.139	64.13757
942.522	51.11455
942.904	75.17212
943.286	32.07819
943.668	83.20849
944.05	43.10199
944.432	61.14363
944.814	66.15386
945.196	54.12747
945.578	51.11845
945.959	1.00224
946.341	34.07867
946.722	41.09167
947.104	35.08048
947.485	11.02471
947.866	78.18989
948.247	64.15668
948.628	-38.08855
949.009	23.05703
949.39	58.13749
949.771	13.02838
950.152	34.08051
950.532	58.14115
950.913	8.01862
951.293	32.0847
951.674	30.06988
952.054	109.26213
952.434	44.10531
952.814	35.07897
953.194	22.055
953.574	60.14081
953.954	-9.02047
954.334	79.1902
954.714	5.01187
955.093	72.1691
955.473	57.13858
955.853	44.10999
956.232	8.02133
956.611	21.04783
956.99	31.07557
957.37	37.09029
957.749	-9.02045
958.128	51.12446
958.506	33.08299
958.885	-9.022
959.264	67.15947
959.643	39.08565
960.021	34.08187
960.4	2.00437
960.778	21.0491
961.156	-18.04374
961.535	3.00667
961.913	52.11715
962.291	58.1452
962.669	52.12749
963.047	64.15784
963.424	83.20579
963.802	62.14647
964.18	29.06956
964.557	32.07026
964.935	37.08403
965.312	4.01019
965.69	28.06694
966.067	15.03482
966.444	-9.02108
966.821	49.12189
967.198	9.02082
967.575	45.10542
967.952	35.07887
968.329	54.12687
968.705	106.21526
969.082	48.12047
969.458	27.06338
969.835	36.08425
970.211	69.17202
970.587	43.10325
970.963	50.12227
971.339	28.07118
971.715	71.1701
972.091	37.08756
972.467	19.04505
972.843	39.09443
973.219	73.16517
973.594	24.06086
973.97	42.09304
974.345	80.18333
974.721	24.05504
975.096	26.06118
975.471	49.11073
975.846	18.04135
976.221	2.00494
976.596	68.15864
976.971	88.20877
977.346	52.11456
977.72	9.0221
978.095	17.04254
978.469	25.05712
978.844	45.10805
979.218	78.18133
979.593	50.11408
979.967	-13.03011
980.341	78.17156
980.715	64.15511
981.089	50.12013
981.463	28.06171
981.837	29.06921
982.21	-1.00218
982.584	35.0817
982.957	23.05588
983.331	-7.01575
983.704	122.28776
984.078	16.03802
984.451	-8.01896
984.824	44.1037
985.197	3.00693
985.57	24.05709
985.943	17.03972
986.316	18.0419
986.688	78.17875
987.061	68.15251
987.434	77.1953
987.806	17.03912
988.179	5.01134
988.551	20.0488
988.923	5.01184
989.295	63.14984
989.667	23.05384
990.039	86.20646
990.411	0
990.783	-8.01753
991.155	-13.03048
991.527	52.12008
991.898	44.10603
992.27	24.05792
992.641	23.05529
993.012	52.11355
993.384	0
993.755	71.17462
994.126	78.18054
994.497	22.05211
994.868	32.06949
995.239	9.02099
995.61	52.12588
995.98	-13.03059
996.351	55.13172
996.722	83.1852
997.092	0
997.462	20.04559
997.833	58.12992
998.203	13.02991
998.573	17.0411
998.943	69.15511
999.313	39.09033
999.683	79.1813
1000.053	-50.10928
1000.423	31.07183
1000.792	15.03721
1001.162	21.04947
1001.531	73.17228
1001.901	40.09534
1002.27	-1.0021
1002.639	18.04412
1003.009	30.06834
1003.378	64.15738
1003.747	-3.0068
1004.116	-17.03937
1004.485	64.14584
1004.853	-2.00484
1005.222	-12.02882
1005.591	54.12201
1005.959	17.03699
1006.328	34.07355
1006.696	10.02316
1007.064	29.06958
1007.433	11.02634
1007.801	16.03717
1008.169	12.02897
1008.537	99.20605
1008.905	69.15428
1009.273	50.11738
1009.64	50.11587
1010.008	2.00459
1010.375	57.12965
1010.743	21.04493
1011.11	53.12251
1011.478	46.11018
1011.845	55.12262
1012.212	36.07898
1012.579	24.05689
1012.946	30.06764
1013.313	38.08579
1013.68	13.02786
1014.047	18.04128
1014.414	21.04759
1014.78	61.14586
1015.147	29.06647
1015.513	27.06256
1015.88	15.0368
1016.246	25.05859
1016.612	27.05862
1016.978	56.13234
1017.344	35.0834
1017.71	29.06746
1018.076	19.04255
1018.442	64.15854
1018.808	59.14286
1019.174	-42.10221
1019.539	-8.01694
1019.905	52.11792
1020.27	-20.04785
1020.636	35.07926
1021.001	39.08986
1021.366	53.12241
1021.731	61.1529
1022.096	38.09331
1022.461	62.14037
1022.826	75.17115
1023.191	42.10639
1023.556	64.14189
1023.92	43.10034
1024.285	6.01397
1024.649	-3.00706
1025.014	13.03068
1025.378	24.05865
1025.742	23.05451
1026.107	36.07745
1026.471	49.10834
1026.835	37.08817
1027.199	-4.00934
1027.562	20.0441
1027.926	27.06305
1028.29	15.03674
1028.654	34.07443
1029.017	47.11114
1029.381	43.0988
1029.744	35.08611
1030.107	43.09729
1030.471	38.08778
1030.834	-5.01076
1031.197	34.07845
1031.56	63.14069
1031.923	44.10983
1032.286	42.09428
1032.648	6.01362
1033.011	61.13543
1033.374	18.04014
1033.736	-6.01538
1034.099	44.10294
1034.461	39.09571
1034.823	25.06033
1035.185	18.0433
1035.548	40.09391
1035.91	29.06653
1036.272	39.08533
1036.634	53.12397
1036.995	6.01346
1037.357	63.1473
1037.719	29.06794
1038.08	55.12586
1038.442	30.06817
1038.803	16.03631
1039.165	30.07254
1039.526	27.06278
1039.887	47.10743
1040.248	79.18912
1040.609	19.0447
1040.97	-1.00235
1041.331	92.22372
1041.692	76.172
1042.053	-6.01307
1042.413	10.02224
1042.774	56.13055
1043.134	39.08756
1043.495	21.0509
1043.855	97.2259
1044.215	-26.06235
1044.576	51.11756
1044.936	25.05451
1045.296	77.1832
1045.656	-12.02819
1046.016	48.11009
1046.375	16.03739
1046.735	55.12115
1047.095	29.06511
1047.454	91.17834
1047.814	24.05553
1048.173	59.13219
1048.533	67.14572
1048.892	-8.01868
1049.251	24.05757
1049.61	17.04042
1049.969	61.13645
1050.328	53.10894
1050.687	-3.00701
1051.046	6.01404
1051.405	-10.02386
1051.763	36.08018
1052.122	0
1052.48	26.06156
1052.839	97.21992
1053.197	12.02714
1053.555	-6.01285
1053.914	17.0399
1054.272	0
1054.63	-7.01662
1054.988	62.14197
1055.345	2.00406
1055.703	18.04178
1056.061	35.08792
1056.419	59.14933
1056.776	-18.04151
1057.134	-7.01532
1057.491	34.08197
1057.848	15.03579
1058.206	11.02444
1058.563	20.04201
1058.92	43.09404
1059.277	23.05462
1059.634	-4.00893
1059.991	49.11254
1060.348	13.02833
1060.704	87.20181
1061.061	1.00219
1061.418	15.03511
1061.774	51.12064
1062.131	43.11157
1062.487	-4.00896
1062.843	50.1194
1063.199	40.09563
1063.555	55.12272
1063.911	34.08206
1064.267	44.08527
1064.623	35.08267
1064.979	11.02407
1065.335	38.08607
1065.691	5.01136
1066.046	31.06475
1066.402	7.01516
1066.757	1.00245
1067.112	51.11915
1067.468	39.08954
1067.823	-28.06386
1068.178	1.00232
1068.533	66.15246
1068.888	16.03653
1069.243	24.05705
1069.598	-18.04208
1069.952	76.1661
1070.307	11.02645
1070.662	42.09683
1071.016	83.17867
1071.371	62.13482
1071.725	60.13534
1072.079	59.13578
1072.434	18.04231
1072.788	-10.02267
1073.142	62.1459
1073.496	18.04092
1073.85	13.02887
1074.203	70.16203
1074.557	73.18895
1074.911	50.11297
1075.265	61.1347
1075.618	51.11929
1075.971	108.24202
1076.325	56.13776
1076.678	33.07223
1077.031	13.02755
1077.385	53.11016
1077.738	44.09429
1078.091	-4.00886
1078.444	17.03734
1078.796	35.08308
1079.149	61.14547
1079.502	22.05034
1079.855	51.11361
1080.207	28.06604
1080.56	35.08789
1080.912	20.04673
1081.264	54.12484
1081.617	55.12874
1081.969	36.08803
1082.321	22.05147
1082.673	21.04678
1083.025	46.10351
1083.377	325.68666
1083.728	29.06436
1084.08	8.01915
1084.432	22.05076
1084.783	7.01543
1085.135	66.15905
1085.486	10.02214
1085.838	37.08786
1086.189	58.13585
1086.54	16.03655
1086.891	80.1973
1087.242	96.22608
1087.593	33.07576
1087.944	39.08511
1088.295	48.10349
1088.646	121.28268
1088.996	8.01872
1089.347	8.01881
1089.698	10.02305
1090.048	10.02499
1090.398	51.11177
1090.749	40.09064
1091.099	45.11027
1091.449	39.09379
1091.799	47.11286
1092.149	33.07861
1092.499	38.08897
1092.849	8.01972
1093.199	29.06926
1093.548	67.15536
1093.898	17.04085
1094.248	45.10998
1094.597	13.03259
1094.947	37.09567
1095.296	38.09071
1095.645	48.11956
1095.994	59.13518
1096.343	63.15243
1096.692	61.15696
1097.041	57.15155
1097.39	15.03609
1097.739	17.04273
1098.088	12.03097
1098.437	56.14397
1098.785	-10.02606
1099.134	10.02531
1099.482	47.12562
1099.83	32.08132
1100.179	93.2368
1100.527	-5.01277
1100.875	17.04397
1101.223	59.15208
1101.571	-5.01344
1101.919	45.11624
1102.267	13.03604
1102.615	12.0385
1102.962	15.04804
1103.31	8.02568
1103.658	6.01922
