Data from N3 R1 sample 4_Subt2__1__15-37-09-038.txt Node

Date: Wed Sep 17 15:37:09 PDT 2025
User: uwsun
Spectrometer: HDX01956
Trigger mode: 0
Integration Time (sec): 5.000000E-1
Scans to average: 1
Nonlinearity correction enabled: true
Boxcar width: 0
Storing dark spectrum: false
XAxis mode: Wavelengths
Number of Pixels in Spectrum: 2068
>>>>>Begin Spectral Data<<<<<
194.03	55.15839
194.578	47.15198
195.127	57.18151
195.676	66.21069
196.225	58.15341
196.773	65.17983
197.321	99.27294
197.87	170.43246
198.418	204.51968
198.966	195.50888
199.513	203.51064
200.061	166.42005
200.609	187.48918
201.156	218.47019
201.704	174.43542
202.251	162.42889
202.798	164.42323
203.345	189.46448
203.892	179.44963
204.438	173.40812
204.985	191.45006
205.532	178.46492
206.078	194.46927
206.624	258.63484
207.17	253.58174
207.716	221.53507
208.262	204.3999
208.808	210.52208
209.354	204.49976
209.899	209.51969
210.445	223.55045
210.99	214.51627
211.535	229.53182
212.08	186.42863
212.625	199.49194
213.17	241.60382
213.715	214.4833
214.259	202.46699
214.804	227.54753
215.348	232.52801
215.892	220.52713
216.436	189.42728
216.98	208.45035
217.524	232.54591
218.068	237.58801
218.612	240.5999
219.155	244.56564
219.698	223.52198
220.242	195.47532
220.785	255.58563
221.328	181.44285
221.871	213.53502
222.414	220.53435
222.956	136.32451
223.499	211.46202
224.041	160.36268
224.583	156.32635
225.126	163.35451
225.668	187.4485
226.21	187.46786
226.751	196.43053
227.293	158.35436
227.835	220.52914
228.376	161.36265
228.918	184.45194
229.459	191.47009
230	213.50267
230.541	158.36033
231.082	177.42629
231.622	182.40583
232.163	186.44228
232.704	223.54762
233.244	196.47892
233.784	188.44875
234.324	208.46035
234.864	159.35594
235.404	213.49134
235.944	166.38666
236.484	201.4936
237.023	185.42981
237.563	197.45099
238.102	187.436
238.641	170.42234
239.18	193.44645
239.719	217.53269
240.258	200.44154
240.797	176.4156
241.335	171.41091
241.874	209.39953
242.412	246.58358
242.95	206.48983
243.488	129.28867
244.026	216.49319
244.564	195.39501
245.102	220.48894
245.64	175.41252
246.177	191.41752
246.715	206.48643
247.252	189.42223
247.789	231.41678
248.326	213.50423
248.863	204.4415
249.4	226.50102
249.936	272.55212
250.473	243.5612
251.009	189.42641
251.546	233.50911
252.082	182.38749
252.618	236.51556
253.154	169.40286
253.69	216.47466
254.226	253.59033
254.761	219.48156
255.297	169.36521
255.832	173.40733
256.367	192.44457
256.903	226.49225
257.438	186.43
257.972	219.47771
258.507	163.37046
259.042	201.43008
259.576	261.56208
260.111	181.4102
260.645	216.45727
261.179	214.49237
261.713	262.57017
262.247	194.43599
262.781	239.49168
263.315	154.37055
263.849	207.50984
264.382	216.48643
264.915	216.50213
265.449	201.48299
265.982	213.47486
266.515	240.57549
267.048	204.42525
267.58	149.31937
268.113	210.44593
268.646	186.4489
269.178	208.45651
269.71	217.47134
270.243	240.54379
270.775	214.54014
271.307	166.39062
271.838	240.55306
272.37	223.53544
272.902	198.44133
273.433	184.4035
273.965	221.5264
274.496	205.49951
275.027	242.5891
275.558	245.58445
276.089	245.59852
276.62	172.42886
277.15	233.5603
277.681	172.3662
278.211	218.52135
278.741	238.51685
279.272	232.51989
279.802	205.50156
280.332	208.48334
280.861	220.51566
281.391	237.52661
281.921	210.49299
282.45	205.49988
282.98	260.66067
283.509	299.65745
284.038	276.61313
284.567	259.58767
285.096	244.57883
285.625	198.43877
286.153	291.67418
286.682	235.52889
287.21	223.52034
287.739	236.54558
288.267	260.6175
288.795	260.66207
289.323	224.51661
289.851	257.58999
290.378	193.42439
290.906	272.64798
291.433	264.64121
291.961	305.67318
292.488	252.61
293.015	274.62939
293.542	327.81154
294.069	255.61761
294.596	276.65499
295.122	298.69244
295.649	265.56358
296.175	271.63407
296.702	326.76855
297.228	248.5831
297.754	243.53478
298.28	305.67881
298.806	288.67344
299.332	298.64575
299.857	315.69059
300.383	229.56505
300.908	228.55108
301.433	309.73314
301.958	265.59175
302.483	249.60331
303.008	316.75999
303.533	274.68809
304.058	279.6315
304.582	271.62387
305.107	245.62443
305.631	301.65991
306.155	309.69598
306.679	272.62354
307.203	278.62808
307.727	321.73393
308.251	309.73794
308.775	339.79468
309.298	261.61498
309.822	295.71903
310.345	335.77148
310.868	324.75463
311.391	345.81696
311.914	292.71106
312.437	332.73077
312.96	306.69838
313.482	283.64654
314.005	291.70531
314.527	309.77805
315.049	337.8226
315.571	325.70621
316.093	322.77089
316.615	295.68696
317.137	355.74116
317.659	352.81886
318.18	327.75126
318.702	376.84252
319.223	346.67538
319.744	355.76679
320.265	357.83589
320.786	401.95575
321.307	341.81154
321.828	341.74034
322.348	336.7625
322.869	404.91641
323.389	648.12952
323.909	362.79245
324.43	394.89699
324.95	358.78667
325.47	418.98574
325.989	433.9724
326.509	411.87443
327.029	431.93172
327.548	353.769
328.067	390.90509
328.587	428.01769
329.106	454.96148
329.625	416.02871
330.144	455.99746
330.662	499.0933
331.181	486.07305
331.7	474.03123
332.218	490.99189
332.736	481.05424
333.255	504.10683
333.773	455.01097
334.291	517.20634
334.808	546.13526
335.326	458.96826
335.844	509.11666
336.361	554.32485
336.879	529.15671
337.396	601.34257
337.913	537.14948
338.43	578.19496
338.947	488.09273
339.464	561.11129
339.981	566.23695
340.497	572.29688
341.014	564.26992
341.53	559.16104
342.046	657.49251
342.562	591.3549
343.078	578.2515
343.594	550.21004
344.11	657.4261
344.626	649.49275
345.141	592.2409
345.657	621.27855
346.172	617.36133
346.687	597.25332
347.202	713.45441
347.717	674.45093
348.232	630.43372
348.747	642.34585
349.261	658.30288
349.776	732.55298
350.29	705.59128
350.805	701.55909
351.319	694.44732
351.833	746.52422
352.347	680.44819
352.861	762.58366
353.374	698.42023
353.888	745.62552
354.401	729.47498
354.915	771.53587
355.428	755.67788
355.941	730.5144
356.454	741.45824
356.967	773.58979
357.48	738.48333
357.993	784.70525
358.505	750.62229
359.018	815.7551
359.53	819.75618
360.042	815.59055
360.554	877.86286
361.066	789.69399
361.578	882.66989
362.09	838.7379
362.602	838.61967
363.113	911.83863
363.625	897.74421
364.136	849.6077
364.647	861.77175
365.158	947.87036
365.669	863.787
366.18	921.85204
366.691	924.71299
367.201	911.87388
367.712	915.78853
368.222	952.857
368.733	974.77007
369.243	976.83112
369.753	1018.95501
370.263	1056.12079
370.773	1030.09594
371.282	1033.05885
371.792	1047.00983
372.301	1064.13004
372.811	1119.43787
373.32	1105.93437
373.829	1150.1938
374.338	1188.09576
374.847	1264.28926
375.356	1244.32005
375.865	1248.07937
376.373	1348.34739
376.882	1380.7183
377.39	1381.56187
377.898	1403.64765
378.407	1457.46089
378.915	1622.49881
379.423	1608.68651
379.93	1740.80572
380.438	1732.92036
380.946	1790.84875
381.453	1860.02718
381.96	1970.09084
382.468	2037.06867
382.975	2311.41748
383.482	2245.95943
383.989	2318.67121
384.495	2490.24001
385.002	2614.75105
385.509	2711.40708
386.015	2896.62144
386.521	3059.14839
387.028	3153.12324
387.534	3221.77173
388.04	3486.42095
388.546	3444.88677
389.051	3634.80248
389.557	3860.01998
390.063	4220.68401
390.568	4289.07304
391.073	4446.44743
391.578	4628.0042
392.084	4720.44676
392.589	4866.03566
393.093	5304.45753
393.598	5805.92598
394.103	6319.96053
394.607	6912.94088
395.112	7311.09966
395.616	7911.29115
396.12	8580.76922
396.624	9371.20135
397.128	10271.55203
397.632	11437.17628
398.136	12311.98004
398.639	13085.76637
399.143	14403.32332
399.646	16451.46512
400.15	18243.57315
400.653	20403.48283
401.156	22881.57974
401.659	26327.01187
402.162	32065.68603
402.664	42480.68998
403.167	59238.31925
403.67	62683.46016
404.172	63919.58413
404.674	63858.43483
405.176	63738.15102
405.678	63977.72923
406.18	64011.81569
406.682	63863.44694
407.184	63926.60148
407.686	63841.39382
408.187	64025.8516
408.688	63892.51763
409.19	63833.37461
409.691	62361.37377
410.192	53042.47188
410.693	45545.6463
411.194	41160.21092
411.694	39018.284
412.195	36210.96761
412.696	32644.87441
413.196	30258.38482
413.696	29234.66429
414.196	29498.28339
414.696	29000.25114
415.196	27681.68101
415.696	25252.53728
416.196	20721.35639
416.695	15757.10491
417.195	13430.01111
417.694	12856.42081
418.194	12106.46433
418.693	11167.09657
419.192	10984.18527
419.691	10676.02728
420.19	10346.79625
420.688	10063.91448
421.187	9675.02999
421.685	9180.79783
422.184	8278.48936
422.682	7174.45701
423.18	6062.81539
423.678	5377.08081
424.176	4961.29552
424.674	4684.28017
425.172	4521.73597
425.669	4282.16548
426.167	3991.91305
426.664	3693.89011
427.161	3367.07303
427.659	3112.44733
428.156	2903.7322
428.652	2773.66921
429.149	2622.41267
429.646	2484.94238
430.143	2378.26836
430.639	2220.14315
431.135	2138.35871
431.632	2025.88167
432.128	1911.01484
432.624	1807.23672
433.12	1720.6654
433.616	1723.52681
434.111	1634.73471
434.607	1563.69206
435.103	1525.22472
435.598	1523.20418
436.093	1436.46362
436.588	1394.31531
437.083	1300.20074
437.578	1306.30008
438.073	1181.35981
438.568	1177.30536
439.062	1163.92811
439.557	1044.98198
440.051	1002.83395
440.546	1004.85976
441.04	995.97168
441.534	948.00377
442.028	1046.05356
442.522	925.86009
443.015	870.5551
443.509	857.77536
444.002	868.80576
444.496	865.56799
444.989	827.7185
445.482	829.76161
445.975	869.69369
446.468	873.57611
446.961	810.49082
447.454	759.465
447.947	768.58694
448.439	805.70094
448.931	775.53026
449.424	766.70058
449.916	779.64452
450.408	753.48676
450.9	684.46555
451.392	759.68189
451.884	703.41062
452.375	688.50327
452.867	694.36081
453.358	701.40207
453.849	754.37853
454.341	680.34462
454.832	623.18887
455.323	693.52281
455.814	618.2561
456.304	617.2703
456.795	633.27991
457.285	591.15881
457.776	616.2469
458.266	570.21786
458.756	564.19982
459.247	567.22216
459.737	632.361
460.226	650.30623
460.716	570.2268
461.206	534.15856
461.695	493.1164
462.185	578.23231
462.674	505.0501
463.163	541.0941
463.653	537.02743
464.142	514.13498
464.63	490.08641
465.119	515.08758
465.608	529.12305
466.096	456.90786
466.585	455.95623
467.073	441.96148
467.561	488.07029
468.05	461.97524
468.538	440.99521
469.026	428.94046
469.513	427.83014
470.001	470.99014
470.489	397.8806
470.976	440.95015
471.463	425.98336
471.951	374.87208
472.438	353.77976
472.925	402.88148
473.412	382.86722
473.899	379.81231
474.385	403.91989
474.872	347.7617
475.359	381.87774
475.845	338.65757
476.331	309.6225
476.817	350.80232
477.303	312.68762
477.789	335.75298
478.275	261.62118
478.761	298.67271
479.247	351.73476
479.732	325.76842
480.218	365.90152
480.703	284.66773
481.188	303.62193
481.673	264.58111
482.158	284.58464
482.643	276.67486
483.128	283.62985
483.612	345.77514
484.097	294.67478
484.581	275.60774
485.066	288.67317
485.55	288.60649
486.034	215.45068
486.518	323.73256
487.002	201.4738
487.486	193.45494
487.969	268.62324
488.453	198.47804
488.936	251.54217
489.42	256.54266
489.903	257.61354
490.386	142.28824
490.869	228.48183
491.352	173.40574
491.835	163.3258
492.318	212.46078
492.8	177.35723
493.283	221.54552
493.765	178.42521
494.247	217.48818
494.73	227.48445
495.212	170.39301
495.694	189.43337
496.175	185.43287
496.657	200.45942
497.139	165.27595
497.62	187.43772
498.102	191.46244
498.583	105.25461
499.064	172.37416
499.545	210.46323
500.026	197.43282
500.507	156.35146
500.988	197.47841
501.469	117.28733
501.949	157.37927
502.43	173.40701
502.91	258.52418
503.39	147.35712
503.87	170.39254
504.35	167.38139
504.83	144.30899
505.31	141.33354
505.79	135.31353
506.269	131.29568
506.749	134.30103
507.228	116.26956
507.707	163.35571
508.187	180.41927
508.666	146.35503
509.145	122.28126
509.623	140.32199
510.102	149.35341
510.581	169.39838
511.059	108.26871
511.538	121.30744
512.016	170.39801
512.494	89.21216
512.972	133.3134
513.45	104.24015
513.928	188.44514
514.406	113.27381
514.884	124.31523
515.361	100.23706
515.839	139.31489
516.316	152.36241
516.793	88.22038
517.27	130.30782
517.747	118.29891
518.224	104.23718
518.701	93.20399
519.178	133.32771
519.654	119.27812
520.131	89.21881
520.607	56.13659
521.083	52.11787
521.56	104.24263
522.036	44.09608
522.512	143.34702
522.987	156.36852
523.463	75.177
523.939	159.38685
524.414	109.24673
524.89	157.36721
525.365	75.1688
525.84	86.20544
526.315	102.24478
526.79	80.17965
527.265	162.36662
527.74	96.231
528.215	81.1879
528.689	72.15736
529.164	94.20005
529.638	63.15917
530.112	87.20325
530.587	143.30068
531.061	109.26103
531.534	60.14437
532.008	124.29758
532.482	103.23457
532.956	98.24772
533.429	139.33478
533.903	98.21301
534.376	86.18907
534.849	100.22788
535.322	115.26814
535.795	97.23221
536.268	143.34036
536.741	52.12346
537.213	63.14464
537.686	113.2734
538.158	114.25652
538.631	83.19991
539.103	89.1999
539.575	29.06017
540.047	105.22681
540.519	94.22292
540.991	135.32416
541.463	90.215
541.934	57.12887
542.406	124.29418
542.877	125.27845
543.348	138.32815
543.82	98.23635
544.291	139.3195
544.762	144.33727
545.233	136.33972
545.703	84.18623
546.174	110.25269
546.645	115.2754
547.115	128.30507
547.585	154.3478
548.056	146.35356
548.526	113.26586
548.996	142.33428
549.466	147.35149
549.935	168.39363
550.405	133.28852
550.875	143.3346
551.344	130.30603
551.814	199.4442
552.283	243.51162
552.752	168.38638
553.221	212.45509
553.69	227.49747
554.159	233.56242
554.628	220.48447
555.096	195.48453
555.565	191.41222
556.033	241.55614
556.502	195.45912
556.97	184.40043
557.438	171.39352
557.906	230.52579
558.374	191.43268
558.842	218.50737
559.31	265.5702
559.777	274.64397
560.245	206.45973
560.712	245.54144
561.18	277.58756
561.647	235.5037
562.114	302.66028
562.581	295.6948
563.048	406.86736
563.514	434.01377
563.981	413.88097
564.448	411.86491
564.914	475.01216
565.381	530.09753
565.847	469.00368
566.313	495.04892
566.779	573.15523
567.245	547.14366
567.711	543.17836
568.176	626.24288
568.642	646.4512
569.108	740.58633
569.573	737.47554
570.038	857.48267
570.504	874.64989
570.969	870.82916
571.434	958.73565
571.899	1032.98478
572.363	1133.04135
572.828	1169.09362
573.293	1246.17919
573.757	1326.3101
574.222	1298.17729
574.686	1423.38892
575.15	1463.58129
575.614	1535.59212
576.078	1468.5002
576.542	1569.50001
577.006	1586.48679
577.469	1589.79183
577.933	1680.5967
578.396	1684.74479
578.86	1677.71143
579.323	1715.83819
579.786	1725.45505
580.249	1763.7919
580.712	1737.89055
581.175	1647.86004
581.637	1637.56245
582.1	1635.40327
582.563	1594.2892
583.025	1588.75193
583.487	1691.25738
583.95	1564.29413
584.412	1610.26695
584.874	1486.65112
585.336	1470.53829
585.797	1444.23883
586.259	1421.43967
586.721	1403.42899
587.182	1343.30749
587.643	1339.26166
588.105	1325.36087
588.566	1259.94685
589.027	1303.44651
589.488	1229.16446
589.949	1233.32826
590.41	1182.75213
590.87	1249.18161
591.331	1207.01123
591.791	1119.04883
592.252	1092.02777
592.712	1067.06106
593.172	1029.88679
593.632	1074.89419
594.092	1013.81834
594.552	1016.76185
595.011	977.82806
595.471	983.81581
595.931	964.7802
596.39	932.86431
596.849	912.76795
597.308	947.63709
597.768	925.01581
598.227	944.88399
598.685	928.74689
599.144	934.82787
599.603	879.72455
600.062	896.55074
600.52	934.73843
600.978	896.7724
601.437	980.81611
601.895	1015.73738
602.353	1002.77145
602.811	1048.89238
603.269	1011.96155
603.727	1024.00181
604.184	1146.04232
604.642	1179.28766
605.099	1160.12362
605.557	1170.24386
606.014	1186.94971
606.471	1221.40739
606.928	1308.16569
607.385	1414.65879
607.842	1365.31574
608.299	1371.37954
608.755	1449.58283
609.212	1526.38909
609.668	1583.47707
610.125	1613.73644
610.581	1661.67786
611.037	1659.51279
611.493	1708.70003
611.949	1748.90665
612.405	1812.28625
612.861	1818.72707
613.316	1895.95288
613.772	1908.77318
614.227	1959.01333
614.683	1960.49494
615.138	1985.91954
615.593	2063.91888
616.048	2093.87107
616.503	2077.13188
616.958	2144.32848
617.412	2112.04931
617.867	2127.79003
618.321	2067.43323
618.776	2050.6853
619.23	2180.0168
619.684	2079.75041
620.138	2089.86363
620.592	2051.10825
621.046	2081.0063
621.5	1983.02625
621.954	1924.6315
622.407	1978.66055
622.861	1963.05093
623.314	1967.74919
623.768	2014.96211
624.221	1808.15531
624.674	1849.75871
625.127	1803.74989
625.58	1838.63568
626.033	1765.48805
626.485	1708.78428
626.938	1761.81233
627.39	1697.68778
627.843	1679.61839
628.295	1614.56298
628.747	1616.68831
629.199	1570.47977
629.651	1597.52784
630.103	1499.43882
630.555	1550.21008
631.006	1476.45912
631.458	1385.40144
631.909	1397.26033
632.361	1349.29947
632.812	1396.36167
633.263	1367.13996
633.714	1272.97912
634.165	1256.30342
634.616	1261.26826
635.067	1180.98057
635.518	1187.18245
635.968	1168.69882
636.419	1177.95784
636.869	1108.07383
637.319	1091.0004
637.769	1054.87715
638.219	1039.96913
638.669	998.92756
639.119	975.90776
639.569	929.84332
640.019	998.86238
640.468	973.76155
640.918	889.75567
641.367	832.55667
641.816	933.68811
642.265	914.76173
642.714	832.60115
643.163	815.59055
643.612	824.71872
644.061	827.46933
644.51	774.51078
644.958	824.52119
645.406	743.53145
645.855	744.56063
646.303	772.52041
646.751	798.5658
647.199	749.45051
647.647	769.52478
648.095	719.41157
648.543	708.21878
648.99	716.49391
649.438	661.336
649.885	712.55117
650.333	673.11249
650.78	658.39947
651.227	683.46561
651.674	654.30521
652.121	621.35416
652.568	615.3405
653.015	516.15933
653.461	606.27924
653.908	593.20712
654.354	620.30654
654.801	598.24521
655.247	563.08092
655.693	560.3178
656.139	555.18858
656.585	544.16875
657.031	522.10793
657.477	561.08951
657.922	518.05971
658.368	544.20583
658.813	479.99026
659.259	543.18687
659.704	564.19774
660.149	438.92801
660.594	508.09222
661.039	477.98966
661.484	501.07599
661.929	522.09974
662.373	475.09212
662.818	493.11142
663.262	463.02537
663.707	488.13613
664.151	469.04602
664.595	397.89304
665.039	480.08889
665.483	417.98587
665.927	457.982
666.371	475.01874
666.814	446.97341
667.258	492.07907
667.701	451.87471
668.145	456.0423
668.588	465.0563
669.031	425.92189
669.474	474.03734
669.917	426.85563
670.36	460.05399
670.803	524.14407
671.245	369.69755
671.688	459.02283
672.13	487.99913
672.573	437.0178
673.015	447.99106
673.457	429.8547
673.899	440.97981
674.341	433.96123
674.783	410.90962
675.225	463.04368
675.666	427.96601
676.108	430.84972
676.549	381.82435
676.991	424.85279
677.432	425.76648
677.873	384.81255
678.314	390.86166
678.755	463.04538
679.196	392.82911
679.637	386.85816
680.078	427.91715
680.518	396.84013
680.959	408.89765
681.399	354.82091
681.839	419.93904
682.28	432.99102
682.72	404.85187
683.16	367.85627
683.6	442.91889
684.039	419.7882
684.479	391.89789
684.919	418.90652
685.358	355.8273
685.798	358.87465
686.237	375.83146
686.676	359.75483
687.115	422.9148
687.554	423.9324
687.993	427.86338
688.432	381.80461
688.871	432.9073
689.309	409.90608
689.748	462.8659
690.186	389.8413
690.625	419.90539
691.063	367.81474
691.501	452.02319
691.939	475.09212
692.377	380.85568
692.815	468.04357
693.253	398.87492
693.69	460.91113
694.128	421.94158
694.565	423.92029
695.003	435.02346
695.44	497.0628
695.877	451.96869
696.314	421.8056
696.751	479.98005
697.188	501.04501
697.625	425.8676
698.061	475.03144
698.498	453.9755
698.934	486.05022
699.371	436.9387
699.807	497.05684
700.243	506.10051
700.679	473.95069
701.115	503.05383
701.551	442.93567
701.987	471.92529
702.422	498.07206
702.858	544.15872
703.294	592.19387
703.729	567.22687
704.164	555.17885
704.599	573.1261
705.035	600.17732
705.47	512.1183
705.904	540.11229
706.339	565.14586
706.774	595.22604
707.209	584.19876
707.643	613.28866
708.078	608.30309
708.512	562.25922
708.946	603.2548
709.38	639.32511
709.814	609.20204
710.248	681.44687
710.682	676.40849
711.116	657.39704
711.549	625.40886
711.983	651.30252
712.416	681.39723
712.85	656.41879
713.283	706.43001
713.716	692.48589
714.149	657.31455
714.582	752.42268
715.015	690.46379
715.448	751.6241
715.881	740.32837
716.313	702.4044
716.746	720.45774
717.178	726.4947
717.61	713.57138
718.043	735.55562
718.475	761.5707
718.907	748.59867
719.339	695.34577
719.77	786.58936
720.202	690.49812
720.634	746.5662
721.065	738.4772
721.497	709.494
721.928	735.53597
722.359	771.59421
722.79	738.50581
723.221	706.51078
723.652	753.63952
724.083	758.42846
724.514	787.51115
724.945	696.39495
725.375	729.4494
725.806	728.53643
726.236	749.64251
726.666	758.50889
727.096	781.61491
727.526	791.73903
727.956	776.48534
728.386	740.54745
728.816	780.70516
729.246	749.57907
729.675	723.5082
730.105	772.59735
730.534	758.4865
730.964	784.65545
731.393	778.60977
731.822	772.68411
732.251	757.64266
732.68	744.45008
733.109	800.66345
733.537	800.6487
733.966	781.65595
734.395	813.55965
734.823	777.42246
735.251	777.5715
735.68	799.65658
736.108	741.58131
736.536	737.45785
736.964	757.47301
737.392	826.7305
737.82	832.64642
738.247	758.52218
738.675	813.5844
739.102	772.63294
739.53	769.69205
739.957	796.75405
740.384	747.5211
740.811	721.5346
741.238	834.70884
741.665	803.57599
742.092	766.46899
742.519	766.616
742.945	853.72224
743.372	789.65765
743.798	800.73345
744.225	758.50819
744.651	805.69426
745.077	747.58655
745.503	783.58582
745.929	763.56428
746.355	738.52284
746.781	776.60706
747.207	757.51843
747.632	813.69913
748.058	820.74059
748.483	785.50079
748.908	774.63432
749.334	802.66318
749.759	800.59482
750.184	755.54159
750.609	779.60717
751.033	812.56634
751.458	785.44364
751.883	791.63487
752.307	731.45541
752.732	797.73025
753.156	752.5698
753.58	783.53957
754.005	755.60912
754.429	804.59094
754.853	730.55546
755.277	712.44021
755.7	709.50904
756.124	699.49482
756.548	716.43443
756.971	762.57031
757.394	688.52036
757.818	739.63687
758.241	689.51528
758.664	696.51564
759.087	647.25148
759.51	630.35088
759.933	677.41026
760.356	756.67073
760.778	684.446
761.201	705.45109
761.623	644.31854
762.046	664.32459
762.468	671.37607
762.89	658.38308
763.312	710.48662
763.734	612.28571
764.156	700.48244
764.578	632.2338
765	657.38189
765.421	624.39773
765.843	637.46104
766.264	578.19283
766.686	565.23398
767.107	548.1718
767.528	637.43418
767.949	537.21176
768.37	667.43062
768.791	574.20258
769.212	537.20584
769.632	602.22631
770.053	537.25209
770.473	530.12787
770.894	538.16824
771.314	564.16076
771.734	538.1007
772.154	484.10864
772.575	491.00052
772.994	538.0639
773.414	531.11015
773.834	495.10047
774.254	541.16404
774.673	518.12713
775.093	501.11567
775.512	478.05888
775.931	505.14593
776.351	458.03049
776.77	453.00277
777.189	434.92957
777.607	447.03254
778.026	399.90746
778.445	439.01122
778.864	424.97501
779.282	409.88114
779.701	426.96943
780.119	430.99118
780.537	386.87736
780.955	372.86162
781.373	377.85119
781.791	440.89639
782.209	355.72701
782.627	385.93307
783.045	356.73583
783.462	380.8899
783.88	330.79365
784.297	308.71991
784.715	357.85026
785.132	317.70318
785.549	297.68944
785.966	357.82574
786.383	311.71308
786.8	380.79916
787.217	323.7129
787.633	308.72161
788.05	306.65374
788.466	293.62828
788.883	312.74667
789.299	273.60155
789.715	343.76907
790.131	302.69647
790.547	282.65372
790.963	314.71865
791.379	248.58877
791.795	240.50341
792.21	232.50296
792.626	210.46361
793.041	240.5535
793.457	226.52059
793.872	270.58234
794.287	224.51084
794.702	251.56674
795.117	241.56455
795.532	265.6261
795.947	196.43705
796.362	237.51544
796.776	235.50131
797.191	232.53356
797.605	212.4741
798.02	202.46216
798.434	228.4719
798.848	260.60654
799.262	136.32252
799.676	204.46823
800.09	184.42757
800.504	186.4235
800.918	139.30257
801.331	105.25834
801.745	172.36986
802.158	129.30515
802.572	230.52134
802.985	157.35581
803.398	151.34026
803.811	92.22263
804.224	107.25164
804.637	167.37816
805.05	90.19811
805.462	162.37467
805.875	120.29975
806.288	146.3374
806.7	92.21986
807.112	173.37369
807.525	110.25522
807.937	125.29615
808.349	108.25721
808.761	134.31557
809.173	105.24492
809.584	137.32018
809.996	94.2206
810.408	129.32276
810.819	120.26947
811.231	147.37666
811.642	131.31144
812.053	176.40656
812.464	125.28179
812.875	146.35768
813.286	173.42689
813.697	101.21911
814.108	105.24395
814.519	180.37973
814.929	105.25586
815.34	47.10898
815.75	121.29704
816.16	14.03351
816.571	98.24374
816.981	61.13678
817.391	74.16992
817.801	69.16606
818.211	64.14637
818.62	93.21582
819.03	73.17155
819.44	39.09705
819.849	71.17036
820.259	74.18035
820.668	102.24133
821.077	78.1884
821.486	60.13717
821.895	82.19131
822.304	56.14342
822.713	75.16928
823.122	59.14173
823.531	37.08341
823.939	65.15328
824.348	72.16699
824.756	68.163
825.164	108.25829
825.573	53.12862
825.981	67.15886
826.389	61.14742
826.797	115.28043
827.205	71.15757
827.612	76.17898
828.02	28.06324
828.428	48.11808
828.835	85.21719
829.243	25.05721
829.65	39.09471
830.057	27.0631
830.464	103.24299
830.871	78.17983
831.278	86.19914
831.685	53.11287
832.092	41.0959
832.499	105.21903
832.905	44.10692
833.312	34.07318
833.718	86.20709
834.124	74.16221
834.531	18.04359
834.937	76.1884
835.343	49.11281
835.749	18.04002
836.155	47.11921
836.561	60.14229
836.966	56.13121
837.372	24.05895
837.777	32.07752
838.183	51.10799
838.588	95.22733
838.993	78.18212
839.399	27.06427
839.804	23.05447
840.209	32.08002
840.613	63.1337
841.018	44.10704
841.423	83.20474
841.828	20.0494
842.232	32.07521
842.637	91.20733
843.041	16.04011
843.445	38.0914
843.849	58.13893
844.253	76.17214
844.657	41.10058
845.061	111.24337
845.465	28.06545
845.869	48.10717
846.272	36.08521
846.676	61.13892
847.079	59.14597
847.483	58.13882
847.886	69.1593
848.289	49.12849
848.692	30.07303
849.095	29.06695
849.498	45.10834
849.901	104.22403
850.304	51.11699
850.707	6.01483
851.109	47.11406
851.512	48.11405
851.914	7.01731
852.316	101.24721
852.718	63.16126
853.121	47.1111
853.523	43.09591
853.925	48.12254
854.326	74.17901
854.728	48.11977
855.13	25.0633
855.531	6.01395
855.933	21.04821
856.334	49.11891
856.736	23.05021
857.137	73.16389
857.538	43.10529
857.939	55.13292
858.34	21.04895
858.741	48.12086
859.142	29.06685
859.542	45.11587
859.943	21.05052
860.343	28.06763
860.744	67.15671
861.144	74.17468
861.544	45.10579
861.945	29.07148
862.345	39.09147
862.745	70.16837
863.145	47.10574
863.544	47.11504
863.944	42.0954
864.344	51.12022
864.743	51.12158
865.143	68.16974
865.542	11.02432
865.941	78.18576
866.34	52.11792
866.74	56.14558
867.139	54.12613
867.537	5.01224
867.936	42.09783
868.335	35.08589
868.734	17.04227
869.132	4.00888
869.531	37.08508
869.929	0
870.327	55.12657
870.726	46.10926
871.124	83.18313
871.522	22.05412
871.92	48.11401
872.318	26.06092
872.715	15.03539
873.113	-13.03065
873.511	10.02408
873.908	53.13131
874.306	66.15911
874.703	36.08603
875.1	67.16216
875.497	30.06905
875.894	41.09882
876.291	69.16272
876.688	5.01257
877.085	66.1504
877.482	38.09175
877.878	54.12673
878.275	56.13745
878.671	6.01246
879.068	70.16158
879.464	18.04204
879.86	67.15154
880.256	53.12353
880.652	38.09334
881.048	19.04503
881.444	48.10792
881.84	23.05653
882.236	53.12809
882.631	41.09755
883.027	74.17047
883.422	-12.02972
883.817	54.13181
884.213	30.07456
884.608	75.18036
885.003	10.02313
885.398	11.02674
885.793	15.03632
886.188	27.06476
886.582	61.14898
886.977	15.03413
887.371	40.09687
887.766	6.01459
888.16	8.01901
888.554	64.15055
888.949	42.1016
889.343	63.1466
889.737	42.10956
890.131	13.03163
890.525	106.26065
890.918	25.06081
891.312	67.15154
891.706	18.04574
892.099	45.11002
892.492	58.11822
892.886	25.05891
893.279	55.13452
893.672	64.15784
894.065	57.13739
894.458	4.00966
894.851	47.10985
895.244	59.1449
895.637	92.21185
896.029	61.14408
896.422	37.0859
896.814	30.07175
897.206	55.12753
897.599	45.10694
897.991	60.14009
898.383	45.10236
898.775	95.20591
899.167	65.14731
899.559	38.09192
899.951	12.02705
900.342	-9.02205
900.734	46.11282
901.125	39.09821
901.517	40.09479
901.908	54.12206
902.299	57.13426
902.69	61.13915
903.082	30.07005
903.473	63.14701
903.863	-7.01728
904.254	64.14384
904.645	-5.01191
905.036	67.1588
905.426	15.03254
905.817	50.11702
906.207	-9.02056
906.597	57.12908
906.987	29.07209
907.378	55.13467
907.768	22.05668
908.158	10.02354
908.547	21.05341
908.937	15.03682
909.327	45.10476
909.717	13.03143
910.106	47.10782
910.495	37.08793
910.885	65.15857
911.274	40.09618
911.663	0
912.052	-8.01894
912.441	36.08918
912.83	26.05692
913.219	45.11324
913.608	46.10884
913.997	69.1677
914.385	78.17774
914.774	49.1143
915.162	58.13409
915.55	18.0417
915.939	31.07627
916.327	17.0407
916.715	41.10255
917.103	44.10217
917.491	41.09725
917.878	-3.00714
918.266	18.04506
918.654	27.06734
919.041	22.0565
919.429	4.00913
919.816	51.12423
920.203	20.04736
920.591	23.05525
920.978	40.09424
921.365	32.08167
921.752	1.00227
922.139	33.06859
922.525	4.00935
922.912	20.0469
923.299	52.12446
923.685	0
924.072	5.01083
924.458	72.17167
924.844	-1.0024
925.231	-1.00223
925.617	15.03744
926.003	47.11534
926.389	-17.04177
926.774	34.08283
927.16	22.05268
927.546	87.21634
927.931	45.10727
928.317	62.1351
928.702	21.04761
929.088	79.18253
929.473	79.1943
929.858	21.05002
930.243	73.16934
930.628	64.1509
931.013	35.08379
931.398	27.05852
931.783	-22.05595
932.167	24.05731
932.552	41.0986
932.937	58.13718
933.321	34.08311
933.705	-32.07785
934.09	10.02394
934.474	58.1303
934.858	32.08051
935.242	1.00223
935.626	32.07965
936.009	63.16335
936.393	69.17108
936.777	46.11437
937.16	50.12661
937.544	-8.01794
937.927	26.06422
938.311	54.12539
938.694	63.16104
939.077	25.05767
939.46	-7.01628
939.843	45.0869
940.226	29.07151
940.609	45.10028
940.991	9.02207
941.374	21.04993
941.757	21.04981
942.139	49.10566
942.522	35.07887
942.904	58.13356
943.286	58.14104
943.668	45.11381
944.05	39.09258
944.432	12.02852
944.814	39.0914
945.196	23.05462
945.578	78.18018
945.959	13.02904
946.341	24.05564
946.722	20.04491
947.104	37.08505
947.485	66.14656
947.866	58.14173
948.247	41.1008
948.628	14.03229
949.009	-6.01496
949.39	54.12811
949.771	-6.01315
950.152	67.15763
950.532	51.12427
950.913	38.08792
951.293	-12.03199
951.674	18.04203
952.054	86.20772
952.434	76.18079
952.814	13.02946
953.194	2.00502
953.574	39.0919
953.954	-11.02503
954.334	98.23509
954.714	28.06617
955.093	16.03799
955.473	18.04408
955.853	23.05771
956.232	12.03197
956.611	58.1311
956.99	28.06829
957.37	0
957.749	3.0068
958.128	23.05642
958.506	11.02777
958.885	-4.00977
959.264	41.09808
959.643	49.10739
960.021	28.0675
960.4	58.1251
960.778	27.06305
961.156	-9.02183
961.535	-19.04246
961.913	77.17259
962.291	20.05041
962.669	31.0763
963.047	71.17488
963.424	60.14939
963.802	-5.01197
964.18	12.02887
964.557	23.0506
964.935	49.11101
965.312	12.03054
965.69	34.08119
966.067	-37.08678
966.444	-34.08004
966.821	57.14159
967.198	7.0162
967.575	60.14015
967.952	24.0542
968.329	69.16164
968.705	118.23898
969.082	78.1947
969.458	48.11221
969.835	24.0563
970.211	46.11516
970.587	57.1365
970.963	15.03692
971.339	35.08887
971.715	31.07483
972.091	43.10164
972.467	15.03559
972.843	61.14709
973.219	75.16963
973.594	15.0381
973.97	23.05115
974.345	81.18559
974.721	15.03446
975.096	59.13795
975.471	36.08157
975.846	57.12992
976.221	62.15145
976.596	71.16555
976.971	78.18541
977.346	38.08396
977.72	18.04413
978.095	-9.02262
978.469	27.06166
978.844	32.07703
979.218	24.05639
979.593	30.06872
979.967	-30.06972
980.341	53.11718
980.715	60.14552
981.089	72.17226
981.463	56.1227
981.837	47.11178
982.21	67.14398
982.584	54.12559
982.957	23.05588
983.331	11.02466
983.704	33.07918
984.078	19.04512
984.451	-30.07142
984.824	1.00238
985.197	0
985.57	31.07364
985.943	43.09994
986.316	3.007
986.688	40.09237
987.061	81.18118
987.434	98.24763
987.806	-25.05802
988.179	29.06543
988.551	73.17635
988.923	-23.05474
989.295	79.18731
989.667	33.0771
990.039	53.12804
990.411	-40.08805
990.783	31.06737
991.155	13.03032
991.527	49.11322
991.898	55.13227
992.27	57.13671
992.641	3.00724
993.012	24.05272
993.384	40.09097
993.755	18.0447
994.126	67.15542
994.497	16.03794
994.868	14.03052
995.239	3.00701
995.61	15.03657
995.98	24.05606
996.351	76.18128
996.722	50.11233
997.092	56.12756
997.462	33.07503
997.833	-6.01362
998.203	53.12095
998.573	34.08194
998.943	58.13067
999.313	61.14066
999.683	41.09481
1000.053	-45.09825
1000.423	57.13139
1000.792	8.01987
1001.162	10.02361
1001.531	40.09501
1001.901	6.01439
1002.27	9.01889
1002.639	-25.06176
1003.009	41.09318
1003.378	25.06192
1003.747	10.0226
1004.116	27.06199
1004.485	41.09386
1004.853	8.01933
1005.222	-22.05294
1005.591	51.1153
1005.959	35.07586
1006.328	62.13332
1006.696	42.09668
1007.064	-7.01691
1007.433	6.01438
1007.801	12.0279
1008.169	27.06501
1008.537	86.17951
1008.905	24.05416
1009.273	45.10575
1009.64	35.08135
1010.008	29.06623
1010.375	50.11389
1010.743	16.03427
1011.11	93.21325
1011.478	59.14097
1011.845	33.07391
1012.212	60.13097
1012.579	54.12727
1012.946	12.02716
1013.313	43.09698
1013.68	57.12101
1014.047	16.03671
1014.414	-6.01367
1014.78	19.0458
1015.147	14.03219
1015.513	14.03252
1015.88	21.05146
1016.246	18.04224
1016.612	42.0909
1016.978	61.14402
1017.344	28.06681
1017.71	42.09745
1018.076	70.15512
1018.442	63.15609
1018.808	53.12847
1019.174	11.0265
1019.539	7.01478
1019.905	36.0819
1020.27	-7.01671
1020.636	21.04769
1021.001	65.14899
1021.366	3.007
1021.731	70.17518
1022.096	23.05663
1022.461	22.05021
1022.826	89.20252
1023.191	9.02293
1023.556	9.02018
1023.92	26.06087
1024.285	7.0163
1024.649	-31.07339
1025.014	5.01182
1025.378	53.12881
1025.742	-6.0143
1026.107	63.13475
1026.471	30.06659
1026.835	24.05733
1027.199	-14.03275
1027.562	1.00221
1027.926	43.1001
1028.29	63.15294
1028.654	29.06356
1029.017	79.18565
1029.381	37.08512
1029.744	47.11538
1030.107	85.19068
1030.471	69.15841
1030.834	33.07046
1031.197	95.21653
1031.56	32.07192
1031.923	49.1222
1032.286	91.20221
1032.648	9.02041
1033.011	110.24173
1033.374	81.17827
1033.736	28.07133
1034.099	29.06804
1034.461	48.1176
1034.823	10.0242
1035.185	16.0385
1035.548	68.15877
1035.91	31.07108
1036.272	49.10698
1036.634	52.12165
1036.995	17.03806
1037.357	41.09627
1037.719	65.1512
1038.08	89.20228
1038.442	0
1038.803	19.0431
1039.165	30.07254
1039.526	34.07895
1039.887	34.07792
1040.248	47.1132
1040.609	18.04236
1040.97	48.11194
1041.331	79.19258
1041.692	51.11601
1042.053	29.0627
1042.413	55.1212
1042.774	93.21522
1043.134	16.03609
1043.495	59.14199
1043.855	78.18233
1044.215	29.06881
1044.576	31.07174
1044.936	38.08263
1045.296	91.21593
1045.656	3.00703
1046.016	51.1169
1046.375	21.04902
1046.735	21.04659
1047.095	1.00226
1047.454	59.11651
1047.814	31.07163
1048.173	52.11668
1048.533	24.05268
1048.892	-1.00233
1049.251	44.10515
1049.61	-14.03348
1049.969	40.08986
1050.328	29.05993
1050.687	4.00933
1051.046	11.02571
1051.405	-17.04062
1051.763	43.09563
1052.122	37.08854
1052.48	52.12251
1052.839	86.19542
1053.197	21.0474
1053.555	7.01495
1053.914	25.05859
1054.272	-7.01597
1054.63	16.03783
1054.988	41.09428
1055.345	31.06251
1055.703	92.21041
1056.061	35.08792
1056.419	67.16933
1056.776	-7.01611
1057.134	-14.03069
1057.491	36.08676
1057.848	1.00239
1058.206	11.02444
1058.563	35.07327
1058.92	59.12859
1059.277	20.04752
1059.634	-24.05383
1059.991	82.18709
1060.348	70.15072
1060.704	50.11683
1061.061	23.05011
1061.418	14.03278
1061.774	25.05944
1062.131	28.07284
1062.487	-23.05172
1062.843	46.10993
1063.199	5.01203
1063.555	37.08287
1063.911	5.01213
1064.267	64.12344
1064.623	52.12241
1064.979	-24.0529
1065.335	37.08382
1065.691	1.00227
1066.046	41.08545
1066.402	40.08602
1066.757	62.14998
1067.112	48.11221
1067.468	24.05527
1067.823	-10.02272
1068.178	67.1532
1068.533	25.05822
1068.888	8.0183
1069.243	42.09949
1069.598	-2.00466
1069.952	34.07497
1070.307	10.02405
1070.662	62.14237
1071.016	35.07612
1071.371	38.08305
1071.725	42.09509
1072.079	39.09011
1072.434	6.01414
1072.788	31.06969
1073.142	15.03562
1073.496	7.01595
1073.85	48.10584
1074.203	49.11389
1074.557	80.20682
1074.911	17.03867
1075.265	-20.04491
1075.618	89.20662
1075.971	36.08187
1076.325	29.07169
1076.678	40.08742
1077.031	-18.03841
1077.385	47.09782
1077.738	8.01728
1078.091	39.08558
1078.444	20.0439
1078.796	32.07601
1079.149	33.07912
1079.502	21.04806
1079.855	22.0493
1080.207	44.10346
1080.56	23.05788
1080.912	6.01406
1081.264	36.08353
1081.617	40.09391
1081.969	10.02457
1082.321	23.0538
1082.673	11.02455
1083.025	28.06324
1083.377	20.04508
1083.728	49.10829
1084.08	-5.012
1084.432	2.00463
1084.783	-11.02433
1085.135	68.16381
1085.486	39.08583
1085.838	23.05477
1086.189	67.15665
1086.54	17.03883
1086.891	46.11416
1087.242	95.22377
1087.593	31.0712
1087.944	53.11532
1088.295	37.07996
1088.646	99.23228
1088.996	14.03273
1089.347	54.12583
1089.698	69.1572
1090.048	25.0623
1090.398	13.02872
1090.749	-12.02748
1091.099	59.1442
1091.449	36.08662
1091.799	21.05067
1092.149	31.07387
1092.499	36.08432
1092.849	25.06144
1093.199	32.07639
1093.548	34.07935
1093.898	-15.03626
1094.248	-7.01727
1094.597	21.05256
1094.947	43.11107
1095.296	21.05029
1095.645	17.04258
1095.994	46.10567
1096.343	38.09237
1096.692	46.11868
1097.041	43.11459
1097.39	-8.01933
1097.739	-31.0786
1098.088	21.05411
1098.437	49.12613
1098.785	8.02078
1099.134	-25.06368
1099.482	14.03762
1099.83	25.06361
1100.179	46.1181
1100.527	-1.00255
1100.875	7.01814
1101.223	23.05966
1101.571	-14.03769
1101.919	32.08284
1102.267	36.09946
1102.615	5.01606
1102.962	0
1103.31	12.0385
1103.658	-3.00962
