Data from N3 R1 sample 10_Subt2__2__15-14-15-070.txt Node

Date: Wed Sep 17 15:14:15 PDT 2025
User: uwsun
Spectrometer: HDX01956
Trigger mode: 0
Integration Time (sec): 5.000000E-1
Scans to average: 1
Nonlinearity correction enabled: true
Boxcar width: 0
Storing dark spectrum: false
XAxis mode: Wavelengths
Number of Pixels in Spectrum: 2068
>>>>>Begin Spectral Data<<<<<
194.03	122.34786
194.578	121.38787
195.127	132.41649
195.676	131.41491
196.225	158.41086
196.773	195.52838
197.321	213.57658
197.87	316.78296
198.418	284.71319
198.966	339.86271
199.513	354.86617
200.061	331.81277
200.609	352.89468
201.156	337.70826
201.704	322.78409
202.251	339.87062
202.798	314.78908
203.345	336.80317
203.892	358.8701
204.438	328.75039
204.985	332.76076
205.532	344.8728
206.078	309.73116
206.624	381.91609
207.17	422.9374
207.716	381.89451
208.262	345.65377
208.808	335.81376
209.354	383.90691
209.899	344.8342
210.445	358.86162
210.99	347.81598
211.535	395.88709
212.08	351.78214
212.625	355.8523
213.17	353.86645
213.715	421.91049
214.259	356.79772
214.804	365.85729
215.348	360.79804
215.892	424.97618
216.436	360.78541
216.98	361.75603
217.524	402.91446
218.068	404.97156
218.612	407.98636
219.155	359.8132
219.698	351.8009
220.242	359.84813
220.785	390.87137
221.328	315.7514
221.871	337.82749
222.414	319.76036
222.956	237.55452
223.499	260.56342
224.041	320.7017
224.583	315.63575
225.126	338.70771
225.668	286.67295
226.21	341.82926
226.751	339.7222
227.293	299.6511
227.835	317.74835
228.376	286.62768
228.918	289.69599
229.459	290.70064
230	296.68725
230.541	322.70995
231.082	302.71004
231.622	301.65462
232.163	316.73252
232.704	317.76485
233.244	344.81726
233.784	259.60979
234.324	337.72573
234.864	290.63164
235.404	297.6736
235.944	278.6332
236.484	348.83121
237.023	331.74674
237.563	340.75591
238.102	352.79394
238.641	274.66773
239.18	299.67704
239.719	338.81104
240.258	300.64842
240.797	299.68914
241.335	343.79714
241.874	345.6378
242.412	355.82437
242.95	349.80692
243.488	315.67778
244.026	342.76099
244.564	348.68026
245.102	328.71257
245.64	289.66609
246.177	342.72368
246.715	326.75181
247.252	318.69144
247.789	380.65955
248.326	340.78502
248.863	381.79332
249.4	343.74183
249.936	388.76672
250.473	397.88865
251.009	292.6449
251.546	380.80443
252.082	319.65891
252.618	324.69459
253.154	347.79879
253.69	333.71373
254.226	353.80741
254.761	356.76022
255.297	259.5489
255.832	374.84597
256.367	355.79531
256.903	393.82558
257.438	319.71791
257.972	341.72457
258.507	294.6504
259.042	370.7627
259.576	423.8792
260.111	337.73944
260.645	315.6524
261.179	372.82876
261.713	376.7984
262.247	320.70052
262.781	323.6519
263.315	324.75433
263.849	347.83247
264.382	349.76448
264.915	342.77517
265.449	345.80622
265.982	412.88056
266.515	377.88028
267.048	337.68172
267.58	330.67964
268.113	333.68813
268.646	369.85958
269.178	356.75693
269.71	388.81203
270.243	441.95822
270.775	372.91222
271.307	334.76012
271.838	392.87584
272.37	344.80688
272.902	384.82285
273.433	421.87699
273.965	384.88588
274.496	370.8736
275.027	383.90761
275.558	410.94697
276.089	381.90705
276.62	376.90253
277.15	375.87733
277.681	350.71629
278.211	365.84826
278.741	406.85007
279.272	351.76724
279.802	383.90586
280.332	395.88381
280.861	408.92097
281.391	363.78541
281.921	373.84765
282.45	405.95046
282.98	429.05492
283.509	381.8233
284.038	436.93628
284.567	374.82873
285.096	419.96025
285.625	365.78062
286.153	425.95836
286.682	402.87368
287.21	373.84456
287.739	407.90878
288.267	407.93911
288.795	408.00926
289.323	387.86342
289.851	444.98093
290.378	349.74221
290.906	446.02472
291.433	431.01167
291.961	386.83749
292.488	442.02926
293.015	457.00912
293.542	468.12915
294.069	389.91827
294.596	392.90937
295.122	418.94816
295.649	391.80871
296.175	391.89322
296.702	460.05399
297.228	430.97497
297.754	430.90907
298.28	445.96157
298.806	448.01248
299.332	482.00152
299.857	467.99096
300.383	454.07135
300.908	445.02914
301.433	465.06781
301.958	465.99531
302.483	457.06154
303.008	496.14979
303.533	450.09177
304.058	462.00465
304.582	424.94614
305.107	434.06664
305.631	460.97461
306.155	482.04511
306.679	512.115
307.203	455.99074
307.727	487.07414
308.251	470.08555
308.775	542.21783
309.298	473.06626
309.822	463.09073
310.345	544.19832
310.868	560.24134
311.391	505.15658
311.914	525.22024
312.437	512.08241
312.96	534.16052
313.482	487.06473
314.005	474.10695
314.527	497.20666
315.049	558.30341
315.571	533.10498
316.093	535.22637
316.615	531.17673
317.137	579.14701
317.659	605.33482
318.18	539.18357
318.702	578.23924
319.223	544.01047
319.744	586.20124
320.265	577.29048
320.786	598.36905
321.307	534.22139
321.828	619.26242
322.348	599.28461
322.869	611.32558
323.389	967.54658
323.909	618.27779
324.43	662.42324
324.95	656.3492
325.47	651.46334
325.989	706.49451
326.509	741.46167
327.029	672.37595
327.548	658.33874
328.067	695.51314
328.587	748.67021
329.106	693.38925
329.625	702.64582
330.144	751.54173
330.662	745.54864
331.181	758.57954
331.7	734.50984
332.218	742.41399
332.736	841.70497
333.255	770.59747
333.773	808.6652
334.291	820.80018
334.808	810.58639
335.326	793.55195
335.844	851.7339
336.361	897.00321
336.879	912.83435
337.396	862.82265
337.913	828.66217
338.43	898.72505
338.947	897.84093
339.464	865.59345
339.981	933.88221
340.497	851.82092
341.014	891.87293
341.53	935.78117
342.046	1001.11456
342.562	929.98617
343.078	931.86531
343.594	1016.01696
344.11	1045.08089
344.626	1006.14776
345.141	1080.02128
345.657	1065.97641
346.172	1035.08378
346.687	1019.9424
347.202	1091.03542
347.717	1064.09875
348.232	1057.19709
348.747	1128.11241
349.261	1086.93828
349.776	1146.21244
350.29	1147.35492
350.805	1119.27271
351.319	1106.09646
351.833	1216.22204
352.347	1210.28194
352.861	1190.23867
353.374	1180.13984
353.888	1243.42692
354.401	1178.14051
354.915	1212.16927
355.428	1300.56284
355.941	1261.30859
356.454	1220.13352
356.967	1191.22037
357.48	1234.19978
357.993	1275.48485
358.505	1224.38021
359.018	1342.56475
359.53	1356.57297
360.042	1354.30988
360.554	1373.60343
361.066	1323.51564
361.578	1347.26547
362.09	1325.4516
362.602	1388.33547
363.113	1390.50063
363.625	1445.44966
364.136	1460.36106
364.647	1490.63797
365.158	1394.46849
365.669	1441.60262
366.18	1483.60193
366.691	1500.39115
367.201	1506.68834
367.712	1555.58818
368.222	1550.60291
368.733	1555.42029
369.243	1610.5609
369.753	1586.63802
370.263	1656.87652
370.773	1628.87181
371.282	1661.83946
371.792	1801.84955
372.301	1720.93408
372.811	1726.28235
373.32	1743.55811
373.829	1800.90995
374.338	1873.73878
374.847	1926.92406
375.356	1886.97815
375.865	2160.75202
376.373	2160.99826
376.882	2174.51249
377.39	2248.3133
377.898	2297.43044
378.407	2475.10718
378.915	2575.94981
379.423	2641.26131
379.93	2723.27481
380.438	2774.4615
380.946	2897.29224
381.453	3100.4755
381.96	3158.442
382.468	3326.32304
382.975	3660.52012
383.482	3790.87401
383.989	3774.83987
384.495	3906.09668
385.002	4139.32021
385.509	4390.02207
386.015	4624.90224
386.521	4851.42497
387.028	4972.33876
387.534	5187.82949
388.04	5358.53322
388.546	5448.88512
389.051	5677.75341
389.557	6130.87867
390.063	6694.60628
390.568	6838.95623
391.073	7135.55093
391.578	7428.10242
392.084	7558.80784
392.589	7866.82676
393.093	8527.81
393.598	9235.89676
394.103	10114.09962
394.607	11093.58479
395.112	11842.97224
395.616	12622.50476
396.12	13758.26478
396.624	15084.4766
397.128	16300.59119
397.632	18141.07553
398.136	19708.59237
398.639	20778.0597
399.143	22999.68053
399.646	25959.83913
400.15	28968.20768
400.653	32310.26393
401.156	36147.83724
401.659	42368.18055
402.162	51302.95399
402.664	60614.03044
403.167	63977.72923
403.67	63769.22307
404.172	63919.58413
404.674	63858.43483
405.176	63738.15102
405.678	63977.72923
406.18	64011.81569
406.682	63863.44694
407.184	63926.60148
407.686	63841.39382
408.187	64025.8516
408.688	63892.51763
409.19	63833.37461
409.691	63977.72923
410.192	63945.6488
410.693	63713.09355
411.194	63711.83917
411.694	61275.12637
412.195	57031.36937
412.696	51631.01341
413.196	47831.83165
413.696	46392.97165
414.196	46920.78524
414.696	46114.1957
415.196	43988.27909
415.696	39998.68469
416.196	32399.71436
416.695	25205.69089
417.195	21493.7946
417.694	20453.64232
418.194	19224.12962
418.693	18078.0092
419.192	17319.85044
419.691	16875.88743
420.19	16463.45923
420.688	16003.03943
421.187	15357.69465
421.685	14496.27758
422.184	13169.44737
422.682	11483.92427
423.18	9852.38634
423.678	8734.98304
424.176	7914.02678
424.674	7459.64116
425.172	7056.78535
425.669	6746.04193
426.167	6310.77564
426.664	5798.81261
427.161	5334.12664
427.659	4843.79298
428.156	4672.00954
428.652	4325.37933
429.149	4164.16539
429.646	4036.64354
430.143	3781.23476
430.639	3630.20796
431.135	3332.64375
431.632	3167.0914
432.128	2969.39994
432.624	2920.85283
433.12	2756.09684
433.616	2684.8872
434.111	2540.27327
434.607	2491.29981
435.103	2334.62345
435.598	2395.60726
436.093	2314.09385
436.588	2137.86445
437.083	2065.81016
437.578	1927.86676
438.073	1844.13317
438.568	1863.07465
439.062	1743.44577
439.557	1696.7219
440.051	1641.53355
440.546	1609.54269
441.04	1611.74176
441.534	1546.84724
442.028	1638.77841
442.522	1488.61007
443.015	1407.17528
443.509	1474.63766
444.002	1392.56138
444.496	1382.18291
444.989	1360.4936
445.482	1310.49385
445.975	1339.3225
446.468	1298.0938
446.961	1343.1481
447.454	1272.15771
447.947	1266.32646
448.439	1285.43143
448.931	1263.21193
449.424	1278.53579
449.916	1252.37055
450.408	1173.09009
450.9	1129.18732
451.392	1122.29787
451.884	1100.00637
452.375	1062.13677
452.867	1087.93659
453.358	1134.04264
453.849	1025.74799
454.341	1071.92665
454.832	1042.78993
455.323	1072.16776
455.814	983.83388
456.304	1028.9232
456.795	978.82319
457.285	933.68383
457.776	980.82062
458.266	951.866
458.756	884.75108
459.247	968.90876
459.737	924.86617
460.226	934.75562
460.716	858.73354
461.206	847.71637
461.695	797.6943
462.185	852.70962
462.674	910.72384
463.163	822.55687
463.653	877.54228
464.142	823.70108
464.63	807.67244
465.119	786.56253
465.608	831.64942
466.096	750.38985
466.585	747.46731
467.073	658.36668
467.561	713.4906
468.05	671.35252
468.538	759.60297
469.026	720.483
469.513	719.29952
470.001	718.4285
470.489	740.52219
470.976	714.44953
471.463	650.43452
471.951	621.37531
472.438	664.36936
472.925	591.24235
473.412	558.21944
473.899	605.23159
474.385	569.25321
474.872	611.2647
475.359	605.32926
475.845	583.06667
476.331	550.04499
476.817	538.18459
477.303	543.13678
477.789	531.14347
478.275	471.07341
478.761	479.03926
479.247	511.03001
479.732	491.12132
480.218	472.14053
480.703	459.04012
481.188	509.99617
481.673	478.0029
482.158	450.89174
482.643	438.03632
483.128	502.06448
483.612	458.00311
484.097	445.99032
484.581	445.9484
485.066	435.98731
485.55	433.88273
486.034	426.85129
486.518	429.95196
487.002	392.88956
487.486	331.75923
487.969	349.79858
488.453	375.87493
488.936	338.71647
489.42	356.73813
489.903	331.77897
490.386	290.56876
490.869	381.77814
491.352	322.73311
491.835	295.57159
492.318	311.66169
492.8	317.61921
493.283	350.84333
493.765	316.73484
494.247	353.77194
494.73	297.6242
495.212	248.56442
495.694	321.71649
496.175	278.63857
496.657	312.70058
497.139	282.45654
497.62	241.55813
498.102	279.66427
498.583	214.50826
499.064	234.50231
499.545	276.60038
500.026	305.65485
500.507	249.55028
500.988	285.68064
501.469	219.52763
501.949	260.61583
502.43	253.58592
502.91	278.56224
503.39	240.57286
503.87	222.5073
504.35	225.50783
504.83	221.46632
505.31	233.54132
505.79	195.44749
506.269	220.48752
506.749	239.52531
507.228	226.51373
507.707	274.58386
508.187	217.50176
508.666	224.53672
509.145	236.53168
509.623	181.41286
510.102	222.51913
510.581	235.54683
511.059	232.56413
511.538	247.61349
512.016	254.58485
512.494	202.47107
512.972	204.47404
513.45	176.40057
513.928	206.48606
514.406	181.43295
514.884	235.5856
515.361	196.456
515.839	244.54092
516.316	248.58037
516.793	172.42419
517.27	234.54289
517.747	162.40715
518.224	188.42147
518.701	206.44107
519.178	186.45381
519.654	179.41341
520.131	195.47
520.607	164.39192
521.083	157.34828
521.56	151.34902
522.036	180.38173
522.512	249.59217
522.987	160.37767
523.463	163.3781
523.939	208.50142
524.414	177.39509
524.89	198.45938
525.365	203.44488
525.84	209.48748
526.315	189.44604
526.79	178.39166
527.265	213.47702
527.74	149.35491
528.215	150.34319
528.689	145.31201
529.164	187.3899
529.638	132.32937
530.112	142.32815
530.587	159.33314
531.061	193.45477
531.534	163.38453
532.008	169.40209
532.482	197.4401
532.956	137.34389
533.429	217.51489
533.903	199.42322
534.376	190.40857
534.849	161.36235
535.322	169.38985
535.795	136.32314
536.268	178.42081
536.741	158.36745
537.213	160.36017
537.686	186.44381
538.158	194.42937
538.631	190.44831
539.103	224.48914
539.575	143.28914
540.047	158.33742
540.519	165.38592
540.991	194.46059
541.463	158.37252
541.934	167.36907
542.406	193.45176
542.877	152.3367
543.348	165.39031
543.82	173.41129
544.291	227.51256
544.762	180.41861
545.233	226.55529
545.703	162.35331
546.174	225.50493
546.645	217.50952
547.115	226.52848
547.585	213.47525
548.056	260.61607
548.526	264.60278
548.996	233.53875
549.466	256.59933
549.935	281.64378
550.405	260.54873
550.875	285.64823
551.344	256.58781
551.814	269.59174
552.283	345.71005
552.752	318.70935
553.221	338.70583
553.69	334.71541
554.159	332.78633
554.628	343.7358
555.096	328.79512
555.565	285.60268
556.033	366.82349
556.502	298.68752
556.97	307.65062
557.438	301.67463
557.906	281.63577
558.374	343.75292
558.842	309.70622
559.31	368.77426
559.777	297.69489
560.245	323.70336
560.712	328.71227
561.18	322.67629
561.647	281.5963
562.114	373.80325
562.581	401.9249
563.048	370.79662
563.514	422.99015
563.981	356.76879
564.448	435.91058
564.914	405.87777
565.381	450.9501
565.847	430.92976
566.313	401.86873
566.779	430.89673
567.245	415.89445
567.711	466.02753
568.176	451.93321
568.642	508.173
569.108	481.08786
569.573	507.06831
570.038	506.95774
570.504	554.12684
570.969	512.1602
571.434	557.11107
571.899	598.26895
572.363	619.26128
572.828	655.32748
573.293	638.29327
573.757	667.36292
574.222	655.29057
574.686	691.39034
575.15	688.45764
575.614	745.52596
576.078	672.38836
576.542	685.36559
577.006	717.40565
577.469	714.53975
577.933	697.38633
578.396	702.45689
578.86	713.46429
579.323	665.41775
579.786	712.33506
580.249	710.46238
580.712	671.44168
581.175	653.43003
581.637	649.30571
582.1	634.21663
582.563	637.18742
583.025	626.3596
583.487	678.20873
583.95	621.17358
584.412	649.19188
584.874	664.43428
585.336	631.33121
585.797	639.223
586.259	660.36231
586.721	639.32923
587.182	670.357
587.643	616.24349
588.105	641.34287
588.566	628.14947
589.027	699.50641
589.488	701.40401
589.949	680.45697
590.41	698.18553
590.87	689.37994
591.331	752.40881
591.791	733.47225
592.252	718.457
592.712	753.5639
593.172	800.55054
593.632	832.55897
594.092	857.5992
594.552	944.66778
595.011	866.66429
595.471	901.69805
595.931	905.6956
596.39	922.84853
596.849	921.78161
597.308	1015.72347
597.768	1095.30129
598.227	1108.12671
598.685	1095.97797
599.144	1168.15971
599.603	1211.19127
600.062	1242.95679
600.52	1301.20421
600.978	1355.39604
601.437	1389.31639
601.895	1481.22712
602.353	1478.29734
602.811	1589.48371
603.269	1631.70685
603.727	1717.82146
604.184	1797.68475
604.642	1953.11332
605.099	1977.90582
605.557	2025.11293
606.014	2096.62478
606.471	2172.36314
606.928	2243.81641
607.385	2419.48452
607.842	2459.02588
608.299	2559.14635
608.755	2583.3476
609.212	2739.92294
609.668	2688.97992
610.125	2807.35644
610.581	2880.19725
611.037	2880.94079
611.493	2943.16895
611.949	3000.43703
612.405	3133.40271
612.861	3102.06809
613.316	3140.31968
613.772	3268.0183
614.227	3359.31172
614.683	3331.54752
615.138	3292.15859
615.593	3284.09371
616.048	3377.98265
616.503	3320.3789
616.958	3335.5955
617.412	3329.23142
617.867	3311.86446
618.321	3388.3788
618.776	3352.75532
619.23	3259.15191
619.684	3329.83464
620.138	3250.00432
620.592	3286.37378
621.046	3296.2015
621.5	3207.33037
621.954	3111.82581
622.407	3161.81645
622.861	3157.39135
623.314	3082.96331
623.768	3086.22223
624.221	3127.2122
624.674	3027.09034
625.127	3041.12553
625.58	3008.92192
626.033	3101.7579
626.485	2974.30056
626.938	3088.26905
627.39	3083.15603
627.843	3104.0654
628.295	3108.0649
628.747	3108.27493
629.199	3150.98251
629.651	3079.03423
630.103	3219.01534
630.555	3233.52037
631.006	3221.09527
631.458	3434.12693
631.909	3410.81714
632.361	3422.99923
632.812	3651.9512
633.263	3745.50445
633.714	3776.33916
634.165	3865.1104
634.616	4055.92637
635.067	4145.39894
635.518	4226.86423
635.968	4406.58098
636.419	4615.09167
636.869	4742.57779
637.319	4939.3196
637.769	5053.03471
638.219	5275.24852
638.669	5434.21862
639.119	5558.20107
639.569	5918.05239
640.019	6068.73527
640.468	6337.47378
640.918	6556.77729
641.367	6861.4298
641.816	7017.41498
642.265	7341.74144
642.714	7535.73793
643.163	7854.97218
643.612	8136.4367
644.061	8320.22818
644.51	8550.68513
644.958	8850.1021
645.406	8958.40025
645.855	9189.84327
646.303	9532.56074
646.751	9585.69093
647.199	9871.48017
647.647	9947.66553
648.095	10084.11096
648.543	10248.00215
648.99	10356.87514
649.438	10521.5569
649.885	10539.40017
650.333	10658.83468
650.78	10736.20214
651.227	10725.1174
651.674	10693.25083
652.121	10711.05656
652.568	10749.20347
653.015	10688.95163
653.461	10696.10975
653.908	10462.36619
654.354	10442.18816
654.801	10354.92961
655.247	10147.44349
655.693	10138.0948
656.139	9842.34024
656.585	9799.22414
657.031	9713.00744
657.477	9606.79027
657.922	9434.32895
658.368	9466.4213
658.813	9226.86139
659.259	9102.67833
659.704	8898.28402
660.149	8706.92324
660.594	8664.92402
661.039	8483.5763
661.484	8322.48436
661.929	8094.20656
662.373	8070.48363
662.818	8024.37905
663.262	7883.17762
663.707	7761.36906
664.151	7755.13534
664.595	7566.0034
665.039	7481.11169
665.483	7439.25241
665.927	7392.77712
666.371	7217.74407
666.814	7178.78345
667.258	7109.86031
667.701	7048.2242
668.145	7073.05428
668.588	6960.02481
669.031	6926.69681
669.474	6824.81525
669.917	6853.30944
670.36	6775.08556
670.803	6807.8629
671.245	6635.97095
671.688	6696.91588
672.13	6644.4746
672.573	6540.20972
673.015	6542.88036
673.457	6478.2723
673.899	6492.90879
674.341	6399.90118
674.783	6309.89034
675.225	6336.07391
675.666	6263.05781
676.108	6280.26054
676.549	6186.72905
676.991	6190.36388
677.432	6158.85451
677.873	5958.67305
678.314	5973.95064
678.755	6051.18603
679.196	5874.71324
679.637	5780.07047
680.078	5714.92756
680.518	5687.81752
680.959	5529.15188
681.399	5653.38902
681.839	5626.24867
682.28	5541.48295
682.72	5320.97093
683.16	5306.64107
683.6	5388.89892
684.039	5182.39879
684.479	5186.62293
684.919	5228.2276
685.358	5080.74084
685.798	5099.12022
686.237	4990.45193
686.676	5041.0414
687.115	4942.39085
687.554	4965.49573
687.993	4965.93474
688.432	4912.1736
688.871	4887.22496
689.309	4869.5651
689.748	4927.57115
690.186	4889.3567
690.625	4883.39802
691.063	4817.54718
691.501	4808.83699
691.939	4887.94555
692.377	4865.64192
692.815	4800.75376
693.253	4764.55357
693.69	4898.89481
694.128	4803.68899
694.565	4869.45872
695.003	4893.06368
695.44	4795.50366
695.877	4764.47141
696.314	4743.7324
696.751	4750.20294
697.188	4768.35873
697.625	4809.07917
698.061	4799.57513
698.498	4695.53084
698.934	4837.53584
699.371	4702.50061
699.807	4783.47234
700.243	4817.62135
700.679	4840.03359
701.115	4813.36502
701.551	4885.29229
701.987	4794.92046
702.422	4862.51278
702.858	4982.43874
703.294	4892.20208
703.729	5006.56785
704.164	4863.50336
704.599	5051.92864
705.035	4941.01857
705.47	5000.55629
705.904	5003.19957
706.339	5080.09345
706.774	5138.20478
707.209	5133.16714
707.643	5128.36814
708.078	5193.45636
708.512	5102.759
708.946	5216.23712
709.38	5350.19334
709.814	5339.84897
710.248	5419.37997
710.682	5495.20133
711.116	5511.3016
711.549	5340.76685
711.983	5397.95891
712.416	5528.09178
712.85	5578.38259
713.283	5604.00829
713.716	5651.34833
714.149	5605.86393
714.582	5659.64499
715.015	5637.26961
715.448	5758.43249
715.881	5651.35769
716.313	5844.8179
716.746	5814.92764
717.178	6029.95107
717.61	6066.36932
718.043	6102.11175
718.475	6101.9881
718.907	6025.22553
719.339	6079.5377
719.77	6087.90195
720.202	6213.17607
720.634	6183.04564
721.065	6290.71541
721.497	6323.97299
721.928	6253.97777
722.359	6477.90146
722.79	6349.81031
723.221	6538.01097
723.652	6569.17799
724.083	6545.38148
724.514	6662.49699
724.945	6594.61241
725.375	6733.59965
725.806	6762.92152
726.236	6619.20828
726.666	6725.64044
727.096	6862.86553
727.526	6941.23572
727.956	6899.47452
728.386	7018.88008
728.816	7019.18345
729.246	6978.93371
729.675	6905.84304
730.105	7015.86094
730.534	7213.61975
730.964	7046.98719
731.393	7075.87279
731.822	7188.16771
732.251	7206.12112
732.68	7153.56343
733.109	7315.96275
733.537	7291.91299
733.966	7194.01986
734.395	7466.67538
734.823	7255.37982
735.251	7362.81975
735.68	7336.95254
736.108	7230.01355
736.536	7188.62977
736.964	7248.59549
737.392	7339.03502
737.82	7365.77981
738.247	7225.72896
738.675	7199.64496
739.102	7107.9866
739.53	7237.21916
739.957	7163.25509
740.384	7191.77509
740.811	7165.96702
741.238	7175.89929
741.665	7009.63137
742.092	6854.46873
742.519	6890.95883
742.945	6928.82403
743.372	6918.96309
743.798	6782.17202
744.225	6772.63631
744.651	6677.01478
745.077	6634.00061
745.503	6609.77443
745.929	6599.81905
746.355	6401.86345
746.781	6429.92851
747.207	6283.75393
747.632	6266.08192
748.058	6204.21356
748.483	6208.54651
748.908	6123.14359
749.334	6093.07837
749.759	6076.84029
750.184	5952.97025
750.609	5924.08112
751.033	5838.75756
751.458	5881.44762
751.883	5745.19059
752.307	5594.94196
752.732	5538.64297
753.156	5564.28893
753.58	5453.0099
754.005	5388.52889
754.429	5333.1416
754.853	5253.56414
755.277	5143.25135
755.7	5070.62787
756.124	5044.66078
756.548	4945.30749
756.971	4958.55027
757.394	4841.99612
757.818	4670.18698
758.241	4709.03621
758.664	4636.01506
759.087	4592.19665
759.51	4425.92021
759.933	4430.79087
760.356	4524.27373
760.778	4254.98983
761.201	4294.82406
761.623	4189.75654
762.046	4151.64271
762.468	4048.8729
762.89	3980.04282
763.312	3939.10855
763.734	3925.99817
764.156	3852.20284
764.578	3713.67368
765	3701.1545
765.421	3552.56156
765.843	3521.7479
766.264	3506.99615
766.686	3525.32224
767.107	3436.18962
767.528	3366.64744
767.949	3291.54024
768.37	3276.3934
768.791	3123.15925
769.212	3143.52173
769.632	3062.04588
770.053	3013.75725
770.473	2975.20407
770.894	2880.32468
771.314	2876.06619
771.734	2765.00466
772.154	2713.54246
772.575	2776.93286
772.994	2589.82993
773.414	2674.0979
773.834	2614.36633
774.254	2537.22727
774.673	2519.25467
775.093	2429.32509
775.512	2353.24611
775.931	2360.39615
776.351	2280.27006
776.77	2190.14352
777.189	2175.96204
777.607	2112.29102
778.026	2103.15886
778.445	2166.30401
778.864	2051.19897
779.282	1973.8564
779.701	1976.10215
780.119	1965.15371
780.537	1858.97485
780.955	1847.03142
781.373	1807.89955
781.791	1847.59277
782.209	1730.46762
782.627	1701.09195
783.045	1665.45239
783.462	1654.90446
783.88	1640.95555
784.297	1559.74591
784.715	1519.80356
785.132	1521.53256
785.549	1439.58195
785.966	1483.65991
786.383	1452.56509
786.8	1501.38668
787.217	1384.37769
787.633	1394.56634
788.05	1374.26074
788.466	1385.27457
788.883	1316.53782
789.299	1266.20856
789.715	1264.29504
790.131	1233.31133
790.547	1197.26669
790.963	1180.2263
791.379	1132.22276
791.795	1102.87324
792.21	1094.93557
792.626	1023.87295
793.041	1017.97882
793.457	1034.99434
793.872	1012.83465
794.287	989.90424
794.702	904.76658
795.117	938.89361
795.532	924.90022
795.947	900.71232
796.362	902.68291
796.776	887.62346
797.191	927.83252
797.605	925.76209
798.02	778.57101
798.434	861.52909
798.848	813.68713
799.262	737.54151
799.676	808.62719
800.09	737.52247
800.504	702.42903
800.918	675.30012
801.331	635.40576
801.745	661.27006
802.158	592.27203
802.572	648.3417
802.985	610.25277
803.398	579.18821
803.811	547.2072
804.224	556.19047
804.637	546.13879
805.05	538.07087
805.462	538.14889
805.875	529.22035
806.288	498.06793
806.7	456.01131
807.112	457.927
807.525	465.00068
807.937	461.01882
808.349	420.93993
808.761	473.03798
809.173	465.0054
809.584	415.91669
809.996	364.80892
810.408	394.93817
810.819	342.73286
811.231	399.97678
811.642	405.91178
812.053	420.92288
812.464	395.84112
812.875	387.9054
813.286	405.95639
813.697	325.6713
814.108	316.70344
814.519	356.72197
814.929	322.75263
815.34	299.65856
815.75	293.69626
816.16	248.56693
816.571	283.67999
816.981	248.53466
817.391	229.50947
817.801	306.70316
818.211	230.5084
818.62	268.60031
819.03	253.57359
819.44	231.55465
819.849	201.4703
820.259	223.52831
820.668	201.46643
821.077	236.55294
821.486	210.46555
821.895	198.45137
822.304	223.55429
822.713	190.41876
823.122	172.40426
823.531	163.35797
823.939	218.49876
824.348	180.40851
824.756	189.44257
825.164	179.42227
825.573	169.40116
825.981	163.3793
826.389	170.40237
826.797	215.51447
827.205	226.48535
827.612	194.44635
828.02	109.2421
828.428	168.40408
828.835	157.39607
829.243	131.29338
829.65	140.33354
830.057	161.36636
830.464	177.41155
830.871	170.38472
831.278	130.29839
831.685	154.32074
832.092	138.31663
832.499	158.3257
832.905	132.31545
833.312	100.21217
833.718	153.36374
834.124	115.2499
834.531	79.18912
834.937	130.31908
835.343	140.31645
835.749	124.26963
836.155	133.33217
836.561	94.22146
836.966	129.29793
837.372	128.30834
837.777	107.25556
838.183	100.20948
838.588	81.19435
838.993	89.20735
839.399	104.24387
839.804	46.10846
840.209	82.2032
840.613	113.23718
841.018	61.14792
841.423	105.25796
841.828	120.29093
842.232	120.2772
842.637	131.29604
843.041	50.12458
843.445	79.18854
843.849	94.22361
844.253	116.26059
844.657	94.22833
845.061	174.37642
845.465	70.16228
845.869	110.24244
846.272	66.15531
846.676	40.09148
847.079	71.17527
847.483	101.23975
847.886	75.17294
848.289	88.22923
848.692	61.14764
849.095	84.1918
849.498	77.18426
849.901	59.12832
850.304	75.17122
850.707	44.10796
851.109	66.15959
851.512	108.25365
851.914	63.15415
852.316	87.2135
852.718	66.16885
853.121	97.22706
853.523	33.07375
853.925	38.09718
854.326	71.17185
854.728	107.26413
855.13	89.22276
855.531	31.07174
855.933	70.15913
856.334	73.17635
856.736	119.25452
857.137	50.11279
857.538	54.13195
857.939	76.18294
858.34	39.09058
858.741	66.16564
859.142	72.16454
859.542	71.18199
859.943	52.12436
860.343	45.10834
860.744	78.18205
861.144	87.20485
861.544	56.13137
861.945	19.04692
862.345	45.10542
862.745	76.1826
863.145	18.04074
863.544	88.21375
863.944	22.05017
864.344	56.13188
864.743	89.21061
865.143	83.20662
865.542	47.10313
865.941	68.16226
866.34	67.15147
866.74	49.12753
867.139	94.21784
867.537	-18.04426
867.936	73.169
868.335	47.11508
868.734	46.11378
869.132	17.03762
869.531	58.13281
869.929	59.12941
870.327	61.14021
870.726	34.08094
871.124	65.14395
871.522	43.10537
871.92	92.21666
872.318	47.10967
872.715	34.07992
873.113	36.08405
873.511	26.06242
873.908	57.14112
874.306	76.18287
874.703	30.07178
875.1	47.11419
875.497	68.15533
875.894	81.19376
876.291	43.10192
876.688	48.11973
877.085	48.10978
877.482	78.1869
877.878	70.16376
878.275	61.14959
878.671	54.11092
879.068	41.09518
879.464	73.16867
879.86	49.11123
880.256	2.00471
880.652	-3.00742
881.048	39.09208
881.444	34.07666
881.84	26.06386
882.236	62.14958
882.631	75.17728
883.027	67.15456
883.422	35.08592
883.817	-8.01975
884.213	30.07456
884.608	70.1685
885.003	15.03466
885.398	17.04129
885.793	20.04838
886.188	-10.02415
886.582	36.08833
886.977	56.12637
887.371	20.04862
887.766	31.075
888.16	19.04505
888.554	31.07339
888.949	45.10879
889.343	34.07957
889.737	24.0628
890.131	67.16137
890.525	87.21468
890.918	60.14498
891.312	64.14484
891.706	37.09371
892.099	68.16554
892.492	48.09806
892.886	2.00473
893.279	66.1611
893.672	50.12363
894.065	55.13262
894.458	5.01207
894.851	72.16745
895.244	15.03714
895.637	41.09537
896.029	47.11131
896.422	29.06743
896.814	18.04315
897.206	50.11605
897.599	92.21666
897.991	93.21573
898.383	0
898.775	59.12887
899.167	21.04802
899.559	29.07027
899.951	47.10517
900.342	20.04874
900.734	39.09578
901.125	26.06563
901.517	40.09479
901.908	59.13322
902.299	40.09453
902.69	60.13689
903.082	80.18495
903.473	73.17001
903.863	9.02215
904.254	83.18581
904.645	37.08746
905.036	123.28837
905.426	54.11617
905.817	70.16318
906.207	-3.00685
906.597	78.17588
906.987	38.0943
907.378	63.15403
907.768	24.06181
908.158	23.05401
908.547	70.1765
908.937	60.14607
909.327	28.0654
909.717	29.0699
910.106	25.0576
910.495	32.07612
910.885	74.18022
911.274	62.14845
911.663	31.07526
912.052	34.07982
912.441	92.22556
912.83	55.11967
913.219	73.18278
913.608	82.19266
913.997	47.1147
914.385	55.12592
914.774	49.1143
915.162	85.19546
915.55	60.13783
915.939	60.14683
916.327	43.10243
916.715	56.13969
917.103	36.08372
917.491	49.11605
917.878	57.13405
918.266	47.11704
918.654	69.17077
919.041	64.16316
919.429	39.08839
919.816	52.12664
920.203	76.17801
920.591	103.24365
920.978	71.16626
921.365	45.11458
921.752	44.09897
922.139	83.1706
922.525	22.05123
922.912	33.07719
923.299	56.13393
923.685	14.03511
924.072	14.03027
924.458	63.15047
924.844	34.08119
925.231	32.07083
925.617	21.05235
926.003	9.02224
926.389	-1.00245
926.774	34.08283
927.16	80.18943
927.546	92.22856
927.931	25.05983
928.317	29.06364
928.702	68.1527
929.088	87.20069
929.473	86.21124
929.858	33.07843
930.243	43.10034
930.628	84.19728
931.013	31.07427
931.398	23.0499
931.783	33.0831
932.167	82.19364
932.552	24.0579
932.937	56.1325
933.321	68.16517
933.705	-4.00968
934.09	3.00719
934.474	78.17451
934.858	40.1005
935.242	-17.03809
935.626	42.10435
936.009	35.09119
936.393	85.21013
936.777	59.14634
937.16	42.10651
937.544	21.0468
937.927	56.13755
938.311	63.14603
938.694	77.19634
939.077	41.09428
939.46	20.04627
939.843	45.0869
940.226	22.05432
940.609	84.18568
940.991	35.08541
941.374	38.09005
941.757	40.09453
942.139	72.15449
942.522	42.09451
942.904	51.1176
943.286	35.08548
943.668	90.22579
944.05	38.09022
944.432	20.04747
944.814	52.12156
945.196	41.09703
945.578	56.12993
945.959	-3.00672
946.341	18.04178
946.722	54.12042
947.104	45.10327
947.485	44.09816
947.866	60.14656
948.247	67.16393
948.628	6.01386
949.009	-2.00498
949.39	23.05489
949.771	-6.01315
950.152	1.00238
950.532	72.17476
950.913	57.13139
951.293	38.10047
951.674	35.08145
952.054	73.17675
952.434	74.1761
952.814	42.09463
953.194	-1.00251
953.574	70.16395
953.954	21.04748
954.334	75.18071
954.714	30.07087
955.093	93.21752
955.473	21.0514
955.853	56.13969
956.232	-2.00534
956.611	34.07723
956.99	66.15983
957.37	45.10965
957.749	-29.06615
958.128	68.16542
958.506	7.01769
958.885	41.09927
959.264	44.10519
959.643	74.16132
960.021	46.11052
960.4	28.06078
960.778	42.09779
961.156	0
961.535	72.15789
961.913	78.1748
962.291	37.09298
962.669	32.07875
963.047	61.15053
963.424	87.21555
963.802	28.06658
964.18	24.05762
964.557	63.13743
964.935	92.20659
965.312	35.08871
965.69	66.15664
966.067	16.03714
966.444	28.06512
966.821	67.16612
967.198	9.02082
967.575	51.11933
967.952	67.14999
968.329	67.15702
968.705	92.18743
969.082	130.32144
969.458	19.04467
969.835	51.11901
970.211	55.13746
970.587	13.03139
970.963	43.10529
971.339	20.05092
971.715	61.14642
972.091	72.16923
972.467	1.00238
972.843	80.19221
973.219	59.13388
973.594	14.03557
973.97	-10.02239
974.345	62.1426
974.721	32.07327
975.096	54.12638
975.471	35.07932
975.846	-5.01154
976.221	-10.02475
976.596	83.19307
976.971	77.18306
977.346	0
977.72	37.0904
978.095	39.09719
978.469	47.10691
978.844	57.13656
979.218	93.21556
979.593	52.11859
979.967	31.07117
980.341	12.02676
980.715	42.10221
981.089	46.1106
981.463	39.08576
981.837	30.07158
982.21	-9.01966
982.584	64.14855
982.957	25.06071
983.331	19.04252
983.704	77.1832
984.078	11.02616
984.451	64.14961
984.824	85.19873
985.197	3.00693
985.57	2.00478
985.943	7.01639
986.316	71.16352
986.688	55.12662
987.061	67.1503
987.434	59.15012
987.806	2.00462
988.179	33.07439
988.551	73.17635
988.923	29.06834
989.295	49.11685
989.667	33.0771
990.039	103.24648
990.411	1.00218
990.783	41.08891
991.155	24.05586
991.527	38.08799
991.898	59.14178
992.27	39.09386
992.641	46.1101
993.012	2.00441
993.384	-4.00918
993.755	78.19159
994.126	76.17598
994.497	18.04267
994.868	23.05004
995.239	36.08353
995.61	-16.03923
995.98	13.03043
996.351	43.10321
996.722	46.10342
997.092	82.1858
997.462	32.07277
997.833	12.02714
998.203	32.07333
998.573	43.10345
998.943	40.09045
999.313	37.08573
999.683	43.09939
1000.053	1.00216
1000.423	27.06261
1000.792	-8.01993
1001.162	-4.00947
1001.531	55.13026
1001.901	15.03592
1002.27	-10.02108
1002.639	3.00737
1003.009	61.13808
1003.378	54.13303
1003.747	74.16508
1004.116	34.07795
1004.485	15.03452
1004.853	1.00242
1005.222	-14.03364
1005.591	76.17095
1005.959	8.01744
1006.328	58.12483
1006.696	-10.02326
1007.064	24.05764
1007.433	0
1007.801	-14.03271
1008.169	20.04822
1008.537	104.21622
1008.905	53.11889
1009.273	18.04252
1009.64	58.1342
1010.008	52.11821
1010.375	32.07316
1010.743	12.02573
1011.11	109.24914
1011.478	67.15984
1011.845	73.16214
1012.212	51.11153
1012.579	31.07339
1012.946	40.09001
1013.313	64.14372
1013.68	31.06619
1014.047	0
1014.414	-1.00228
1014.78	34.08172
1015.147	55.12541
1015.513	66.15174
1015.88	64.15557
1016.246	-2.00471
1016.612	45.09733
1016.978	65.15334
1017.344	42.09995
1017.71	64.14784
1018.076	53.11787
1018.442	53.13155
1018.808	38.09237
1019.174	12.02891
1019.539	1.00211
1019.905	11.02515
1020.27	-10.02388
1020.636	-2.00456
1021.001	82.18731
1021.366	53.12241
1021.731	108.26841
1022.096	24.05908
1022.461	47.10673
1022.826	82.18686
1023.191	14.03564
1023.556	51.11337
1023.92	15.03519
1024.285	42.0971
1024.649	22.05155
1025.014	-13.03084
1025.378	37.09019
1025.742	11.02613
1026.107	48.103
1026.471	35.07761
1026.835	33.0787
1027.199	9.02096
1027.562	27.05945
1027.926	14.03278
1028.29	42.10236
1028.654	40.08746
1029.017	59.13919
1029.381	54.1238
1029.744	46.11295
1030.107	52.11744
1030.471	59.13572
1030.834	46.09794
1031.197	57.13091
1031.56	47.1053
1031.923	42.10488
1032.286	51.11427
1032.648	-18.04105
1033.011	85.18778
1033.374	96.21061
1033.736	15.0383
1034.099	15.03529
1034.461	47.11517
1034.823	51.12246
1035.185	17.0409
1035.548	52.12179
1035.91	29.06653
1036.272	87.18841
1036.634	54.12628
1036.995	12.02689
1037.357	27.06357
1037.719	50.11665
1038.08	111.25115
1038.442	9.02054
1038.803	2.00455
1039.165	15.03637
1039.526	24.05584
1039.887	18.04138
1040.248	85.20325
1040.609	55.12849
1040.97	-22.05201
1041.331	59.14436
1041.692	71.16084
1042.053	61.13098
1042.413	52.11466
1042.774	59.13746
1043.134	25.05629
1043.495	64.15388
1043.855	89.2076
1044.215	-8.01912
1044.576	61.14032
1044.936	71.1533
1045.296	40.09585
1045.656	31.07222
1046.016	31.07134
1046.375	47.10916
1046.735	75.16451
1047.095	41.09182
1047.454	66.13011
1047.814	57.13102
1048.173	35.07881
1048.533	41.08966
1048.892	31.07183
1049.251	33.07903
1049.61	19.04515
1049.969	2.00453
1050.328	51.10487
1050.687	7.01632
1051.046	42.09756
1051.405	14.03325
1051.763	65.14389
1052.122	12.02885
1052.48	72.16897
1052.839	91.20657
1053.197	19.0429
1053.555	12.0256
1053.914	11.02585
1054.272	13.02955
1054.63	52.12208
1054.988	32.07372
1055.345	67.13398
1055.703	40.09244
1056.061	93.23118
1056.419	39.09906
1056.776	26.05944
1057.134	-18.03949
1057.491	23.05556
1057.848	12.02864
1058.206	-1.00223
1058.563	18.03782
1058.92	64.13934
1059.277	64.15078
1059.634	-24.05383
1059.991	78.1781
1060.348	54.11667
1060.704	35.08203
1061.061	46.09973
1061.418	35.08161
1061.774	9.02146
1062.131	39.10126
1062.487	-6.01345
1062.843	58.13829
1063.199	18.04321
1063.555	55.12272
1063.911	34.08206
1064.267	110.20982
1064.623	15.03557
1064.979	-22.04847
1065.335	20.04547
1065.691	10.0227
1066.046	50.104
1066.402	38.08175
1066.757	72.17384
1067.112	53.12377
1067.468	54.1236
1067.823	0
1068.178	5.01158
1068.533	51.11816
1068.888	51.11563
1069.243	12.02859
1069.598	23.05333
1069.952	67.14671
1070.307	25.05996
1070.662	83.18979
1071.016	66.1426
1071.371	60.13052
1071.725	17.03868
1072.079	69.15847
1072.434	44.1029
1072.788	33.07415
1073.142	98.22899
1073.496	0
1073.85	43.09491
1074.203	37.0862
1074.557	57.14795
1074.911	50.11297
1075.265	55.1216
1075.618	63.14701
1075.971	45.10215
1076.325	35.08643
1076.678	20.0439
1077.031	-37.07927
1077.385	75.15513
1077.738	5.01081
1078.091	55.12028
1078.444	9.0198
1078.796	30.07128
1079.149	37.08864
1079.502	32.07307
1079.855	55.12242
1080.207	49.1151
1080.56	42.10533
1080.912	8.01874
1081.264	20.04655
1081.617	45.10554
1081.969	16.03927
1082.321	20.04681
1082.673	43.09535
1083.025	30.06773
1083.377	292.6214
1083.728	60.1323
1084.08	19.0454
1084.432	54.1238
1084.783	-1.00221
1085.135	42.10167
1085.486	11.02435
1085.838	68.16052
1086.189	37.08702
1086.54	20.04565
1086.891	51.12645
1087.242	61.14463
1087.593	61.13926
1087.944	75.16242
1088.295	83.1776
1088.646	72.16983
1088.996	10.02339
1089.347	-6.01415
1089.698	32.07345
1090.048	40.09941
1090.398	20.04412
1090.749	-17.03897
1091.099	36.08836
1091.449	32.07706
1091.799	13.03142
1092.149	32.07624
1092.499	15.03528
1092.849	-5.01236
1093.199	24.05738
1093.548	37.0863
1093.898	10.02406
1094.248	-5.01233
1094.597	16.04008
1094.947	23.05962
1095.296	32.07647
1095.645	10.02508
1095.994	21.04848
1096.343	38.09237
1096.692	33.08533
1097.041	19.05083
1097.39	38.09102
1097.739	34.08521
1098.088	23.05925
1098.437	37.09544
1098.785	18.04668
1099.134	-2.00507
1099.482	37.09906
1099.83	29.07374
1100.179	66.16885
1100.527	-9.02301
1100.875	41.10561
1101.223	36.09317
1101.571	-13.03499
1101.919	70.18003
1102.267	33.09121
1102.615	7.02247
1102.962	5.01603
1103.31	7.02247
1103.658	3.00961
