Data from N3 R1 sample 10_Subt2__1__15-14-14-069.txt Node

Date: Wed Sep 17 15:14:14 PDT 2025
User: uwsun
Spectrometer: HDX01956
Trigger mode: 0
Integration Time (sec): 5.000000E-1
Scans to average: 1
Nonlinearity correction enabled: true
Boxcar width: 0
Storing dark spectrum: false
XAxis mode: Wavelengths
Number of Pixels in Spectrum: 2068
>>>>>Begin Spectral Data<<<<<
194.03	139.39532
194.578	135.43203
195.127	130.41028
195.676	134.42425
196.225	155.40326
196.773	143.39075
197.321	205.55565
197.87	266.66512
198.418	348.8638
198.966	317.80988
199.513	349.85473
200.061	263.65393
200.609	311.79623
201.156	302.63961
201.704	271.66621
202.251	319.82213
202.798	313.78671
203.345	340.81211
203.892	329.80397
204.438	340.77596
204.985	312.71781
205.532	339.86089
206.078	329.77547
206.624	382.91832
207.17	383.85767
207.716	383.89885
208.262	263.50837
208.808	409.97966
209.354	408.96142
209.899	353.85458
210.445	380.91074
210.99	362.84875
211.535	337.76586
212.08	351.78214
212.625	331.79832
213.17	386.94163
213.715	355.7786
214.259	382.85138
214.804	392.91584
215.348	393.8652
215.892	372.86537
216.436	310.6835
216.98	340.71536
217.524	381.87038
218.068	342.83216
218.612	383.9324
219.155	379.855
219.698	330.75618
220.242	272.65344
220.785	374.83839
221.328	314.74916
221.871	347.85047
222.414	307.73345
222.956	293.678
223.499	284.61227
224.041	288.6358
224.583	274.55821
225.126	346.72317
225.668	356.8262
226.21	367.88812
226.751	386.81392
227.293	269.58951
227.835	307.72615
228.376	296.64826
228.918	320.7661
229.459	305.73479
230	319.73728
230.541	303.67073
231.082	321.75191
231.622	320.69312
232.163	329.76069
232.704	352.84366
233.244	285.6848
233.784	283.66317
234.324	369.78918
234.864	305.66219
235.404	283.64368
235.944	287.65251
236.484	313.75263
237.023	280.63827
237.563	367.81136
238.102	358.80648
238.641	305.73896
239.18	300.67916
239.719	350.83791
240.258	306.66054
240.797	332.76015
241.335	322.75145
241.874	323.60041
242.412	342.79623
242.95	343.79399
243.488	317.68179
244.026	376.83073
244.564	324.63694
245.102	362.78074
245.64	346.78838
246.177	308.65659
246.715	334.76902
247.252	313.68129
247.789	349.61071
248.326	350.8065
248.863	311.65766
249.4	351.75783
249.936	441.86063
250.473	392.87837
251.009	322.70668
251.546	354.75366
252.082	257.53823
252.618	364.7736
253.154	298.69272
253.69	299.64557
254.226	341.78185
254.761	379.8053
255.297	298.62617
255.832	365.82712
256.367	340.76406
256.903	380.80056
257.438	368.81985
257.972	295.63311
258.507	283.6275
259.042	357.73806
259.576	396.82803
260.111	327.71901
260.645	346.71163
261.179	337.75624
261.713	368.78278
262.247	277.6119
262.781	364.72773
263.315	320.74561
263.849	367.87708
264.382	391.84888
264.915	364.82134
265.449	295.69615
265.982	353.7641
266.515	385.89755
267.048	350.7059
267.58	344.70624
268.113	353.72619
268.646	346.80966
269.178	319.68373
269.71	424.88029
270.243	426.92859
270.775	360.88477
271.307	380.85673
271.838	415.92281
272.37	341.80031
272.902	353.76149
273.433	395.82759
273.965	382.88162
274.496	380.89547
275.027	393.9295
275.558	371.86356
276.089	384.91367
276.62	376.90253
277.15	343.80751
277.681	340.6974
278.211	338.78971
278.741	354.74973
279.272	413.8909
279.802	367.87071
280.332	407.9084
280.861	386.87523
281.391	393.84486
281.921	366.83293
282.45	373.88085
282.98	370.92173
283.509	429.91748
284.038	406.8775
284.567	377.83485
285.096	416.95395
285.625	335.72112
286.153	441.99118
286.682	387.84377
287.21	376.85083
287.739	399.89239
288.267	410.94547
288.795	411.01614
289.323	417.92456
289.851	390.87137
290.378	348.74024
290.906	377.87994
291.433	393.9313
291.961	442.94752
292.488	369.87343
293.015	417.93033
293.542	456.10263
294.069	479.10879
294.596	431.99209
295.122	485.08311
295.649	420.86304
296.175	438.99109
296.702	491.11817
297.228	376.8619
297.754	455.95665
298.28	449.96938
298.806	384.88094
299.332	446.93588
299.857	467.99096
300.383	454.07135
300.908	444.02702
301.433	474.08656
301.958	482.026
302.483	445.03606
303.008	487.1309
303.533	459.11177
304.058	458.99875
304.582	434.96645
305.107	461.12749
305.631	460.97461
306.155	459.00002
306.679	463.01856
307.203	478.03378
307.727	481.06221
308.251	491.12942
308.775	509.15129
309.298	457.03348
309.822	498.16536
310.345	510.13129
310.868	554.22956
311.391	545.23834
311.914	490.14661
312.437	474.01025
312.96	527.14699
313.482	508.1058
314.005	522.20776
314.527	495.20225
315.049	526.23626
315.571	543.12324
316.093	566.28949
316.615	473.06061
317.137	591.16755
317.659	586.29798
318.18	532.16989
318.702	592.26548
319.223	499.93872
319.744	604.23318
320.265	568.27268
320.786	609.39119
321.307	582.31851
321.828	628.27819
322.348	587.26209
322.869	582.27036
323.389	960.53839
323.909	617.276
324.43	614.33351
324.95	649.33688
325.47	679.51761
325.989	631.35739
326.509	712.41391
327.029	735.48374
327.548	655.33353
328.067	682.48889
328.587	688.5551
329.106	681.36893
329.625	721.68413
330.144	778.58752
330.662	755.56597
331.181	800.65165
331.7	790.60475
332.218	770.4575
332.736	760.56899
333.255	793.63682
333.773	729.5288
334.291	806.77461
334.808	823.60695
335.326	774.5215
335.844	853.73719
336.361	923.05035
336.879	831.7023
337.396	881.85514
337.913	851.69937
338.43	893.71749
338.947	873.80129
339.464	898.64074
339.981	877.79177
340.497	904.91233
341.014	969.00057
341.53	848.64919
342.046	967.05775
342.562	993.09217
343.078	966.91994
343.594	1017.01848
344.11	989.9962
344.626	974.09367
345.141	1078.01851
345.657	1028.92509
346.172	1020.06056
346.687	997.91049
347.202	1089.03267
347.717	1058.08981
348.232	1089.24769
348.747	1086.05447
349.261	1106.96395
349.776	1209.29944
350.29	1169.38834
350.805	1140.30443
351.319	1148.15418
351.833	1133.11297
352.347	1140.18619
352.861	1179.22386
353.374	1119.06011
353.888	1173.32765
354.401	1152.10681
354.915	1184.13412
355.428	1257.50269
355.941	1267.31614
356.454	1267.18896
356.967	1182.20841
357.48	1238.20468
357.993	1268.47525
358.505	1270.4431
359.018	1336.55692
359.53	1361.57937
360.042	1394.35321
360.554	1423.66602
361.066	1278.45618
361.578	1369.28903
362.09	1339.46902
362.602	1392.33971
363.113	1401.51348
363.625	1416.41883
364.136	1396.29718
364.647	1410.54704
365.158	1455.53669
365.669	1472.63808
366.18	1517.6385
366.691	1459.3522
367.201	1473.65127
367.712	1518.55155
368.222	1534.58695
368.733	1512.3819
369.243	1566.52124
369.753	1588.63994
370.263	1645.86548
370.773	1584.82539
371.282	1667.84527
371.792	1733.79354
372.301	1673.88884
372.811	1788.35046
373.32	1769.5765
373.829	1780.89323
374.338	1919.76833
374.847	1941.9343
375.356	1874.96899
375.865	2034.6972
376.373	2125.98084
376.882	2185.51987
377.39	2231.30427
377.898	2244.40171
378.407	2436.09641
378.915	2552.94632
379.423	2604.25383
379.93	2757.27918
380.438	2818.46776
380.946	2997.29298
381.453	3043.47665
381.96	3223.43614
382.468	3398.30916
382.975	3674.51618
383.482	3699.90944
383.989	3711.85636
384.495	3898.09995
385.002	4066.35781
385.509	4424.00449
386.015	4638.89429
386.521	4768.47206
387.028	5004.32065
387.534	5081.88707
388.04	5452.4821
388.546	5383.91831
389.051	5758.71787
389.557	6202.85498
390.063	6636.61061
390.568	6891.95381
391.073	7009.52681
391.578	7472.11539
392.084	7624.84239
392.589	7920.87351
393.093	8473.74475
393.598	9228.88231
394.103	9964.66588
394.607	11144.80198
395.112	11913.33761
395.616	12667.78945
396.12	13548.61639
396.624	15006.73144
397.128	16356.20488
397.632	18324.44059
398.136	19728.87411
398.639	20825.74183
399.143	23078.83013
399.646	26272.04123
400.15	29027.89736
400.653	32296.13268
401.156	36483.50491
401.659	42234.7918
402.162	51247.02362
402.664	60599.79682
403.167	63942.85926
403.67	63769.22307
404.172	63919.58413
404.674	63858.43483
405.176	63738.15102
405.678	63977.72923
406.18	64011.81569
406.682	63863.44694
407.184	63926.60148
407.686	63841.39382
408.187	64025.8516
408.688	63892.51763
409.19	63833.37461
409.691	63977.72923
410.192	63945.6488
410.693	63713.09355
411.194	63618.5912
411.694	61294.40585
412.195	56975.59034
412.696	51075.77781
413.196	47828.78469
413.696	46309.80346
414.196	46783.78297
414.696	46015.8454
415.196	43967.02486
415.696	40024.91958
416.196	32658.08899
416.695	25277.69048
417.195	21541.48444
417.694	20369.44099
418.194	19274.82646
418.693	17938.22344
419.192	17439.30332
419.691	17122.80815
420.19	16572.688
420.688	16066.71816
421.187	15455.71556
421.685	14483.16054
422.184	13297.36741
422.682	11328.15476
423.18	9725.04221
423.678	8609.7968
424.176	7919.03073
424.674	7437.63095
425.172	7163.80056
425.669	6601.06519
426.167	6384.75725
426.664	5717.84818
427.161	5345.12077
427.659	4905.7579
428.156	4667.01238
428.652	4351.36681
429.149	4223.13762
429.646	4011.65551
430.143	3856.20696
430.639	3586.22134
431.135	3363.6398
431.632	3265.07458
432.128	2978.40009
432.624	2892.84808
433.12	2755.09677
433.616	2635.88363
434.111	2605.2892
434.607	2496.30136
435.103	2394.63484
435.598	2315.59233
436.093	2304.08996
436.588	2147.86895
437.083	2077.81608
437.578	2002.91417
438.073	1861.14811
438.568	1844.05867
439.062	1737.4418
439.557	1660.6904
440.051	1594.49374
440.546	1576.51339
441.04	1558.68834
441.534	1509.80428
442.028	1520.65823
442.522	1455.57372
443.015	1420.18728
443.509	1486.65112
444.002	1430.60678
444.496	1337.13843
444.989	1371.50696
445.482	1315.50038
445.975	1393.38248
446.468	1375.17115
446.961	1330.13496
447.454	1228.10728
447.947	1291.35781
448.439	1236.36622
448.931	1266.21548
449.424	1237.47755
449.916	1260.38112
450.408	1199.12236
450.9	1129.18732
451.392	1167.36605
451.884	1111.0209
452.375	1112.21201
452.867	1070.91455
453.358	1105.00489
453.849	1102.8411
454.341	1050.89889
454.832	1014.75466
455.323	1070.16469
455.814	999.85645
456.304	995.87644
456.795	1030.89572
457.285	995.7677
457.776	1008.85977
458.266	1008.95154
458.756	924.81338
459.247	947.87646
459.737	991.97105
460.226	941.76577
460.716	910.8169
461.206	826.68177
461.695	885.84564
462.185	836.68364
462.674	853.63809
463.163	850.59903
463.653	903.57736
464.142	830.71288
464.63	744.56337
465.119	785.5609
465.608	814.62202
466.096	707.32403
466.585	778.51717
467.073	701.4422
467.561	747.55005
468.05	744.4748
468.538	710.51542
469.026	674.40245
469.513	677.23655
470.001	720.43182
470.489	690.43514
470.976	739.49183
471.463	672.47632
471.951	632.3965
472.438	616.28389
472.925	638.32745
473.412	590.28078
473.899	616.25089
474.385	579.2726
474.872	563.17768
475.359	604.32734
475.845	608.10551
476.331	485.93752
476.817	534.17675
477.303	553.1552
477.789	468.02117
478.275	494.12071
478.761	499.07813
479.247	448.91767
479.732	509.15829
480.218	518.24102
480.703	458.03806
481.188	488.95982
481.673	490.02541
482.158	444.88109
482.643	437.03415
483.128	503.06637
483.612	506.09725
484.097	413.92522
484.581	396.85296
485.066	411.93739
485.55	372.76889
486.034	348.708
486.518	418.92967
487.002	335.76902
487.486	364.82938
487.969	326.74941
488.453	320.7547
488.936	339.71843
489.42	337.70171
489.903	317.74806
490.386	282.55411
490.869	369.75568
491.352	293.671
491.835	252.49329
492.318	305.64977
492.8	309.60473
493.283	334.80722
493.765	270.63358
494.247	323.71082
494.73	279.5887
495.212	277.62672
495.694	313.69979
496.175	299.68392
496.657	307.69006
497.139	272.44159
497.62	271.62387
498.102	269.6417
498.583	211.50143
499.064	269.57308
499.545	254.55511
500.026	283.6105
500.507	274.60236
500.988	289.68966
501.469	176.42749
501.949	257.60908
502.43	235.54618
502.91	286.57736
503.39	237.56602
503.87	277.62595
504.35	200.45372
504.83	222.46833
505.31	188.44066
505.79	171.3943
506.269	185.41295
506.749	142.31848
507.228	226.51373
507.707	266.5678
508.187	257.58951
508.666	220.52753
509.145	220.49726
509.623	200.45445
510.102	198.46519
510.581	250.58001
511.059	221.53849
511.538	217.54193
512.016	259.59577
512.494	164.38531
512.972	192.44722
513.45	180.40934
513.928	181.42915
514.406	203.48353
514.884	198.49672
515.361	180.4201
515.839	229.50926
516.316	210.49511
516.793	221.5401
517.27	192.44916
517.747	185.46303
518.224	167.37601
518.701	168.36266
519.178	225.54496
519.654	155.35969
520.131	175.42339
520.607	148.35476
521.083	153.33969
521.56	150.34678
522.036	123.2641
522.512	215.51466
522.987	224.52216
523.463	185.42726
523.939	205.49447
524.414	165.36922
524.89	188.43704
525.365	175.38578
525.84	213.49642
526.315	190.44831
526.79	163.35978
527.265	220.49199
527.74	131.31312
528.215	115.26497
528.689	130.28063
529.164	151.31736
529.638	148.36822
530.112	158.36396
530.587	184.38339
531.061	211.49544
531.534	186.43683
532.008	213.50247
532.482	179.40138
532.956	147.36832
533.429	216.51262
533.903	150.32242
534.376	145.31482
534.849	164.36888
535.322	183.42096
535.795	118.28135
536.268	175.41396
536.741	128.29944
537.213	154.34709
537.686	176.42075
538.158	243.53231
538.631	148.35206
539.103	191.41999
539.575	145.29305
540.047	169.36005
540.519	215.49793
540.991	160.38236
541.463	169.3976
541.934	137.30467
542.406	201.46975
542.877	178.39215
543.348	196.46085
543.82	173.41129
544.291	155.35513
544.762	197.4566
545.233	186.4604
545.703	171.37222
546.174	208.46841
546.645	213.50052
547.115	219.51282
547.585	211.47098
548.056	223.53218
548.526	246.56372
548.996	206.47888
549.466	257.60155
549.935	278.6373
550.405	267.56264
550.875	247.56612
551.344	259.59434
551.814	240.53117
552.283	297.61787
552.752	335.74464
553.221	350.72894
553.69	378.80195
554.159	351.82827
554.628	389.82619
555.096	359.86517
555.565	353.73535
556.033	371.83388
556.502	267.61981
556.97	299.63478
557.438	270.60902
557.906	316.70985
558.374	293.64994
558.842	295.67612
559.31	361.76071
559.777	309.72126
560.245	278.61116
560.712	299.65331
561.18	335.70158
561.647	336.70445
562.114	320.69697
562.581	394.91003
563.048	357.77078
563.514	413.97074
563.981	335.7267
564.448	429.89921
564.914	396.85991
565.381	479.00301
565.847	428.92583
566.313	413.89243
566.779	472.97513
567.245	477.01247
567.711	428.95309
568.176	460.94992
568.642	489.13332
569.108	496.11842
569.573	497.0495
570.038	518.97759
570.504	571.15699
570.969	541.21881
571.434	600.18508
571.899	593.25969
572.363	631.28227
572.828	668.34986
573.293	608.2408
573.757	692.40609
574.222	728.41011
574.686	669.35281
575.15	718.51133
575.614	733.50541
576.078	682.40589
576.542	662.32671
577.006	690.36124
577.469	730.56891
577.933	680.35781
578.396	665.39137
578.86	723.48151
579.323	704.48833
579.786	700.31639
580.249	751.53272
580.712	678.45455
581.175	661.44514
581.637	662.32793
582.1	674.28109
582.563	644.19841
583.025	685.46927
583.487	668.19394
583.95	586.11678
584.412	661.21031
584.874	672.4491
585.336	617.30562
585.797	623.19692
586.259	663.3676
586.721	612.28062
587.182	675.36558
587.643	690.36952
588.105	667.3894
588.566	668.21054
589.027	740.58088
589.488	654.32394
589.949	726.54024
590.41	658.12949
590.87	716.42517
591.331	713.34844
591.791	771.53516
592.252	798.59009
592.712	761.57772
593.172	822.5849
593.632	880.62964
594.092	866.61243
594.552	883.58447
595.011	812.58057
595.471	943.75912
595.931	947.75615
596.39	968.92035
596.849	1018.92411
597.308	978.67697
597.768	1044.21843
598.227	1105.12246
598.685	1168.06994
599.144	1183.1794
599.603	1161.12705
600.062	1290.004
600.52	1361.26941
600.978	1389.43494
601.437	1425.3536
601.895	1483.22884
602.353	1530.34331
602.811	1628.51689
603.269	1734.79906
603.727	1707.81255
604.184	1860.72848
604.642	1929.09519
605.099	2026.93555
605.557	2015.10623
606.014	2083.61957
606.471	2167.36004
606.928	2311.83829
607.385	2381.46758
607.842	2479.03074
608.299	2552.14483
608.755	2677.3689
609.212	2644.91696
609.668	2816.98548
610.125	2881.36269
610.581	2943.19755
611.037	3012.931
611.493	3024.16559
611.949	3095.43554
612.405	3132.40297
612.861	3152.06135
613.316	3179.3158
613.772	3314.00834
614.227	3327.31764
614.683	3426.5164
615.138	3327.15163
615.593	3418.063
616.048	3381.98162
616.503	3426.35897
616.958	3417.58319
617.412	3487.19523
617.867	3419.83496
618.321	3375.38336
618.776	3373.74927
619.23	3309.14243
619.684	3316.83802
620.138	3282.99744
620.592	3246.37934
621.046	3282.20404
621.5	3232.32721
621.954	3253.79625
622.407	3181.81238
622.861	3182.38911
623.314	3242.93557
623.768	3181.21206
624.221	3074.22728
624.674	3182.07166
625.127	3081.12189
625.58	3101.90968
626.033	3117.75489
626.485	3024.29957
626.938	3109.26738
627.39	3119.15228
627.843	3052.07116
628.295	3105.06527
628.747	3222.26218
629.199	3172.97883
629.651	3162.02269
630.103	3214.01626
630.555	3236.51953
631.006	3280.08432
631.458	3353.14609
631.909	3471.79843
632.361	3522.97017
632.812	3691.93673
633.263	3815.47343
633.714	3840.30937
634.165	3911.09181
634.616	4147.88289
635.067	4153.39479
635.518	4304.82473
635.968	4527.51227
636.419	4740.0207
636.869	4801.54443
637.319	4878.35422
637.769	5157.97679
638.219	5285.24306
638.669	5525.17133
639.119	5677.14198
639.569	5896.06177
640.019	6220.68756
640.468	6367.46796
640.918	6603.7702
641.367	6908.43431
641.816	7105.4343
642.265	7406.76439
642.714	7658.8059
643.163	7881.99257
643.612	8177.4725
644.061	8379.3086
644.51	8654.83604
644.958	8860.12015
645.406	9169.7848
645.855	9350.16365
646.303	9504.49284
646.751	9775.18412
647.199	9987.82504
647.647	10109.15184
648.095	10358.01699
648.543	10393.55187
648.99	10513.409
649.438	10719.303
649.885	10856.54832
650.333	10819.54959
650.78	10965.10054
651.227	10906.81452
651.674	10928.20509
652.121	11026.28478
652.568	10949.98179
653.015	10892.71966
653.461	10779.4292
653.908	10617.94068
654.354	10681.04885
654.801	10442.23028
655.247	10367.215
655.693	10129.06975
656.139	10126.15689
656.585	9862.39409
657.031	9870.43098
657.477	9865.52391
657.922	9481.44198
658.368	9512.52312
658.813	9261.93702
659.259	9218.89728
659.704	9169.77538
660.149	9024.46576
660.594	8857.21723
661.039	8660.83095
661.484	8443.62503
661.929	8295.41165
662.373	8200.58813
662.818	8087.42758
663.262	7996.25917
663.707	7924.45624
664.151	7741.12763
664.595	7728.08265
665.039	7563.14019
665.483	7504.26964
665.927	7552.84402
666.371	7549.85962
666.814	7410.84609
667.258	7326.90213
667.701	7254.29663
668.145	7059.05364
668.588	7032.02562
669.031	6892.69544
669.474	6906.81412
669.917	6749.3012
670.36	6864.07701
670.803	6775.86498
671.245	6689.97582
671.688	6619.92688
672.13	6655.47402
672.573	6472.22732
673.015	6629.86584
673.457	6582.26537
673.899	6476.91227
674.341	6445.89012
674.783	6494.84535
675.225	6436.04589
675.666	6409.0148
676.108	6362.24703
676.549	6249.7108
676.991	6198.36197
677.432	6193.8495
677.873	6119.61843
678.314	6106.90068
678.755	6039.19089
679.196	5957.68141
679.637	5880.02609
680.078	5790.89349
680.518	5739.79428
680.959	5667.08343
681.399	5697.36697
681.839	5498.3143
682.28	5568.46877
682.72	5380.93953
683.16	5436.56952
683.6	5348.91965
684.039	5292.34375
684.479	5242.5915
684.919	5187.25022
685.358	5095.73233
685.798	5019.16556
686.237	5097.39145
686.676	4980.07555
687.115	5073.31679
687.554	5033.45717
687.993	4981.9258
688.432	4912.1736
688.871	4849.24653
689.309	4931.52989
689.748	4973.54597
690.186	4912.34364
690.625	4910.38269
691.063	4793.56078
691.501	4878.79749
691.939	4827.97929
692.377	4761.7007
692.815	4834.73457
693.253	4815.5247
693.69	4854.91959
694.128	4750.71885
694.565	4802.49675
695.003	4915.0513
695.44	4823.48778
695.877	4780.46234
696.314	4731.73918
696.751	4884.12689
697.188	4853.31046
697.625	4904.0254
698.061	4816.5655
698.498	4714.52014
698.934	4881.51086
699.371	4741.47858
699.807	4870.42296
700.243	4915.56576
700.679	4764.0767
701.115	4869.33321
701.551	4828.32466
701.987	4835.89728
702.422	4940.46848
702.858	4968.44668
703.294	4925.18339
703.729	5002.57012
704.164	4846.51301
704.599	4959.9799
705.035	4896.04394
705.47	5026.54154
705.904	5051.1726
706.339	5052.10907
706.774	5130.20923
707.209	5104.18327
707.643	5106.38049
708.078	5175.46643
708.512	5195.70637
708.946	5239.22447
709.38	5186.2829
709.814	5199.92311
710.248	5336.42499
710.682	5387.25822
711.116	5379.37178
711.549	5328.77355
711.983	5361.97763
712.416	5585.06325
712.85	5503.42182
713.283	5518.05096
713.716	5685.33133
714.149	5511.90957
714.582	5615.66475
715.015	5621.27764
715.448	5702.46031
715.881	5668.3507
716.313	5636.91064
716.746	5689.9842
717.178	5889.0081
717.61	5956.41708
718.043	5882.20299
718.475	5986.03275
718.907	6055.21325
719.339	6135.52092
719.77	6132.88616
720.202	6120.21058
720.634	6163.05267
721.065	6227.73277
721.497	6214.00728
721.928	6238.98254
722.359	6327.93923
722.79	6318.81842
723.221	6371.05262
723.652	6507.19295
724.083	6438.39358
724.514	6521.50947
724.945	6516.62264
725.375	6622.60707
725.806	6635.93736
726.236	6575.21804
726.666	6598.65116
727.096	6748.8722
727.526	6903.23858
727.956	6998.48678
728.386	6849.87828
728.816	6881.19031
729.246	6882.93417
729.675	6814.84519
730.105	6884.85774
730.534	6969.57373
730.964	6893.98627
731.393	7087.874
731.822	7072.16095
732.251	7128.11389
732.68	7154.56367
733.109	7290.95702
733.537	7334.92372
733.966	7271.03218
734.395	7336.62123
734.823	7195.35758
735.251	7261.79097
735.68	7307.94539
736.108	7191.00774
736.536	7283.65632
736.964	7173.57454
737.392	7199.00885
737.82	7232.74126
738.247	7200.72309
738.675	7147.63285
739.102	7191.9962
739.53	7093.20938
739.957	7139.25391
740.384	7102.75953
740.811	7063.95688
741.238	7147.89516
741.665	7000.63031
742.092	6812.46647
742.519	6886.95897
742.945	6940.82431
743.372	6725.97676
743.798	6762.17476
744.225	6591.64953
744.651	6584.03101
745.077	6648.99813
745.503	6547.78388
745.929	6598.81921
746.355	6459.85008
746.781	6355.94766
747.207	6233.76801
747.632	6130.12958
748.058	6109.24951
748.483	6113.57361
748.908	6024.18261
749.334	6119.06862
749.759	5983.87473
750.184	5902.99091
750.609	5830.1223
751.033	5727.80507
751.458	5767.49101
751.883	5688.21802
752.307	5565.95607
752.732	5514.65587
753.156	5467.33952
753.58	5376.04986
754.005	5267.59575
754.429	5334.14107
754.853	5127.63497
755.277	5059.29838
755.7	5030.65056
756.124	4863.76349
756.548	4841.36652
756.971	4863.60422
757.394	4783.02908
757.818	4695.17341
758.241	4669.05814
758.664	4636.01506
759.087	4509.24334
759.51	4452.90598
759.933	4449.78073
760.356	4353.35975
760.778	4396.91764
761.201	4226.85845
761.623	4065.81692
762.046	4068.68365
762.468	4021.88535
762.89	4050.01181
763.312	4015.07605
763.734	3883.01616
764.156	3795.22411
764.578	3670.69087
765	3653.17055
765.421	3517.56936
765.843	3590.73389
766.264	3428.01868
766.686	3456.33901
767.107	3390.20041
767.528	3383.64507
767.949	3332.53492
768.37	3249.39701
768.791	3099.16184
769.212	3093.52349
769.632	2966.05386
770.053	2910.74603
770.473	3002.2031
770.894	2873.32429
771.314	2830.0659
771.734	2740.00344
772.154	2708.54136
772.575	2718.93095
772.994	2681.83672
773.414	2625.09116
773.834	2554.35073
774.254	2505.21878
774.673	2605.27601
775.093	2451.33306
775.512	2387.25952
775.931	2369.4002
776.351	2343.2988
776.77	2274.18413
777.189	2225.98401
777.607	2149.31455
778.026	2238.23367
778.445	2106.26661
778.864	2013.17273
779.282	2006.87605
779.701	1978.10358
780.119	1894.09841
780.537	1840.96051
780.955	1875.05439
781.373	1866.94617
781.791	1792.55754
782.209	1749.48052
782.627	1684.07386
783.045	1608.40813
783.462	1623.8725
783.88	1580.88999
784.297	1591.7795
784.715	1511.79424
785.132	1513.52462
785.549	1435.57736
785.966	1475.65086
786.383	1450.56285
786.8	1432.32061
787.217	1429.42626
787.633	1381.55052
788.05	1357.24303
788.466	1290.17317
788.883	1298.51372
789.299	1290.23652
789.715	1175.18076
790.131	1157.20878
790.547	1184.24906
790.963	1160.1991
791.379	1116.19948
791.795	1106.87805
792.21	1136.98829
792.626	1032.8852
793.041	1081.07029
793.457	969.89779
793.872	1030.85885
794.287	972.87906
794.702	936.81541
795.117	942.89995
795.532	935.91812
795.947	858.64889
796.362	862.62402
796.776	853.57444
797.191	845.70218
797.605	844.63906
798.02	829.65462
798.434	843.50401
798.848	755.58686
799.262	762.58507
799.676	804.62061
800.09	702.46143
800.504	698.42217
800.918	639.24129
801.331	570.27873
801.745	658.2652
802.158	586.26074
802.572	653.35056
802.985	608.24922
803.398	624.26773
803.811	564.24036
804.224	565.20742
804.637	568.17898
805.05	520.0393
805.462	534.14132
805.875	498.1558
806.288	458.9924
806.7	449.99922
807.112	491.98823
807.525	413.90045
807.937	446.9907
808.349	424.9481
808.761	471.03402
809.173	454.98583
809.584	403.89242
809.996	366.81303
810.408	383.91391
810.819	367.78218
811.231	415.01066
811.642	436.97532
812.053	438.95878
812.464	399.8489
812.875	395.92266
813.286	430.00834
813.697	345.70941
814.108	354.78181
814.519	327.66755
814.929	312.73069
815.34	236.52667
815.75	309.73201
816.16	273.62094
816.571	270.65036
816.981	259.55705
817.391	290.637
817.801	241.56101
818.211	278.60833
818.62	263.58971
819.03	207.47369
819.44	217.52242
819.849	186.43649
820.259	249.58693
820.668	211.48866
821.077	222.52157
821.486	212.46979
821.895	185.42284
822.304	184.46061
822.713	178.3933
823.122	199.46526
823.531	152.33459
823.939	216.49438
824.348	239.5359
824.756	150.35393
825.164	176.41544
825.573	165.39197
825.981	187.43308
826.389	190.44796
826.797	213.50988
827.205	136.29774
827.612	183.42197
828.02	87.19412
828.428	121.29363
828.835	144.36412
829.243	144.32163
829.65	176.41641
830.057	125.28651
830.464	211.48731
830.871	153.34745
831.278	159.36283
831.685	138.28844
832.092	111.25606
832.499	167.34356
832.905	115.27572
833.312	123.25965
833.718	171.40512
834.124	129.27949
834.531	85.20325
834.937	117.28786
835.343	100.22788
835.749	98.21427
836.155	107.26849
836.561	98.2307
836.966	88.2049
837.372	121.29187
837.777	90.21566
838.183	126.26243
838.588	130.309
838.993	74.17291
839.399	75.17687
839.804	33.078
840.209	80.19832
840.613	93.19607
841.018	68.16468
841.423	93.22898
841.828	77.18819
842.232	67.1564
842.637	94.21403
843.041	83.20557
843.445	75.17913
843.849	61.14603
844.253	76.17214
844.657	56.13699
845.061	130.28388
845.465	47.10946
845.869	62.13803
846.272	66.15531
846.676	25.05735
847.079	70.17283
847.483	96.2281
847.886	111.25412
848.289	83.21639
848.692	29.07061
849.095	79.18057
849.498	60.14405
849.901	68.14761
850.304	92.20931
850.707	53.12982
851.109	52.12607
851.512	92.21675
851.914	37.09097
852.316	87.2135
852.718	78.19913
853.121	64.15078
853.523	76.16835
853.925	69.1755
854.326	58.14072
854.728	77.19113
855.13	36.09097
855.531	87.19909
855.933	36.0824
856.334	22.05366
856.736	40.08702
857.137	89.19916
857.538	54.13195
857.939	70.16869
858.34	25.05822
858.741	26.06572
859.142	56.12838
859.542	66.16933
859.943	74.17624
860.343	55.13217
860.744	34.08004
861.144	110.25784
861.544	78.18219
861.945	27.06658
862.345	56.13091
862.745	64.15412
863.145	86.19193
863.544	88.21375
863.944	91.20464
864.344	45.1062
864.743	77.18264
865.143	81.20171
865.542	-28.06241
865.941	59.14102
866.34	59.13361
866.74	59.1533
867.139	90.20873
867.537	15.03666
867.936	48.11168
868.335	40.09807
868.734	78.1918
869.132	-15.03341
869.531	1.00232
869.929	40.08809
870.327	57.13112
870.726	44.10455
871.124	79.17445
871.522	9.02219
871.92	50.11871
872.318	10.0235
872.715	11.02597
873.113	22.05151
873.511	53.12659
873.908	41.10181
874.306	80.19235
874.703	46.10972
875.1	17.04153
875.497	29.06677
875.894	59.14173
876.291	42.09957
876.688	80.19839
877.085	46.10525
877.482	47.11329
877.878	101.23485
878.275	36.08869
878.671	21.04346
879.068	57.13191
879.464	49.11376
879.86	27.06156
880.256	46.10736
880.652	30.0738
881.048	48.11313
881.444	8.01813
881.84	24.05897
882.236	42.10171
882.631	77.18194
883.027	54.12489
883.422	17.04187
883.817	38.09303
884.213	38.0943
884.608	81.19457
885.003	-6.01392
885.398	59.14216
885.793	48.1155
886.188	11.02646
886.582	26.06391
886.977	42.09505
887.371	27.06555
887.766	29.07019
888.16	7.01664
888.554	57.13426
888.949	49.11837
889.343	67.15579
889.737	28.07321
890.131	46.11123
890.525	57.14143
890.918	6.01465
891.312	27.06156
891.706	35.08868
892.099	79.19193
892.492	36.07374
892.886	64.14967
893.279	-17.04214
893.672	53.13098
894.065	20.04854
894.458	20.04816
894.851	49.11448
895.244	20.04947
895.637	53.12299
896.029	50.11835
896.422	29.06743
896.814	15.03598
897.206	73.16867
897.599	59.13984
897.991	38.08911
898.383	55.12485
898.775	94.20379
899.167	37.08433
899.559	41.09912
899.951	33.07406
900.342	14.03416
900.734	97.23566
901.125	17.04298
901.517	21.04995
901.908	27.06137
902.299	57.13426
902.69	93.21077
903.082	69.15987
903.473	49.11466
903.863	26.06379
904.254	69.15491
904.645	103.24035
905.036	98.23088
905.426	58.12467
905.817	6.01416
906.207	8.01822
906.597	52.11787
906.987	32.0795
907.378	44.10796
907.768	32.0823
908.158	62.14448
908.547	80.20136
908.937	9.02212
909.327	52.12089
909.717	20.04829
910.106	8.0185
910.495	70.1653
910.885	83.2018
911.274	66.15791
911.663	35.0849
912.052	79.18384
912.441	56.13821
912.83	69.14969
913.219	57.14313
913.608	51.12055
913.997	40.09774
914.385	91.20682
914.774	62.14425
915.162	63.1455
915.55	41.09454
915.939	24.05913
916.327	51.1213
916.715	63.15695
917.103	39.09065
917.491	52.12308
917.878	52.12241
918.266	11.02757
918.654	45.11186
919.041	62.15812
919.429	18.04097
919.816	26.06363
920.203	98.22854
920.591	61.14547
920.978	56.13152
921.365	17.0435
921.752	11.02491
922.139	61.126
922.525	28.06512
922.912	33.07719
923.299	11.02653
923.685	13.03261
924.072	-10.02174
924.458	34.08166
924.844	68.16132
925.231	13.02889
925.617	44.10923
926.003	55.13477
926.389	16.03907
926.774	2.0049
927.16	32.07647
927.546	58.14499
927.931	28.06697
928.317	25.0549
928.702	56.12606
929.088	85.19616
929.473	66.16272
929.858	52.12313
930.243	64.14873
930.628	88.20652
931.013	53.12644
931.398	11.02392
931.783	30.07559
932.167	73.17269
932.552	53.12717
932.937	65.15352
933.321	49.11945
933.705	-13.03151
934.09	25.05969
934.474	46.10359
934.858	-10.02535
935.242	48.1061
935.626	42.10435
936.009	46.11962
936.393	71.17598
936.777	49.12176
937.16	66.16666
937.544	16.03569
937.927	54.13269
938.311	82.18935
938.694	124.31355
939.077	35.08058
939.46	36.08303
939.843	17.03305
940.226	7.01733
940.609	89.19653
940.991	10.02452
941.374	27.06412
941.757	62.1459
942.139	38.08214
942.522	33.07439
942.904	52.11988
943.286	13.03188
943.668	84.21097
944.05	32.07606
944.432	43.1016
944.814	21.04939
945.196	35.08292
945.578	28.06532
945.959	33.07342
946.341	40.09244
946.722	50.11159
947.104	39.08961
947.485	58.12901
947.866	27.06636
948.247	84.20488
948.628	2.00462
949.009	8.01989
949.39	25.05964
949.771	20.0436
950.152	26.06166
950.532	25.06121
950.913	32.07413
951.293	31.08206
951.674	13.03038
952.054	85.20534
952.434	37.08868
952.814	34.07673
953.194	13.03255
953.574	48.11291
953.954	1.00227
954.334	55.13302
954.714	22.05205
955.093	72.1691
955.473	76.18412
955.853	47.11743
956.232	17.04526
956.611	10.02282
956.99	55.13347
957.37	20.04896
957.749	-2.00454
958.128	23.05642
958.506	-6.01519
958.885	9.02192
959.264	56.13357
959.643	75.16347
960.021	23.0555
960.4	29.06294
960.778	22.05143
961.156	-12.02913
961.535	30.06637
961.913	81.18141
962.291	42.10545
962.669	29.0714
963.047	45.11137
963.424	97.23989
963.802	59.13946
964.18	27.06478
964.557	68.14818
964.935	71.16012
965.312	50.12639
965.69	53.1261
966.067	-5.01165
966.444	14.03265
966.821	73.1808
967.198	26.05994
967.575	22.05177
967.952	96.21363
968.329	98.22827
968.705	71.14534
969.082	93.23151
969.458	47.10989
969.835	39.09122
970.211	55.13746
970.587	39.09372
970.963	16.03937
971.339	41.10399
971.715	28.06763
972.091	70.16459
972.467	10.02375
972.843	56.13516
973.219	51.11591
973.594	25.06339
973.97	34.07544
974.345	58.1335
974.721	7.01611
975.096	95.22055
975.471	60.13529
975.846	17.03906
976.221	25.06149
976.596	61.14251
976.971	102.24133
977.346	24.05319
977.72	49.11945
978.095	52.12928
978.469	40.09111
978.844	77.18377
979.218	54.12613
979.593	48.10956
979.967	-12.02779
980.341	55.12155
980.715	46.11186
981.089	50.12013
981.463	19.04196
981.837	86.203
982.21	-1.00218
982.584	42.09791
982.957	30.07279
983.331	25.05587
983.704	33.07918
984.078	39.09226
984.451	10.02362
984.824	27.06385
985.197	-45.10492
985.57	16.03812
985.943	43.09994
986.316	48.11106
986.688	38.08778
987.061	65.14587
987.434	83.21029
987.806	-4.00924
988.179	-3.00681
988.551	-2.0049
988.923	17.04015
989.295	37.08844
989.667	79.18289
990.039	57.1376
990.411	-12.02626
990.783	19.04139
991.155	5.01168
991.527	31.07188
991.898	38.09168
992.27	30.07232
992.641	63.1503
993.012	17.0374
993.384	24.05476
993.755	57.14055
994.126	67.15542
994.497	24.05683
994.868	22.04788
995.239	10.02332
995.61	8.01953
995.98	20.04675
996.351	73.17422
996.722	58.13008
997.092	31.07097
997.462	26.0592
997.833	46.1033
998.203	13.02991
998.573	48.11537
998.943	52.1173
999.313	56.12926
999.683	16.03718
1000.053	33.07086
1000.423	43.09939
1000.792	-34.08509
1001.162	7.01653
1001.531	82.19319
1001.901	55.13071
1002.27	2.0042
1002.639	3.00737
1003.009	33.07512
1003.378	66.16224
1003.747	9.02035
1004.116	25.05742
1004.485	23.05285
1004.853	22.05302
1005.222	1.0024
1005.591	65.14653
1005.959	18.03916
1006.328	65.13969
1006.696	-8.0186
1007.064	-2.00483
1007.433	10.02395
1007.801	26.06028
1008.169	42.10083
1008.537	70.14664
1008.905	34.07657
1009.273	1.00237
1009.64	53.12275
1010.008	35.07984
1010.375	44.10035
1010.743	-6.01291
1011.11	73.16806
1011.478	65.15513
1011.845	37.0828
1012.212	50.10937
1012.579	34.08044
1012.946	22.04969
1013.313	29.06559
1013.68	60.1273
1014.047	53.1207
1014.414	17.03856
1014.78	23.0554
1015.147	41.09375
1015.513	50.11532
1015.88	42.10252
1016.246	33.07722
1016.612	45.09733
1016.978	60.14169
1017.344	45.10703
1017.71	59.13643
1018.076	-3.00675
1018.442	79.19516
1018.808	49.11887
1019.174	-30.07284
1019.539	0
1019.905	42.09544
1020.27	-18.04305
1020.636	17.03864
1021.001	40.09215
1021.366	28.06499
1021.731	107.26598
1022.096	33.0811
1022.461	39.08871
1022.826	115.26031
1023.191	54.1365
1023.556	3.00674
1023.92	6.0141
1024.285	22.05106
1024.649	26.06087
1025.014	19.04479
1025.378	35.08535
1025.742	52.12256
1026.107	91.19345
1026.471	51.11271
1026.835	53.12591
1027.199	30.06958
1027.562	27.05945
1027.926	14.03278
1028.29	28.06842
1028.654	-10.0221
1029.017	62.14618
1029.381	10.02313
1029.744	29.07143
1030.107	63.14197
1030.471	71.16294
1030.834	26.0556
1031.197	87.19861
1031.56	47.1053
1031.923	14.03514
1032.286	92.20439
1032.648	23.05202
1033.011	90.19861
1033.374	54.11952
1033.736	7.0179
1034.099	43.10062
1034.461	16.03943
1034.823	11.02661
1035.185	47.11243
1035.548	40.09391
1035.91	43.09836
1036.272	86.18629
1036.634	86.19985
1036.995	40.08912
1037.357	35.08228
1037.719	56.13049
1038.08	72.1642
1038.442	44.0997
1038.803	10.02272
1039.165	-12.02925
1039.526	42.09737
1039.887	13.02992
1040.248	57.13703
1040.609	4.00944
1040.97	27.06323
1041.331	57.13952
1041.692	70.15861
1042.053	49.10548
1042.413	61.13425
1042.774	44.10281
1043.134	12.02709
1043.495	18.04366
1043.855	86.20072
1044.215	20.04754
1044.576	70.16074
1044.936	71.1533
1045.296	43.10298
1045.656	31.07222
1046.016	71.16209
1046.375	56.12983
1046.735	65.14287
1047.095	74.1646
1047.454	32.06359
1047.814	14.03246
1048.173	52.11668
1048.533	72.15643
1048.892	6.01397
1049.251	15.03605
1049.61	49.11578
1049.969	-1.00227
1050.328	62.12718
1050.687	8.01864
1051.046	19.04434
1051.405	3.00714
1051.763	59.13077
1052.122	34.08141
1052.48	57.13416
1052.839	108.24432
1053.197	33.0743
1053.555	44.09323
1053.914	54.12583
1054.272	-3.00684
1054.63	22.05195
1054.988	77.17578
1055.345	39.0785
1055.703	63.14493
1056.061	32.08043
1056.419	62.15683
1056.776	6.01377
1057.134	21.04569
1057.491	55.13207
1057.848	46.10909
1058.206	3.00668
1058.563	37.07742
1058.92	93.20123
1059.277	33.07821
1059.634	24.0533
1059.991	85.19381
1060.348	63.13585
1060.704	94.21775
1061.061	22.04794
1061.418	9.02109
1061.774	67.158
1062.131	29.07543
1062.487	-4.00896
1062.843	72.17121
1063.199	43.10274
1063.555	80.17758
1063.911	-1.00243
1064.267	80.15371
1064.623	20.04738
1064.979	13.02843
1065.335	21.04773
1065.691	32.0723
1066.046	26.05437
1066.402	12.02596
1066.757	57.13801
1067.112	55.12839
1067.468	17.0392
1067.823	7.01585
1068.178	44.10108
1068.533	38.08827
1068.888	60.13579
1069.243	53.12528
1069.598	-1.00233
1069.952	66.14455
1070.307	20.04802
1070.662	65.14917
1071.016	54.11697
1071.371	87.18817
1071.725	24.05454
1072.079	54.1244
1072.434	40.09361
1072.788	11.02483
1073.142	86.20143
1073.496	13.02958
1073.85	31.0686
1074.203	90.20749
1074.557	58.15052
1074.911	53.11968
1075.265	79.17379
1075.618	82.19063
1075.971	52.11787
1076.325	29.07169
1076.678	34.0744
1077.031	-13.02771
1077.385	38.07925
1077.738	30.06448
1078.091	29.06377
1078.444	49.10689
1078.796	45.10661
1079.149	93.22042
1079.502	57.1295
1079.855	70.15532
1080.207	40.09413
1080.56	49.12273
1080.912	46.10694
1081.264	60.13855
1081.617	30.07057
1081.969	31.07588
1082.321	39.09093
1082.673	57.12603
1083.025	15.03397
1083.377	327.69058
1083.728	34.07538
1084.08	27.06441
1084.432	13.03005
1084.783	47.1027
1085.135	39.09447
1085.486	17.03759
1085.838	72.16983
1086.189	61.14279
1086.54	41.09318
1086.891	92.2264
1087.242	62.14698
1087.593	-13.03012
1087.944	68.14749
1088.295	53.11414
1088.646	114.26669
1088.996	9.02106
1089.347	12.02819
1089.698	40.09167
1090.048	-8.02006
1090.398	32.07041
1090.749	-12.02748
1091.099	58.14178
1091.449	30.07227
1091.799	30.07227
1092.149	24.05727
1092.499	37.08664
1092.849	37.09073
1093.199	4.0096
1093.548	69.15993
1093.898	25.05998
1094.248	43.10513
1094.597	49.12203
1094.947	24.0622
1095.296	38.09071
1095.645	14.03509
1095.994	21.04848
1096.343	69.16675
1096.692	71.18238
1097.041	13.03482
1097.39	33.07912
1097.739	49.12247
1098.088	35.08997
1098.437	40.10312
1098.785	7.01819
1099.134	-7.01777
1099.482	13.03494
1099.83	62.15672
1100.179	62.15873
1100.527	16.04072
1100.875	34.08769
1101.223	51.13164
1101.571	-22.0593
1101.919	38.09827
1102.267	6.01665
1102.615	3.00964
1102.962	-3.00963
1103.31	7.02247
1103.658	-2.00641
