Data from N3 R1 sample 5_Subt2__5__15-08-11-578.txt Node

Date: Wed Sep 17 15:08:11 PDT 2025
User: uwsun
Spectrometer: HDX01956
Trigger mode: 0
Integration Time (sec): 5.000000E-1
Scans to average: 1
Nonlinearity correction enabled: true
Boxcar width: 0
Storing dark spectrum: false
XAxis mode: Wavelengths
Number of Pixels in Spectrum: 2068
>>>>>Begin Spectral Data<<<<<
194.03	-5.01453
194.578	21.06811
195.127	11.03522
195.676	18.05779
196.225	21.05589
196.773	31.08622
197.321	49.13616
197.87	94.24234
198.418	126.3254
198.966	121.31976
199.513	118.30135
200.061	89.22829
200.609	118.31231
201.156	112.24706
201.704	110.27845
202.251	115.30686
202.798	89.23267
203.345	132.32782
203.892	89.22717
204.438	55.13272
204.985	113.2703
205.532	105.27767
206.078	96.2365
206.624	134.33727
207.17	145.34061
207.716	137.33694
208.262	95.19103
208.808	129.32544
209.354	122.30343
209.899	127.32051
210.445	110.27716
210.99	102.25128
211.535	182.4266
212.08	81.19057
212.625	105.26404
213.17	163.41414
213.715	133.30534
214.259	145.33901
214.804	114.28084
215.348	148.34256
215.892	167.40419
216.436	129.29521
216.98	97.215
217.524	140.33533
218.068	160.40256
218.612	141.35876
219.155	130.30817
219.698	151.35843
220.242	98.2432
220.785	143.33578
221.328	104.25809
221.871	141.35876
222.414	97.24103
222.956	66.15959
223.499	88.19769
224.041	110.25188
224.583	90.19103
225.126	102.22472
225.668	72.17646
226.21	151.38025
226.751	177.39035
227.293	78.17782
227.835	129.31563
228.376	75.17191
228.918	94.23472
229.459	87.21823
230	135.32342
230.541	83.19215
231.082	110.26829
231.622	79.17991
232.163	87.21081
232.704	129.32229
233.244	96.23894
233.784	94.22841
234.324	168.37493
234.864	117.26419
235.404	151.35262
235.944	111.26135
236.484	157.38869
237.023	97.22928
237.563	114.26533
238.102	129.30421
238.641	127.31799
239.18	81.19154
239.719	116.29008
240.258	75.16991
240.797	131.31204
241.335	70.17143
241.874	127.2476
242.412	159.38352
242.95	95.23071
243.488	93.20965
244.026	139.32231
244.564	173.35221
245.102	147.33166
245.64	112.26724
246.177	83.18558
246.715	149.35573
247.252	88.20069
247.789	131.24241
248.326	131.31503
248.863	112.24716
249.4	94.21412
249.936	190.3929
250.473	162.38017
251.009	135.30794
251.546	198.43584
252.082	91.19758
252.618	135.30122
253.154	108.26046
253.69	103.23172
254.226	170.40314
254.761	121.27155
255.297	70.15448
255.832	154.36393
256.367	121.28412
256.903	162.35765
257.438	121.28335
257.972	143.31696
258.507	122.27958
259.042	119.25914
259.576	147.32433
260.111	99.2281
260.645	152.32629
261.179	111.26064
261.713	138.30823
262.247	94.21559
262.781	119.25143
263.315	93.22636
263.849	84.21158
264.382	145.33129
264.915	148.34867
265.449	81.19907
265.982	122.27711
266.515	167.40601
267.048	131.27751
267.58	96.20813
268.113	132.28507
268.646	117.28605
269.178	89.20023
269.71	173.3793
270.243	168.38623
270.775	138.35305
271.307	112.26632
271.838	149.34959
272.37	107.26258
272.902	149.33548
273.433	148.32702
273.965	120.29137
274.496	118.29219
275.027	147.3642
275.558	154.37378
276.089	124.30975
276.62	115.28971
277.15	137.33545
277.681	76.16519
278.211	129.31375
278.741	135.2996
279.272	121.27734
279.802	112.27876
280.332	142.33428
280.861	126.30076
281.391	159.35902
281.921	133.31693
282.45	117.28998
282.98	140.3633
283.509	166.37521
284.038	115.26402
284.567	130.30269
285.096	164.39506
285.625	108.24382
286.153	149.35491
286.682	161.36784
287.21	97.23194
287.739	185.43202
288.267	101.24721
288.795	120.31312
289.323	181.42102
289.851	152.35628
290.378	138.30696
290.906	143.3491
291.433	125.31151
291.961	163.37046
292.488	148.36527
293.015	163.38274
293.542	197.50052
294.069	147.36327
294.596	126.30766
295.122	172.40962
295.649	134.29311
296.175	168.40101
296.702	174.42232
297.228	147.35243
297.754	145.32567
298.28	171.39116
298.806	139.33452
299.332	163.36339
299.857	211.47274
300.383	132.33152
300.908	169.41303
301.433	194.4705
301.958	139.31847
302.483	141.34857
303.008	207.50815
303.533	167.42746
304.058	145.33715
304.582	124.29384
305.107	113.2947
305.631	205.45854
306.155	180.41613
306.679	175.40899
307.203	140.3252
307.727	187.43909
308.251	188.45937
308.775	199.47927
309.298	182.43543
309.822	166.41435
310.345	199.47073
310.868	171.41028
311.391	208.50559
311.914	141.35304
312.437	192.43504
312.96	193.45052
313.482	140.32906
314.005	199.49068
314.527	166.42869
315.049	166.4181
315.571	223.49509
316.093	235.57196
316.615	171.40794
317.137	213.45871
317.659	257.60908
318.18	188.44393
318.702	223.51543
319.223	176.35742
319.744	240.53117
320.265	255.609
320.786	212.52359
321.307	220.53575
321.828	219.48783
322.348	230.53319
322.869	236.55359
323.389	311.59107
323.909	266.59411
324.43	242.56789
324.95	229.51686
325.47	262.63659
325.989	255.59359
326.509	251.55261
327.029	274.61223
327.548	259.57549
328.067	260.61892
328.587	315.76691
329.106	244.54047
329.625	268.6822
330.144	299.67704
330.662	262.60375
331.181	301.69153
331.7	296.66956
332.218	312.65732
332.736	278.63653
333.255	328.74828
333.773	295.67857
334.291	344.83139
334.808	298.65484
335.326	310.67663
335.844	330.75253
336.361	368.91276
336.879	329.75101
337.396	395.92121
337.913	392.8668
338.43	352.76568
338.947	347.80102
339.464	344.71708
339.981	332.76259
340.497	400.94002
341.014	336.79304
341.53	384.82995
342.046	439.0405
342.562	401.95575
343.078	394.88793
343.594	367.83976
344.11	418.95469
344.626	405.9782
345.141	401.87725
345.657	431.92654
346.172	383.88762
346.687	359.79434
347.202	446.96599
347.717	375.86013
348.232	427.01083
348.747	424.93284
349.261	438.91301
349.776	422.95684
350.29	466.10227
350.805	462.07761
351.319	454.99841
351.833	466.01165
352.347	460.0257
352.861	492.08315
353.374	458.98393
353.888	465.07377
354.401	461.99102
354.915	505.06736
355.428	503.17547
355.941	484.05838
356.454	504.04639
356.967	432.95761
357.48	450.9655
357.993	508.16882
358.505	498.13436
359.018	534.21845
359.53	554.255
360.042	562.16183
360.554	542.23424
361.066	532.20461
361.578	574.16759
362.09	560.23259
362.602	519.07878
363.113	622.33772
363.625	597.24285
364.136	528.07728
364.647	596.29876
365.158	559.20335
365.669	557.23136
366.18	594.28345
366.691	573.15417
367.201	601.32157
367.712	632.31728
368.222	650.35785
368.733	586.16875
369.243	646.30951
369.753	632.32545
370.263	652.43114
370.773	640.41772
371.282	711.52313
371.792	737.52043
372.301	677.47641
372.811	774.80971
373.32	743.4231
373.829	709.49662
374.338	804.55979
374.847	767.56399
375.356	758.58303
375.865	822.52885
376.373	863.69392
376.882	878.93237
377.39	935.92587
377.898	910.92336
378.407	983.87186
378.915	975.78488
379.423	1055.02522
379.93	1149.15659
380.438	1082.14129
380.946	1149.15764
381.453	1239.36119
381.96	1305.43357
382.468	1394.49515
382.975	1455.69829
383.482	1510.46571
383.989	1572.00715
384.495	1613.70148
385.002	1653.38465
385.509	1747.90419
386.015	1932.46666
386.521	1997.89709
387.028	2136.96224
387.534	2050.67291
388.04	2227.27092
388.546	2166.84928
389.051	2321.89049
389.557	2510.17331
390.063	2733.07931
390.568	2857.42723
391.073	2895.98893
391.578	3065.52388
392.084	3107.09941
392.589	3171.80712
393.093	3548.31077
393.598	3875.93266
394.103	4105.0615
394.607	4522.93724
395.112	4839.92029
395.616	5297.57601
396.12	5699.95977
396.624	6263.95274
397.128	6817.99324
397.632	7531.98724
398.136	8131.29856
398.639	8507.7733
399.143	9512.55293
399.646	10925.90408
400.15	12092.60672
400.653	13386.24214
401.156	15151.66655
401.659	17576.01647
402.162	21437.82874
402.664	28389.10415
403.167	40023.59033
403.67	60693.67799
404.172	63919.58413
404.674	63858.43483
405.176	63738.15102
405.678	63977.72923
406.18	64011.81569
406.682	63863.44694
407.184	63926.60148
407.686	63841.39382
408.187	64025.8516
408.688	63892.51763
409.19	51249.34763
409.691	41242.81817
410.192	34590.35744
410.693	29841.24045
411.194	27086.62205
411.694	25915.9885
412.195	23976.41419
412.696	21637.37942
413.196	19952.25179
413.696	19216.74224
414.196	19486.53166
414.696	19182.41677
415.196	18250.61142
415.696	16672.07401
416.196	13611.66484
416.695	10510.37584
417.195	8897.36491
417.694	8575.62
418.194	8165.08848
418.693	7452.81374
419.192	7129.87665
419.691	7024.78682
420.19	6956.9702
420.688	6694.11286
421.187	6451.12202
421.685	6057.91839
422.184	5534.24553
422.682	4704.15565
423.18	3979.87909
423.678	3524.00948
424.176	3339.04609
424.674	3217.92081
425.172	2941.25731
425.669	2753.48353
426.167	2674.16677
426.664	2439.00633
427.161	2215.99124
427.659	2006.11791
428.156	1990.5771
428.652	1752.07824
429.149	1714.89131
429.646	1684.55488
430.143	1522.65484
430.639	1537.63169
431.135	1475.75029
431.632	1370.34106
432.128	1294.39701
432.624	1202.48284
433.12	1204.14169
433.616	1113.93316
434.111	1095.09818
434.607	1042.03995
435.103	951.6301
435.598	1025.70965
436.093	913.78377
436.588	914.71712
437.083	864.63416
437.578	837.65362
438.073	794.72848
438.568	816.73434
439.062	786.43716
439.557	676.39726
440.051	672.33126
440.546	680.36032
441.04	695.4728
441.534	643.45006
442.028	688.46461
442.522	593.28266
443.015	525.02092
443.509	604.32122
444.002	575.27332
444.496	539.05717
444.989	532.17723
445.482	574.28666
445.975	570.18893
446.468	594.14796
446.961	591.1468
447.454	499.02238
447.947	498.09042
448.439	527.18045
448.931	462.98013
449.424	539.25233
449.916	477.07266
450.408	477.0019
450.9	416.944
451.392	476.11597
451.884	461.9778
452.375	454.04022
452.867	459.95104
453.358	507.05895
453.849	473.92702
454.341	408.85917
454.832	447.89056
455.323	433.00252
455.814	442.93567
456.304	439.9413
456.795	406.86473
457.285	415.84873
457.776	424.89717
458.266	417.92187
458.756	358.79691
459.247	375.84287
459.737	423.95307
460.226	428.90524
460.716	395.88345
461.206	367.82591
461.695	389.90116
462.185	376.83801
462.674	336.72622
463.163	379.79618
463.653	353.70656
464.142	344.78793
464.63	299.69051
465.119	304.6728
465.608	348.7692
466.096	341.69708
466.585	348.74862
467.073	294.66098
467.561	275.6313
468.05	290.63646
468.538	286.66719
469.026	300.67695
469.513	306.61206
470.001	299.65359
470.489	262.59749
470.976	340.74995
471.463	238.57112
471.951	281.66723
472.438	276.6195
472.925	245.555
473.412	223.52259
473.899	261.57367
474.385	247.58154
474.872	255.5706
475.359	273.6425
475.845	210.42101
476.331	242.49504
476.817	228.53545
477.303	262.58348
477.789	174.40402
478.275	213.51163
478.761	198.4561
479.247	199.43059
479.732	226.5446
480.218	232.58703
480.703	185.44336
481.188	222.46401
481.673	184.41182
482.158	191.40143
482.643	214.52931
483.128	231.51967
483.612	208.48047
484.097	150.35421
484.581	173.39047
485.066	216.51202
485.55	208.44573
486.034	146.31071
486.518	205.47609
487.002	182.4306
487.486	126.30088
487.969	130.31055
488.453	134.32743
488.936	180.39473
489.42	169.36505
489.903	113.2772
490.386	97.19892
490.869	201.42729
491.352	77.18398
491.835	134.26964
492.318	146.32179
492.8	99.20339
493.283	144.36048
493.765	163.39049
494.247	154.35093
494.73	161.34852
495.212	111.25962
495.694	105.24482
496.175	178.41706
496.657	168.38839
497.139	181.30138
497.62	145.3422
498.102	118.28963
498.583	45.11035
499.064	104.22951
499.545	131.29375
500.026	134.29831
500.507	80.18304
500.988	169.41257
501.469	86.21241
501.949	135.32748
502.43	151.35678
502.91	136.28401
503.39	87.21374
503.87	123.28668
504.35	113.26088
504.83	98.21237
505.31	67.16076
505.79	76.17856
506.269	128.28909
506.749	72.16381
507.228	115.26729
507.707	166.36203
508.187	134.31495
508.666	97.23804
509.145	63.14695
509.623	91.21134
510.102	88.21118
510.581	178.41886
511.059	58.14562
511.538	110.28003
512.016	90.21401
512.494	88.20982
512.972	97.23017
513.45	84.19474
513.928	77.18623
514.406	95.23097
514.884	80.20496
515.361	118.27875
515.839	147.33247
516.316	106.25496
516.793	84.21051
517.27	66.15821
517.747	67.17126
518.224	71.163
518.701	75.16513
519.178	66.16463
519.654	114.26669
520.131	82.20186
520.607	60.14623
521.083	59.13355
521.56	89.20825
522.036	87.18825
522.512	110.26859
522.987	109.25984
523.463	95.22333
523.939	118.2893
524.414	87.19781
524.89	100.23651
525.365	65.14659
525.84	64.15353
526.315	66.15947
526.79	86.19288
527.265	127.28946
527.74	40.09727
528.215	31.07262
528.689	20.04419
529.164	41.08826
529.638	31.07877
530.112	23.05441
530.587	68.14535
531.061	72.17364
531.534	62.14913
532.008	92.22213
532.482	81.18529
532.956	74.18786
533.429	105.25452
533.903	63.13795
534.376	97.21276
534.849	61.1401
535.322	52.12275
535.795	53.12794
536.268	92.22112
536.741	35.08337
537.213	85.19428
537.686	39.09567
538.158	76.17235
538.631	86.20701
539.103	86.19328
539.575	37.07663
540.047	64.13946
540.519	80.19023
540.991	64.15575
541.463	81.19383
541.934	20.04556
542.406	102.24301
542.877	30.06814
543.348	83.19945
543.82	55.13372
544.291	92.21345
544.762	73.17335
545.233	101.25389
545.703	89.19711
546.174	63.14608
546.645	46.11161
547.115	93.22314
547.585	69.15854
548.056	97.23707
548.526	129.30255
548.996	87.207
549.466	81.19612
549.935	134.31606
550.405	75.16471
550.875	83.19649
551.344	81.1925
551.814	110.25006
552.283	140.30144
552.752	118.2741
553.221	120.26271
553.69	178.39412
554.159	106.262
554.628	142.31782
555.096	105.26518
555.565	76.16807
556.033	135.31811
556.502	96.23038
556.97	88.19542
557.438	104.24254
557.906	138.32132
558.374	120.27577
558.842	110.26147
559.31	109.2424
559.777	140.33763
560.245	88.20118
560.712	135.30521
561.18	73.16174
561.647	127.27856
562.114	102.23243
562.581	137.33258
563.048	159.35785
563.514	136.33689
563.981	110.25006
564.448	137.30568
564.914	98.22629
565.381	146.3288
565.847	131.30135
566.313	119.27331
566.779	109.24351
567.245	89.20523
567.711	87.20739
568.176	123.2732
568.642	127.31592
569.108	132.32026
569.573	110.25238
570.038	142.29272
570.504	161.3573
570.969	141.34409
571.434	160.34909
571.899	159.37014
572.363	163.367
572.828	213.47584
573.293	121.27456
573.757	193.43721
574.222	160.35235
574.686	184.41386
575.15	192.45127
575.614	243.55472
576.078	169.38891
576.542	232.51175
577.006	172.381
577.469	206.49303
577.933	184.41012
578.396	180.41745
578.86	220.50253
579.323	256.59486
579.786	262.5464
580.249	222.50791
580.712	203.48056
581.175	253.60145
581.637	206.45726
582.1	211.44679
582.563	234.48041
583.025	256.6005
583.487	277.5457
583.95	216.44927
584.412	277.557
584.874	285.66629
585.336	294.66693
585.797	336.69106
586.259	301.67213
586.721	299.66987
587.182	346.75359
587.643	367.78422
588.105	336.75229
588.566	349.68464
589.027	446.01245
589.488	424.90463
589.949	463.03772
590.41	480.86416
590.87	528.09631
591.331	595.15732
591.791	565.17822
592.252	619.28415
592.712	589.26748
593.172	719.4202
593.632	769.46305
594.092	801.51518
594.552	867.56207
595.011	784.53612
595.471	966.79189
595.931	958.77174
596.39	981.9403
596.849	1064.98872
597.308	1036.74932
597.768	1232.51213
598.227	1220.27962
598.685	1301.22786
599.144	1406.44891
599.603	1480.49931
600.062	1553.23437
600.52	1697.57863
600.978	1820.84343
601.437	1912.75216
601.895	2010.57078
602.353	2065.69213
602.811	2271.89359
603.269	2327.16694
603.727	2520.28282
604.184	2622.02746
604.642	2772.47513
605.099	2986.18204
605.557	3014.42483
606.014	3243.67316
606.471	3310.62241
606.928	3581.75593
607.385	3705.52975
607.842	3871.83756
608.299	4050.88612
608.755	4166.09125
609.212	4315.43676
609.668	4519.40139
610.125	4644.8019
610.581	4657.58733
611.037	4906.12862
611.493	4917.40505
611.949	5150.60379
612.405	5228.3729
612.861	5176.15199
613.316	5300.38512
613.772	5462.9736
614.227	5460.32545
614.683	5539.44214
615.138	5606.06436
615.593	5583.00151
616.048	5623.88325
616.503	5617.31213
616.958	5578.58187
617.412	5644.13491
617.867	5529.78136
618.321	5585.26608
618.776	5466.70527
619.23	5355.17905
619.684	5340.84845
620.138	5244.06893
620.592	5173.53952
621.046	5201.3274
621.5	5103.51591
621.954	4942.00119
622.407	4820.07012
622.861	4812.74699
623.314	4705.29108
623.768	4692.60593
624.221	4562.52057
624.674	4452.57569
625.127	4380.6577
625.58	4315.44797
626.033	4234.3165
626.485	4113.99672
626.938	4074.98323
627.39	4022.87643
627.843	3946.8102
628.295	3853.85072
628.747	3730.13334
629.199	3589.8689
629.651	3579.91734
630.103	3445.96166
630.555	3441.45377
631.006	3388.06018
631.458	3269.16286
631.909	3202.86943
632.361	3092.0644
632.812	3138.08065
633.263	3045.72257
633.714	3016.59189
634.165	2889.30379
634.616	2854.2175
635.067	2828.81935
635.518	2900.23542
635.968	2814.26004
636.419	2786.7803
636.869	2793.22302
637.319	2715.10241
637.769	2681.92871
638.219	2703.19083
638.669	2609.21756
639.119	2527.23326
639.569	2600.26612
640.019	2696.0737
640.468	2672.91052
640.918	2591.19859
641.367	2629.89822
641.816	2658.86372
642.265	2725.1326
642.714	2629.02404
643.163	2704.07896
643.612	2724.42086
644.061	2645.67346
644.51	2715.0353
644.958	2648.8327
645.406	2713.2666
645.855	2673.35011
646.303	2701.0742
646.751	2763.09052
647.199	2784.97365
647.647	2764.10874
648.095	2697.00048
648.543	2821.40634
648.99	2775.30655
649.438	2757.08106
649.885	2799.53787
650.333	2698.22552
650.78	2734.3356
651.227	2741.4123
651.674	2757.01106
652.121	2708.42248
652.568	2716.41484
653.015	2608.44461
653.461	2584.21236
653.908	2557.01727
654.354	2593.22083
654.801	2524.12354
655.247	2470.71116
655.693	2548.73008
656.139	2413.18229
656.585	2435.19366
657.031	2392.09936
657.477	2355.73584
657.922	2349.91481
658.368	2360.31833
658.813	2212.86795
659.259	2266.20805
659.704	2209.0705
660.149	2156.91024
660.594	2163.05005
661.039	2077.82149
661.484	2066.98745
661.929	2080.93348
662.373	1949.17813
662.818	2016.15695
663.262	2022.05728
663.707	2030.30737
664.151	1999.07762
664.595	1968.02129
665.039	1946.12195
665.483	1883.18737
665.927	2011.91074
666.371	1963.89698
666.814	1966.93707
667.258	1982.01505
667.701	1877.44743
668.145	1954.14018
668.588	1958.12401
669.031	1839.8072
669.474	1878.91851
669.917	1853.5348
670.36	1934.13869
670.803	1873.94651
671.245	1832.27423
671.688	1908.0007
672.13	1846.65548
672.573	1870.13746
673.015	1885.94548
673.457	1876.5219
673.899	1842.92425
674.341	1863.92227
674.783	1861.8992
675.225	1875.0259
675.666	1956.06335
676.108	1912.51324
676.549	1934.82529
676.991	1923.57732
677.432	1903.19995
677.873	1896.71703
678.314	1952.9296
678.755	2036.15085
679.196	2010.78867
679.637	1942.94529
680.078	2079.92024
680.518	1990.79335
680.959	2073.00177
681.399	2037.16415
681.839	2096.10664
682.28	2119.2394
682.72	2056.81101
683.16	2154.27966
683.6	2103.81034
684.039	2119.411
684.479	2165.23293
684.919	2235.02829
685.358	2208.29366
685.798	2267.57399
686.237	2241.09096
686.676	2231.83319
687.115	2278.04808
687.554	2318.1433
687.993	2409.77955
688.432	2364.91716
688.871	2448.96551
689.309	2440.19735
689.748	2582.50805
690.186	2534.08105
690.625	2565.11529
691.063	2662.21614
691.501	2687.43422
691.939	2735.5587
692.377	2721.31769
692.815	2837.38992
693.253	2747.20957
693.69	2838.74879
694.128	2885.34393
694.565	2913.19058
695.003	2962.68587
695.44	3097.18423
695.877	3057.14612
696.314	3057.50716
696.751	3139.90102
697.188	3203.03322
697.625	3225.80526
698.061	3243.22848
698.498	3422.10115
698.934	3359.19154
699.371	3415.07941
699.807	3462.08277
700.243	3522.21794
700.679	3483.70707
701.115	3594.96016
701.551	3671.90365
701.987	3702.49411
702.422	3715.0809
702.858	3857.0212
703.294	3869.74243
703.729	3965.11186
704.164	3853.02002
704.599	3969.51953
705.035	4070.49738
705.47	4071.05107
705.904	4196.64529
706.339	4273.54338
706.774	4400.61821
707.209	4448.552
707.643	4406.77146
708.078	4490.85015
708.512	4479.10497
708.946	4559.60678
709.38	4666.57643
709.814	4716.19394
710.248	4749.75537
710.682	4938.5081
711.116	4939.6179
711.549	4952.98625
711.983	5053.14566
712.416	5126.30755
712.85	5079.65608
713.283	5245.19503
713.716	5259.55776
714.149	5331.00243
714.582	5352.79248
715.015	5369.40997
715.448	5594.51565
715.881	5434.45406
716.313	5485.98459
716.746	5575.03961
717.178	5709.08921
717.61	5772.50396
718.043	5850.21742
718.475	5859.08644
718.907	5928.26708
719.339	5913.59441
719.77	5918.96738
720.202	6011.25461
720.634	6057.09223
721.065	6132.76195
721.497	6142.03218
721.928	6193.99737
722.359	6360.9301
722.79	6354.80904
723.221	6402.04399
723.652	6409.21991
724.083	6479.38825
724.514	6548.50627
724.945	6490.62672
725.375	6600.60932
725.806	6567.94911
726.236	6554.223
726.666	6518.66217
727.096	6594.89197
727.526	6816.24797
727.956	6848.47056
728.386	6751.88454
728.816	6758.2049
729.246	6737.94446
729.675	6721.85205
730.105	6868.85802
730.534	6937.57052
730.964	6870.98728
731.393	6978.86618
731.822	6930.16329
732.251	7059.11056
732.68	6941.52678
733.109	7003.91998
733.537	7087.87865
733.966	7123.01182
734.395	7150.56476
734.823	7037.31117
735.251	7008.74856
735.68	7071.9076
736.108	7054.99488
736.536	6940.58861
736.964	6997.54013
737.392	6940.9926
737.82	6968.69945
738.247	6851.68291
738.675	6893.59876
739.102	6847.9835
739.53	6837.22127
739.957	6806.27093
740.384	6828.74241
740.811	6763.96225
741.238	6853.8806
741.665	6747.62046
742.092	6647.46745
742.519	6630.9853
742.945	6614.84496
743.372	6554.00496
743.798	6505.22692
744.225	6444.6726
744.651	6397.07559
745.077	6357.06492
745.503	6274.84667
745.929	6308.88256
746.355	6174.92938
746.781	5971.08136
747.207	5962.86089
747.632	5961.19745
748.058	5933.32359
748.483	5935.63376
748.908	5753.30397
749.334	5777.21332
749.759	5736.97937
750.184	5654.10408
750.609	5685.19032
751.033	5463.9308
751.458	5496.60986
751.883	5414.35886
752.307	5389.0459
752.732	5216.82099
753.156	5113.53425
753.58	5159.16714
754.005	5051.71759
754.429	5017.31622
754.853	4831.80278
755.277	4837.42415
755.7	4808.7764
756.124	4694.85831
756.548	4718.43628
756.971	4623.73905
757.394	4484.19038
757.818	4449.30297
758.241	4399.20047
758.664	4324.17773
759.087	4316.34974
759.51	4146.05986
759.933	4162.92736
760.356	4119.46667
760.778	4022.09877
761.201	3937.99305
761.623	3827.92208
762.046	3792.80784
762.468	3815.97383
762.89	3745.13628
763.312	3746.18305
763.734	3644.10536
764.156	3543.30397
764.578	3517.7471
765	3462.22558
765.421	3346.59936
765.843	3282.77877
766.264	3213.06651
766.686	3104.39002
767.107	3081.24731
767.528	3048.66398
767.949	2993.55241
768.37	2924.41049
768.791	2935.17146
769.212	2811.50678
769.632	2751.05356
770.053	2708.70477
770.473	2722.19317
770.894	2605.287
771.314	2566.04027
771.734	2528.97821
772.154	2466.46781
772.575	2384.88042
772.994	2376.79432
773.414	2295.00549
773.834	2272.24444
774.254	2307.15081
774.673	2261.16051
775.093	2231.23792
775.512	2101.12066
775.931	2137.27685
776.351	2070.1531
776.77	2018.04399
777.189	2031.88861
777.607	1905.13961
778.026	1929.04191
778.445	1860.08382
778.864	1787.99378
779.282	1789.73143
779.701	1726.89928
780.119	1724.95028
780.537	1701.84085
780.955	1616.81831
781.373	1679.78869
781.791	1618.43049
782.209	1590.36386
782.627	1562.93795
783.045	1442.2642
783.462	1463.6945
783.88	1442.72739
784.297	1403.56953
784.715	1335.57515
785.132	1282.27166
785.549	1287.39754
785.966	1301.44036
786.383	1314.40296
786.8	1290.172
787.217	1265.24083
787.633	1214.33401
788.05	1145.0013
788.466	1229.10397
788.883	1154.31053
789.299	1107.01056
789.715	1106.08733
790.131	1023.01537
790.547	1052.0615
790.963	988.95188
791.379	968.97473
791.795	965.70011
792.21	910.68614
792.626	848.62026
793.041	844.70911
793.457	873.74818
793.872	843.59321
794.287	808.62272
794.702	824.64045
795.117	844.74024
795.532	821.72721
795.947	743.46699
796.362	759.4657
796.776	695.33294
797.191	741.52801
797.605	713.42742
798.02	678.40014
798.434	677.25901
798.848	669.43245
799.262	614.3188
799.676	664.381
800.09	605.28633
800.504	549.15595
800.918	542.07684
801.331	505.14779
801.745	502.00093
802.158	514.12267
802.572	506.08045
802.985	503.05755
803.398	497.03848
803.811	435.9841
804.224	413.91303
804.637	432.92529
805.05	456.92645
805.462	445.97102
805.875	413.97641
806.288	418.91347
806.7	381.85987
807.112	414.84803
807.525	318.7073
807.937	356.80559
808.349	310.7095
808.761	428.94993
809.173	349.77479
809.584	335.75237
809.996	312.70086
810.408	329.7932
810.819	341.73088
811.231	339.83917
811.642	376.85153
812.053	326.7305
812.464	323.69858
812.875	322.76295
813.286	277.67038
813.697	260.54488
814.108	266.59828
814.519	320.6543
814.929	256.60613
815.34	221.49473
815.75	222.53476
816.16	205.4727
816.571	241.58371
816.981	227.49159
817.391	235.52217
817.801	207.4851
818.211	213.4725
818.62	189.43024
819.03	194.4451
819.44	163.39644
819.849	171.40246
820.259	193.45989
820.668	162.37883
821.077	161.38276
821.486	139.31271
821.895	143.32961
822.304	177.44365
822.713	187.41241
823.122	151.35636
823.531	128.28318
823.939	171.39493
824.348	168.38221
824.756	151.35622
825.164	138.32815
825.573	145.34578
825.981	148.34542
826.389	158.37483
826.797	163.39391
827.205	94.20761
827.612	148.34365
828.02	74.16556
828.428	145.35028
828.835	130.32954
829.243	106.23862
829.65	112.26827
830.057	61.14161
830.464	168.39132
830.871	157.35624
831.278	94.21732
831.685	121.25386
832.092	95.21985
832.499	131.27168
832.905	50.12136
833.312	96.20386
833.718	190.44848
834.124	109.23717
834.531	75.17968
834.937	146.35728
835.343	95.2167
835.749	84.18421
836.155	99.24877
836.561	112.26294
836.966	61.14279
837.372	86.20882
837.777	90.21566
838.183	98.20538
838.588	109.26014
838.993	94.21878
839.399	72.16989
839.804	35.0827
840.209	108.26636
840.613	87.18366
841.018	39.09496
841.423	79.19502
841.828	62.15195
842.232	62.14487
842.637	83.18941
843.041	77.19092
843.445	47.11286
843.849	63.15076
844.253	90.20326
844.657	29.0713
845.061	94.20683
845.465	15.03515
845.869	98.21654
846.272	86.20159
846.676	50.11412
847.079	75.18501
847.483	51.12223
847.886	108.2474
848.289	56.14667
848.692	14.03418
849.095	78.17832
849.498	70.16773
849.901	47.10248
850.304	64.14643
850.707	42.10309
851.109	70.16914
851.512	100.23523
851.914	25.0616
852.316	101.24721
852.718	90.22928
853.121	65.15311
853.523	43.09591
853.925	28.07174
854.326	26.06346
854.728	22.05515
855.13	34.08595
855.531	54.1244
855.933	47.10734
856.334	73.17635
856.736	51.11069
857.137	95.21232
857.538	59.14404
857.939	105.25136
858.34	92.21142
858.741	36.09084
859.142	39.08972
859.542	53.13628
859.943	23.05531
860.343	31.07483
860.744	69.16133
861.144	79.1863
861.544	29.06839
861.945	46.11303
862.345	49.1147
862.745	32.07752
863.145	51.11464
863.544	48.11747
863.944	76.17144
864.344	66.15513
864.743	99.23383
865.143	89.22131
865.542	55.12049
865.941	13.03135
866.34	21.04792
866.74	44.11462
867.139	60.13998
867.537	18.04397
867.936	66.15301
868.335	19.04676
868.734	26.06455
869.132	15.03321
869.531	37.08508
869.929	58.12725
870.327	22.05096
870.726	29.06911
871.124	45.10008
871.522	-4.00989
871.92	54.12811
872.318	68.15802
872.715	17.04009
873.113	33.0771
873.511	34.0815
873.908	31.07712
874.306	51.1233
874.703	31.07415
875.1	21.05127
875.497	1.00232
875.894	44.10599
876.291	69.16272
876.688	36.08999
877.085	54.12335
877.482	73.17509
877.878	56.13137
878.275	42.10336
878.671	-1.00208
879.068	36.08366
879.464	45.10455
879.86	53.12021
880.256	45.10505
880.652	43.10552
881.048	20.04739
881.444	43.09678
881.84	4.00987
882.236	28.06799
882.631	61.14458
883.027	43.09967
883.422	4.00988
883.817	33.08086
884.213	29.07209
884.608	54.13038
885.003	31.0714
885.398	1.00244
885.793	15.03632
886.188	1.00241
886.582	29.07125
886.977	5.0114
887.371	12.02921
887.766	9.02187
888.16	-29.0694
888.554	57.13426
888.949	50.12077
889.343	34.07957
889.737	26.06801
890.131	8.01948
890.525	66.16349
890.918	37.08979
891.312	65.14707
891.706	21.05334
892.099	40.09789
892.492	37.07577
892.886	28.06594
893.279	20.04924
893.672	28.06951
894.065	39.09432
894.458	-8.01937
894.851	51.1191
895.244	6.01488
895.637	63.14591
896.029	52.12303
896.422	7.01635
896.814	25.05985
897.206	63.14585
897.599	98.23052
897.991	50.11697
898.383	52.11811
898.775	49.10725
899.167	72.16294
899.559	1.00244
899.951	31.0696
900.342	26.0633
900.734	42.10309
901.125	22.05557
901.517	65.15328
901.908	29.06588
902.299	22.05217
902.69	65.14815
903.082	92.21219
903.473	52.1216
903.863	-2.00493
904.254	46.10376
904.645	49.11555
905.036	39.09293
905.426	67.14374
905.817	4.00945
906.207	-9.02056
906.597	33.07509
906.987	29.07209
907.378	35.08602
907.768	14.03612
908.158	59.13757
908.547	53.13404
908.937	-6.01479
909.327	2.0047
909.717	2.00485
910.106	22.05072
910.495	32.07612
910.885	75.18262
911.274	7.01694
911.663	22.0535
912.052	29.06815
912.441	50.12354
912.83	34.07431
913.219	12.03038
913.608	71.16717
913.997	6.01475
914.385	61.13948
914.774	52.12122
915.162	77.17734
915.55	37.08539
915.939	64.15651
916.327	3.0072
916.715	13.03268
917.103	38.08834
917.491	38.09019
917.878	28.06622
918.266	32.07991
918.654	62.15364
919.041	43.11003
919.429	35.07939
919.816	15.03678
920.203	79.18492
920.591	33.07912
920.978	44.10358
921.365	16.04095
921.752	11.02491
922.139	61.126
922.525	24.05586
922.912	33.07719
923.299	21.05056
923.685	-23.05807
924.072	0
924.458	51.12209
924.844	31.07407
925.231	49.10807
925.617	37.09197
926.003	48.11777
926.389	-2.0049
926.774	40.09734
927.16	43.10255
927.546	43.10778
927.931	24.05744
928.317	28.06145
928.702	61.13718
929.088	86.19843
929.473	60.14809
929.858	51.12078
930.243	32.07483
930.628	45.10649
931.013	53.12644
931.398	8.01741
931.783	-22.05595
932.167	46.10938
932.552	26.0627
932.937	18.0429
933.321	9.0221
933.705	-2.00484
934.09	-3.0072
934.474	4.00909
934.858	-15.03806
935.242	5.01115
935.626	35.08707
936.009	65.16848
936.393	90.22229
936.777	56.13898
937.16	-5.01279
937.544	11.02456
937.927	13.03219
938.311	62.14374
938.694	69.17619
939.077	22.05078
939.46	-6.01395
939.843	11.02142
940.226	53.13011
940.609	67.14863
940.991	18.04407
941.374	45.10649
941.757	39.09219
942.139	2.00436
942.522	39.08781
942.904	78.17889
943.286	34.08305
943.668	76.19115
944.05	35.08315
944.432	50.11798
944.814	10.02357
945.196	58.1368
945.578	40.0931
945.959	34.07563
946.341	31.07177
946.722	36.08058
947.104	55.12597
947.485	16.0359
947.866	24.05902
948.247	86.20968
948.628	-29.06746
949.009	-3.00747
949.39	20.04776
949.771	-3.00657
950.152	35.08286
950.532	71.17236
950.913	6.01397
951.293	26.06888
951.674	45.10451
952.054	54.13122
952.434	32.07677
952.814	10.02268
953.194	-16.04027
953.574	77.1801
953.954	-17.03873
954.334	62.14975
954.714	20.04734
955.093	38.08984
955.473	29.07088
955.853	59.14709
956.232	31.08234
956.611	2.00457
956.99	39.09493
957.37	8.01963
957.749	3.0068
958.128	30.0735
958.506	33.08299
958.885	30.07279
959.264	57.13593
959.643	63.13766
960.021	90.21442
960.4	54.11657
960.778	38.08855
961.156	6.01451
961.535	40.08831
961.913	83.18581
962.291	42.10545
962.669	44.10804
963.047	69.17002
963.424	58.14446
963.802	48.1137
964.18	22.05284
964.557	22.04841
964.935	45.10203
965.312	23.05842
965.69	21.05027
966.067	3.00698
966.444	-3.00702
966.821	94.23191
967.198	37.08512
967.575	58.13553
967.952	52.11677
968.329	54.12687
968.705	85.17345
969.082	79.19716
969.458	10.02355
969.835	82.19018
970.211	29.07282
970.587	48.11515
970.963	22.05408
971.339	36.09139
971.715	31.07483
972.091	0
972.467	-3.00714
972.843	88.2111
973.219	40.09111
973.594	-15.0383
973.97	27.06
974.345	31.07174
974.721	12.02759
975.096	73.17021
975.471	49.11073
975.846	-4.00923
976.221	23.05659
976.596	76.17703
976.971	42.10053
977.346	27.0598
977.72	17.04169
978.095	19.04752
978.469	84.18964
978.844	35.0842
979.218	74.17217
979.593	46.10504
979.967	49.11209
980.341	78.17156
980.715	81.19568
981.089	19.04592
981.463	31.06828
981.837	54.12826
982.21	-19.04159
982.584	43.10022
982.957	50.12086
983.331	1.00225
983.704	69.16442
984.078	-25.05987
984.451	-10.02372
984.824	46.10837
985.197	4.00924
985.57	-21.05039
985.943	13.03039
986.316	5.01167
986.688	24.0556
987.061	47.10587
987.434	50.12742
987.806	29.06658
988.179	35.07887
988.551	26.06337
988.923	57.13358
989.295	35.08369
989.667	15.03517
990.039	55.13282
990.411	-17.03724
990.783	13.02836
991.155	19.04427
991.527	35.08109
991.898	69.16549
992.27	37.08908
992.641	45.10773
993.012	18.03959
993.384	-3.00688
993.755	63.15518
994.126	85.19647
994.497	3.00713
994.868	3.00656
995.239	47.10881
995.61	30.07293
995.98	-1.00235
996.351	15.0362
996.722	31.06991
997.092	26.05958
997.462	67.15129
997.833	11.02488
998.203	18.04137
998.573	7.01696
998.943	81.18163
999.313	48.11097
999.683	37.08563
1000.053	-6.01299
1000.423	16.03718
1000.792	-3.00747
1001.162	-12.02845
1001.531	29.06903
1001.901	23.055
1002.27	5.0105
1002.639	-9.02217
1003.009	40.09093
1003.378	41.10125
1003.747	28.06306
1004.116	32.07339
1004.485	55.12556
1004.853	-20.04858
1005.222	-25.06019
1005.591	42.09513
1005.959	76.16329
1006.328	91.19446
1006.696	16.03702
1007.064	-6.01449
1007.433	22.05258
1007.801	8.01861
1008.169	-8.01939
1008.537	26.055
1008.905	57.12776
1009.273	43.10109
1009.64	41.09518
1010.008	45.10244
1010.375	38.08677
1010.743	-7.01507
1011.11	74.17033
1011.478	57.13624
1011.845	33.07391
1012.212	91.19733
1012.579	64.15055
1012.946	12.02716
1013.313	27.06109
1013.68	16.03427
1014.047	10.02297
1014.414	-6.01367
1014.78	27.06498
1015.147	12.0276
1015.513	48.11075
1015.88	38.09282
1016.246	21.04925
1016.612	43.09304
1016.978	67.158
1017.344	25.05969
1017.71	53.1227
1018.076	48.10686
1018.442	78.19272
1018.808	38.09237
1019.174	-14.03389
1019.539	7.01478
1019.905	48.10894
1020.27	20.04749
1020.636	-13.02973
1021.001	23.05316
1021.366	58.13382
1021.731	78.19491
1022.096	46.11278
1022.461	49.11123
1022.826	116.26252
1023.191	7.01784
1023.556	39.08691
1023.92	31.07251
1024.285	10.02327
1024.649	41.09571
1025.014	36.08458
1025.378	21.05134
1025.742	17.04034
1026.107	52.11148
1026.471	43.09519
1026.835	48.11414
1027.199	-9.02103
1027.562	-2.00443
1027.926	29.0677
1028.29	51.12409
1028.654	46.10045
1029.017	35.08295
1029.381	36.08283
1029.744	-1.00248
1030.107	80.17965
1030.471	40.09237
1030.834	24.05134
1031.197	61.13999
1031.56	12.02708
1031.923	10.02512
1032.286	71.15842
1032.648	3.00681
1033.011	59.13105
1033.374	20.04458
1033.736	-22.05654
1034.099	50.11683
1034.461	7.01728
1034.823	20.04831
1035.185	7.01687
1035.548	50.11716
1035.91	2.00461
1036.272	57.12423
1036.634	63.14707
1036.995	-3.00674
1037.357	18.04246
1037.719	39.09118
1038.08	54.1236
1038.442	60.13551
1038.803	-1.00228
1039.165	-19.04637
1039.526	5.01168
1039.887	25.0574
1040.248	59.14178
1040.609	51.11924
1040.97	15.03521
1041.331	51.12497
1041.692	40.09119
1042.053	22.04763
1042.413	27.05985
1042.774	16.03759
1043.134	44.09868
1043.495	39.09422
1043.855	26.0614
1044.215	14.03332
1044.576	68.15621
1044.936	28.06101
1045.296	74.17617
1045.656	5.01171
1046.016	46.10554
1046.375	16.03739
1046.735	56.12332
1047.095	51.11398
1047.454	49.09699
1047.814	43.09912
1048.173	68.15207
1048.533	48.10482
1048.892	19.04413
1049.251	17.04084
1049.61	34.08057
1049.969	35.07871
1050.328	48.09877
1050.687	-4.00934
1051.046	28.06522
1051.405	15.03562
1051.763	34.07575
1052.122	2.00482
1052.48	2.00476
1052.839	66.15058
1053.197	70.15642
1053.555	6.01282
1053.914	50.11661
1054.272	-13.0297
1054.63	39.09179
1054.988	30.06914
1055.345	-17.03466
1055.703	89.20367
1056.061	59.14757
1056.419	102.25618
1056.776	-19.04383
1057.134	13.02833
1057.491	13.03146
1057.848	38.09026
1058.206	2.00445
1058.563	18.03782
1058.92	46.10054
1059.277	49.11578
1059.634	15.03337
1059.991	70.16009
1060.348	66.14223
1060.704	66.15374
1061.061	48.10402
1061.418	10.02343
1061.774	58.13702
1062.131	23.05988
1062.487	7.01564
1062.843	44.10519
1063.199	18.04321
1063.555	35.07842
1063.911	6.01456
1064.267	1.00196
1064.623	34.08032
1064.979	-27.05955
1065.335	32.07257
1065.691	-14.03193
1066.046	69.14291
1066.402	26.05608
1066.757	24.05847
1067.112	52.12146
1067.468	25.05756
1067.823	-7.0159
1068.178	38.0874
1068.533	79.18202
1068.888	57.12908
1069.243	34.08066
1069.598	12.02789
1069.952	13.02879
1070.307	24.05757
1070.662	70.16048
1071.016	70.15111
1071.371	25.05479
1071.725	-27.06199
1072.079	53.12212
1072.434	23.05401
1072.788	-11.02494
1073.142	65.15287
1073.496	46.10398
1073.85	37.08177
1074.203	23.05373
1074.557	52.13508
1074.911	54.12191
1075.265	83.18244
1075.618	73.17001
1075.971	22.05017
1076.325	35.08643
1076.678	11.02419
1077.031	-7.0149
1077.385	52.10811
1077.738	8.01728
1078.091	21.04626
1078.444	12.02638
1078.796	23.05472
1079.149	53.12659
1079.502	3.00689
1079.855	64.14218
1080.207	52.12208
1080.56	-9.02278
1080.912	33.07691
1081.264	38.08813
1081.617	44.10322
1081.969	12.02948
1082.321	3.00704
1082.673	58.12821
1083.025	27.06099
1083.377	317.67093
1083.728	37.08198
1084.08	23.05491
1084.432	36.08283
1084.783	60.13075
1085.135	52.12565
1085.486	11.02435
1085.838	48.11374
1086.189	28.06597
1086.54	10.02287
1086.891	41.10184
1087.242	58.1376
1087.593	-12.0278
1087.944	59.12821
1088.295	68.14597
1088.646	94.22077
1088.996	41.09533
1089.347	-10.0236
1089.698	52.11888
1090.048	-1.0025
1090.398	22.04851
1090.749	1.00228
1091.099	67.16351
1091.449	16.03865
1091.799	41.09856
1092.149	27.06439
1092.499	-1.00236
1092.849	26.06389
1093.199	11.02636
1093.548	51.11863
1093.898	-13.03142
1094.248	-12.02964
1094.597	19.04757
1094.947	67.17234
1095.296	24.05744
1095.645	17.04258
1095.994	5.01158
1096.343	22.05364
1096.692	39.10074
1097.041	33.08809
1097.39	21.05046
1097.739	24.06026
1098.088	16.04126
1098.437	15.03884
1098.785	1.0026
1099.134	-9.02286
1099.482	12.03226
1099.83	22.05601
1100.179	88.22427
1100.527	-40.1028
1100.875	9.02331
1101.223	38.09831
1101.571	-40.10813
1101.919	21.05447
1102.267	12.03328
1102.615	3.00964
1102.962	-1.00321
1103.31	12.0385
1103.658	-11.03531
