Data from N3 R1 sample 4_Subt2__5__15-37-13-039.txt Node

Date: Wed Sep 17 15:37:13 PDT 2025
User: uwsun
Spectrometer: HDX01956
Trigger mode: 0
Integration Time (sec): 5.000000E-1
Scans to average: 1
Nonlinearity correction enabled: true
Boxcar width: 0
Storing dark spectrum: false
XAxis mode: Wavelengths
Number of Pixels in Spectrum: 2068
>>>>>Begin Spectral Data<<<<<
194.03	56.16125
194.578	60.19372
195.127	71.2257
195.676	61.19485
196.225	71.18738
196.773	62.17161
197.321	111.30544
197.87	168.42752
198.418	188.48027
198.966	199.51897
199.513	178.44977
200.061	169.42741
200.609	214.55722
201.156	208.44958
201.704	208.51729
202.251	208.54642
202.798	146.37796
203.345	237.57726
203.892	202.5053
204.438	208.48735
204.985	163.38617
205.532	174.45479
206.078	186.45059
206.624	205.50937
207.17	226.52246
207.716	224.54203
208.262	166.32833
208.808	242.59811
209.354	246.59794
209.899	188.46926
210.445	191.47424
210.99	185.44876
211.535	214.49846
212.08	170.39301
212.625	191.47286
213.17	226.56777
213.715	239.53701
214.259	248.56807
214.804	219.52903
215.348	238.54101
215.892	250.59558
216.436	159.36166
216.98	169.36896
217.524	215.50759
218.068	192.48028
218.612	197.49626
219.155	205.47891
219.698	198.46573
220.242	143.35196
220.785	185.43083
221.328	168.41203
221.871	251.62615
222.414	197.48056
222.956	135.32218
223.499	134.29819
224.041	175.39547
224.583	197.40838
225.126	194.41914
225.668	183.43924
226.21	174.43636
226.751	221.48289
227.293	158.35436
227.835	172.41746
228.376	155.34956
228.918	132.32734
229.459	162.40085
230	190.4504
230.541	198.4479
231.082	178.42862
231.622	127.28642
232.163	158.37772
232.704	214.5264
233.244	173.42453
233.784	154.36999
234.324	216.47726
234.864	181.40335
235.404	176.40898
235.944	211.48711
236.484	175.43182
237.023	183.42533
237.563	200.45758
238.102	205.47627
238.641	150.37401
239.18	177.41074
239.719	170.42095
240.258	206.45421
240.797	181.42699
241.335	149.35954
241.874	225.42845
242.412	230.54731
242.95	192.45777
243.488	165.36648
244.026	241.5475
244.564	222.44692
245.102	211.46982
245.64	160.37826
246.177	171.37538
246.715	233.5473
247.252	222.49256
247.789	233.42017
248.326	163.3896
248.863	237.5093
249.4	217.48197
249.936	191.39488
250.473	214.49708
251.009	153.34773
251.546	257.5587
252.082	140.30079
252.618	222.48641
253.154	163.389
253.69	177.39215
254.226	227.53238
254.761	209.46054
255.297	223.47633
255.832	167.39366
256.367	213.49114
256.903	246.53353
257.438	211.48537
257.972	207.45269
258.507	201.4533
259.042	217.46271
259.576	260.56005
260.111	164.37296
260.645	237.49942
261.179	201.46366
261.713	214.47047
262.247	170.38394
262.781	245.50334
263.315	149.35886
263.849	173.42877
264.382	210.4735
264.915	229.53098
265.449	186.44822
265.982	208.46419
266.515	239.5732
267.048	169.35504
267.58	186.39549
268.113	235.4963
268.646	170.41153
269.178	204.44811
269.71	223.48376
270.243	264.59524
270.775	236.59332
271.307	141.33341
271.838	219.50679
272.37	211.50778
272.902	239.52818
273.433	219.4767
273.965	234.55597
274.496	215.52289
275.027	225.54946
275.558	252.60034
276.089	216.53053
276.62	168.41919
277.15	197.47697
277.681	213.44944
278.211	203.48687
278.741	207.4525
279.272	212.47703
279.802	220.53675
280.332	200.46548
280.861	204.47966
281.391	240.53294
281.921	207.48624
282.45	200.48815
282.98	208.53341
283.509	253.56169
284.038	273.60684
284.567	249.56613
285.096	248.58787
285.625	195.43239
286.153	263.6127
286.682	241.54172
287.21	207.48453
287.739	265.60908
288.267	241.57447
288.795	201.51717
289.323	221.50999
289.851	312.70834
290.378	188.41383
290.906	260.62082
291.433	286.69176
291.961	270.6003
292.488	232.56371
293.015	238.55064
293.542	267.66991
294.069	301.72269
294.596	208.50009
295.122	298.69244
295.649	254.54148
296.175	213.50403
296.702	248.59353
297.228	230.54268
297.754	321.69485
298.28	293.65373
298.806	245.57773
299.332	247.54107
299.857	261.57873
300.383	273.66815
300.908	251.60403
301.433	302.7175
301.958	243.5451
302.483	238.57785
303.008	295.71232
303.533	262.65938
304.058	286.64642
304.582	250.57794
305.107	252.64148
305.631	277.61036
306.155	283.64081
306.679	266.61052
307.203	272.61528
307.727	281.64766
308.251	285.68376
308.775	341.79906
309.298	282.66174
309.822	272.66583
310.345	355.81427
310.868	346.80237
311.391	315.75025
311.914	304.73861
312.437	288.63979
312.96	268.61635
313.482	259.59458
314.005	279.67776
314.527	273.69185
315.049	325.79509
315.571	358.77244
316.093	317.75965
316.615	308.71539
317.137	329.69084
317.659	321.75132
318.18	296.68426
318.702	380.85078
319.223	321.6303
319.744	390.83607
320.265	325.76574
320.786	392.93591
321.307	341.81154
321.828	361.78042
322.348	367.8276
322.869	344.78983
323.389	703.20789
323.909	378.82468
324.43	397.90327
324.95	405.88114
325.47	401.94879
325.989	359.81849
326.509	444.93784
327.029	419.90811
327.548	379.82108
328.067	436.0005
328.587	428.01769
329.106	403.863
329.625	408.01037
330.144	434.95564
330.662	477.04985
331.181	486.07305
331.7	383.85096
332.218	464.94485
332.736	502.0955
333.255	451.00124
333.773	483.06708
334.291	482.13226
334.808	466.98776
335.326	458.96826
335.844	522.1421
336.361	538.29046
336.879	530.15865
337.396	498.13573
337.913	493.06514
338.43	543.13127
338.947	535.18659
339.464	521.04154
339.981	527.16106
340.497	544.2403
341.014	552.2459
341.53	527.10226
342.046	594.36641
342.562	607.38717
343.078	589.27236
343.594	565.23919
344.11	675.45962
344.626	641.47668
345.141	615.28265
345.657	646.32264
346.172	668.4583
346.687	598.25515
347.202	707.44412
347.717	639.38581
348.232	683.53784
348.747	654.36742
349.261	643.27758
349.776	700.49535
350.29	714.60866
350.805	680.51891
351.319	682.42604
351.833	725.48829
352.347	722.52376
352.861	711.49429
353.374	760.5248
353.888	753.64021
354.401	654.34569
354.915	767.52931
355.428	762.69099
355.941	735.52308
356.454	785.52903
356.967	719.49653
357.48	739.485
357.993	789.71432
358.505	743.60953
359.018	830.78169
359.53	822.76148
360.042	846.63905
360.554	860.83346
361.066	784.68506
361.578	819.5742
362.09	865.78318
362.602	852.64127
363.113	866.76568
363.625	919.77773
364.136	858.62122
364.647	876.79659
365.158	823.67224
365.669	899.8467
366.18	899.81687
366.691	891.66522
367.201	914.8788
367.712	942.82966
368.222	949.85246
368.733	920.69456
369.243	1031.90845
369.753	946.8479
370.263	1036.09008
370.773	971.00203
371.282	1008.02051
371.792	1075.04989
372.301	1003.03584
372.811	1115.4312
373.32	1084.90791
373.829	1064.07138
374.338	1160.061
374.847	1210.221
375.356	1210.27529
375.865	1268.10137
376.373	1361.36209
376.882	1348.6749
377.39	1370.54828
377.898	1411.65764
378.407	1504.50881
378.915	1577.46052
379.423	1517.59586
379.93	1682.75511
380.438	1663.85492
380.946	1747.81321
381.453	1854.02229
381.96	1922.05554
382.468	2067.08737
382.975	2214.36504
383.482	2230.95342
383.989	2286.6519
384.495	2386.20576
385.002	2486.738
385.509	2703.4056
386.015	2857.62573
386.521	2925.15498
387.028	3144.12444
387.534	3160.78503
388.04	3266.45965
388.546	3358.91072
389.051	3566.82677
389.557	3762.05821
390.063	3991.79533
390.568	4265.08485
391.073	4371.48829
391.578	4548.04734
392.084	4747.43149
392.589	4863.03736
393.093	5196.51759
393.598	5757.9473
394.103	6342.95398
394.607	6875.94188
395.112	7235.0868
395.616	7831.24135
396.12	8391.52506
396.624	9329.11255
397.128	10074.96083
397.632	11167.95806
398.136	12138.96844
398.639	12835.0644
399.143	14417.44449
399.646	16156.20759
400.15	18010.58454
400.653	20083.96753
401.156	22505.1083
401.659	26153.68402
402.162	31817.31938
402.664	42173.07578
403.167	58996.20328
403.67	62646.76076
404.172	63919.58413
404.674	63858.43483
405.176	63738.15102
405.678	63977.72923
406.18	64011.81569
406.682	63863.44694
407.184	63926.60148
407.686	63841.39382
408.187	64025.8516
408.688	63892.51763
409.19	63833.37461
409.691	61377.91973
410.192	51549.75182
410.693	44833.24153
411.194	39901.56994
411.694	38124.90951
412.195	35426.67602
412.696	31979.67165
413.196	29669.07694
413.696	28878.5474
414.196	29087.6607
414.696	28607.6195
415.196	27312.02348
415.696	24896.5859
416.196	20296.31635
416.695	15581.2894
417.195	13242.65438
417.694	12620.80605
418.194	11875.12484
418.693	11239.4211
419.192	10761.30289
419.691	10452.22069
420.19	10219.39479
420.688	9852.34346
421.187	9492.52771
421.685	9001.46275
422.184	8119.33704
422.682	6986.41353
423.18	5858.89484
423.678	5241.15381
424.176	4898.33125
424.674	4650.29941
425.172	4510.74196
425.669	4107.24701
426.167	3878.96199
426.664	3539.94371
427.161	3356.07561
427.659	3060.4491
428.156	2882.73416
428.652	2643.63601
429.149	2564.39717
429.646	2496.94479
430.143	2321.2448
430.639	2195.13076
431.135	2134.3561
431.632	1916.81543
432.128	1910.01409
432.624	1799.2288
433.12	1720.6654
433.616	1652.47337
434.111	1564.66619
434.607	1550.67866
435.103	1520.22072
435.598	1525.20575
436.093	1416.44197
436.588	1370.29009
437.083	1286.18509
437.578	1240.22071
438.073	1181.35981
438.568	1176.30394
439.062	1144.90636
439.557	1071.01864
440.051	1020.85855
440.546	956.79177
441.04	1016.00201
441.534	925.96656
442.028	987.96581
442.522	839.72025
443.015	829.49726
443.509	913.86791
444.002	862.79566
444.496	814.49445
444.989	794.66195
445.482	798.70708
445.975	871.69679
446.468	814.49146
446.961	830.52007
447.454	744.44115
447.947	786.61764
448.439	777.65175
448.931	726.4498
449.424	779.7248
449.916	746.58614
450.408	753.48676
450.9	700.4947
451.392	688.54689
451.884	677.36651
452.375	663.45622
452.867	672.32443
453.358	683.37169
453.849	649.21761
454.341	655.30267
454.832	611.16931
455.323	648.43725
455.814	615.25084
456.304	598.23638
456.795	638.28856
457.285	555.09733
457.776	594.20834
458.266	605.28298
458.756	542.15845
459.247	569.22595
459.737	559.22241
460.226	505.04823
460.716	546.18111
461.206	510.11204
461.695	506.14287
462.185	557.19287
462.674	515.06855
463.163	506.03138
463.653	542.03577
464.142	495.09728
464.63	500.10632
465.119	479.01938
465.608	499.06616
466.096	407.81954
466.585	453.95245
467.073	418.91579
467.561	429.95433
468.05	458.96953
468.538	436.98697
469.026	369.82089
469.513	405.79149
470.001	419.89261
470.489	402.89076
470.976	482.02955
471.463	426.98548
471.951	385.89578
472.438	340.75309
472.925	405.8875
473.412	361.82305
473.899	353.76084
474.385	356.82032
474.872	316.69819
475.359	417.95375
475.845	348.67542
476.331	333.66714
476.817	311.71851
477.303	287.63584
477.789	286.64932
478.275	243.58035
478.761	284.64295
479.247	291.61725
479.732	306.72617
480.218	314.78284
480.703	275.64771
481.188	306.62766
481.673	279.61219
482.158	311.63633
482.643	311.75547
483.128	258.57719
483.612	336.75631
484.097	277.63793
484.581	272.60148
485.066	269.63111
485.55	262.5549
486.034	244.50818
486.518	291.66428
487.002	197.46473
487.486	203.47759
487.969	242.56567
488.453	186.45009
488.936	200.43673
489.42	194.41681
489.903	180.43606
490.386	125.25472
490.869	249.52379
491.352	188.43963
491.835	177.35264
492.318	205.44623
492.8	201.40344
493.283	217.53604
493.765	166.39745
494.247	194.4385
494.73	198.42522
495.212	165.38183
495.694	207.47293
496.175	186.43512
496.657	214.4902
497.139	143.2406
497.62	178.41739
498.102	155.37783
498.583	87.21168
499.064	144.31512
499.545	190.42087
500.026	176.38839
500.507	121.27456
500.988	231.55738
501.469	111.2729
501.949	144.34872
502.43	186.43649
502.91	195.40188
503.39	117.28584
503.87	131.30484
504.35	112.25862
504.83	125.26932
505.31	113.26875
505.79	94.22008
506.269	55.12607
506.749	129.2901
507.228	132.30577
507.707	195.42266
508.187	142.33324
508.666	121.29561
509.145	114.26324
509.623	138.31751
510.102	142.33727
510.581	184.43247
511.059	121.30034
511.538	128.32482
512.016	157.36851
512.494	139.32817
512.972	117.27655
513.45	114.26272
513.928	107.25732
514.406	110.26669
514.884	85.21757
515.361	106.25099
515.839	125.28398
516.316	151.36009
516.793	100.24989
517.27	121.287
517.747	104.2641
518.224	86.19685
518.701	104.22759
519.178	107.26491
519.654	116.27127
520.131	65.16052
520.607	98.23715
521.083	64.14472
521.56	68.15977
522.036	91.19674
522.512	128.31149
522.987	131.31096
523.463	89.20947
523.939	124.30368
524.414	121.27322
524.89	139.32626
525.365	100.22391
525.84	80.19133
526.315	145.34512
526.79	105.23458
527.265	148.33589
527.74	87.2097
528.215	92.21295
528.689	58.12714
529.164	72.15396
529.638	51.12912
530.112	85.19866
530.587	111.23504
531.061	97.23283
531.534	71.17049
532.008	136.32563
532.482	104.2368
532.956	26.06656
533.429	138.33243
533.903	121.26171
534.376	84.18475
534.849	49.11281
535.322	114.26586
535.795	56.13511
536.268	151.35885
536.741	54.12816
537.213	105.23903
537.686	91.22108
538.158	152.33936
538.631	89.21411
539.103	132.29386
539.575	71.14593
540.047	46.10062
540.519	101.2392
540.991	103.24883
541.463	90.215
541.934	37.08399
542.406	94.2243
542.877	127.28279
543.348	117.27934
543.82	125.29992
544.291	128.29486
544.762	106.25012
545.233	157.39068
545.703	76.16877
546.174	63.14608
546.645	142.33831
547.115	109.26073
547.585	92.21041
548.056	131.31814
548.526	142.33219
548.996	128.30214
549.466	151.36078
549.935	152.35726
550.405	158.34093
550.875	140.32777
551.344	132.31062
551.814	106.24116
552.283	201.4271
552.752	187.42844
553.221	188.40566
553.69	200.4408
554.159	222.53699
554.628	212.46764
555.096	210.52037
555.565	168.36437
556.033	263.60424
556.502	145.34472
556.97	241.51812
557.438	177.40684
557.906	148.34392
558.374	191.43268
558.842	170.39941
559.31	271.58236
559.777	208.49515
560.245	210.46827
560.712	219.48662
561.18	236.50508
561.647	273.58034
562.114	290.63566
562.581	296.69702
563.048	333.72267
563.514	406.9556
563.981	350.7568
564.448	413.86874
564.914	428.92306
565.381	456.9615
565.847	461.99016
566.313	467.99744
566.779	551.1164
567.245	554.15652
567.711	586.2602
568.176	579.16199
568.642	663.48425
569.108	709.52994
569.573	723.45214
570.038	791.39215
570.504	859.62746
570.969	914.90321
571.434	967.748
571.899	1037.99203
572.363	1075.9664
572.828	1160.08221
573.293	1223.15162
573.757	1298.27765
574.222	1330.21198
574.686	1382.34537
575.15	1439.55445
575.614	1522.57897
576.078	1508.54145
576.542	1435.37153
577.006	1554.45845
577.469	1613.8167
577.933	1683.59913
578.396	1563.63125
578.86	1599.64035
579.323	1650.77807
579.786	1735.46186
580.249	1730.76462
580.712	1634.79373
581.175	1630.84288
581.637	1597.52784
582.1	1541.32796
582.563	1560.26325
583.025	1604.76821
583.487	1593.19282
583.95	1517.25612
584.412	1536.21164
584.874	1527.69618
585.336	1469.53722
585.797	1448.24249
586.259	1436.4558
586.721	1410.43669
587.182	1364.33075
587.643	1349.27252
588.105	1336.37386
588.566	1278.9655
589.027	1257.38637
589.488	1220.15356
589.949	1189.26894
590.41	1171.74149
590.87	1210.13473
591.331	1185.98738
591.791	1078.99515
592.252	1120.06555
592.712	1003.96816
593.172	1039.9004
593.632	1101.92835
594.092	1009.81299
594.552	1001.74263
595.011	940.77471
595.471	976.806
595.931	978.79982
596.39	917.84061
596.849	899.7481
597.308	908.5857
597.768	920.00701
598.227	906.82394
598.685	902.70866
599.144	936.83093
599.603	917.78315
600.062	901.55735
600.52	981.8049
600.978	957.86633
601.437	937.7548
601.895	1000.71847
602.353	995.76223
602.811	1060.90827
603.269	992.93331
603.727	1077.07943
604.184	1082.96087
604.642	1171.2764
605.099	1212.19031
605.557	1097.1403
606.014	1177.93966
606.471	1261.46329
606.928	1291.14732
607.385	1398.63883
607.842	1383.33516
608.299	1384.39404
608.755	1434.56576
609.212	1538.39977
609.668	1573.46832
610.125	1606.72956
610.581	1647.66544
611.037	1648.50401
611.493	1681.67724
611.949	1768.92432
612.405	1794.27694
612.861	1849.74888
613.316	1808.88581
613.772	1907.77254
614.227	2008.04639
614.683	2011.51765
615.138	1990.92265
615.593	2073.92429
616.048	2110.87941
616.503	2110.15193
616.958	2158.33726
617.412	2193.09153
617.867	2121.78742
618.321	2128.453
618.776	2179.73881
619.23	2049.94888
619.684	2080.75087
620.138	2101.86954
620.592	2027.09274
621.046	2099.01633
621.5	2040.06337
621.954	1968.65533
622.407	2010.67674
622.861	1982.06421
623.314	1966.74863
623.768	1965.93121
624.221	1885.18806
624.674	1851.7601
625.127	1848.78258
625.58	1782.59809
626.033	1832.53035
626.485	1767.83468
626.938	1770.81973
627.39	1797.76781
627.843	1662.60423
628.295	1591.54254
628.747	1627.69869
629.199	1606.51127
629.651	1561.49557
630.103	1520.45888
630.555	1494.16635
631.006	1459.44182
631.458	1446.46775
631.909	1386.24929
632.361	1447.40328
632.812	1433.40062
633.263	1370.14285
633.714	1306.01143
634.165	1262.311
634.616	1274.28417
635.067	1248.05559
635.518	1193.19024
635.968	1153.68458
636.419	1248.03523
636.869	1055.00002
637.319	1121.04018
637.769	1110.94873
638.219	1062.00017
638.669	976.8949
639.119	944.86051
639.569	927.8402
640.019	994.85673
640.468	970.75744
640.918	930.81917
641.367	907.66598
641.816	898.63909
642.265	928.78277
642.714	826.59187
643.163	861.6622
643.612	883.81787
644.061	808.44254
644.51	870.65996
644.958	876.59643
645.406	764.56739
645.855	738.55007
646.303	734.45834
646.751	753.49302
647.199	701.37294
647.647	695.40161
648.095	653.30171
648.543	715.22856
648.99	694.455
649.438	655.32567
649.885	711.54932
650.333	689.13397
650.78	647.37933
651.227	640.38592
651.674	703.38725
652.121	676.45711
652.568	653.41199
653.015	640.40183
653.461	624.3121
653.908	585.19297
654.354	608.28459
654.801	584.21979
655.247	562.07926
655.693	588.37624
656.139	542.16395
656.585	556.1915
657.031	549.15849
657.477	550.07091
657.922	529.07957
658.368	508.13432
658.813	516.05609
659.259	556.21199
659.704	538.14889
660.149	479.0039
660.594	566.20199
661.039	503.03571
661.484	508.08941
661.929	485.02993
662.373	476.09421
662.818	501.12765
663.262	490.07919
663.707	519.20105
664.151	509.12603
664.595	454.00729
665.039	469.06627
665.483	455.06562
665.927	494.05113
666.371	470.00908
666.814	508.09222
667.258	503.10069
667.701	468.904
668.145	499.13092
668.588	516.16028
669.031	456.98259
669.474	443.9777
669.917	514.0097
670.36	461.05608
670.803	508.11282
671.245	425.79241
671.688	473.05104
672.13	437.90667
672.573	459.06451
673.015	470.03507
673.457	442.87794
673.899	470.03809
674.341	494.08074
674.783	425.93995
675.225	464.04572
675.666	439.99072
676.108	439.86567
676.549	453.96503
676.991	412.83095
677.432	432.77771
677.873	426.89312
678.314	486.05022
678.755	490.10037
679.196	411.86568
679.637	412.91101
680.078	429.92105
680.518	446.93588
680.959	427.9357
681.399	466.05452
681.839	446.99399
682.28	421.96792
682.72	398.84032
683.16	442.01389
683.6	466.9636
684.039	409.77128
684.479	444.00668
684.919	459.98672
685.358	372.86401
685.798	393.95388
686.237	398.87822
686.676	394.82203
687.115	453.9755
687.554	432.95044
687.993	426.86155
688.432	434.90588
688.871	479.99558
689.309	442.97244
689.748	502.9316
690.186	422.90622
690.625	467.99873
691.063	400.8819
691.501	472.06422
691.939	485.11293
692.377	455.00679
692.815	509.12556
693.253	458.99409
693.69	466.92172
694.128	423.94567
694.565	420.91435
695.003	523.20984
695.44	519.10466
695.877	480.02262
696.314	429.81933
696.751	509.03256
697.188	506.05429
697.625	441.897
698.061	420.92443
698.498	511.08478
698.934	503.08308
699.371	464.99296
699.807	520.10031
700.243	540.16612
700.679	500.9987
701.115	552.14419
701.551	447.94521
701.987	481.94271
702.422	615.29117
702.858	548.16624
703.294	586.18338
703.729	575.24208
704.164	555.17885
704.599	604.17848
705.035	554.09868
705.47	553.19755
705.904	585.19297
706.339	685.35168
706.774	614.25987
707.209	695.39134
707.643	662.37684
708.078	641.36416
708.512	592.31836
708.946	671.37545
709.38	664.36936
709.814	647.26582
710.248	709.49727
710.682	670.39782
711.116	743.55065
711.549	638.43439
711.983	709.39976
712.416	758.52848
712.85	711.51985
713.283	712.44021
713.716	695.49138
714.149	716.41327
714.582	706.35049
715.015	688.46017
715.448	783.68182
715.881	730.31373
716.313	780.53259
716.746	738.4881
717.178	724.49125
717.61	786.70599
718.043	757.59455
718.475	753.55695
718.907	753.60763
719.339	763.45373
719.77	807.62406
720.202	716.54605
720.634	866.77047
721.065	792.5657
721.497	777.61308
721.928	755.57084
722.359	760.5753
722.79	787.58812
723.221	737.56665
723.652	792.71028
724.083	835.54423
724.514	829.57588
724.945	748.48136
725.375	810.58041
725.806	769.60851
726.236	835.79819
726.666	845.64841
727.096	793.63536
727.526	875.89
727.956	845.59077
728.386	830.7014
728.816	823.78293
729.246	857.7643
729.675	745.54658
730.105	873.76589
730.534	858.64335
730.964	860.78594
731.393	857.74218
731.822	885.88475
732.251	836.78381
732.68	836.59421
733.109	828.71104
733.537	876.77479
733.966	900.85912
734.395	851.61777
734.823	852.53067
735.251	846.6843
735.68	875.78365
736.108	845.76294
736.536	867.66341
736.964	827.58274
737.392	852.77481
737.82	824.63361
738.247	860.68683
738.675	829.60951
739.102	832.73695
739.53	888.90543
739.957	861.87162
740.384	831.66015
740.811	845.75048
741.238	845.72711
741.665	906.73544
742.092	787.50171
742.519	911.8613
742.945	932.84799
743.372	857.77378
743.798	894.89857
744.225	843.6445
744.651	868.80177
745.077	881.817
745.503	829.6615
745.929	932.83855
746.355	850.7103
746.781	829.69667
747.207	848.66561
747.632	901.84666
748.058	887.85553
748.483	883.64862
748.908	868.79537
749.334	895.81786
749.759	850.67503
750.184	879.74481
750.609	876.76833
751.033	885.67762
751.458	898.60526
751.883	836.71063
752.307	804.57388
752.732	882.88038
753.156	807.66425
753.58	790.55081
754.005	802.69201
754.429	870.69524
754.853	796.672
755.277	874.70305
755.7	846.74749
756.124	821.7098
756.548	787.55108
756.971	833.6895
757.394	798.72324
757.818	781.71488
758.241	835.78052
758.664	799.70223
759.087	806.50052
759.51	772.60518
759.933	803.62637
760.356	817.7827
760.778	757.57501
761.201	744.51807
761.623	736.47591
762.046	758.47951
762.468	761.52927
762.89	789.61109
763.312	788.62176
763.734	786.58864
764.156	766.59905
764.578	753.4284
765	736.52142
765.421	758.65146
765.843	665.51679
766.264	650.32003
766.686	696.47845
767.107	657.37219
767.528	701.5578
767.949	671.47319
768.37	731.54647
768.791	677.38651
769.212	638.40331
769.632	630.27529
770.053	578.33697
770.473	625.30296
770.894	618.31942
771.314	649.31051
771.734	572.1614
772.154	562.26747
772.575	616.22015
772.994	522.03606
773.414	617.26575
773.834	555.21876
774.254	587.25072
774.673	558.20402
775.093	582.27465
775.512	597.29022
775.931	535.20675
776.351	556.22633
776.77	539.17215
777.189	511.0744
777.607	518.17999
778.026	492.09583
778.445	518.17477
778.864	477.08317
779.282	463.9859
779.701	466.04981
780.119	467.06642
780.537	423.95424
780.955	453.03024
781.373	389.87612
781.791	472.95458
782.209	434.87291
782.627	417.0023
783.045	349.72249
783.462	428.99285
783.88	461.07885
784.297	410.93906
784.715	394.93169
785.132	376.82379
785.549	327.75456
785.966	382.87916
786.383	354.80465
786.8	395.82796
787.217	359.78638
787.633	373.86274
788.05	307.65574
788.466	347.73539
788.883	317.75791
789.299	286.62848
789.715	341.7649
790.131	358.81637
790.547	297.68644
790.963	312.71436
791.379	293.68956
791.795	276.57432
792.21	297.63493
792.626	288.62542
793.041	270.61896
793.457	257.58833
793.872	259.55993
794.287	262.5929
794.702	222.50423
795.117	253.59126
795.532	277.65292
795.947	227.50292
796.362	197.43209
796.776	240.51141
797.191	206.47623
797.605	244.54205
798.02	191.43796
798.434	245.50515
798.848	274.63744
799.262	176.41415
799.676	262.59435
800.09	223.5142
800.504	221.49962
800.918	154.33415
801.331	95.23417
801.745	180.3864
802.158	135.31897
802.572	189.43198
802.985	183.41254
803.398	156.35117
803.811	100.24162
804.224	143.33394
804.637	126.2877
805.05	147.31971
805.462	172.397
805.875	139.34602
806.288	146.3374
806.7	114.27129
807.112	133.28975
807.525	108.25067
807.937	149.35137
808.349	130.30829
808.761	158.37035
809.173	125.29042
809.584	139.32473
809.996	77.1813
810.408	137.34228
810.819	135.30222
811.231	192.48807
811.642	155.36679
812.053	108.25286
812.464	125.28179
812.875	175.42642
813.286	162.40055
813.697	143.30744
814.108	118.27345
814.519	155.32879
814.929	116.28208
815.34	89.20465
815.75	67.16612
816.16	111.26074
816.571	95.2364
816.981	94.20935
817.391	123.27966
817.801	96.22986
818.211	130.29336
818.62	101.23401
819.03	77.18081
819.44	69.17077
819.849	60.14426
820.259	73.17795
820.668	92.21809
821.077	80.19315
821.486	76.17319
821.895	58.13595
822.304	68.17379
822.713	62.14031
823.122	61.14647
823.531	48.10797
823.939	101.23651
824.348	99.22838
824.756	66.15827
825.164	69.16625
825.573	47.11419
825.981	71.16821
826.389	74.1784
826.797	92.22531
827.205	77.17067
827.612	59.13941
828.02	4.00908
828.428	43.10588
828.835	76.1945
829.243	27.06176
829.65	51.12358
830.057	68.15765
830.464	106.24992
830.871	103.23628
831.278	67.15573
831.685	74.15687
832.092	35.08196
832.499	105.21903
832.905	50.12136
833.312	45.09662
833.718	118.28242
834.124	103.2244
834.531	31.07489
834.937	98.24196
835.343	51.11737
835.749	49.10825
836.155	61.15433
836.561	65.154
836.966	50.11729
837.372	65.15845
837.777	40.09676
838.183	112.23399
838.588	40.09672
838.993	45.10575
839.399	46.10909
839.804	19.04503
840.209	89.22027
840.613	28.05987
841.018	31.0756
841.423	50.12409
841.828	19.04694
842.232	62.14487
842.637	69.1579
843.041	39.09737
843.445	17.04105
843.849	74.17671
844.253	27.06176
844.657	56.13699
845.061	113.24765
845.465	21.04916
845.869	48.10717
846.272	76.17849
846.676	26.05963
847.079	52.12881
847.483	84.20005
847.886	57.13191
848.289	51.13369
848.692	24.05849
849.095	33.07613
849.498	43.10357
849.901	21.04604
850.304	71.16222
850.707	11.02715
851.109	46.11165
851.512	29.06916
851.914	19.04687
852.316	77.18931
852.718	41.10535
853.121	42.09937
853.523	58.12896
853.925	46.11748
854.326	26.06346
854.728	72.17888
855.13	12.03045
855.531	33.07634
855.933	16.03677
856.334	38.09241
856.736	44.09564
857.137	79.17715
857.538	25.06142
857.939	79.19006
858.34	39.09058
858.741	33.08331
859.142	44.10112
859.542	41.10565
859.943	42.10064
860.343	-18.04385
860.744	41.09639
861.144	42.09976
861.544	42.0988
861.945	46.11303
862.345	49.1147
862.745	38.09196
863.145	12.02719
863.544	34.08342
863.944	39.08864
864.344	44.10386
864.743	71.1686
865.143	69.17221
865.542	-16.03558
865.941	35.08404
866.34	34.07738
866.74	21.05492
867.139	85.19733
867.537	4.0098
867.936	59.13697
868.335	26.06391
868.734	24.0596
869.132	47.10335
869.531	52.11921
869.929	44.09682
870.327	20.04635
870.726	58.13744
871.124	3.00673
871.522	4.00987
871.92	60.14218
872.318	-4.00943
872.715	16.03774
873.113	30.07013
873.511	25.06003
873.908	10.02497
874.306	28.06799
874.703	-1.00241
875.1	-3.00736
875.497	37.08505
875.894	74.17725
876.291	9.02147
876.688	27.0676
877.085	28.0643
877.482	20.04845
877.878	52.12208
878.275	40.09847
878.671	-1.00208
879.068	81.18656
879.464	41.09533
879.86	22.05021
880.256	7.01646
880.652	21.05174
881.048	71.16659
881.444	-24.05476
881.84	37.0907
882.236	66.15911
882.631	48.11405
883.027	61.14089
883.422	19.04678
883.817	43.10517
884.213	17.04235
884.608	58.13993
885.003	7.0162
885.398	2.00487
885.793	-7.01702
886.188	2.00482
886.582	21.05167
886.977	60.13529
887.371	-15.0367
887.766	36.08702
888.16	22.05213
888.554	37.08749
888.949	47.11359
889.343	32.07492
889.737	0
890.131	31.07517
890.525	57.14143
890.918	32.07773
891.312	59.13366
891.706	20.05081
892.099	29.07111
892.492	51.10412
892.886	8.01891
893.279	-10.02475
893.672	22.05468
894.065	40.09672
894.458	5.01207
894.851	29.06802
895.244	-8.01989
895.637	72.16646
896.029	25.05946
896.422	-15.03518
896.814	35.08363
897.206	52.12065
897.599	96.2259
897.991	55.12854
898.383	8.01833
898.775	86.18676
899.167	36.08207
899.559	45.10871
899.951	40.08964
900.342	13.03173
900.734	64.15645
901.125	16.04046
901.517	30.07123
901.908	46.10415
902.299	33.07809
902.69	56.12787
903.082	40.09321
903.473	73.17001
903.863	-5.01234
904.254	52.11715
904.645	8.01902
905.036	77.18215
905.426	41.08845
905.817	-15.03555
906.207	-46.10588
906.597	41.09315
906.987	0
907.378	45.11039
907.768	42.10783
908.158	15.03528
908.547	73.18397
908.937	-5.01232
909.327	42.09783
909.717	16.03866
910.106	11.02542
910.495	15.0358
910.885	69.1682
911.274	5.0121
911.663	39.09454
912.052	27.06347
912.441	72.17718
912.83	-18.03977
913.219	36.09074
913.608	75.17645
913.997	61.14848
914.385	41.09413
914.774	16.03756
915.162	53.12265
915.55	37.08539
915.939	61.14925
916.327	19.04547
916.715	50.12485
917.103	34.0791
917.491	69.16278
917.878	50.11775
918.266	9.02257
918.654	44.10939
919.041	54.13791
919.429	54.12201
919.816	11.02699
920.203	59.13865
920.591	53.12659
920.978	47.11058
921.365	46.11711
921.752	8.01813
922.139	3.00628
922.525	13.03032
922.912	22.05157
923.299	-21.05096
923.685	-12.03024
924.072	3.0065
924.458	70.16697
924.844	27.06456
925.231	-37.08307
925.617	26.06476
926.003	33.08119
926.389	32.0779
926.774	16.03911
927.16	19.04552
927.546	61.15241
927.931	43.10255
928.317	9.01983
928.702	41.09258
929.088	80.1848
929.473	27.06704
929.858	20.04765
930.243	57.13264
930.628	68.1602
931.013	51.12172
931.398	42.09074
931.783	16.04042
932.167	63.14932
932.552	26.0627
932.937	7.01672
933.321	56.13633
933.705	-25.06074
934.09	-18.04333
934.474	15.034
934.858	51.12788
935.242	-27.06062
935.626	24.05982
936.009	29.07563
936.393	58.1441
936.777	18.04498
937.16	43.10902
937.544	12.02679
937.927	31.0765
938.311	78.18026
938.694	81.20639
939.077	37.08515
939.46	7.01624
939.843	56.10785
940.226	-8.01986
940.609	69.153
940.991	-8.01968
941.374	46.10884
941.757	31.07339
942.139	66.1418
942.522	18.0407
942.904	21.04871
943.286	26.0636
943.668	70.17625
944.05	67.15819
944.432	-3.00715
944.814	30.07043
945.196	2.00477
945.578	56.12993
945.959	12.02681
946.341	-6.01399
946.722	47.10496
947.104	50.11463
947.485	38.08488
947.866	26.06391
948.247	25.06165
948.628	-15.0348
949.009	5.01244
949.39	26.06202
949.771	1.00219
950.152	37.08756
950.532	64.15557
950.913	44.10168
951.293	34.08996
951.674	43.09991
952.054	44.10712
952.434	43.10294
952.814	4.00908
953.194	56.13913
953.574	50.11757
953.954	11.02492
954.334	29.07048
954.714	57.13395
955.093	108.25186
955.473	10.02453
955.853	17.0427
956.232	4.01067
956.611	-24.05515
956.99	45.10941
957.37	25.06115
957.749	13.0294
958.128	35.08567
958.506	68.16992
958.885	12.02921
959.264	41.09808
959.643	83.18059
960.021	70.16741
960.4	36.07801
960.778	39.09086
961.156	-5.01212
961.535	4.0089
961.913	45.10153
962.291	15.03784
962.669	2.00495
963.047	25.0621
963.424	60.14939
963.802	-17.04077
964.18	34.08147
964.557	60.13097
964.935	59.13339
965.312	37.09375
965.69	-9.02167
966.067	-23.0538
966.444	-34.08004
966.821	46.11449
967.198	-8.01857
967.575	1.00236
967.952	55.12343
968.329	29.06847
968.705	65.13324
969.082	52.13041
969.458	37.08668
969.835	31.07262
970.211	71.17694
970.587	19.04583
970.963	28.06875
971.339	10.0255
971.715	29.07003
972.091	53.12503
972.467	-8.01907
972.843	53.12799
973.219	54.12266
973.594	-29.07423
973.97	14.03119
974.345	39.09011
974.721	9.0207
975.096	52.12175
975.471	5.0114
975.846	-15.03469
976.221	52.12726
976.596	58.13558
976.971	55.13131
977.346	19.04215
977.72	1.00246
978.095	-4.01005
978.469	48.10916
978.844	56.13419
979.218	33.0774
979.593	36.08237
979.967	-15.03475
980.341	59.13028
980.715	43.10462
981.089	25.06035
981.463	35.07703
981.837	49.1165
982.21	8.01741
982.584	34.07939
982.957	45.10888
983.331	2.00449
983.704	43.10298
984.078	56.13204
984.451	26.06123
984.824	21.04972
985.197	-38.08848
985.57	20.04761
985.943	1.00234
986.316	55.12708
986.688	2.00465
987.061	31.07006
987.434	96.24267
987.806	-8.0185
988.179	34.07663
988.551	41.09965
988.923	-18.0428
989.295	55.13101
989.667	45.10488
990.039	62.14953
990.411	-2.00437
990.783	39.08461
991.155	23.05354
991.527	20.04648
991.898	42.10125
992.27	27.06513
992.641	43.10298
993.012	34.07453
993.384	21.04794
993.755	89.21816
994.126	86.19874
994.497	9.02137
994.868	31.06734
995.239	10.02332
995.61	26.06325
995.98	-6.0141
996.351	37.08891
996.722	76.16982
997.092	5.01151
997.462	15.03423
997.833	21.0474
998.203	26.05966
998.573	47.11299
998.943	72.16175
999.313	32.07422
999.683	-3.007
1000.053	-38.08284
1000.423	20.04644
1000.792	-11.02741
1001.162	-13.03082
1001.531	70.1653
1001.901	51.1213
1002.27	-17.03589
1002.639	17.04167
1003.009	43.09769
1003.378	31.07669
1003.747	33.07424
1004.116	15.03452
1004.485	46.10521
1004.853	2.00484
1005.222	-7.0168
1005.591	21.04777
1005.959	34.07371
1006.328	58.12483
1006.696	20.04624
1007.064	-43.10459
1007.433	11.02634
1007.801	15.03485
1008.169	2.00484
1008.537	38.08017
1008.905	73.16309
1009.273	35.08241
1009.64	40.09288
1010.008	49.11146
1010.375	3.0069
1010.743	-16.03451
1011.11	98.22449
1011.478	22.05294
1011.845	33.07391
1012.212	73.1589
1012.579	36.08514
1012.946	15.03393
1013.313	50.1126
1013.68	20.0428
1014.047	6.01379
1014.414	25.05661
1014.78	49.11744
1015.147	29.06647
1015.513	30.06947
1015.88	44.10736
1016.246	36.08419
1016.612	35.07586
1016.978	56.13234
1017.344	85.2006
1017.71	64.14784
1018.076	15.03362
1018.442	38.09458
1018.808	71.17152
1019.174	6.01447
1019.539	4.00845
1019.905	57.12913
1020.27	-21.05025
1020.636	40.09049
1021.001	59.1354
1021.366	20.0465
1021.731	57.14298
1022.096	46.11278
1022.461	16.03656
1022.826	34.07823
1023.191	49.12397
1023.556	1.00225
1023.92	30.07018
1024.285	18.04181
1024.649	9.02114
1025.014	3.00709
1025.378	17.0416
1025.742	-20.0478
1026.107	39.08385
1026.471	22.04892
1026.835	22.05258
1027.199	10.02328
1027.562	43.09436
1027.926	25.05841
1028.29	6.01472
1028.654	47.10261
1029.017	55.12985
1029.381	24.05535
1029.744	23.05671
1030.107	48.1085
1030.471	44.10152
1030.834	21.04495
1031.197	45.1036
1031.56	22.04955
1031.923	13.03263
1032.286	72.16062
1032.648	23.05202
1033.011	64.14201
1033.374	23.05123
1033.736	10.02556
1034.099	-7.01654
1034.461	30.07374
1034.823	44.10579
1035.185	3.00724
1035.548	50.11716
1035.91	19.04367
1036.272	30.06576
1036.634	90.20898
1036.995	28.06254
1037.357	21.0495
1037.719	51.11896
1038.08	63.14394
1038.442	22.05007
1038.803	-34.07795
1039.165	5.01215
1039.526	47.10885
1039.887	36.08247
1040.248	19.046
1040.609	9.02122
1040.97	14.03287
1041.331	60.14678
1041.692	108.24282
1042.053	17.03685
1042.413	36.07965
1042.774	33.07728
1043.134	9.02033
1043.495	18.04366
1043.855	87.20301
1044.215	42.09941
1044.576	35.08093
1044.936	49.1063
1045.296	54.12905
1045.656	23.05367
1046.016	40.09189
1046.375	70.16183
1046.735	82.17959
1047.095	25.05617
1047.454	68.13399
1047.814	22.05092
1048.173	26.05865
1048.533	11.02421
1048.892	24.05568
1049.251	10.02405
1049.61	5.01191
1049.969	7.01583
1050.328	57.11705
1050.687	-6.01402
1051.046	34.0791
1051.405	33.07809
1051.763	64.14171
1052.122	27.06473
1052.48	61.14346
1052.839	78.17753
1053.197	9.02036
1053.555	43.09113
1053.914	5.01176
1054.272	17.03861
1054.63	0
1054.988	46.10567
1055.345	59.1182
1055.703	45.10389
1056.061	50.12526
1056.419	76.19177
1056.776	21.04806
1057.134	-5.01094
1057.491	41.09871
1057.848	26.0619
1058.206	-25.05597
1058.563	-6.01267
1058.92	24.0527
1059.277	45.10641
1059.634	17.03781
1059.991	30.06916
1060.348	41.08883
1060.704	75.17439
1061.061	17.03708
1061.418	37.08624
1061.774	3.00716
1062.131	42.10899
1062.487	14.03124
1062.843	16.03846
1063.199	62.1476
1063.555	70.15571
1063.911	27.06525
1064.267	98.18747
1064.623	57.13405
1064.979	-26.05733
1065.335	38.08607
1065.691	15.03401
1066.046	32.06683
1066.402	31.06679
1066.757	47.11401
1067.112	28.06571
1067.468	72.1642
1067.823	-7.0159
1068.178	5.01158
1068.533	29.06748
1068.888	15.03426
1069.243	48.11357
1069.598	18.04178
1069.952	67.14671
1070.307	31.07427
1070.662	75.17177
1071.016	78.16809
1071.371	42.09172
1071.725	51.11525
1072.079	19.04407
1072.434	12.02824
1072.788	28.06298
1073.142	25.05925
1073.496	-18.04122
1073.85	33.07299
1074.203	36.08389
1074.557	46.11962
1074.911	26.05903
1075.265	35.07771
1075.618	56.13085
1075.971	4.00916
1076.325	58.14262
1076.678	17.03734
1077.031	-5.01064
1077.385	63.13066
1077.738	34.07302
1078.091	47.10296
1078.444	49.10689
1078.796	41.09721
1079.149	52.12422
1079.502	43.09797
1079.855	48.10699
1080.207	39.09179
1080.56	30.0754
1080.912	15.03508
1081.264	63.14539
1081.617	52.12179
1081.969	-14.03455
1082.321	37.0863
1082.673	35.07774
1083.025	50.11242
1083.377	7.01582
1083.728	26.05774
1084.08	17.04063
1084.432	40.09196
1084.783	-33.07333
1085.135	66.15905
1085.486	37.08146
1085.838	59.13951
1086.189	67.15665
1086.54	0
1086.891	76.18758
1087.242	106.24914
1087.593	19.04374
1087.944	83.17944
1088.295	29.06278
1088.646	82.19304
1088.996	50.11605
1089.347	1.00235
1089.698	52.11888
1090.048	-13.03262
1090.398	46.10092
1090.749	10.0228
1091.099	54.1321
1091.449	48.11524
1091.799	17.04105
1092.149	24.05727
1092.499	22.05167
1092.849	16.03939
1093.199	19.04547
1093.548	29.06775
1093.898	10.02406
1094.248	-18.04451
1094.597	15.03759
1094.947	23.05962
1095.296	41.09781
1095.645	38.09482
1095.994	59.13518
1096.343	61.14764
1096.692	63.16205
1097.041	51.13573
1097.39	13.03129
1097.739	-30.07605
1098.088	12.03097
1098.437	31.08005
1098.785	-4.01041
1099.134	-19.04834
1099.482	34.09107
1099.83	19.0484
1100.179	41.10535
1100.527	-22.05636
1100.875	47.12094
1101.223	38.09831
1101.571	-18.04848
1101.919	35.09056
1102.267	30.08296
1102.615	1.00321
1102.962	0
1103.31	13.0417
1103.658	-3.00962
