Data from N3 R1 sample 12_Subt2__5__15-11-33-073.txt Node

Date: Wed Sep 17 15:11:33 PDT 2025
User: uwsun
Spectrometer: HDX01956
Trigger mode: 0
Integration Time (sec): 5.000000E-1
Scans to average: 1
Nonlinearity correction enabled: true
Boxcar width: 0
Storing dark spectrum: false
XAxis mode: Wavelengths
Number of Pixels in Spectrum: 2068
>>>>>Begin Spectral Data<<<<<
194.03	13.03767
194.578	15.04868
195.127	5.01602
195.676	14.04497
196.225	56.14817
196.773	19.05294
197.321	61.16918
197.87	83.21439
198.418	96.24921
198.966	124.32753
199.513	124.31634
200.061	89.22829
200.609	129.34079
201.156	81.17984
201.704	99.2511
202.251	74.1988
202.798	71.18618
203.345	130.32297
203.892	105.26726
204.438	110.26267
204.985	107.25624
205.532	109.28805
206.078	111.2727
206.624	210.52132
207.17	141.33147
207.716	131.32254
208.262	110.22043
208.808	167.41843
209.354	137.3398
209.899	114.28837
210.445	115.2895
210.99	84.20762
211.535	150.3538
212.08	109.25505
212.625	120.30095
213.17	144.3671
213.715	130.29863
214.259	148.34582
214.804	112.27602
215.348	125.29065
215.892	165.3995
216.436	112.25718
216.98	105.23235
217.524	135.32366
218.068	154.38788
218.612	174.44013
219.155	123.29197
219.698	106.2538
220.242	90.22368
220.785	147.3449
221.328	93.23126
221.871	155.3934
222.414	98.24347
222.956	83.20006
223.499	84.18886
224.041	67.15474
224.583	62.13241
225.126	91.20095
225.668	119.2891
226.21	115.29147
226.751	132.29386
227.293	98.22251
227.835	101.24841
228.376	52.11974
228.918	93.23227
229.459	131.32599
230	133.31875
230.541	116.26679
231.082	112.27307
231.622	53.12134
232.163	94.22747
232.704	143.35636
233.244	105.26091
233.784	108.26174
234.324	150.336
234.864	107.2421
235.404	86.2034
235.944	95.22438
236.484	152.37666
237.023	86.20371
237.563	129.29936
238.102	144.33859
238.641	64.16207
239.18	59.14011
239.719	87.2187
240.258	145.3238
240.797	151.3583
241.335	74.18109
241.874	162.31321
242.412	147.35538
242.95	105.25452
243.488	16.03664
244.026	86.20151
244.564	140.28717
245.102	126.2855
245.64	96.22977
246.177	114.25326
246.715	136.3255
247.252	81.18499
247.789	126.23345
248.326	98.23715
248.863	105.23205
249.4	132.29836
249.936	172.35711
250.473	180.42092
251.009	129.29461
251.546	150.33351
252.082	77.16768
252.618	146.32502
253.154	131.31455
253.69	101.22732
254.226	153.36402
254.761	64.14531
255.297	130.28328
255.832	112.26684
256.367	137.32069
256.903	186.40857
257.438	151.35152
257.972	80.17965
258.507	66.15295
259.042	120.26127
259.576	169.37115
260.111	96.22132
260.645	144.30965
261.179	138.32233
261.713	145.3234
262.247	110.25147
262.781	136.28628
263.315	87.212
263.849	158.39267
264.382	136.31129
264.915	149.35096
265.449	98.24009
265.982	132.29921
266.515	143.34923
267.048	150.31644
267.58	123.26512
268.113	119.25771
268.646	103.25248
269.178	94.21126
269.71	166.36449
270.243	151.34833
270.775	149.38045
271.307	99.236
271.838	130.30615
272.37	139.33908
272.902	128.28944
273.433	173.38025
273.965	143.34571
274.496	152.37404
275.027	148.36661
275.558	163.39495
276.089	129.32194
276.62	73.18528
277.15	89.21986
277.681	63.13731
278.211	137.33271
278.741	154.34041
279.272	164.37265
279.802	120.29823
280.332	131.30904
280.861	102.2446
281.391	128.29086
281.921	115.27498
282.45	128.31661
282.98	117.30482
283.509	171.38612
284.038	151.34416
284.567	164.37929
285.096	148.3576
285.625	93.2106
286.153	140.33405
286.682	140.32121
287.21	84.20136
287.739	107.2537
288.267	135.32834
288.795	103.26954
289.323	147.34423
289.851	172.40158
290.378	77.17344
290.906	140.34197
291.433	141.35036
291.961	164.37265
292.488	153.37726
293.015	160.37592
293.542	166.42408
294.069	179.43974
294.596	111.27179
295.122	178.42342
295.649	194.41897
296.175	143.34297
296.702	206.49697
297.228	164.39192
297.754	170.37986
298.28	191.43515
298.806	158.37888
299.332	165.3677
299.857	188.4232
300.383	139.34866
300.908	176.42957
301.433	193.46817
301.958	168.38267
302.483	146.3606
303.008	193.47501
303.533	133.34246
304.058	140.32585
304.582	139.32842
305.107	164.42397
305.631	184.41335
306.155	189.43615
306.679	189.44049
307.203	204.46786
307.727	151.35705
308.251	193.47115
308.775	225.53921
309.298	154.37041
309.822	152.38037
310.345	233.54752
310.868	188.44961
311.391	222.5382
311.914	209.51685
312.437	203.45893
312.96	192.44828
313.482	155.36324
314.005	158.39253
314.527	154.39853
315.049	203.50789
315.571	169.37942
316.093	245.59518
316.615	181.43097
317.137	205.44225
317.659	240.57066
318.18	187.44166
318.702	207.47997
319.223	174.35352
319.744	215.47832
320.265	231.55422
320.786	231.56852
321.307	182.44637
321.828	250.5533
322.348	239.55306
322.869	217.51092
323.389	550.98465
323.909	217.48958
324.43	184.43668
324.95	229.51686
325.47	309.74414
325.989	271.62884
326.509	280.61271
327.029	300.66672
327.548	269.59646
328.067	256.60987
328.587	268.65823
329.106	221.49188
329.625	288.7305
330.144	314.70883
330.662	323.73524
331.181	303.69585
331.7	242.55344
332.218	264.56206
332.736	324.73498
333.255	318.72693
333.773	278.64164
334.291	305.74257
334.808	335.73041
335.326	312.6807
335.844	328.74828
336.361	334.83359
336.879	317.72537
337.396	368.86282
337.913	318.71405
338.43	311.6824
338.947	385.882
339.464	361.74967
339.981	302.69786
340.497	339.80616
341.014	314.74428
341.53	327.71539
342.046	398.95278
342.562	378.90492
343.078	387.8734
343.594	374.85457
344.11	457.03348
344.626	410.98934
345.141	371.81677
345.657	419.90307
346.172	370.8597
346.687	403.88349
347.202	404.88288
347.717	420.95462
348.232	411.97807
348.747	451.98661
349.261	495.01692
349.776	486.08557
350.29	454.07632
350.805	461.07548
351.319	465.01825
351.833	482.04289
352.347	405.91513
352.861	485.06928
353.374	446.96063
353.888	498.14258
354.401	439.9482
354.915	427.91952
355.428	489.14583
355.941	497.08388
356.454	464.97364
356.967	466.02367
357.48	433.93244
357.993	443.0322
358.505	472.08067
359.018	561.27319
359.53	531.20843
360.042	529.10156
360.554	576.30279
361.066	512.16396
361.578	560.14269
362.09	543.19936
362.602	560.15355
363.113	564.2279
363.625	603.25369
364.136	553.12199
364.647	558.22561
365.158	586.25426
365.669	535.18807
366.18	580.2569
366.691	594.19077
367.201	567.25558
367.712	656.3601
368.222	674.40058
368.733	634.25059
369.243	625.27294
369.753	618.30004
370.263	667.45949
370.773	601.34201
371.282	712.52494
371.792	670.40277
372.301	682.48576
372.811	742.74571
373.32	750.43411
373.829	716.5091
374.338	706.40133
374.847	787.59756
375.356	745.56032
375.865	850.57007
376.373	836.65126
376.882	909.98767
377.39	911.88647
377.898	903.91146
378.407	979.86603
378.915	1011.83422
379.423	1050.01801
379.93	1122.11967
380.438	1062.11139
380.946	1189.21118
381.453	1244.36789
381.96	1285.40791
382.468	1345.43714
382.975	1461.70545
383.482	1450.40633
383.989	1516.93963
384.495	1658.74381
385.002	1667.39482
385.509	1815.96292
386.015	1838.41853
386.521	1966.87809
387.028	2089.93826
387.534	2093.69185
388.04	2225.26986
388.546	2205.8652
389.051	2362.90258
389.557	2505.17201
390.063	2681.07433
390.568	2850.42657
391.073	2899.98879
391.578	2990.52275
392.084	3232.08075
392.589	3313.77359
393.093	3376.35054
393.598	3810.95927
394.103	4128.05086
394.607	4628.87969
395.112	4928.87005
395.616	5265.59383
396.12	5702.95838
396.624	6238.96057
397.128	6809.99388
397.632	7569.00269
398.136	8145.31163
398.639	8634.93661
399.143	9447.41647
399.646	10745.20408
400.15	11953.83973
400.653	13242.18132
401.156	15024.42867
401.659	17270.31416
402.162	21144.59592
402.664	27732.74383
403.167	38767.85244
403.67	60538.55244
404.172	63919.58413
404.674	63858.43483
405.176	63738.15102
405.678	63977.72923
406.18	64011.81569
406.682	63863.44694
407.184	63926.60148
407.686	63841.39382
408.187	64025.8516
408.688	63892.51763
409.19	51759.84067
409.691	41243.82787
410.192	34729.50833
410.693	30154.60525
411.194	27112.9599
411.694	25559.11056
412.195	23787.69725
412.696	21624.18828
413.196	20037.45357
413.696	19334.34059
414.196	19362.82657
414.696	19098.28451
415.196	18267.83409
415.696	16606.31621
416.196	13618.71916
416.695	10562.55912
417.195	8900.36961
417.694	8570.61223
418.194	7977.89257
418.693	7478.82434
419.192	7204.88831
419.691	7090.79394
420.19	6855.97292
420.688	6832.09521
421.187	6386.12785
421.685	5983.94668
422.184	5412.30959
422.682	4797.10283
423.18	4038.85213
423.678	3587.98918
424.176	3279.0591
424.674	3117.93878
425.172	2996.2566
425.669	2781.48821
426.167	2568.14825
426.664	2345.97946
427.161	2239.00101
427.659	2031.13489
428.156	1909.53655
428.652	1756.08214
429.149	1724.90055
429.646	1673.54619
430.143	1581.7161
430.639	1536.63066
431.135	1326.562
431.632	1356.32563
432.128	1284.3843
432.624	1199.47829
433.12	1183.11554
433.616	1151.97942
434.111	1021.99225
434.607	1016.00108
435.103	990.67952
435.598	1040.72766
436.093	934.81582
436.588	947.76486
437.083	868.64014
437.578	901.75366
438.073	774.69203
438.568	827.75355
439.062	684.28246
439.557	670.38669
440.051	660.31111
440.546	688.37381
441.04	645.3816
441.534	631.42645
442.028	609.31843
442.522	638.36688
443.015	567.09176
443.509	611.33458
444.002	565.25374
444.496	592.14683
444.989	515.14359
445.482	556.25086
445.975	573.1944
446.468	565.09938
446.961	538.05694
447.454	515.05142
447.947	563.21612
448.439	537.20041
448.931	537.11875
449.424	557.28961
449.916	530.17914
450.408	486.01882
450.9	499.11121
451.392	444.04731
451.884	462.97971
452.375	401.93042
452.867	478.9862
453.358	474.99901
453.849	467.91656
454.341	417.87638
454.832	421.84383
455.323	458.05528
455.814	411.87595
456.304	407.87872
456.795	435.92065
457.285	367.75873
457.776	375.80201
458.266	423.93396
458.756	360.80103
459.247	382.85737
459.737	417.94071
460.226	465.97552
460.716	377.84633
461.206	394.88176
461.695	373.86684
462.185	365.81535
462.674	358.77013
463.163	394.82495
463.653	395.78293
464.142	371.84516
464.63	347.79369
465.119	296.65619
465.608	358.78965
466.096	267.55497
466.585	346.74463
467.073	267.6036
467.561	308.70237
468.05	258.57005
468.538	331.76531
469.026	306.68964
469.513	271.54645
470.001	255.5626
470.489	306.69162
470.976	314.69638
471.463	301.71361
471.951	278.66049
472.438	273.61314
472.925	295.66146
473.412	271.62909
473.899	243.53613
474.385	279.65278
474.872	236.53016
475.359	254.6
475.845	222.44383
476.331	210.4327
476.817	229.5377
477.303	255.56872
477.789	228.52373
478.275	222.53233
478.761	216.49577
479.247	244.52287
479.732	216.52149
480.218	248.62572
480.703	165.39694
481.188	200.42007
481.673	182.40751
482.158	269.55564
482.643	219.54118
483.128	183.41574
483.612	236.54211
484.097	183.42936
484.581	209.46826
485.066	245.57751
485.55	217.46411
486.034	168.35582
486.518	213.49388
487.002	186.43972
487.486	147.34961
487.969	167.39611
488.453	135.32982
488.936	173.37993
489.42	185.39825
489.903	150.36544
490.386	96.19692
490.869	229.48384
491.352	137.32357
491.835	151.30266
492.318	187.40861
492.8	198.39769
493.283	214.52892
493.765	175.41828
494.247	222.49891
494.73	232.49458
495.212	202.46402
495.694	256.57909
496.175	234.54225
496.657	236.5382
497.139	210.34688
497.62	266.61297
498.102	294.69796
498.583	271.63655
499.064	260.55499
499.545	340.72952
500.026	403.84696
500.507	350.75713
500.988	432.0004
501.469	378.88314
501.949	460.04513
502.43	466.03139
502.91	548.03815
503.39	497.12547
503.87	642.34052
504.35	659.35325
504.83	723.35605
505.31	730.52652
505.79	744.5167
506.269	830.60341
506.749	928.74262
507.228	1077.02207
507.707	1259.11094
508.187	1243.28348
508.666	1384.5744
509.145	1488.4954
509.623	1621.62735
510.102	1777.8907
510.581	1956.01819
511.059	2166.36324
511.538	2353.60052
512.016	2570.27009
512.494	2740.3159
512.972	3024.3118
513.45	3230.12652
513.928	3533.33913
514.406	3802.3202
514.884	4116.59979
515.361	4274.93019
515.839	4652.45033
516.316	4998.65664
516.793	5174.8634
517.27	5483.30149
517.747	5622.76225
518.224	5798.84014
518.701	5874.54081
519.178	6148.30685
519.654	6310.84453
520.131	6298.1726
520.607	6240.08491
521.083	6195.58837
521.56	6143.86337
522.036	6029.39814
522.512	5954.28199
522.987	5857.13897
523.463	5638.11764
523.939	5589.50312
524.414	5201.09234
524.89	4984.52359
525.365	4794.232
525.84	4500.85071
526.315	4376.97532
526.79	4234.53288
527.265	4078.77973
527.74	3864.22087
528.215	3646.01798
528.689	3453.68892
529.164	3301.6082
529.638	3173.68979
530.112	3024.20201
530.587	2947.67664
531.061	2743.3667
531.534	2601.31249
532.008	2547.3531
532.482	2379.00179
532.956	2297.51705
533.429	2219.25501
533.903	2091.67841
534.376	2011.67898
534.849	1918.78798
535.322	1838.8408
535.795	1711.82997
536.268	1779.90196
536.741	1607.66815
537.213	1585.53286
537.686	1527.70034
538.158	1481.40263
538.631	1397.51773
539.103	1341.23829
539.575	1284.92752
540.047	1273.0653
540.519	1249.29454
540.991	1147.21596
541.463	1075.07654
541.934	1037.87389
542.406	1036.01865
542.877	990.80831
543.348	977.94317
543.82	958.92873
544.291	952.82895
544.762	890.77611
545.233	858.85682
545.703	845.57443
546.174	827.62392
546.645	813.68339
547.115	789.63801
547.585	730.4524
548.056	776.65213
548.526	713.4781
548.996	686.44074
549.466	703.49885
549.935	671.41446
550.405	663.27391
550.875	660.38485
551.344	645.36316
551.814	616.2543
552.283	641.22979
552.752	672.38712
553.221	602.18181
553.69	691.36417
554.159	611.36661
554.628	581.18051
555.096	587.3511
555.565	540.07635
556.033	594.27195
556.502	527.15815
556.97	521.05069
557.438	526.12226
557.906	497.07289
558.374	521.09883
558.842	496.08878
559.31	538.08777
559.777	479.07849
560.245	496.03845
560.712	513.06819
561.18	534.06733
561.647	460.93798
562.114	503.05104
562.581	511.15066
563.048	521.08343
563.514	599.35459
563.981	571.1744
564.448	568.15221
564.914	502.06355
565.381	602.22686
565.847	577.20648
566.313	576.19933
566.779	580.16749
567.245	594.22919
567.711	628.33848
568.176	615.22413
568.642	619.39816
569.108	664.44651
569.573	674.36884
570.038	687.24156
570.504	716.40336
570.969	712.54855
571.434	823.5417
571.899	760.55636
572.363	819.59384
572.828	811.58573
573.293	822.59703
573.757	825.62608
574.222	864.61984
574.686	923.75913
575.15	935.87506
575.614	963.87627
576.078	890.74985
576.542	914.72638
577.006	930.73269
577.469	943.93454
577.933	975.81535
578.396	865.73055
578.86	949.84634
579.323	896.81535
579.786	990.73113
580.249	980.89726
580.712	826.71604
581.175	871.82043
581.637	851.63345
582.1	876.58435
582.563	829.47289
583.025	845.75048
583.487	812.39829
583.95	712.31602
584.412	783.39026
584.874	751.59229
585.336	732.51044
585.797	780.44268
586.259	695.42342
586.721	660.36658
587.182	669.35528
587.643	686.36284
588.105	616.29753
588.566	583.07903
589.027	638.39274
589.488	594.21877
589.949	656.41275
590.41	564.99361
590.87	585.19946
591.331	595.15732
591.791	520.09503
592.252	524.10976
592.712	472.04078
593.172	530.09263
593.632	511.03238
594.092	447.91955
594.552	490.96874
595.011	369.79464
595.471	464.96892
595.931	489.00909
596.39	386.87026
596.849	391.85285
597.308	320.64599
597.768	430.03458
598.227	374.84562
598.685	323.69888
599.144	355.7904
599.603	315.70077
600.062	322.64286
600.52	374.79347
600.978	333.74603
601.437	346.74303
601.895	331.67111
602.353	262.55295
602.811	316.67774
603.269	314.71085
603.727	245.56785
604.184	283.61757
604.642	311.72878
605.099	315.70019
605.557	297.68998
606.014	253.52446
606.471	291.69921
606.928	323.68124
607.385	307.73429
607.842	303.66233
608.299	270.60578
608.755	291.67418
609.212	259.55562
609.668	361.76639
610.125	293.67477
610.581	307.68525
611.037	244.52694
611.493	276.61695
611.949	255.5985
612.405	291.56438
612.861	246.5449
613.316	283.64889
613.772	295.6443
614.227	315.72022
614.683	273.55301
615.138	266.59852
615.593	328.72076
616.048	264.5794
616.503	252.58881
616.958	286.68551
617.412	277.62978
617.867	264.56646
618.321	286.56144
618.776	231.49085
619.23	246.55466
619.684	240.51541
620.138	250.54961
620.592	225.52769
621.046	270.61125
621.5	219.51
621.954	191.41045
622.407	261.55241
622.861	246.57479
623.314	252.54725
623.768	291.65517
624.221	230.43488
624.674	233.5188
625.127	231.51775
625.58	244.52604
626.033	258.53949
626.485	180.41943
626.938	205.47326
627.39	252.56563
627.843	211.47059
628.295	195.43635
628.747	218.50257
629.199	220.48345
629.651	205.45513
630.103	237.52289
630.555	166.34096
631.006	174.39409
631.458	169.38783
631.909	190.41279
632.361	142.3211
632.812	173.39016
633.263	183.3858
633.714	144.29845
634.165	156.36552
634.616	140.32443
635.067	176.37683
635.518	141.32759
635.968	149.2858
636.419	189.40038
636.869	160.3699
637.319	164.3713
637.769	154.33842
638.219	148.34161
638.669	103.24167
639.119	100.23623
639.569	130.30615
640.019	163.3673
640.468	133.29258
640.918	116.27073
641.367	157.34306
641.816	125.27302
642.265	126.28898
642.714	114.25747
643.163	140.31722
643.612	150.35983
644.061	128.26896
644.51	109.24653
644.958	122.26506
645.406	130.30508
645.855	82.19724
646.303	180.4042
646.751	153.34618
647.199	148.32811
647.647	163.36926
648.095	102.22961
648.543	190.37281
648.99	143.33657
649.438	108.24621
649.885	165.40145
650.333	176.33147
650.78	122.28999
651.227	125.30072
651.674	119.26728
652.121	129.31093
652.568	168.40132
653.015	95.23218
653.461	111.26003
653.908	105.23777
654.354	143.33329
654.801	133.30595
655.247	135.28636
655.693	110.28181
656.139	105.24703
656.585	116.27254
657.031	79.18413
657.477	130.27883
657.922	75.16908
658.368	94.22816
658.813	123.27456
659.259	100.23934
659.704	148.34324
660.149	89.20293
660.594	123.28679
661.039	102.22933
661.484	173.39844
661.929	117.26882
662.373	99.2451
662.818	78.19102
663.262	109.25964
663.707	112.28048
664.151	122.29211
664.595	55.13237
665.039	110.26869
665.483	91.22867
665.927	57.13301
666.371	116.2685
666.814	106.24798
667.258	160.37606
667.701	140.29171
668.145	121.29572
668.588	128.31114
669.031	48.11247
669.474	43.10282
669.917	103.2223
670.36	83.20489
670.803	146.34476
671.245	58.118
671.688	105.25155
672.13	52.11715
672.573	78.19484
673.015	107.25399
673.457	79.17021
673.899	144.3403
674.341	102.24199
674.783	102.24077
675.225	121.29231
675.666	114.27431
676.108	47.10122
676.549	64.14784
676.991	63.13725
677.432	80.15705
677.873	42.09552
678.314	108.25266
678.755	155.3726
679.196	66.14955
679.637	73.17282
680.078	101.23215
680.518	120.26991
680.959	73.17188
681.399	84.20518
681.839	66.15863
682.28	102.24943
682.72	63.14278
683.16	85.20929
683.6	136.30201
684.039	36.07411
684.479	93.22628
684.919	109.25194
685.358	28.06944
685.798	61.15724
686.237	42.09957
686.676	27.06092
687.115	127.29261
687.554	96.22608
687.993	105.22798
688.432	116.2592
688.871	89.20105
689.309	94.22189
689.748	90.18419
690.186	51.11826
690.625	95.2195
691.063	58.13702
691.501	117.28339
691.939	114.28146
692.377	81.19354
692.815	111.26623
693.253	74.17373
693.69	31.06757
694.128	100.23843
694.565	85.19819
695.003	87.21894
695.44	90.20972
695.877	73.16954
696.314	39.08153
696.751	91.20254
697.188	103.23419
697.625	71.15659
698.061	44.10447
698.498	73.17001
698.934	44.10423
699.371	44.10269
699.807	65.15144
700.243	61.14542
700.679	98.214
701.115	71.1632
701.551	56.12854
701.987	31.06722
702.422	66.15549
702.858	85.19936
703.294	94.21152
703.729	26.06282
704.164	41.09695
704.599	57.12582
705.035	77.16996
705.47	29.0699
705.904	82.18656
706.339	75.16935
706.774	90.20675
707.209	97.22126
707.643	40.09479
708.078	61.14631
708.512	9.02248
708.946	64.14931
709.38	63.14759
709.814	26.05841
710.248	75.1805
710.682	57.1352
711.116	80.19162
711.549	21.05321
711.983	51.11634
712.416	109.25275
712.85	27.06628
713.283	53.12348
713.716	45.11015
714.149	6.01383
714.582	98.21527
715.015	18.0438
715.448	91.22464
715.881	123.25612
716.313	50.11523
716.746	76.17668
717.178	24.05725
717.61	53.13299
718.043	29.07088
718.475	81.1928
718.907	98.23902
719.339	26.05846
719.77	81.19035
720.202	14.03478
720.634	78.18797
721.065	29.06762
721.497	50.12068
721.928	29.07011
722.359	14.03387
722.79	50.11803
723.221	7.01725
723.652	47.11768
724.083	17.0379
724.514	82.18437
724.945	40.0924
725.375	50.11523
725.806	43.10443
726.236	71.17797
726.666	36.08376
727.096	53.12751
727.526	34.08662
727.956	97.21635
728.386	34.08225
728.816	80.20078
729.246	85.20542
729.675	22.05306
730.105	24.05799
730.534	17.0392
730.964	46.11286
731.393	61.14653
731.822	73.18285
732.251	52.1298
732.68	60.13606
733.109	43.10451
733.537	71.17036
733.966	29.07159
734.395	65.14731
734.823	25.05451
735.251	47.11101
735.68	64.15452
736.108	42.10324
736.536	28.06463
736.964	39.08893
737.392	59.14457
737.82	38.08921
738.247	90.20873
738.675	41.09462
739.102	32.07866
739.53	53.13414
739.957	88.22268
740.384	51.12036
740.811	12.02949
741.238	47.11346
741.665	91.20875
742.092	-23.05255
742.519	45.10998
742.945	82.19491
743.372	78.1896
743.798	41.10321
744.225	-7.01642
744.651	37.09103
745.077	39.09564
745.503	17.04048
745.929	90.21269
746.355	42.10026
746.781	7.01699
747.207	44.10285
747.632	85.20635
748.058	102.25045
748.483	62.1394
748.908	26.06391
749.334	64.15464
749.759	85.19772
750.184	77.18151
750.609	82.19574
751.033	92.20829
751.458	33.07223
751.883	34.08222
752.307	39.09022
752.732	50.1258
753.156	54.13023
753.58	43.09935
754.005	17.04204
754.429	123.28238
754.853	78.18982
755.277	51.11887
755.7	52.12655
756.124	38.09293
756.548	50.11569
756.971	92.21826
757.394	21.05288
757.818	48.12164
758.241	78.19364
758.664	36.08941
759.087	54.11942
759.51	30.07271
759.933	28.06679
760.356	76.19184
760.778	42.10133
761.201	93.21795
761.623	14.03278
762.046	30.06872
762.468	95.22037
762.89	22.05276
763.312	90.21442
763.734	49.11582
764.156	41.09938
764.578	9.02019
765	42.10037
765.421	31.07796
765.843	30.07721
766.264	30.06961
766.686	-3.00735
767.107	67.15837
767.528	81.20325
767.949	63.15609
768.37	89.21484
768.791	46.10774
769.212	3.00748
769.632	58.13292
770.053	26.06677
770.473	17.04026
770.894	17.04105
771.314	82.18731
771.734	57.1295
772.154	46.11478
772.575	32.07212
772.994	34.07528
773.414	92.21134
773.834	17.0416
774.254	34.08122
774.673	65.15525
775.093	52.12674
775.512	41.09924
775.931	97.23866
776.351	76.18467
776.77	49.11779
777.189	47.10907
777.607	48.11986
778.026	50.12172
778.445	14.03504
778.864	34.08425
779.282	-5.01173
779.701	41.10054
780.119	29.07217
780.537	5.01224
780.955	46.11341
781.373	33.07972
781.791	93.20442
782.209	16.03528
782.627	37.09551
783.045	20.04445
783.462	23.05761
783.88	17.0433
784.297	46.11303
784.715	39.09853
785.132	9.02124
785.549	51.12414
785.966	51.12511
786.383	72.17299
786.8	98.21889
787.217	94.2174
787.633	97.23663
788.05	24.0544
788.466	55.12399
788.883	70.17524
789.299	-31.07265
789.715	99.2331
790.131	12.02927
790.547	60.14519
790.963	49.11811
791.379	18.04462
791.795	38.08326
792.21	33.07458
792.626	2.00461
793.041	63.15041
793.457	48.11449
793.872	45.10174
794.287	78.18312
794.702	5.01186
795.117	55.13352
795.532	63.15466
795.947	36.08293
796.362	-35.08051
796.776	56.1241
797.191	40.09552
797.605	28.06499
798.02	33.07806
798.434	94.2004
798.848	98.2359
799.262	8.01944
799.676	69.16265
800.09	63.14989
800.504	74.1723
800.918	-7.01571
801.331	-16.04024
801.745	39.08626
802.158	14.03385
802.572	64.14996
802.985	31.07205
803.398	42.09675
803.811	10.02457
804.224	58.13771
804.637	55.12738
805.05	27.06022
805.462	14.03333
805.875	35.08877
806.288	24.05681
806.7	27.06533
807.112	4.00895
807.525	25.05898
807.937	40.09632
808.349	13.03152
808.761	51.12204
809.173	53.12489
809.584	43.10235
809.996	7.01671
810.408	50.12688
810.819	28.06406
811.231	81.20995
811.642	77.18496
812.053	86.20222
812.464	-8.01852
812.875	62.15426
813.286	61.15362
813.697	38.08354
814.108	54.12673
814.519	95.20415
814.929	44.10844
815.34	-27.06352
815.75	50.12436
816.16	-22.05302
816.571	44.11051
816.981	37.08338
817.391	11.02558
817.801	37.08959
818.211	65.14863
818.62	13.03065
819.03	42.0993
819.44	-7.01757
819.849	23.05569
820.259	26.06393
820.668	37.08864
821.077	38.09248
821.486	6.01387
821.895	41.09642
822.304	64.16368
822.713	46.10444
823.122	39.09404
823.531	12.02719
823.939	80.18811
824.348	23.05386
824.756	38.09161
825.164	48.11611
825.573	35.08522
825.981	58.13776
826.389	40.09705
826.797	73.17941
827.205	37.08269
827.612	67.15806
828.02	-7.01592
828.428	14.03466
828.835	72.1844
829.243	30.06858
829.65	29.07056
830.057	40.09325
830.464	78.18491
830.871	99.22728
831.278	16.03756
831.685	51.10865
832.092	12.02823
832.499	35.07415
832.905	52.12617
833.312	-19.04136
833.718	94.22601
834.124	67.14708
834.531	59.14178
834.937	49.12207
835.343	51.11737
835.749	22.04888
836.155	47.11921
836.561	44.10467
836.966	6.0142
837.372	15.03691
837.777	34.08234
838.183	65.13722
838.588	64.15406
838.993	63.14753
839.399	4.00956
839.804	-3.00714
840.209	33.08251
840.613	1.00215
841.018	25.06103
841.423	47.1167
841.828	63.15437
842.232	42.09853
842.637	66.15113
843.041	5.01256
843.445	-5.01212
843.849	53.12707
844.253	23.05266
844.657	-3.00742
845.061	100.21976
845.465	50.11638
845.869	57.12703
846.272	33.07815
846.676	0
847.079	9.02247
847.483	33.07936
847.886	34.07904
848.289	42.11027
848.692	14.03418
849.095	57.13086
849.498	47.11311
849.901	53.11542
850.304	37.08512
850.707	6.01483
851.109	33.08029
851.512	4.00958
851.914	-7.01735
852.316	67.16503
852.718	62.15873
853.121	71.16704
853.523	31.06931
853.925	47.12001
854.326	36.08771
854.728	25.06264
855.13	43.10852
855.531	27.06253
855.933	6.01382
856.334	66.15965
856.736	62.13424
857.137	84.18816
857.538	62.15128
857.939	46.11136
858.34	29.06748
858.741	54.13582
859.142	0
859.542	59.15155
859.943	-3.00725
860.343	16.03873
860.744	30.07068
861.144	10.0239
861.544	33.07776
861.945	24.05921
862.345	36.08448
862.745	64.15412
863.145	4.00908
863.544	20.0492
863.944	45.10215
864.344	-17.0406
864.743	80.18965
865.143	85.21152
865.542	-10.02221
865.941	34.08166
866.34	34.07738
866.74	31.08093
867.139	52.12151
867.537	-16.03933
867.936	64.14843
868.335	23.05657
868.734	43.10642
869.132	-18.04012
869.531	46.10559
869.929	22.04863
870.327	19.04404
870.726	40.09512
871.124	76.16793
871.522	3.00741
871.92	46.1093
872.318	26.06092
872.715	19.04479
873.113	1.00235
873.511	1.00241
873.908	36.08947
874.306	13.03165
874.703	7.01682
875.1	36.08764
875.497	63.14406
875.894	12.02908
876.291	32.07601
876.688	30.07508
877.085	73.16612
877.482	41.09894
877.878	58.13601
878.275	3.00744
878.671	28.05785
879.068	59.13648
879.464	29.06759
879.86	29.0661
880.256	39.09115
880.652	26.06401
881.048	8.019
881.444	26.05872
881.84	13.03201
882.236	60.14481
882.631	39.09283
883.027	46.10656
883.422	-19.04711
883.817	36.08817
884.213	64.15807
884.608	58.13993
885.003	39.08968
885.398	5.01217
885.793	36.08682
886.188	2.00482
886.582	37.09077
886.977	-4.00914
887.371	44.10648
887.766	23.05573
888.16	-12.02862
888.554	30.07104
888.949	40.0968
889.343	28.06561
889.737	12.03146
890.131	51.12321
890.525	59.14634
890.918	5.01221
891.312	35.07968
891.706	30.07608
892.099	18.04423
892.492	93.18804
892.886	-11.0261
893.279	-18.04462
893.672	36.08924
894.065	48.11589
894.458	2.00483
894.851	53.12372
895.244	-34.08493
895.637	41.09537
896.029	54.12772
896.422	4.00935
896.814	11.0264
897.206	54.12524
897.599	55.13046
897.991	65.15162
898.383	15.03433
898.775	62.13533
899.167	40.09111
899.559	18.04371
899.951	45.10074
900.342	2.00489
900.734	68.1661
901.125	-11.02795
901.517	49.11591
901.908	26.0591
902.299	22.05217
902.69	48.10978
903.082	50.11628
903.473	35.08212
903.863	4.00985
904.254	55.12384
904.645	8.01902
905.036	4.0096
905.426	22.04765
905.817	32.07516
906.207	-31.07114
906.597	55.1246
906.987	1.0025
907.378	25.06156
907.768	38.09763
908.158	25.05868
908.547	79.19887
908.937	12.02948
909.327	56.13008
909.717	14.03384
910.106	-8.01855
910.495	17.04056
910.885	40.09803
911.274	59.14135
911.663	15.03652
912.052	13.03065
912.441	24.05958
912.83	17.03729
913.219	38.09575
913.608	64.1509
913.997	23.05638
914.385	85.19342
914.774	64.14884
915.162	45.1043
915.55	8.01857
915.939	6.01483
916.327	27.06451
916.715	67.16679
917.103	34.0791
917.491	56.13245
917.878	5.01188
918.266	46.11458
918.654	58.14383
919.041	30.07694
919.429	42.09513
919.816	6.01474
920.203	51.12004
920.591	28.0672
920.978	39.0919
921.365	33.0842
921.752	-15.03415
922.139	55.11376
922.525	12.028
922.912	2.00471
923.299	32.07688
923.685	-9.02266
924.072	29.06251
924.458	49.11735
924.844	27.06456
925.231	37.08181
925.617	35.08703
926.003	30.07385
926.389	30.07306
926.774	52.12626
927.16	34.08122
927.546	83.20654
927.931	30.07172
928.317	19.04178
928.702	32.07239
929.088	80.1848
929.473	77.18945
929.858	27.06424
930.243	76.17619
930.628	56.13224
931.013	32.07665
931.398	30.06498
931.783	6.01518
932.167	52.12351
932.552	11.0266
932.937	34.08079
933.321	38.09282
933.705	-50.12204
934.09	61.14463
934.474	15.034
934.858	28.0705
935.242	-25.05611
935.626	48.11912
936.009	20.05224
936.393	53.13179
936.777	33.08224
937.16	58.14666
937.544	20.04458
937.927	72.17633
938.311	38.08852
938.694	63.16104
939.077	33.076
939.46	51.11727
939.843	29.05622
940.226	11.02721
940.609	69.153
940.991	-2.00491
941.374	13.03095
941.757	41.09688
942.139	69.14815
942.522	73.16322
942.904	34.07867
943.286	50.12177
943.668	77.19363
944.05	59.13951
944.432	9.02141
944.814	27.06343
945.196	14.0333
945.578	65.15054
945.959	23.05128
946.341	0
946.722	-6.01355
947.104	24.05531
947.485	67.14875
947.866	49.11994
948.247	51.12516
948.628	-19.04411
949.009	30.07429
949.39	22.05252
949.771	-31.06831
950.152	53.12503
950.532	58.14115
950.913	7.0163
951.293	56.14762
951.674	42.0976
952.054	98.23617
952.434	35.08391
952.814	35.07897
953.194	55.13667
953.574	45.10591
953.954	6.01361
954.334	74.17833
954.714	20.04734
955.093	32.07574
955.473	40.09756
955.853	49.12238
956.232	8.02133
956.611	27.06142
956.99	66.15983
957.37	15.03676
957.749	-26.05927
958.128	43.10509
958.506	23.05794
958.885	27.06555
959.264	36.0862
959.643	95.20618
960.021	52.12479
960.4	46.09947
960.778	34.07929
961.156	-17.0413
961.535	14.03108
961.913	48.10823
962.291	41.10296
962.669	44.10804
963.047	39.09663
963.424	93.23016
963.802	38.09019
964.18	6.01445
964.557	90.1952
964.935	79.17788
965.312	38.09626
965.69	38.09067
966.067	42.09698
966.444	9.02101
966.821	14.03505
967.198	44.10108
967.575	40.0938
967.952	63.14115
968.329	59.13849
968.705	61.12515
969.082	45.113
969.458	40.09365
969.835	56.13055
970.211	24.06032
970.587	41.09849
970.963	16.03937
971.339	39.09895
971.715	55.13217
972.091	55.1297
972.467	-19.04538
972.843	96.22994
973.219	48.10916
973.594	8.02034
973.97	-5.01118
974.345	54.1244
974.721	46.10504
975.096	34.07988
975.471	29.0658
975.846	50.11412
976.221	11.02712
976.596	90.20906
976.971	64.15254
977.346	12.02666
977.72	-19.0469
978.095	11.02755
978.469	29.0662
978.844	73.17435
979.218	34.07973
979.593	31.071
979.967	-15.03475
980.341	42.09307
980.715	30.07317
981.089	35.08433
981.463	37.0814
981.837	57.13531
982.21	-7.01528
982.584	35.0817
982.957	35.08484
983.331	16.03583
983.704	99.23455
984.078	1.00238
984.451	55.1288
984.824	57.134
985.197	6.01385
985.57	-4.00957
985.943	34.07917
986.316	21.04885
986.688	32.07401
987.061	69.15472
987.434	86.21778
987.806	-14.03242
988.179	-24.05474
988.551	24.05852
988.923	25.05896
989.295	38.09081
989.667	77.17833
990.039	84.20174
990.411	-4.00874
990.783	20.04356
991.155	24.05586
991.527	45.10406
991.898	55.13227
992.27	31.07472
992.641	33.07918
993.012	5.01103
993.384	21.04794
993.755	25.06201
994.126	62.14396
994.497	19.04503
994.868	-15.0329
995.239	13.0303
995.61	39.09464
995.98	-4.00939
996.351	19.04581
996.722	70.15661
997.092	38.08687
997.462	25.05694
997.833	39.0877
998.203	53.12095
998.573	40.09629
998.943	40.09045
999.313	29.0673
999.683	75.17225
1000.053	-2.00433
1000.423	-5.01167
1000.792	-27.06748
1001.162	-5.01184
1001.531	45.10678
1001.901	11.02636
1002.27	22.04604
1002.639	22.05388
1003.009	54.12241
1003.378	36.08898
1003.747	32.07201
1004.116	26.0597
1004.485	25.05742
1004.853	-10.02424
1005.222	-18.04328
1005.591	62.13986
1005.959	36.07801
1006.328	1.00218
1006.696	49.11263
1007.064	-4.00966
1007.433	-1.0024
1007.801	6.01397
1008.169	29.06979
1008.537	41.08644
1008.905	20.04517
1009.273	25.05898
1009.64	20.04662
1010.008	16.03664
1010.375	35.07997
1010.743	36.07678
1011.11	120.27367
1011.478	41.0983
1011.845	23.05162
1012.212	74.16105
1012.579	39.09219
1012.946	64.1433
1013.313	48.10814
1013.68	46.0979
1014.047	7.01609
1014.414	4.0091
1014.78	28.06737
1015.147	29.06647
1015.513	45.10389
1015.88	11.027
1016.246	-36.08537
1016.612	34.07371
1016.978	55.13
1017.344	65.154
1017.71	4.00935
1018.076	13.02915
1018.442	62.15364
1018.808	69.16675
1019.174	8.01929
1019.539	-22.04674
1019.905	32.07286
1020.27	10.02379
1020.636	28.0635
1021.001	83.18956
1021.366	24.05575
1021.731	82.20476
1022.096	36.08843
1022.461	47.10673
1022.826	54.12375
1023.191	39.09885
1023.556	5.01122
1023.92	7.01645
1024.285	5.01164
1024.649	9.02114
1025.014	-7.01658
1025.378	63.15283
1025.742	-4.00953
1026.107	65.13896
1026.471	67.14758
1026.835	30.07158
1027.199	34.07879
1027.562	6.01327
1027.926	28.06538
1028.29	32.07814
1028.654	48.10477
1029.017	37.08766
1029.381	50.11472
1029.744	-3.00743
1030.107	66.14864
1030.471	62.14254
1030.834	25.05347
1031.197	65.14905
1031.56	12.02708
1031.923	-14.03531
1032.286	54.12091
1032.648	3.00681
1033.011	43.09583
1033.374	53.11733
1033.736	38.09664
1034.099	0
1034.461	18.04434
1034.823	50.12008
1035.185	-17.04116
1035.548	34.07992
1035.91	46.10516
1036.272	73.15857
1036.634	25.0588
1036.995	32.07142
1037.357	36.08462
1037.719	75.17412
1038.08	80.18215
1038.442	11.02509
1038.803	-13.02968
1039.165	4.00972
1039.526	62.14317
1039.887	28.06424
1040.248	48.11559
1040.609	7.01651
1040.97	36.08415
1041.331	43.10552
1041.692	71.16084
1042.053	60.12886
1042.413	69.1516
1042.774	91.21067
1043.134	7.01582
1043.495	69.16575
1043.855	69.16158
1044.215	30.07117
1044.576	10.02324
1044.936	24.05234
1045.296	49.11721
1045.656	24.05599
1046.016	4.00925
1046.375	22.05135
1046.735	96.20964
1047.095	56.12503
1047.454	30.05964
1047.814	57.13102
1048.173	41.0922
1048.533	95.20539
1048.892	40.09251
1049.251	1.00241
1049.61	27.06407
1049.969	37.08317
1050.328	30.06198
1050.687	12.02794
1051.046	17.03968
1051.405	26.06161
1051.763	53.11762
1052.122	-14.03383
1052.48	73.17128
1052.839	91.20657
1053.197	16.03615
1053.555	38.08062
1053.914	46.10736
1054.272	25.05668
1054.63	15.03547
1054.988	28.06455
1055.345	17.03439
1055.703	82.18792
1056.061	43.10786
1056.419	75.18928
1056.776	-4.0092
1057.134	-68.15075
1057.491	8.01938
1057.848	34.08082
1058.206	17.03773
1058.563	28.05871
1058.92	40.08753
1059.277	93.21787
1059.634	23.05109
1059.991	79.18035
1060.348	53.11454
1060.704	38.089
1061.061	25.05444
1061.418	57.13233
1061.774	-2.00478
1062.131	44.11415
1062.487	26.05788
1062.843	37.08857
1063.199	35.08375
1063.555	61.13594
1063.911	-13.03165
1064.267	26.05061
1064.623	61.14335
1064.979	-14.03079
1065.335	48.1085
1065.691	9.02043
1066.046	46.09576
1066.402	23.04964
1066.757	41.09957
1067.112	50.11683
1067.468	42.09637
1067.823	29.06538
1068.178	52.11926
1068.533	40.09288
1068.888	48.1089
1069.243	-5.01195
1069.598	37.08556
1069.952	30.0662
1070.307	23.05519
1070.662	85.19428
1071.016	61.13194
1071.371	-5.01103
1071.725	7.01596
1072.079	87.19909
1072.434	-1.00236
1072.788	15.03383
1073.142	63.14822
1073.496	15.03412
1073.85	18.03994
1074.203	31.07231
1074.557	89.22973
1074.911	19.0432
1075.265	67.14776
1075.618	36.08445
1075.971	18.04108
1076.325	39.09624
1076.678	28.06135
1077.031	-70.15105
1077.385	14.02935
1077.738	14.0302
1078.091	16.03528
1078.444	41.08959
1078.796	64.15107
1079.149	39.0934
1079.502	-6.01381
1079.855	22.0493
1080.207	29.06839
1080.56	15.0378
1080.912	58.13452
1081.264	43.09963
1081.617	11.02597
1081.969	31.07588
1082.321	0
1082.673	24.05343
1083.025	26.05875
1083.377	6.01356
1083.728	12.02673
1084.08	6.01437
1084.432	0
1084.783	13.02861
1085.135	32.07761
1085.486	48.10544
1085.838	40.09493
1086.189	65.15203
1086.54	46.10444
1086.891	54.13382
1087.242	73.17269
1087.593	41.09398
1087.944	48.10455
1088.295	19.04122
1088.646	83.19535
1088.996	23.05367
1089.347	1.00235
1089.698	9.02075
1090.048	23.05734
1090.398	6.01327
1090.749	7.01597
1091.099	34.08348
1091.449	56.13424
1091.799	72.17206
1092.149	13.03109
1092.499	18.04231
1092.849	10.02464
1093.199	8.01918
1093.548	58.13473
1093.898	30.07191
1094.248	41.10028
1094.597	32.07994
1094.947	9.02338
1095.296	86.2034
1095.645	49.12203
1095.994	45.10339
1096.343	29.07061
1096.692	32.08276
1097.041	44.11724
1097.39	29.06958
1097.739	-4.01009
1098.088	-2.00517
1098.437	41.10568
1098.785	-21.05483
1099.134	-5.01269
1099.482	35.09374
1099.83	8.02042
1100.179	52.13336
1100.527	20.05086
1100.875	49.12604
1101.223	58.14953
1101.571	28.07485
1101.919	33.08542
1102.267	33.09121
1102.615	4.01285
1102.962	4.01283
1103.31	1.00321
1103.658	1.00321
