Data from N3 R1 sample 5_Subt2__2__15-08-09-077.txt Node

Date: Wed Sep 17 15:08:09 PDT 2025
User: uwsun
Spectrometer: HDX01956
Trigger mode: 0
Integration Time (sec): 5.000000E-1
Scans to average: 1
Nonlinearity correction enabled: true
Boxcar width: 0
Storing dark spectrum: false
XAxis mode: Wavelengths
Number of Pixels in Spectrum: 2068
>>>>>Begin Spectral Data<<<<<
194.03	24.06943
194.578	29.09397
195.127	17.05439
195.676	27.0866
196.225	12.03198
196.773	15.04182
197.321	31.08638
197.87	91.23473
198.418	138.35564
198.966	107.28343
199.513	110.28132
200.061	91.23334
200.609	100.26547
201.156	108.23844
201.704	69.17594
202.251	124.33038
202.798	89.23267
203.345	113.2816
203.892	129.32695
204.438	149.35314
204.985	122.29133
205.532	85.22554
206.078	105.25824
206.624	151.37889
207.17	142.33376
207.716	138.33934
208.262	106.21261
208.808	124.3131
209.354	158.39038
209.899	122.30816
210.445	132.33128
210.99	117.28744
211.535	122.28932
212.08	124.28929
212.625	123.3083
213.17	132.33722
213.715	121.27846
214.259	162.37749
214.804	101.24941
215.348	138.32005
215.892	156.37835
216.436	105.24144
216.98	129.28402
217.524	135.32366
218.068	117.29664
218.612	154.39093
219.155	175.41124
219.698	116.27721
220.242	103.25538
220.785	131.30832
221.328	117.28967
221.871	139.35379
222.414	124.3066
222.956	112.26847
223.499	47.10647
224.041	81.18656
224.583	83.17645
225.126	101.22256
225.668	131.31754
226.21	106.26909
226.751	109.24381
227.293	66.15082
227.835	100.24599
228.376	70.16061
228.918	87.21752
229.459	75.18853
230	117.28126
230.541	112.2578
231.082	97.23716
231.622	34.07814
232.163	92.22271
232.704	102.25608
233.244	107.26578
233.784	64.15639
234.324	142.31861
234.864	77.17529
235.404	117.27505
235.944	113.26596
236.484	177.4366
237.023	74.17569
237.563	113.26306
238.102	149.35
238.641	100.2516
239.18	71.16821
239.719	146.36311
240.258	81.18327
240.797	119.28411
241.335	63.15449
241.874	115.22485
242.412	111.27017
242.95	141.33946
243.488	105.23613
244.026	114.26565
244.564	77.16019
245.102	147.33166
245.64	108.2579
246.177	76.17017
246.715	154.36732
247.252	87.19845
247.789	122.22626
248.326	128.30799
248.863	119.26222
249.4	135.30496
249.936	186.38497
250.473	124.29315
251.009	73.1686
251.546	140.31193
252.082	71.15481
252.618	130.29037
253.154	130.31221
253.69	131.29302
254.226	102.24506
254.761	106.23862
255.297	130.28328
255.832	111.2645
256.367	158.36832
256.903	166.36617
257.438	121.28335
257.972	138.3062
258.507	94.21663
259.042	110.24
259.576	160.35205
260.111	123.28204
260.645	118.25517
261.179	132.30868
261.713	143.31907
262.247	71.16359
262.781	112.237
263.315	90.21918
263.849	88.22149
264.382	101.2328
264.915	157.36923
265.449	76.18695
265.982	132.29921
266.515	136.33257
267.048	104.22162
267.58	104.22508
268.113	126.27246
268.646	78.19209
269.178	114.25515
269.71	204.44433
270.243	198.45246
270.775	170.43246
271.307	63.15122
271.838	129.30385
272.37	150.36516
272.902	169.37895
273.433	114.25368
273.965	125.30322
274.496	102.25332
275.027	118.2939
275.558	131.31933
276.089	144.3584
276.62	108.27241
277.15	142.34737
277.681	136.29182
278.211	128.31138
278.741	95.21259
279.272	168.38143
279.802	131.32492
280.332	160.37533
280.861	130.31007
281.391	123.27978
281.921	111.26562
282.45	100.24862
282.98	172.44388
283.509	161.36428
284.038	165.375
284.567	171.39493
285.096	179.42997
285.625	111.25044
286.153	178.42163
286.682	147.3368
287.21	82.19664
287.739	128.30226
288.267	145.352
288.795	138.35898
289.323	127.29856
289.851	174.40609
290.378	136.30264
290.906	147.3586
291.433	157.38898
291.961	151.34402
292.488	135.33398
293.015	147.34625
293.542	193.4907
294.069	194.47527
294.596	136.33145
295.122	185.43947
295.649	130.2846
296.175	183.43556
296.702	195.47142
297.228	175.41732
297.754	133.29946
298.28	183.41759
298.806	134.3228
299.332	170.37845
299.857	186.41887
300.383	150.3755
300.908	188.45783
301.433	189.45881
301.958	167.38047
302.483	160.39416
303.008	185.45599
303.533	107.27676
304.058	128.29862
304.582	179.41965
305.107	134.34821
305.631	152.34371
306.155	134.31262
306.679	187.436
307.203	219.50075
307.727	143.33866
308.251	211.51336
308.775	226.54151
309.298	180.43081
309.822	169.42161
310.345	202.47754
310.868	209.49782
311.391	196.47749
311.914	178.44269
312.437	189.4285
312.96	195.45501
313.482	154.36097
314.005	167.4142
314.527	157.40608
315.049	228.56785
315.571	180.4032
316.093	228.55565
316.615	187.44474
317.137	216.46488
317.659	225.53654
318.18	213.50052
318.702	219.50658
319.223	197.39815
319.744	253.55842
320.265	208.50123
320.786	211.52122
321.307	232.56371
321.828	216.48145
322.348	246.56847
322.869	287.66649
323.389	287.54864
323.909	229.51538
324.43	212.50041
324.95	238.53619
325.47	252.61344
325.989	254.59138
326.509	248.54635
327.029	248.55711
327.548	229.512
328.067	240.57351
328.587	285.69777
329.106	237.52573
329.625	317.7999
330.144	274.62359
330.662	305.6968
331.181	309.70877
331.7	226.51852
332.218	296.6258
332.736	310.70522
333.255	316.72265
333.773	264.61103
334.291	342.82687
334.808	347.75465
335.326	304.66437
335.844	349.7928
336.361	335.83593
336.879	338.77015
337.396	351.8257
337.913	343.76622
338.43	388.83752
338.947	328.76003
339.464	330.69004
339.981	341.78185
340.497	357.84602
341.014	356.83697
341.53	357.77606
342.046	432.02525
342.562	387.92486
343.078	361.81906
343.594	364.8334
344.11	412.94213
344.626	383.92892
345.141	370.81474
345.657	459.98078
346.172	415.95566
346.687	386.84926
347.202	423.92068
347.717	441.99808
348.232	420.99775
348.747	422.92883
349.261	424.88658
349.776	449.01041
350.29	439.04369
350.805	437.02419
351.319	446.98247
351.833	450.98214
352.347	456.0176
352.861	474.04738
353.374	474.01287
353.888	530.20834
354.401	457.98326
354.915	486.03139
355.428	475.11601
355.941	503.0956
356.454	470.98492
356.967	461.01372
357.48	460.98483
357.993	541.23667
358.505	501.14052
359.018	559.26916
359.53	559.26506
360.042	596.22288
360.554	583.31676
361.066	464.06487
361.578	583.1835
362.09	544.20133
362.602	575.18052
363.113	557.21443
363.625	580.21196
364.136	564.14148
364.647	576.26043
365.158	577.23736
365.669	574.2645
366.18	582.26071
366.691	585.17514
367.201	586.29259
367.712	646.34232
368.222	615.29457
368.733	577.15317
369.243	643.30431
369.753	649.35606
370.263	691.50443
370.773	587.31449
371.282	659.42741
371.792	658.38126
372.301	692.50438
372.811	718.69708
373.32	740.41837
373.829	750.56907
374.338	750.47356
374.847	768.56568
375.356	775.61249
375.865	831.54217
376.373	875.71266
376.882	906.98236
377.39	947.94537
377.898	911.92505
378.407	985.87477
378.915	1043.87711
379.423	1075.05384
379.93	1143.14844
380.438	1116.19128
380.946	1214.24392
381.453	1216.33006
381.96	1290.41436
382.468	1346.43835
382.975	1463.70784
383.482	1485.44134
383.989	1538.96696
384.495	1633.7205
385.002	1657.38757
385.509	1816.96375
386.015	1865.43303
386.521	2026.91421
387.028	2062.92374
387.534	2111.69938
388.04	2199.25583
388.546	2222.87181
389.051	2352.89973
389.557	2496.16963
390.063	2752.08073
390.568	2810.42218
391.073	2861.98984
391.578	3050.52391
392.084	3276.07241
392.589	3274.78367
393.093	3596.29742
393.598	3832.95041
394.103	4220.00701
394.607	4529.93348
395.112	4909.8808
395.616	5309.56935
396.12	5688.9649
396.624	6180.97965
397.128	6811.99372
397.632	7517.98166
398.136	8093.26397
398.639	8561.84083
399.143	9576.69191
399.646	10899.80033
400.15	12133.83972
400.653	13363.06958
401.156	15029.47741
401.659	17615.50103
402.162	21235.91215
402.664	27923.91959
403.167	39288.21883
403.67	60669.34254
404.172	63919.58413
404.674	63858.43483
405.176	63738.15102
405.678	63977.72923
406.18	64011.81569
406.682	63863.44694
407.184	63926.60148
407.686	63841.39382
408.187	64025.8516
408.688	63892.51763
409.19	51145.62256
409.691	40903.60002
410.192	34701.27531
410.693	30114.17503
411.194	27266.92601
411.694	25716.26643
412.195	23816.10676
412.696	21780.45411
413.196	20162.21866
413.696	19218.76972
414.196	19329.36681
414.696	19159.10255
415.196	18268.84719
415.696	16601.2581
416.196	13539.11016
416.695	10509.37235
417.195	8996.52476
417.694	8416.38518
418.194	7895.81662
418.693	7492.83025
419.192	7179.88402
419.691	6965.7827
420.19	6854.97297
420.688	6574.13576
421.187	6283.14154
421.685	5944.96231
422.184	5434.29787
422.682	4712.15111
423.18	4022.85953
423.678	3628.97536
424.176	3305.05366
424.674	3118.93863
425.172	3003.25639
425.669	2791.48976
426.167	2674.16677
426.664	2364.98542
427.161	2266.01199
427.659	2061.15463
428.156	2073.61371
428.652	1854.17365
429.149	1782.95249
429.646	1654.53095
430.143	1621.75596
430.639	1495.58781
431.135	1354.59888
431.632	1335.30217
432.128	1236.32206
432.624	1210.49494
433.12	1194.12929
433.616	1160.9902
434.111	1118.13056
434.607	1014.99957
435.103	1043.74454
435.598	993.67058
436.093	969.86835
436.588	911.71273
437.083	844.60405
437.578	812.61353
438.073	800.73934
438.568	771.65461
439.062	730.35339
439.557	743.51294
440.051	626.2533
440.546	663.33147
441.04	619.33326
441.534	654.47159
442.028	671.43364
442.522	599.29399
443.015	578.11004
443.509	630.37062
444.002	608.33726
444.496	524.03132
444.989	552.21648
445.482	512.16208
445.975	634.30389
446.468	561.09262
446.961	592.14847
447.454	460.95247
447.947	509.11197
448.439	559.24401
448.931	529.10401
449.424	555.28549
449.916	558.23434
450.408	469.98869
450.9	472.05685
451.392	464.09033
451.884	505.05896
452.375	474.08178
452.867	409.85692
453.358	419.89377
453.849	415.8245
454.341	485.00216
454.832	426.85287
455.323	465.06994
455.814	447.94521
456.304	453.96838
456.795	452.95307
457.285	401.8227
457.776	468.98073
458.266	371.82807
458.756	346.77212
459.247	396.88623
459.737	394.89301
460.226	424.89757
460.716	386.86492
461.206	354.79878
461.695	352.82144
462.185	353.79051
462.674	387.82731
463.163	358.75555
463.653	388.77032
464.142	326.74941
464.63	342.78304
465.119	357.78134
465.608	364.80187
466.096	301.62089
466.585	293.63776
467.073	279.62919
467.561	291.66589
468.05	321.69989
468.538	345.79545
469.026	252.57422
469.513	257.51989
470.001	319.69435
470.489	312.70431
470.976	282.62958
471.463	284.67553
471.951	263.62666
472.438	280.62796
472.925	269.60639
473.412	237.55387
473.899	289.63146
474.385	229.54105
474.872	248.55574
475.359	278.65362
475.845	201.40381
476.331	196.40513
476.817	229.5377
477.303	230.51562
477.789	192.44422
478.275	209.5024
478.761	173.4005
479.247	195.4223
479.732	232.55842
480.218	225.57003
480.703	205.48942
481.188	208.4361
481.673	189.42258
482.158	181.38125
482.643	214.52931
483.128	224.50465
483.612	233.53554
484.097	172.40442
484.581	225.50244
485.066	172.41119
485.55	199.42728
486.034	161.34151
486.518	227.52488
487.002	149.35478
487.486	140.33341
487.969	118.28253
488.453	125.30595
488.936	167.36722
489.42	194.41681
489.903	136.3322
490.386	76.1566
490.869	221.46776
491.352	139.32817
491.835	149.29879
492.318	97.21599
492.8	191.38425
493.283	165.41148
493.765	112.27092
494.247	134.30659
494.73	147.31917
495.212	105.24588
495.694	169.38907
496.175	135.31897
496.657	135.31415
497.139	78.13357
497.62	141.33302
498.102	145.35411
498.583	56.13704
499.064	140.30662
499.545	123.27626
500.026	122.27227
500.507	90.2055
500.988	155.37938
501.469	38.09468
501.949	123.29904
502.43	120.28524
502.91	179.37024
503.39	125.30493
503.87	128.29803
504.35	50.11688
504.83	103.22297
505.31	97.23141
505.79	52.12275
506.269	30.06911
506.749	61.13909
507.228	74.17339
507.707	142.31127
508.187	104.24587
508.666	111.27169
509.145	73.16994
509.623	85.19764
510.102	123.29321
510.581	148.3503
511.059	74.18525
511.538	92.23496
512.016	87.207
512.494	60.14383
512.972	85.20216
513.45	48.11207
513.928	87.21002
514.406	139.33516
514.884	60.15426
515.361	92.21843
515.839	150.33905
516.316	130.31126
516.793	102.25479
517.27	72.17239
517.747	119.30139
518.224	74.16979
518.701	76.1673
519.178	105.26005
519.654	122.28496
520.131	90.22123
520.607	47.11483
521.083	44.0999
521.56	25.05923
522.036	97.20944
522.512	114.27815
522.987	70.16812
523.463	84.1979
523.939	146.35609
524.414	79.17991
524.89	88.20861
525.365	56.12653
525.84	89.21249
526.315	118.28232
526.79	110.24549
527.265	131.29834
527.74	56.13577
528.215	63.14666
528.689	38.08365
529.164	62.13287
529.638	57.14416
530.112	53.12465
530.587	64.13691
531.061	86.20686
531.534	103.24582
532.008	86.20788
532.482	117.2657
532.956	26.06656
533.429	128.30893
533.903	71.15521
534.376	72.15876
534.849	30.06933
535.322	99.23156
535.795	23.05584
536.268	72.17371
536.741	27.06441
537.213	100.22788
537.686	64.15627
538.158	87.19685
538.631	74.17853
539.103	65.14671
539.575	41.08484
540.047	74.16091
540.519	65.15501
540.991	76.18454
541.463	41.09886
541.934	-3.00687
542.406	79.18905
542.877	52.11759
543.348	101.24187
543.82	64.15534
544.291	71.16542
544.762	49.1169
545.233	104.26129
545.703	86.19058
546.174	51.11854
546.645	62.14998
547.115	91.21843
547.585	55.12672
548.056	94.22987
548.526	140.32764
548.996	46.11031
549.466	75.1818
549.935	38.0913
550.405	120.26104
550.875	105.24752
551.344	105.24838
551.814	88.20094
552.283	82.17876
552.752	181.4152
553.221	115.25203
553.69	153.34054
554.159	161.39392
554.628	167.37185
555.096	103.26022
555.565	99.21788
556.033	179.41817
556.502	69.16644
556.97	131.2883
557.438	100.23339
557.906	115.26898
558.374	133.30485
558.842	119.28237
559.31	114.25326
559.777	126.30467
560.245	89.20342
560.712	111.25218
561.18	103.22678
561.647	91.20111
562.114	108.24581
562.581	141.34204
563.048	109.24783
563.514	138.34172
563.981	139.31412
564.448	103.23144
564.914	93.21496
565.381	151.33971
565.847	126.29014
566.313	164.37326
566.779	139.30861
567.245	43.10006
567.711	139.32804
568.176	93.20785
568.642	133.33048
569.108	140.33916
569.573	90.20733
570.038	134.27673
570.504	111.2489
570.969	143.34884
571.434	152.3322
571.899	149.34754
572.363	158.35611
572.828	179.4027
573.293	163.3667
573.757	187.42414
574.222	161.35447
574.686	174.39217
575.15	225.52542
575.614	261.59365
576.078	179.4111
576.542	204.45263
577.006	191.42141
577.469	209.49992
577.933	220.48671
578.396	166.38605
578.86	188.4322
579.323	245.57054
579.786	249.52079
580.249	288.65014
580.712	206.48738
581.175	220.52633
581.637	251.55192
582.1	225.47497
582.563	216.44526
583.025	219.51743
583.487	265.52354
583.95	209.43539
584.412	290.5814
584.874	305.71025
585.336	303.68609
585.797	293.60847
586.259	331.73453
586.721	316.70548
587.182	355.77172
587.643	369.78815
588.105	346.77308
588.566	387.75237
589.027	434.98963
589.488	454.96232
589.949	516.14415
590.41	523.93123
590.87	531.10181
591.331	627.21041
591.791	568.1837
592.252	613.27338
592.712	676.42782
593.172	694.37876
593.632	793.50002
594.092	739.41884
594.552	809.47893
595.011	841.62586
595.471	998.8367
595.931	993.82064
596.39	1000.96917
596.849	1084.01486
597.308	1124.85347
597.768	1297.60621
598.227	1368.46463
598.685	1356.28869
599.144	1505.55475
599.603	1512.53182
600.062	1616.28123
600.52	1813.66405
600.978	1828.84957
601.437	1983.7946
601.895	2161.63064
602.353	2175.73732
602.811	2430.94063
603.269	2504.22702
603.727	2656.31542
604.184	2784.04167
604.642	2938.49338
605.099	3071.17674
605.557	3201.41532
606.014	3359.64053
606.471	3502.59171
606.928	3772.68127
607.385	3852.48245
607.842	4071.74654
608.299	4207.81041
608.755	4399.97529
609.212	4512.32876
609.668	4661.32169
610.125	4829.69829
610.581	4986.40112
611.037	5142.99627
611.493	5193.24981
611.949	5364.48465
612.405	5395.29205
612.861	5438.01191
613.316	5616.21853
613.772	5732.84422
614.227	5750.1795
614.683	5827.32492
615.138	5854.94953
615.593	5723.93466
616.048	5790.8078
616.503	5876.18827
616.958	5833.45321
617.412	5892.02095
617.867	5961.59795
618.321	5703.21876
618.776	5743.57956
619.23	5659.0244
619.684	5659.69352
620.138	5527.92129
620.592	5508.35651
621.046	5378.23083
621.5	5296.40815
621.954	5233.84087
622.407	5058.93592
622.861	5046.61429
623.314	4968.14196
623.768	4832.52686
624.221	4669.46008
624.674	4624.48052
625.127	4598.53856
625.58	4470.3634
626.033	4459.19338
626.485	4286.91247
626.938	4313.86665
627.39	4173.80441
627.843	4058.75837
628.295	3981.79434
628.747	3945.04933
629.199	3850.76706
629.651	3759.85106
630.103	3701.87631
630.555	3543.41542
631.006	3493.03192
631.458	3433.12719
631.909	3403.81919
632.361	3303.02862
632.812	3323.04716
633.263	3266.6745
633.714	3121.57038
634.165	3074.30216
634.616	3079.21294
635.067	3045.79832
635.518	2960.23563
635.968	2982.22616
636.419	3006.76154
636.869	2914.22853
637.319	2892.11049
637.769	2786.933
638.219	2832.20247
638.669	2795.24395
639.119	2614.25374
639.569	2708.28623
640.019	2801.08112
640.468	2702.91241
640.918	2684.2151
641.367	2718.90435
641.816	2684.86529
642.265	2873.14085
642.714	2748.03535
643.163	2767.08397
643.612	2835.43682
644.061	2734.6734
644.51	2819.04042
644.958	2845.8345
645.406	2747.27112
645.855	2843.374
646.303	2819.08174
646.751	2855.09403
647.199	2839.97401
647.647	2965.11104
648.095	2889.00545
648.543	2923.39025
648.99	2914.31662
649.438	2836.08447
649.885	2893.55013
650.333	2892.19358
650.78	2875.35045
651.227	2900.4307
651.674	2782.01208
652.121	2766.43243
652.568	2763.42271
653.015	2737.47372
653.461	2643.224
653.908	2626.028
654.354	2682.2372
654.801	2604.14007
655.247	2536.71928
655.693	2538.72601
656.139	2600.23325
656.585	2445.19684
657.031	2464.12097
657.477	2493.76163
657.922	2407.93081
658.368	2367.32129
658.813	2378.92309
659.259	2357.24773
659.704	2360.13314
660.149	2293.9658
660.594	2297.11095
661.039	2223.88554
661.484	2161.03775
661.929	2169.9781
662.373	2055.25635
662.818	2125.22812
663.262	2095.10236
663.707	2050.32212
664.151	2046.10867
664.595	2022.05728
665.039	2013.17094
665.483	1998.28131
665.927	2004.90657
666.371	2008.92484
666.814	1955.92986
667.258	1978.01236
667.701	1962.48911
668.145	2004.17704
668.588	1953.12028
669.031	1869.82877
669.474	1892.92879
669.917	1833.52293
670.36	1993.18328
670.803	1928.98703
671.245	1850.28285
671.688	1916.00663
672.13	1901.69008
672.573	1887.15189
673.015	1967.00317
673.457	1911.54093
673.899	1975.02083
674.341	1876.93207
674.783	1929.94835
675.225	1998.11769
675.666	1900.0218
676.108	1982.54764
676.549	1995.86259
676.991	1950.59149
677.432	2025.24206
677.873	1882.70819
678.314	1951.92894
678.755	2088.1847
679.196	1936.74654
679.637	1935.94051
680.078	2057.9084
680.518	2050.82581
680.959	2032.97836
681.399	2066.18343
681.839	2114.11714
682.28	2077.21261
682.72	2164.8615
683.16	2123.26062
683.6	2135.82479
684.039	2153.42063
684.479	2102.19532
684.919	2149.98914
685.358	2190.28355
685.798	2181.51913
686.237	2261.09977
686.676	2255.84166
687.115	2310.06052
687.554	2376.16533
687.993	2310.75593
688.432	2365.91744
688.871	2430.96112
689.309	2437.19639
689.748	2486.50389
690.186	2483.06938
690.625	2533.10854
691.063	2541.19172
691.501	2654.42701
691.939	2675.54499
692.377	2668.30875
692.815	2767.38169
693.253	2769.21175
693.69	2868.74669
694.128	2812.3383
694.565	2963.19
695.003	2924.68194
695.44	3015.19036
695.877	2993.15044
696.314	3125.49154
696.751	3125.9034
697.188	3109.0476
697.625	3173.81647
698.061	3195.23543
698.498	3197.14693
698.934	3306.20221
699.371	3270.11171
699.807	3345.11165
700.243	3461.2338
700.679	3354.74721
701.115	3528.9815
701.551	3505.95962
701.987	3533.56142
702.422	3660.1
702.858	3743.06525
703.294	3796.77362
703.729	3822.16919
704.164	3858.018
704.599	3948.52955
705.035	3975.54383
705.47	3919.11682
705.904	4068.70878
706.339	4133.61533
706.774	4198.72358
707.209	4296.63334
707.643	4330.81132
708.078	4394.90098
708.512	4444.12314
708.946	4459.66152
709.38	4621.60158
709.814	4656.22797
710.248	4684.79169
710.682	4682.65287
711.116	4804.69442
711.549	4774.08662
711.983	4814.28076
712.416	4960.40117
712.85	4973.71627
713.283	5091.28041
713.716	5082.65742
714.149	5105.12525
714.582	5209.86755
715.015	5280.4588
715.448	5241.70809
715.881	5190.57571
716.313	5360.04972
716.746	5541.05655
717.178	5450.21897
717.61	5622.58017
718.043	5640.31827
718.475	5724.14836
718.907	5611.41942
719.339	5751.65883
719.77	5737.04747
720.202	5846.32784
720.634	5924.14697
721.065	5846.86942
721.497	5955.10512
721.928	6016.06309
722.359	5977.06186
722.79	6016.91723
723.221	6162.1206
723.652	6203.28881
724.083	6239.43097
724.514	6208.57201
724.945	6304.66518
725.375	6302.6631
725.806	6279.02223
726.236	6302.29681
726.666	6401.68386
727.096	6534.90283
727.526	6564.29602
727.956	6396.49941
728.386	6649.89641
728.816	6637.22653
729.246	6582.96742
729.675	6505.88499
730.105	6657.87475
730.534	6675.56693
730.964	6650.01114
731.393	6778.86977
731.822	6779.17776
732.251	6830.1189
732.68	6830.51882
733.109	6969.91893
733.537	6857.8706
733.966	6923.00544
734.395	6925.52737
734.823	6959.2945
735.251	6922.74325
735.68	6936.90145
736.108	6764.00344
736.536	6863.58365
736.964	6801.52478
737.392	6854.99575
737.82	6851.69468
738.247	6872.68323
738.675	6826.59635
739.102	6763.99053
739.53	6722.2378
739.957	6657.29705
740.384	6541.76956
740.811	6616.98242
741.238	6610.90492
741.665	6516.64252
742.092	6404.49553
742.519	6449.02352
742.945	6486.86793
743.372	6505.01554
743.798	6275.29751
744.225	6356.69131
744.651	6277.1119
745.077	6309.07938
745.503	6223.86192
745.929	6220.90892
746.355	6112.95085
746.781	6015.06349
747.207	5825.91728
747.632	5871.23705
748.058	5832.36998
748.483	5817.67972
748.908	5782.29008
749.334	5785.20957
749.759	5706.99323
750.184	5458.2031
750.609	5505.28113
751.033	5442.94145
751.458	5415.64903
751.883	5367.38423
752.307	5244.12337
752.732	5221.81816
753.156	5113.53425
753.58	5118.18989
754.005	4998.7477
754.429	4912.37571
754.853	4763.84101
755.277	4736.48141
755.7	4758.8045
756.124	4673.86995
756.548	4571.51881
756.971	4650.72407
757.394	4508.1779
757.818	4361.34672
758.241	4282.25808
758.664	4273.20261
759.087	4177.42356
759.51	4161.0528
759.933	4048.98084
760.356	4067.48841
760.778	3951.12915
761.201	3880.0174
761.623	3781.94053
762.046	3697.84555
762.468	3768.99224
762.89	3634.17394
763.312	3697.19995
763.734	3524.1424
764.156	3432.33104
764.578	3412.78082
765	3414.23703
765.421	3250.60995
765.843	3263.77997
766.264	3204.06805
766.686	3036.3926
767.107	3116.24437
767.528	3107.66506
767.949	2962.55084
768.37	2966.41202
768.791	2816.16919
769.212	2710.4891
769.632	2766.05444
770.053	2670.69403
770.473	2580.17022
770.894	2564.2773
771.314	2505.02824
771.734	2499.97259
772.154	2456.46391
772.575	2443.89446
772.994	2398.79933
773.414	2329.01769
773.834	2286.25105
774.254	2287.14243
774.673	2235.14842
775.093	2139.18767
775.512	2106.12361
775.931	2075.23701
776.351	2074.15564
776.77	2026.04912
777.189	1939.83358
777.607	1935.16367
778.026	1881.00546
778.445	1902.11845
778.864	1775.98308
779.282	1702.66304
779.701	1752.92282
780.119	1675.90292
780.537	1663.80537
780.955	1618.82036
781.373	1573.68661
781.791	1595.41189
782.209	1533.31712
782.627	1477.83487
783.045	1467.28733
783.462	1502.73992
783.88	1426.70746
784.297	1388.55146
784.715	1343.5857
785.132	1312.30711
785.549	1338.46167
785.966	1307.44807
786.383	1299.38434
786.8	1278.15865
787.217	1233.20193
787.633	1171.27425
788.05	1153.01113
788.466	1138.99597
788.883	1111.24624
789.299	1074.96801
789.715	1088.06225
790.131	1013.00028
790.547	1052.0615
790.963	1044.03427
791.379	930.91342
791.795	922.64235
792.21	968.76803
792.626	897.6938
793.041	886.7771
793.457	857.72243
793.872	837.58417
794.287	872.72567
794.702	799.59983
795.117	826.70995
795.532	775.64678
795.947	751.48003
796.362	752.45459
796.776	715.36476
797.191	714.48117
797.605	685.38015
798.02	652.35421
798.434	703.29903
798.848	704.49611
799.262	590.27371
799.676	685.41809
800.09	610.29557
800.504	566.18736
800.918	545.08205
801.331	507.15187
801.745	571.12058
802.158	509.11291
802.572	570.20051
802.985	527.10226
803.398	466.98215
803.811	464.04146
804.224	477.03843
804.637	477.00983
805.05	459.93191
805.462	427.9353
805.875	402.95244
806.288	396.86942
806.7	344.78224
807.112	373.77113
807.525	344.76099
807.937	408.91346
808.349	342.77769
808.761	351.79153
809.173	347.77067
809.584	330.7419
809.996	272.61603
810.408	303.73412
810.819	310.66889
811.231	315.78319
811.642	313.71795
812.053	331.74094
812.464	280.61115
812.875	292.69588
813.286	274.66349
813.697	277.57832
814.108	254.5727
814.519	296.60852
814.929	225.53593
815.34	242.53939
815.75	261.62405
816.16	208.47933
816.571	230.55822
816.981	231.49983
817.391	219.48823
817.801	188.44221
818.211	192.42778
818.62	234.52782
819.03	185.42522
819.44	174.42232
819.849	169.39791
820.259	169.40456
820.668	176.41044
821.077	204.48097
821.486	141.31708
821.895	163.37421
822.304	121.30635
822.713	154.34198
823.122	153.36094
823.531	144.31751
823.939	184.42385
824.348	172.39099
824.756	150.35393
825.164	195.45859
825.573	116.27817
825.981	174.40402
826.389	165.39091
826.797	173.41729
827.205	137.29986
827.612	130.30293
828.02	107.23776
828.428	136.3291
828.835	79.20207
829.243	89.20105
829.65	66.15947
830.057	136.31104
830.464	149.34836
830.871	161.36502
831.278	115.26476
831.685	80.16936
832.092	115.26507
832.499	106.22107
832.905	72.17404
833.312	82.17466
833.718	166.39366
834.124	120.26049
834.531	74.17732
834.937	125.30709
835.343	68.15596
835.749	81.17774
836.155	80.20172
836.561	57.13525
836.966	74.17278
837.372	88.21359
837.777	90.21566
838.183	133.27657
838.588	82.19671
838.993	72.16831
839.399	63.14891
839.804	17.04031
840.209	97.23971
840.613	119.24945
841.018	57.13832
841.423	55.13637
841.828	61.14953
842.232	92.21371
842.637	115.26073
843.041	33.08248
843.445	42.10095
843.849	50.11995
844.253	99.22318
844.657	71.1732
845.061	155.33668
845.465	27.06313
845.869	50.11159
846.272	76.17849
846.676	3.00691
847.079	52.12881
847.483	99.23509
847.886	88.20239
848.289	70.18291
848.692	39.09479
849.095	32.07383
849.498	76.1819
849.901	45.09816
850.304	79.1802
850.707	48.11768
851.109	120.28721
851.512	72.17029
851.914	46.11291
852.316	75.18446
852.718	64.16379
853.121	89.20866
853.523	10.02246
853.925	44.11241
854.326	61.14792
854.728	39.09747
855.13	20.05068
855.531	55.12667
855.933	35.08013
856.334	60.1453
856.736	66.14278
857.137	50.11279
857.538	32.07851
857.939	54.13053
858.34	59.13648
858.741	23.05817
859.142	32.07372
859.542	72.18453
859.943	62.148
860.343	54.12979
860.744	54.12663
861.144	87.20485
861.544	39.09179
861.945	38.09351
862.345	22.05177
862.745	34.08234
863.145	46.10351
863.544	62.15133
863.944	56.12684
864.344	-12.02863
864.743	87.20596
865.143	63.1574
865.542	10.02211
865.941	83.19748
866.34	55.12465
866.74	33.08612
867.139	72.16758
867.537	5.01224
867.936	51.11859
868.335	3.00741
868.734	27.06702
869.132	10.02216
869.531	31.07137
869.929	20.04423
870.327	49.1129
870.726	42.09983
871.124	69.15268
871.522	48.11751
871.92	83.19581
872.318	72.16718
872.715	29.06823
873.113	38.08869
873.511	4.00964
873.908	64.15825
874.306	55.13287
874.703	41.09789
875.1	-1.00245
875.497	18.04153
875.894	48.11554
876.291	60.14174
876.688	10.02512
877.085	43.09844
877.482	24.0581
877.878	73.17068
878.275	25.06171
878.671	10.02074
879.068	87.20013
879.464	52.12065
879.86	-1.00229
880.256	-11.02596
880.652	12.02962
881.048	31.0733
881.444	32.07218
881.84	28.06875
882.236	62.14958
882.631	40.09519
883.027	45.10426
883.422	1.00247
883.817	63.15352
884.213	9.02245
884.608	76.18273
885.003	0
885.398	23.05579
885.793	18.04356
886.188	-13.03142
886.582	44.1078
886.977	45.10178
887.371	64.15429
887.766	27.06537
888.16	27.06392
888.554	42.09922
888.949	62.14941
889.343	27.06328
889.737	10.02623
890.131	23.05586
890.525	82.20253
890.918	29.07048
891.312	12.02744
891.706	42.10628
892.099	48.11729
892.492	59.12023
892.886	42.09864
893.279	13.03204
893.672	51.12608
894.065	51.12307
894.458	19.04576
894.851	49.11448
895.244	18.04454
895.637	49.1138
896.029	67.15806
896.422	-45.10616
896.814	26.06223
897.206	44.10225
897.599	73.17255
897.991	56.13085
898.383	62.14054
898.775	78.16968
899.167	41.09337
899.559	44.10632
899.951	64.14271
900.342	20.04874
900.734	81.19738
901.125	41.10321
901.517	24.05705
901.908	47.10639
902.299	24.05689
902.69	34.07798
903.082	56.13008
903.473	73.17001
903.863	24.05891
904.254	56.12606
904.645	43.10152
905.036	28.06686
905.426	14.03038
905.817	3.00709
906.207	-35.08039
906.597	41.09315
906.987	7.01747
907.378	40.09822
907.768	69.17631
908.158	64.14908
908.547	66.16654
908.937	-7.01725
909.327	26.06075
909.717	10.02419
910.106	-10.0232
910.495	43.10207
910.885	61.14892
911.274	36.08662
911.663	22.0535
912.052	48.11238
912.441	48.11864
912.83	53.11537
913.219	43.10825
913.608	88.20652
913.997	44.10744
914.385	61.13948
914.774	41.09579
915.162	48.11119
915.55	40.09226
915.939	31.07627
916.327	11.02636
916.715	60.14955
917.103	73.16853
917.491	33.0784
917.878	25.05916
918.266	37.09231
918.654	46.11433
919.041	18.04626
919.429	27.06134
919.816	49.1194
920.203	62.14561
920.591	61.14547
920.978	65.15239
921.365	-23.05927
921.752	-9.02046
922.139	25.05206
922.525	49.11349
922.912	28.06556
923.299	26.06254
923.685	-32.08092
924.072	2.00434
924.458	63.15047
924.844	16.03834
925.231	-9.02009
925.617	19.04738
926.003	35.08608
926.389	1.00245
926.774	31.07557
927.16	37.08834
927.546	59.14746
927.931	9.0216
928.317	47.10274
928.702	25.05664
929.088	60.13915
929.473	40.09909
929.858	47.1114
930.243	41.09571
930.628	56.13224
931.013	42.10041
931.398	28.06068
931.783	36.09061
932.167	77.18201
932.552	35.08427
932.937	25.05951
933.321	38.09282
933.705	-14.03394
934.09	-4.0096
934.474	45.10136
934.858	64.1601
935.242	37.08198
935.626	51.1265
936.009	31.08082
936.393	106.26104
936.777	35.08719
937.16	51.12912
937.544	-8.01794
937.927	16.03959
938.311	-3.00704
938.694	55.14078
939.077	9.02083
939.46	22.05088
939.843	16.03111
940.226	10.02474
940.609	6.01348
940.991	-29.07161
941.374	30.0712
941.757	42.09922
942.139	29.0628
942.522	83.1852
942.904	45.10389
943.286	47.11453
943.668	38.09623
944.05	21.05002
944.432	39.09222
944.814	28.06576
945.196	30.07115
945.578	48.11154
945.959	13.02904
946.341	30.06947
946.722	43.0961
947.104	66.15082
947.485	27.06044
947.866	35.08589
948.247	81.19767
948.628	-16.03712
949.009	-7.01745
949.39	18.043
949.771	-5.01096
950.152	37.08756
950.532	68.16517
950.913	50.11541
951.293	31.08206
951.674	27.06293
952.054	64.15522
952.434	26.06244
952.814	20.04526
953.194	0
953.574	17.04023
953.954	19.04297
954.334	50.12104
954.714	59.13859
955.093	60.14125
955.473	48.1169
955.853	22.05521
956.232	26.06911
956.611	38.08624
956.99	13.0318
957.37	46.11207
957.749	4.00906
958.128	7.01722
958.506	14.03533
958.885	40.09687
959.264	16.03846
959.643	87.18914
960.021	41.0986
960.4	42.0909
960.778	-5.01175
961.156	-1.00242
961.535	-20.04471
961.913	18.04084
962.291	37.09298
962.669	6.01484
963.047	42.104
963.424	40.09996
963.802	33.0784
964.18	5.01205
964.557	58.12666
964.935	60.13562
965.312	36.09123
965.69	31.07407
966.067	7.01628
966.444	-25.05875
966.821	54.13421
967.198	4.00926
967.575	68.15858
967.952	70.15661
968.329	81.18931
968.705	122.24685
969.082	42.10552
969.458	33.07737
969.835	13.03056
970.211	56.13994
970.587	76.18135
970.963	21.05163
971.339	32.08129
971.715	51.12265
972.091	56.13204
972.467	48.11317
972.843	20.0486
973.219	49.11141
973.594	-6.0153
973.97	6.01339
974.345	47.10842
974.721	18.04133
975.096	70.16331
975.471	40.09056
975.846	17.03906
976.221	21.05169
976.596	49.11475
976.971	61.14547
977.346	13.02887
977.72	4.00983
978.095	-3.00753
978.469	46.10465
978.844	46.11043
979.218	71.16529
979.593	-3.00692
979.967	-22.05104
980.341	54.11937
980.715	1.00245
981.089	11.02662
981.463	45.09883
981.837	60.14235
982.21	21.04558
982.584	66.15313
982.957	39.09447
983.331	7.0157
983.704	78.18555
984.078	3.00715
984.451	35.08228
984.824	32.0756
985.197	2.00462
985.57	5.01194
985.943	14.03273
986.316	54.12479
986.688	6.01395
987.061	71.15914
987.434	31.07927
987.806	9.02075
988.179	-31.0708
988.551	53.12852
988.923	-4.00949
989.295	45.1074
989.667	47.1095
990.039	89.21354
990.411	-1.00218
990.783	39.08461
991.155	-35.08241
991.527	38.08799
991.898	87.20795
992.27	50.12008
992.641	29.06964
993.012	-2.00442
993.384	39.08871
993.755	16.03975
994.126	33.07707
994.497	10.02374
994.868	19.04138
995.239	46.10652
995.61	14.03413
995.98	7.01641
996.351	55.13172
996.722	31.06991
997.092	31.07097
997.462	42.09532
997.833	-3.0068
998.203	-10.02311
998.573	42.10106
998.943	42.09493
999.313	16.03723
999.683	80.18355
1000.053	0
1000.423	1.00233
1000.792	-21.05243
1001.162	-10.0237
1001.531	7.01673
1001.901	-8.01924
1002.27	-55.11707
1002.639	-42.10408
1003.009	30.06834
1003.378	25.06192
1003.747	15.03387
1004.116	2.00461
1004.485	24.05513
1004.853	-24.05834
1005.222	-37.08928
1005.591	19.04324
1005.959	30.0651
1006.328	29.0628
1006.696	6.01391
1007.064	5.01205
1007.433	-24.05786
1007.801	18.0418
1008.169	-29.07056
1008.537	31.0655
1008.905	18.04067
1009.273	25.05898
1009.64	56.12962
1010.008	54.12271
1010.375	54.1229
1010.743	36.07678
1011.11	54.12479
1011.478	52.12441
1011.845	30.06723
1012.212	56.12234
1012.579	39.09219
1012.946	5.01133
1013.313	69.15479
1013.68	20.0428
1014.047	13.02985
1014.414	28.06337
1014.78	27.06498
1015.147	12.0276
1015.513	20.0464
1015.88	69.16757
1016.246	4.00941
1016.612	59.12723
1016.978	15.03573
1017.344	15.03588
1017.71	54.12499
1018.076	39.08698
1018.442	64.15854
1018.808	24.05849
1019.174	-16.03875
1019.539	-15.03182
1019.905	13.02971
1020.27	-5.01193
1020.636	-5.01141
1021.001	56.12859
1021.366	21.04881
1021.731	74.18505
1022.096	-7.01733
1022.461	61.13813
1022.826	59.13507
1023.191	48.12146
1023.556	49.10897
1023.92	28.06553
1024.285	0
1024.649	16.03753
1025.014	7.01654
1025.378	17.0416
1025.742	7.01664
1026.107	66.14107
1026.471	54.11927
1026.835	36.0858
1027.199	7.01631
1027.562	9.01989
1027.926	46.10702
1028.29	26.06356
1028.654	40.08746
1029.017	60.14152
1029.381	28.06453
1029.744	7.01731
1030.107	67.15086
1030.471	31.07171
1030.834	11.0236
1031.197	44.10132
1031.56	45.10087
1031.923	35.08751
1032.286	82.18255
1032.648	-1.00227
1033.011	78.17256
1033.374	-13.02917
1033.736	-9.02308
1034.099	16.03764
1034.461	48.1176
1034.823	37.08908
1035.185	32.07677
1035.548	33.07758
1035.91	-26.0603
1036.272	67.14572
1036.634	26.06114
1036.995	-22.04965
1037.357	9.02127
1037.719	43.10046
1038.08	87.19781
1038.442	13.02964
1038.803	2.00455
1039.165	-15.03658
1039.526	76.175
1039.887	14.03221
1040.248	41.09886
1040.609	8.01886
1040.97	17.03989
1041.331	39.09578
1041.692	47.10699
1042.053	47.10122
1042.413	33.07305
1042.774	88.20385
1043.134	12.02709
1043.495	10.02429
1043.855	60.14075
1044.215	1.00239
1044.576	29.06714
1044.936	20.04366
1045.296	53.12668
1045.656	-26.06125
1046.016	40.09189
1046.375	42.09764
1046.735	41.09057
1047.095	44.09848
1047.454	46.09111
1047.814	29.06703
1048.173	35.07881
1048.533	62.13499
1048.892	7.0163
1049.251	48.11462
1049.61	35.08292
1049.969	31.06977
1050.328	36.07428
1050.687	-19.04451
1051.046	5.0117
1051.405	-5.01192
1051.763	57.12639
1052.122	-8.01931
1052.48	49.11551
1052.839	60.13706
1053.197	30.06759
1053.555	-14.03004
1053.914	24.05626
1054.272	19.04313
1054.63	-4.00949
1054.988	21.04848
1055.345	28.0565
1055.703	68.15627
1056.061	57.14262
1056.419	66.16683
1056.776	51.11601
1057.134	-26.05714
1057.491	25.06037
1057.848	60.14191
1058.206	-23.05147
1058.563	41.08572
1058.92	54.11782
1059.277	27.06407
1059.634	20.04445
1059.991	92.20948
1060.348	3.00655
1060.704	85.19725
1061.061	79.17006
1061.418	64.14837
1061.774	53.12533
1062.131	39.10126
1062.487	2.00447
1062.843	5.01204
1063.199	28.06709
1063.555	75.16665
1063.911	-2.00486
1064.267	68.13103
1064.623	34.08032
1064.979	-4.00878
1065.335	38.08607
1065.691	-11.02507
1066.046	103.2117
1066.402	-21.04575
1066.757	68.16431
1067.112	24.05637
1067.468	24.05527
1067.823	-26.05927
1068.178	39.08968
1068.533	22.05127
1068.888	35.07961
1069.243	-4.00956
1069.598	8.01861
1069.952	53.1164
1070.307	-13.03141
1070.662	55.12647
1071.016	65.14047
1071.371	45.0982
1071.725	53.11973
1072.079	36.08323
1072.434	14.03293
1072.788	27.06074
1073.142	48.11326
1073.496	-36.08273
1073.85	8.01779
1074.203	54.12539
1074.557	22.05745
1074.911	34.07707
1075.265	5.01117
1075.618	59.13778
1075.971	50.11339
1076.325	21.05199
1076.678	6.01321
1077.031	-39.08359
1077.385	62.12861
1077.738	4.00865
1078.091	50.10946
1078.444	2.00441
1078.796	52.12303
1079.149	41.09815
1079.502	25.05717
1079.855	49.1092
1080.207	44.10346
1080.56	35.08789
1080.912	-10.0235
1081.264	56.12941
1081.617	37.08692
1081.969	62.15088
1082.321	28.06543
1082.673	46.10194
1083.025	11.02493
1083.377	243.52264
1083.728	32.07097
1084.08	-18.04331
1084.432	3.00695
1084.783	40.08753
1085.135	55.13282
1085.486	39.08583
1085.838	59.13951
1086.189	41.09635
1086.54	47.10669
1086.891	88.21671
1087.242	73.17269
1087.593	22.05062
1087.944	65.14107
1088.295	12.02607
1088.646	76.17912
1088.996	16.03739
1089.347	26.06092
1089.698	16.03684
1090.048	5.01251
1090.398	-5.01109
1090.749	3.00685
1091.099	43.10541
1091.449	58.13898
1091.799	22.05308
1092.149	7.01676
1092.499	23.05401
1092.849	47.11504
1093.199	46.10951
1093.548	63.1462
1093.898	-3.00724
1094.248	-4.00987
1094.597	29.07248
1094.947	22.05703
1095.296	15.03596
1095.645	20.05007
1095.994	51.11704
1096.343	18.04392
1096.692	39.10074
1097.041	53.141
1097.39	27.06481
1097.739	25.06276
1098.088	14.03612
1098.437	28.07234
1098.785	19.04926
1099.134	-24.06112
1099.482	28.07507
1099.83	65.16422
1100.179	29.07467
1100.527	-44.11316
1100.875	17.04397
1101.223	20.0519
1101.571	-10.0269
1101.919	21.05447
1102.267	22.06091
1102.615	12.0385
1102.962	-3.00963
1103.31	10.03209
1103.658	-7.02246
