Data from N3 R1 sample 12_Subt2__1__15-11-29-559.txt Node

Date: Wed Sep 17 15:11:29 PDT 2025
User: uwsun
Spectrometer: HDX01956
Trigger mode: 0
Integration Time (sec): 5.000000E-1
Scans to average: 1
Nonlinearity correction enabled: true
Boxcar width: 0
Storing dark spectrum: false
XAxis mode: Wavelengths
Number of Pixels in Spectrum: 2068
>>>>>Begin Spectral Data<<<<<
194.03	0
194.578	20.06488
195.127	8.02562
195.676	18.05779
196.225	24.06384
196.773	19.05294
197.321	56.15544
197.87	94.24234
198.418	107.27724
198.966	111.29383
199.513	128.32631
200.061	68.17507
200.609	80.21308
201.156	91.20162
201.704	96.24362
202.251	96.25697
202.798	114.29675
203.345	100.2498
203.892	113.28721
204.438	99.2369
204.985	94.22567
205.532	77.20458
206.078	82.20253
206.624	142.35689
207.17	223.51584
207.716	125.30811
208.262	150.2978
208.808	134.33775
209.354	122.30343
209.899	114.28837
210.445	122.30673
210.99	121.29704
211.535	139.32855
212.08	123.28701
212.625	125.3132
213.17	187.47309
213.715	104.24015
214.259	151.35262
214.804	67.16649
215.348	126.29292
215.892	114.27867
216.436	100.23018
216.98	104.23018
217.524	114.27441
218.068	163.40988
218.612	170.43032
219.155	169.3976
219.698	128.30519
220.242	81.20164
220.785	149.34946
221.328	110.27268
221.871	141.35876
222.414	129.31867
222.956	58.14046
223.499	66.14894
224.041	69.1593
224.583	80.17018
225.126	69.15307
225.668	107.26054
226.21	105.2666
226.751	130.28953
227.293	117.26462
227.835	108.26528
228.376	75.17191
228.918	94.23472
229.459	140.34781
230	129.3094
230.541	141.32267
231.082	120.29213
231.622	62.14168
232.163	77.18693
232.704	131.32717
233.244	109.27065
233.784	98.23795
234.324	178.39642
234.864	92.2088
235.404	104.24511
235.944	103.2429
236.484	98.24524
237.023	58.13813
237.563	136.31516
238.102	80.19045
238.641	107.26888
239.18	105.24713
239.719	78.19639
240.258	140.31296
240.797	109.26073
241.335	88.21479
241.874	176.33914
242.412	185.44404
242.95	180.43015
243.488	91.20523
244.026	119.27703
244.564	174.35417
245.102	146.32947
245.64	107.25556
246.177	48.1081
246.715	146.34877
247.252	91.20741
247.789	79.14809
248.326	125.30095
248.863	102.22557
249.4	124.28074
249.936	171.35512
250.473	153.35968
251.009	124.28348
251.546	167.37
252.082	78.16982
252.618	170.37657
253.154	127.30518
253.69	140.31257
254.226	146.34784
254.761	119.26717
255.297	63.13923
255.832	119.28313
256.367	97.22884
256.903	175.3853
257.438	137.31981
257.972	146.32341
258.507	75.1735
259.042	155.33496
259.576	153.33714
260.111	85.19639
260.645	128.2762
261.179	119.27899
261.713	128.28649
262.247	114.26041
262.781	147.30868
263.315	88.21439
263.849	119.29785
264.382	122.28003
264.915	185.4327
265.449	91.22323
265.982	151.34096
266.515	187.45293
267.048	132.27957
267.58	102.22085
268.113	92.20039
268.646	98.24045
269.178	131.29218
269.71	170.37295
270.243	178.4084
270.775	162.41269
271.307	141.33341
271.838	170.39723
272.37	96.23606
272.902	122.27621
273.433	158.34838
273.965	129.31269
274.496	156.3836
275.027	117.29147
275.558	156.37849
276.089	147.36567
276.62	86.21778
277.15	116.28514
277.681	91.19716
278.211	124.30187
278.741	94.21039
279.272	162.36826
279.802	143.3539
280.332	143.33657
280.861	95.22811
281.391	138.31294
281.921	147.34934
282.45	118.29241
282.98	125.32522
283.509	184.41437
284.038	165.375
284.567	168.38823
285.096	186.44618
285.625	120.27024
286.153	156.37109
286.682	158.3612
287.21	98.23429
287.739	151.35498
288.267	171.41309
288.795	161.41715
289.323	82.19446
289.851	180.4196
290.378	146.32421
290.906	172.41762
291.433	172.42497
291.961	169.38363
292.488	125.30981
293.015	164.38501
293.542	204.51766
294.069	168.41356
294.596	137.33383
295.122	171.40731
295.649	178.38573
296.175	168.40101
296.702	169.41057
297.228	173.41271
297.754	162.36259
298.28	176.40219
298.806	109.26382
299.332	171.3806
299.857	203.45556
300.383	194.48178
300.908	174.42485
301.433	215.51937
301.958	190.43086
302.483	101.25152
303.008	179.44169
303.533	125.32231
304.058	170.39332
304.582	147.34679
305.107	144.37355
305.631	193.43277
306.155	179.4139
306.679	164.38411
307.203	189.43476
307.727	171.40278
308.251	187.45702
308.775	240.57351
309.298	181.43312
309.822	151.37794
310.345	208.49116
310.868	206.49096
311.391	218.5289
311.914	173.43065
312.437	204.4611
312.96	166.38955
313.482	159.37233
314.005	149.37078
314.527	146.37835
315.049	213.53194
315.571	192.42902
316.093	225.54865
316.615	171.40794
317.137	186.40289
317.659	214.51139
318.18	166.39366
318.702	242.55722
319.223	203.40971
319.744	209.46556
320.265	230.55193
320.786	258.6318
321.307	190.4653
321.828	220.48996
322.348	228.52876
322.869	299.69271
323.389	362.67945
323.909	220.49604
324.43	243.57012
324.95	236.5319
325.47	242.5902
325.989	249.58031
326.509	256.56303
327.029	296.65837
327.548	259.57549
328.067	248.59172
328.587	302.73705
329.106	237.52573
329.625	262.66763
330.144	301.68129
330.662	294.67316
331.181	289.66556
331.7	253.57732
332.218	336.70414
332.736	301.686
333.255	300.68827
333.773	312.71522
334.291	321.77918
334.808	326.71215
335.326	334.7253
335.844	338.76953
336.361	351.87331
336.879	385.86889
337.396	343.80814
337.913	333.74542
338.43	398.85726
338.947	340.78596
339.464	322.6745
339.981	322.7411
340.497	337.80171
341.014	317.75096
341.53	350.76198
342.046	411.98145
342.562	384.91822
343.078	362.82116
343.594	366.83764
344.11	405.92743
344.626	407.98266
345.141	405.88525
345.657	419.90307
346.172	408.94086
346.687	361.79843
347.202	437.94832
347.717	387.88551
348.232	440.03906
348.747	441.96678
349.261	432.9017
349.776	447.00631
350.29	523.22371
350.805	451.05417
351.319	478.04391
351.833	447.97621
352.347	446.99933
352.861	541.179
353.374	453.97424
353.888	494.13429
354.401	445.95992
354.915	494.04657
355.428	503.17547
355.941	472.0347
356.454	529.09228
356.967	430.95358
357.48	493.04604
357.993	508.16882
358.505	474.08482
359.018	497.14233
359.53	563.27309
360.042	540.12176
360.554	582.31477
361.066	472.08154
361.578	598.20986
362.09	517.14803
362.602	576.18231
363.113	526.15426
363.625	550.15679
364.136	594.19407
364.647	558.22561
365.158	548.18241
365.669	593.30122
366.18	556.21097
366.691	561.13307
367.201	603.32541
367.712	629.31189
368.222	637.33448
368.733	573.14622
369.243	635.29041
369.753	588.24498
370.263	658.44251
370.773	668.47121
371.282	712.52494
371.792	676.41348
372.301	695.50994
372.811	706.67257
373.32	716.38022
373.829	722.51976
374.338	784.52816
374.847	761.55385
375.356	766.59693
375.865	882.61631
376.373	912.76963
376.882	945.04904
377.39	870.81794
377.898	886.88239
378.407	987.87767
378.915	1057.89559
379.423	1053.02234
379.93	1180.19818
380.438	1157.25018
380.946	1222.25428
381.453	1149.2367
381.96	1324.45761
382.468	1382.48114
382.975	1523.77769
383.482	1518.4734
383.989	1551.9829
384.495	1629.71672
385.002	1623.36235
385.509	1795.94604
386.015	1876.43878
386.521	1948.86672
387.028	2083.93508
387.534	2109.69855
388.04	2218.26613
388.546	2229.87447
389.051	2401.91304
389.557	2553.18379
390.063	2723.07848
390.568	2805.42156
391.073	2881.98938
391.578	3062.5239
392.084	3166.09155
392.589	3215.79767
393.093	3488.32611
393.598	3806.96087
394.103	4200.01671
394.607	4536.92972
395.112	4905.88307
395.616	5172.64603
396.12	5598.00837
396.624	6231.9628
397.128	6723.00309
397.632	7478.96685
398.136	8153.31917
398.639	8530.80172
399.143	9588.71849
399.646	10934.9402
400.15	12072.49391
400.653	13252.25457
401.156	14843.70522
401.659	17412.01933
402.162	21236.92679
402.664	27904.70206
403.167	38949.36384
403.67	60622.70176
404.172	63919.58413
404.674	63858.43483
405.176	63738.15102
405.678	63977.72923
406.18	64011.81569
406.682	63863.44694
407.184	63926.60148
407.686	63841.39382
408.187	64025.8516
408.688	63892.51763
409.19	51480.18832
409.691	41211.51794
410.192	34672.03371
410.693	30272.85695
411.194	26990.38381
411.694	25473.93719
412.195	23914.52405
412.696	21529.82166
413.196	19969.49476
413.696	19213.70101
414.196	19328.35289
414.696	18919.89923
415.196	17989.2616
415.696	16435.36739
416.196	13610.65709
416.695	10519.40731
417.195	8929.41547
417.694	8369.32061
418.194	7893.81484
418.693	7423.8025
419.192	7052.86836
419.691	7085.79331
420.19	6903.97092
420.688	6807.09769
421.187	6393.12712
421.685	6055.91913
422.184	5478.27464
422.682	4645.18912
423.18	4021.85999
423.678	3552.00079
424.176	3323.04972
424.674	3099.94151
425.172	2948.25732
425.669	2769.48626
426.167	2695.16961
426.664	2452.00963
427.161	2175.97336
427.659	2043.14287
428.156	1941.55314
428.652	1781.10625
429.149	1758.93134
429.646	1689.5588
430.143	1620.75498
430.639	1487.57928
431.135	1379.63122
431.632	1320.28518
432.128	1301.40586
432.624	1201.48132
433.12	1146.06853
433.616	1197.03258
434.111	1065.05523
434.607	1060.06649
435.103	962.64418
435.598	1044.73243
436.093	971.87132
436.588	902.69952
437.083	844.60405
437.578	814.61676
438.073	828.78958
438.568	838.77264
439.062	796.45182
439.557	691.42351
440.051	675.33628
440.546	683.36539
441.04	719.51576
441.534	624.41262
442.028	630.35785
442.522	596.28833
443.015	567.09176
443.509	544.20483
444.002	589.30057
444.496	560.093
444.989	562.23596
445.482	553.24486
445.975	555.16143
446.468	544.06372
446.961	569.10981
447.454	584.17393
447.947	565.21993
448.439	572.26956
448.931	493.03694
449.424	553.28135
449.916	540.19894
450.408	461.97353
450.9	465.04264
451.392	458.07746
451.884	434.92596
452.375	463.05897
452.867	413.86453
453.358	429.91311
453.849	478.93572
454.341	469.97436
454.832	442.88162
455.323	454.04687
455.814	411.87595
456.304	466.99336
456.795	429.90914
457.285	365.75493
457.776	463.97133
458.266	381.84863
458.756	334.7472
459.247	419.93325
459.737	451.00829
460.226	399.84927
460.716	398.88961
461.206	380.85288
461.695	376.8733
462.185	388.86261
462.674	383.81947
463.163	350.73996
463.653	324.65287
464.142	365.8325
464.63	311.71651
465.119	339.74477
465.608	371.81609
466.096	326.66868
466.585	332.71666
467.073	279.62919
467.561	286.65511
468.05	303.66317
468.538	301.7001
469.026	330.74007
469.513	306.61206
470.001	289.63307
470.489	287.65119
470.976	357.78464
471.463	283.67328
471.951	283.67172
472.438	266.59828
472.925	281.63188
473.412	240.56055
473.899	259.56951
474.385	266.62395
474.872	225.50659
475.359	266.62688
475.845	248.49282
476.331	225.46204
476.817	246.57569
477.303	285.63167
477.789	177.41074
478.275	209.5024
478.761	186.42949
479.247	235.50457
479.732	224.53999
480.218	224.56759
480.703	181.43411
481.188	223.466
481.673	235.52043
482.158	210.43951
482.643	201.49834
483.128	252.56447
483.612	242.55522
484.097	171.40215
484.581	188.42303
485.066	204.4847
485.55	236.50267
486.034	216.45267
486.518	243.56009
487.002	133.31765
487.486	171.40481
487.969	181.42815
488.453	178.43138
488.936	184.40316
489.42	201.4312
489.903	208.50123
490.386	142.28824
490.869	249.52379
491.352	159.37393
491.835	180.35836
492.318	153.33672
492.8	183.36883
493.283	178.44285
493.765	188.44823
494.247	224.5032
494.73	233.49661
495.212	215.49259
495.694	240.54467
496.175	250.57748
496.657	309.69427
497.139	269.43709
497.62	233.54046
498.102	309.73145
498.583	244.57615
499.064	344.7209
499.545	320.68957
500.026	356.75594
500.507	370.79696
500.988	476.0929
501.469	405.94119
501.949	452.02858
502.43	491.08117
502.91	568.07087
503.39	569.26995
503.87	611.28445
504.35	689.40539
504.83	739.38067
505.31	788.62685
505.79	831.66092
506.269	914.73058
506.749	1052.91602
507.228	1198.18355
507.707	1291.14615
508.187	1388.45908
508.666	1506.71847
509.145	1606.60933
509.623	1749.73665
510.102	1896.9857
510.581	2081.09953
511.059	2341.46089
511.538	2503.67207
512.016	2748.30325
512.494	2910.33081
512.972	3199.29826
513.45	3391.0932
513.928	3720.28376
514.406	4026.23264
514.884	4387.47803
515.361	4630.74111
515.839	5018.24304
516.316	5163.56322
516.793	5537.66197
517.27	5723.18072
517.747	5963.59182
518.224	6227.68558
518.701	6446.3901
519.178	6468.2004
519.654	6567.78827
520.131	6702.07434
520.607	6608.9891
521.083	6654.50914
521.56	6570.7573
522.036	6415.31185
522.512	6421.11312
522.987	6262.98318
523.463	5906.99485
523.939	5911.3453
524.414	5592.88965
524.89	5340.32476
525.365	5216.99548
525.84	4964.5917
526.315	4758.76835
526.79	4505.38643
527.265	4284.67669
527.74	4067.13656
528.215	3849.94069
528.689	3675.60729
529.164	3517.53677
529.638	3387.67142
530.112	3139.19219
530.587	3103.65018
531.061	2952.385
531.534	2827.34908
532.008	2709.39078
532.482	2570.04742
532.956	2423.58102
533.429	2375.32874
533.903	2192.71737
534.376	2094.71751
534.849	2026.85209
535.322	1953.92163
535.795	1848.94545
536.268	1837.94988
536.741	1763.80609
537.213	1693.62534
537.686	1676.85242
538.158	1522.44158
538.631	1505.63937
539.103	1449.34902
539.575	1363.99896
540.047	1372.16576
540.519	1270.32106
540.991	1199.28807
541.463	1173.21359
541.934	1118.97919
542.406	1154.18664
542.877	1050.88926
543.348	979.94625
543.82	1009.00628
544.291	989.88331
544.762	967.89565
545.233	910.94763
545.703	849.58033
546.174	850.66013
546.645	848.74224
547.115	831.7092
547.585	790.55008
548.056	844.77057
548.526	793.61487
548.996	739.53411
549.466	742.56874
549.935	727.51387
550.405	660.26905
550.875	746.53592
551.344	662.39394
551.814	656.32375
552.283	658.2573
552.752	699.43421
553.221	657.27328
553.69	690.36251
554.159	651.44421
554.628	651.30192
555.096	592.36126
555.565	545.08508
556.033	596.27569
556.502	567.23575
556.97	553.10717
557.438	540.14869
557.906	550.17405
558.374	547.14719
558.842	590.2699
559.31	528.06996
559.777	548.21672
560.245	542.12342
560.712	521.08295
561.18	543.0831
561.647	577.14357
562.114	542.12292
562.581	589.30544
563.048	571.1744
563.514	610.37642
563.981	584.19768
564.448	585.18216
564.914	562.17533
565.381	643.29837
565.847	618.28064
566.313	661.35065
566.779	631.25545
567.245	614.26497
567.711	680.43314
568.176	646.27669
568.642	682.52087
569.108	697.50788
569.573	739.47886
570.038	730.30501
570.504	793.52634
570.969	768.65064
571.434	859.59503
571.899	834.67961
572.363	967.81643
572.828	920.75298
573.293	865.66356
573.757	963.83726
574.222	919.6999
574.686	919.75318
575.15	1011.99225
575.614	1039.98823
576.078	984.89233
576.542	943.76867
577.006	934.73843
577.469	994.01434
577.933	1013.86855
578.396	984.91498
578.86	1031.96721
579.323	964.92306
579.786	956.68641
580.249	1002.92977
580.712	942.9069
581.175	871.82043
581.637	905.71476
582.1	918.64279
582.563	882.54584
583.025	845.75048
583.487	891.50253
583.95	817.47104
584.412	847.4793
584.874	779.64165
585.336	781.59401
585.797	810.48709
586.259	767.54559
586.721	738.50173
587.182	691.39289
587.643	672.33933
588.105	628.31937
588.566	685.23605
589.027	672.45653
589.488	595.22055
589.949	657.4146
590.41	580.01606
590.87	529.09814
591.331	628.21205
591.791	538.12853
592.252	557.17128
592.712	501.09816
593.172	490.01908
593.632	555.11015
594.092	475.97099
594.552	506.99663
595.011	416.88679
595.471	497.02838
595.931	469.97393
596.39	379.8557
596.849	423.91638
597.308	383.76199
597.768	412.99679
598.227	417.93456
598.685	338.72898
599.144	376.83351
599.603	354.78115
600.062	380.74845
600.52	341.72867
600.978	298.67244
601.437	362.77471
601.895	357.71953
602.353	320.66676
602.811	398.83848
603.269	300.6811
603.727	314.71779
604.184	304.66044
604.642	333.77696
605.099	312.69396
605.557	252.59066
606.014	284.58464
606.471	280.67419
606.928	300.63593
607.385	351.83244
607.842	282.61917
608.299	343.75799
608.755	273.63474
609.212	292.62194
609.668	323.6914
610.125	299.68776
610.581	283.63481
611.037	272.58388
611.493	274.61273
611.949	352.81046
612.405	311.60029
612.861	304.66522
613.316	286.65537
613.772	325.70531
614.227	317.7245
614.683	265.53779
615.138	285.63877
615.593	291.64443
616.048	288.62888
616.503	282.65501
616.958	262.63086
617.412	287.65119
617.867	322.68226
618.321	321.62495
618.776	273.57478
619.23	268.60154
619.684	272.5801
620.138	294.64035
620.592	275.63863
621.046	304.68346
621.5	215.50108
621.954	262.55441
622.407	280.59016
622.861	279.64766
623.314	255.55341
623.768	275.62118
624.221	226.42773
624.674	260.57567
625.127	270.6003
625.58	194.42273
626.033	254.5316
626.485	210.48644
626.938	226.51956
627.39	255.57201
627.843	220.48975
628.295	208.46419
628.747	258.59003
629.199	240.52518
629.651	227.50167
630.103	198.44041
630.555	194.39595
631.006	203.45706
631.458	197.44954
631.909	162.35406
632.361	165.37135
632.812	189.42484
633.263	227.47393
633.714	125.26017
634.165	178.41526
634.616	172.39605
635.067	182.38918
635.518	192.44158
635.968	173.32991
636.419	201.42468
636.869	166.38331
637.319	138.31409
637.769	161.35328
638.219	196.44807
638.669	114.2669
639.119	122.28697
639.569	147.34504
640.019	165.37166
640.468	126.27759
640.918	108.25246
641.367	132.28996
641.816	143.31114
642.265	197.44537
642.714	103.23315
643.163	174.39153
643.612	157.37612
644.061	129.27101
644.51	154.34511
644.958	159.34272
645.406	139.32562
645.855	111.26552
646.303	105.23942
646.751	178.40069
647.199	119.26541
647.647	151.34291
648.095	93.20974
648.543	162.31997
648.99	154.36168
649.438	136.30828
649.885	175.42498
650.333	146.277
650.78	130.30853
651.227	112.27011
651.674	144.32177
652.121	152.36477
652.568	163.38975
653.015	55.13542
653.461	109.25545
653.908	129.29069
654.354	126.29465
654.801	93.21565
655.247	127.26986
655.693	105.26924
656.139	135.31576
656.585	131.30688
657.031	102.23666
657.477	139.29755
657.922	106.23745
658.368	108.26145
658.813	70.15797
659.259	162.38314
659.704	141.32746
660.149	123.27853
660.594	126.29361
661.039	107.24033
661.484	92.21531
661.929	136.31129
662.373	76.18895
662.818	67.16442
663.262	67.16088
663.707	104.26082
664.151	118.28275
664.595	74.17745
665.039	112.27347
665.483	81.20391
665.927	89.20637
666.371	77.17961
666.814	83.19505
667.258	110.26106
667.701	130.27148
668.145	130.31719
668.588	135.32773
669.031	76.1771
669.474	76.18058
669.917	105.22652
670.36	100.24608
670.803	99.23591
671.245	69.14003
671.688	132.3146
672.13	120.26659
672.573	83.20714
673.015	105.24934
673.457	92.19767
673.899	127.30112
674.341	106.25128
674.783	58.13808
675.225	88.21391
675.666	127.30483
676.108	71.15212
676.549	70.16151
676.991	63.13725
677.432	117.22767
677.873	26.05932
678.314	81.1905
678.755	103.25005
679.196	57.12939
679.637	37.0882
680.078	133.30375
680.518	67.15234
680.959	23.05468
681.399	55.13507
681.839	95.22707
682.28	77.18917
682.72	84.18956
683.16	101.24795
683.6	122.27171
684.039	76.15505
684.479	75.1831
684.919	95.2202
685.358	29.0719
685.798	61.15724
686.237	47.11131
686.676	62.13888
687.115	104.24072
687.554	100.23532
687.993	87.18962
688.432	90.20219
688.871	99.22318
689.309	109.25655
689.748	84.17215
690.186	-22.05175
690.625	96.22176
691.063	40.09482
691.501	98.23822
691.939	111.27421
692.377	65.15578
692.815	126.30134
693.253	46.10858
693.69	85.18314
694.128	48.11559
694.565	92.21421
695.003	54.1367
695.44	101.23485
695.877	55.12819
696.314	30.06284
696.751	130.287
697.188	100.22751
697.625	42.09319
698.061	60.14202
698.498	28.06579
698.934	43.10188
699.371	63.14649
699.807	95.22002
700.243	64.15248
700.679	65.14293
701.115	78.17904
701.551	50.11491
701.987	18.03914
702.422	92.21565
702.858	76.17856
703.294	131.29254
703.729	63.15116
704.164	44.10398
704.599	83.18221
705.035	56.12415
705.47	49.11766
705.904	30.06897
706.339	76.17158
706.774	123.28068
707.209	85.19436
707.643	58.13696
708.078	68.16288
708.512	14.03493
708.946	21.04941
709.38	43.10113
709.814	54.12061
710.248	127.30263
710.682	90.21212
711.116	91.21751
711.549	4.01017
711.983	46.10504
712.416	146.33605
712.85	52.12707
713.283	54.12578
713.716	70.17054
714.149	-3.00693
714.582	66.14596
715.015	-7.01711
715.448	98.24161
715.881	20.0426
716.313	27.06251
716.746	61.14223
717.178	47.11161
717.61	75.18745
718.043	28.06845
718.475	37.08881
718.907	86.21022
719.339	22.0495
719.77	62.14624
720.202	44.10872
720.634	92.22112
721.065	36.08382
721.497	61.14692
721.928	60.14421
722.359	43.10345
722.79	40.0946
723.221	52.12707
723.652	51.12761
724.083	33.07333
724.514	83.18658
724.945	10.02324
725.375	57.13118
725.806	57.13806
726.236	75.18786
726.666	69.15949
727.096	71.17023
727.526	72.18219
727.956	79.17686
728.386	51.12297
728.816	72.18096
729.246	74.17921
729.675	-9.02183
730.105	59.14162
730.534	45.10319
730.964	17.04193
731.393	47.1132
731.822	71.1779
732.251	51.12733
732.68	81.1829
733.109	24.05854
733.537	96.22924
733.966	57.13998
734.395	52.11816
734.823	39.08479
735.251	18.04275
735.68	64.15452
736.108	31.07636
736.536	33.0761
736.964	49.1115
737.392	68.16635
737.82	74.17251
738.247	46.10761
738.675	58.1334
739.102	40.09818
739.53	80.2015
739.957	87.22019
740.384	40.0946
740.811	-2.00493
741.238	71.17062
741.665	53.12251
742.092	-39.08939
742.519	47.11483
742.945	88.20893
743.372	72.17522
743.798	33.08319
744.225	53.12285
744.651	56.1373
745.077	55.13447
745.503	49.11596
745.929	93.21965
746.355	61.14508
746.781	28.06771
747.207	81.18797
747.632	50.12218
748.058	72.17777
748.483	49.11046
748.908	96.23292
749.334	99.23763
749.759	91.21143
750.184	79.18615
750.609	31.07472
751.033	51.11643
751.458	87.18825
751.883	40.09661
752.307	52.11998
752.732	98.24445
753.156	36.08712
753.58	73.16766
754.005	11.02723
754.429	91.21026
754.853	58.14167
755.277	82.18995
755.7	86.20795
756.124	38.09293
756.548	40.09273
756.971	95.22525
757.394	26.06542
757.818	45.1141
758.241	49.12229
758.664	71.1752
759.087	53.11723
759.51	18.04372
759.933	46.10934
760.356	68.17189
760.778	25.06051
761.201	45.10645
761.623	11.02577
762.046	31.071
762.468	43.10077
762.89	57.13578
763.312	66.15797
763.734	69.16246
764.156	38.09216
764.578	26.05812
765	53.12639
765.421	61.15257
765.843	63.16121
766.264	61.14066
766.686	15.03661
767.107	39.09269
767.528	59.14863
767.949	9.02252
768.37	85.20534
768.791	14.033
769.212	-9.02249
769.632	47.10795
770.053	29.07444
770.473	63.14788
770.894	7.01694
771.314	58.13313
771.734	66.14967
772.154	21.05264
772.575	70.15655
772.994	19.0422
773.414	50.11582
773.834	30.07323
774.254	22.05268
774.673	72.17174
775.093	55.13397
775.512	25.06069
775.931	60.14863
776.351	39.09542
776.77	35.08436
777.189	61.14117
777.607	55.13717
778.026	29.07088
778.445	30.07486
778.864	14.03482
779.282	63.14579
779.701	16.03942
780.119	20.04985
780.537	21.05125
780.955	40.09872
781.373	43.10368
781.791	74.1633
782.209	41.08993
782.627	19.0492
783.045	40.08853
783.462	57.1419
783.88	53.13414
784.297	68.16641
784.715	23.05827
785.132	46.10778
785.549	26.06358
785.966	41.10076
786.383	32.07747
786.8	77.17273
787.217	77.17869
787.633	23.05688
788.05	50.11274
788.466	22.04993
788.883	89.22204
789.299	15.03484
789.715	37.08817
790.131	31.07534
790.547	31.07543
790.963	71.17042
791.379	26.06436
791.795	32.0702
792.21	23.05208
792.626	30.06872
793.041	47.11256
793.457	18.04318
793.872	12.02731
794.287	80.18774
794.702	-8.01902
795.117	11.02692
795.532	63.15466
795.947	40.09207
796.362	27.06134
796.776	46.10215
797.191	42.10026
797.605	38.08803
798.02	-9.02146
798.434	58.12462
798.848	60.14547
799.262	-3.0073
799.676	56.13234
800.09	44.10507
800.504	50.11697
800.918	50.1109
801.331	-3.00753
801.745	29.06428
802.158	7.01695
802.572	64.14996
802.985	25.05818
803.398	31.07157
803.811	19.04661
804.224	8.01918
804.637	19.04432
805.05	20.04467
805.462	69.16253
805.875	46.11644
806.288	51.12008
806.7	1.00243
807.112	59.13056
807.525	28.06602
807.937	28.06758
808.349	58.13946
808.761	75.17865
809.173	26.06159
809.584	16.03828
809.996	14.03337
810.408	6.01534
810.819	36.08224
811.231	86.22272
811.642	57.13744
812.053	105.24598
812.464	23.05293
812.875	64.15918
813.286	58.14614
813.697	24.05292
814.108	45.10579
814.519	135.28761
814.929	60.14743
815.34	-5.01171
815.75	30.07489
816.16	25.05971
816.571	36.09055
816.981	20.04523
817.391	-8.01867
817.801	46.11119
818.211	0
818.62	64.14937
819.03	37.08756
819.44	-19.04778
819.849	2.00486
820.259	23.05659
820.668	4.00964
821.077	78.1884
821.486	58.13265
821.895	44.10342
822.304	21.05411
822.713	30.06834
823.122	41.09882
823.531	13.02945
823.939	62.1463
824.348	38.08872
824.756	43.10357
825.164	25.06074
825.573	27.06584
825.981	31.07401
826.389	78.1879
826.797	86.21085
827.205	97.21411
827.612	13.03099
828.02	1.00227
828.428	40.09854
828.835	14.03622
829.243	14.03211
829.65	16.03902
830.057	10.02345
830.464	71.16854
830.871	78.17983
831.278	49.1143
831.685	33.07058
832.092	-1.00236
832.499	64.13472
832.905	26.06339
833.312	21.04532
833.718	84.20235
834.124	70.15357
834.531	38.09168
834.937	50.12454
835.343	20.04631
835.749	66.14528
836.155	26.06619
836.561	58.1376
836.966	36.08468
837.372	43.10525
837.777	35.08474
838.183	47.09961
838.588	31.07509
838.993	42.09876
839.399	53.12552
839.804	-15.03579
840.209	68.16894
840.613	-10.02156
841.018	26.06346
841.423	35.0871
841.828	41.10088
842.232	2.00473
842.637	94.21403
843.041	33.08248
843.445	-3.00727
843.849	46.11043
844.253	52.11835
844.657	18.04434
845.061	85.18738
845.465	29.06778
845.869	52.116
846.272	39.09226
846.676	4.00921
847.079	33.08203
847.483	74.17657
847.886	41.09518
848.289	38.09983
848.692	-12.02944
849.095	18.04165
849.498	71.1701
849.901	47.10248
850.304	15.03466
850.707	52.1274
851.109	75.18105
851.512	72.17029
851.914	17.04195
852.316	72.17718
852.718	37.09514
853.121	61.1438
853.523	-11.02481
853.925	31.07938
854.326	12.02937
854.728	77.19113
855.13	30.07589
855.531	22.051
855.933	29.06647
856.334	62.15009
856.736	73.15769
857.137	75.16832
857.538	42.10286
857.939	40.09694
858.34	74.17067
858.741	11.02788
859.142	25.05767
859.542	20.05172
859.943	29.06966
860.343	-11.02676
860.744	51.11966
861.144	86.20253
861.544	50.11743
861.945	17.042
862.345	6.01416
862.745	60.14459
863.145	9.02041
863.544	48.11747
863.944	37.08413
864.344	14.03324
864.743	84.19898
865.143	64.15987
865.542	24.05292
865.941	40.09596
866.34	34.07738
866.74	68.17641
867.139	67.1561
867.537	6.01469
867.936	64.14843
868.335	38.0932
868.734	6.01495
869.132	25.05523
869.531	53.12148
869.929	30.0662
870.327	20.04635
870.726	32.07621
871.124	64.14177
871.522	60.14656
871.92	38.09043
872.318	15.03522
872.715	47.11019
873.113	29.0678
873.511	47.11238
873.908	45.11166
874.306	38.0921
874.703	-19.04588
875.1	22.0537
875.497	26.05989
875.894	12.02908
876.291	80.18825
876.688	47.11726
877.085	28.0643
877.482	34.08215
877.878	42.0988
878.275	24.05926
878.671	28.05785
879.068	62.14334
879.464	52.12065
879.86	17.03884
880.256	-3.00707
880.652	0
881.048	7.01663
881.444	16.03621
881.84	-3.00741
882.236	55.13287
882.631	50.11876
883.027	35.08125
883.422	10.02466
883.817	-17.04204
884.213	35.08691
884.608	70.1685
885.003	1.00232
885.398	19.04613
885.793	-6.01459
886.188	-16.03869
886.582	48.11751
886.977	43.09729
887.371	-10.02445
887.766	49.11815
888.16	-11.02623
888.554	3.00714
888.949	58.13988
889.343	28.06561
889.737	-21.05537
890.131	59.14232
890.525	63.15615
890.918	-12.02939
891.312	-8.01837
891.706	24.06093
892.099	74.17995
892.492	71.14429
892.886	8.01891
893.279	20.04924
893.672	28.06951
894.065	37.08952
894.458	14.03375
894.851	31.07268
895.244	31.07653
895.637	63.14591
896.029	20.04761
896.422	5.01168
896.814	21.05031
897.206	42.09764
897.599	74.17488
897.991	29.06812
898.383	50.11362
898.775	81.17609
899.167	31.07074
899.559	35.08471
899.951	36.08074
900.342	-11.02696
900.734	38.09334
901.125	3.0076
901.517	31.07359
901.908	33.07491
902.299	15.03562
902.69	29.06658
903.082	50.11628
903.473	98.2271
903.863	-15.03708
904.254	92.20558
904.645	42.09918
905.036	70.16581
905.426	60.12891
905.817	15.03535
906.207	-67.15487
906.597	78.17588
906.987	10.02494
907.378	23.05665
907.768	38.09763
908.158	32.07501
908.547	32.08124
908.937	5.0123
909.327	14.03279
909.717	-5.01213
910.106	47.10782
910.495	22.05243
910.885	57.13926
911.274	39.09379
911.663	5.0122
912.052	24.05645
912.441	37.09164
912.83	17.03729
913.219	1.00254
913.608	-8.01913
913.997	27.06614
914.385	94.21351
914.774	64.14884
915.162	87.19997
915.55	17.03939
915.939	6.01483
916.327	52.12365
916.715	65.16187
917.103	56.12972
917.491	40.0949
917.878	26.06152
918.266	-5.01257
918.654	49.12171
919.041	80.20337
919.429	48.10859
919.816	23.05632
920.203	50.11771
920.591	49.11712
920.978	31.07316
921.365	48.12216
921.752	0
922.139	19.03962
922.525	13.03032
922.912	36.08415
923.299	4.00966
923.685	8.02009
924.072	-31.06768
924.458	44.10547
924.844	6.0144
925.231	26.05762
925.617	31.07714
926.003	34.08364
926.389	29.07064
926.774	28.06829
927.16	65.15436
927.546	67.16721
927.931	4.00961
928.317	38.08323
928.702	78.1748
929.088	79.18253
929.473	33.08185
929.858	19.04528
930.243	48.1119
930.628	63.14857
931.013	23.05519
931.398	-3.00654
931.783	4.01013
932.167	68.16101
932.552	9.02178
932.937	59.13951
933.321	47.11461
933.705	-52.12697
934.09	7.01677
934.474	51.11474
934.858	32.08051
935.242	42.09296
935.626	30.0747
936.009	11.02878
936.393	42.10465
936.777	85.20983
937.16	62.15667
937.544	27.0601
937.927	14.03466
938.311	38.08852
938.694	42.10775
939.077	-16.03721
939.46	11.0255
939.843	49.09453
940.226	1.00248
940.609	40.08923
940.991	-9.02214
941.374	23.05466
941.757	42.09922
942.139	44.09498
942.522	16.0362
942.904	30.06947
943.286	38.09275
943.668	78.19611
944.05	65.15352
944.432	10.02378
944.814	23.05407
945.196	27.06407
945.578	15.03508
945.959	26.05793
946.341	21.04871
946.722	36.08058
947.104	52.11917
947.485	68.15094
947.866	49.11994
948.247	59.14457
948.628	2.00462
949.009	16.03972
949.39	45.10694
949.771	-9.01974
950.152	62.14601
950.532	30.07339
950.913	56.12911
951.293	54.1424
951.674	20.04668
952.054	72.17436
952.434	38.09106
952.814	22.04977
953.194	0
953.574	35.08254
953.954	38.08561
954.334	64.15452
954.714	8.01898
955.093	97.2267
955.473	31.07574
955.853	17.0427
956.232	33.08762
956.611	32.07271
956.99	21.05129
957.37	25.06115
957.749	10.02263
958.128	61.14859
958.506	46.11541
958.885	36.08725
959.264	45.10756
959.643	85.18487
960.021	68.16269
960.4	17.03699
960.778	1.00235
961.156	-26.06327
961.535	40.08831
961.913	70.15713
962.291	59.14767
962.669	27.0665
963.047	33.08185
963.424	65.16169
963.802	42.0996
964.18	46.10997
964.557	39.08551
964.935	92.20659
965.312	42.10632
965.69	12.02878
966.067	-4.00932
966.444	17.03962
966.821	52.12928
967.198	21.04846
967.575	64.14937
967.952	7.01586
968.329	75.17549
968.705	135.27234
969.082	65.16263
969.458	55.12839
969.835	66.15355
970.211	86.21374
970.587	-4.00969
970.963	28.06875
971.339	28.07118
971.715	52.12503
972.091	46.10867
972.467	7.01664
972.843	97.2323
973.219	73.16517
973.594	34.08607
973.97	-12.02688
974.345	8.0186
974.721	9.0207
975.096	62.14487
975.471	10.02278
975.846	0
976.221	32.0786
976.596	134.30856
976.971	78.18541
977.346	27.0598
977.72	26.06365
978.095	51.12682
978.469	50.11366
978.844	50.11995
979.218	91.21101
979.593	19.04362
979.967	-10.02315
980.341	58.1281
980.715	57.13832
981.089	9.02179
981.463	25.05514
981.837	43.10235
982.21	47.10144
982.584	43.10022
982.957	35.08484
983.331	-12.02702
983.704	58.1385
984.078	42.0993
984.451	0
984.824	17.04028
985.197	21.04833
985.57	2.00478
985.943	26.06063
986.316	25.05811
986.688	13.03018
987.061	94.2097
987.434	62.15767
987.806	-4.00924
988.179	2.00454
988.551	53.12852
988.923	44.10338
989.295	16.0384
989.667	22.05151
990.039	54.13043
990.411	-28.06148
990.783	15.03271
991.155	42.09741
991.527	39.09029
991.898	43.10364
992.27	60.14383
992.641	2.00483
993.012	-26.05771
993.384	35.07968
993.755	15.03727
994.126	82.18965
994.497	13.03085
994.868	17.03704
995.239	7.01633
995.61	14.03413
995.98	63.14603
996.351	-16.03884
996.722	11.02491
997.092	57.12981
997.462	1.00229
997.833	45.10107
998.203	29.0665
998.573	24.05795
998.943	50.11283
999.313	31.07191
999.683	66.15186
1000.053	-22.0478
1000.423	5.01164
1000.792	8.01987
1001.162	21.04947
1001.531	45.10678
1001.901	33.07876
1002.27	1.0021
1002.639	-13.03204
1003.009	60.13584
1003.378	35.08653
1003.747	-11.02497
1004.116	21.04827
1004.485	26.0597
1004.853	6.0145
1005.222	-35.08443
1005.591	39.08839
1005.959	26.05646
1006.328	17.03691
1006.696	-9.02093
1007.064	-12.02902
1007.433	31.07396
1007.801	-15.03506
1008.169	11.02656
1008.537	71.1487
1008.905	41.0922
1009.273	23.05428
1009.64	42.09749
1010.008	60.13617
1010.375	-3.00691
1010.743	23.04919
1011.11	73.16806
1011.478	25.06012
1011.845	76.1687
1012.212	58.12666
1012.579	29.06868
1012.946	38.08554
1013.313	30.06784
1013.68	66.13985
1014.047	-36.08346
1014.414	4.0091
1014.78	18.04339
1015.147	34.07785
1015.513	40.09244
1015.88	29.07096
1016.246	7.01646
1016.612	68.14635
1016.978	38.09012
1017.344	48.1141
1017.71	-9.02109
1018.076	38.08477
1018.442	49.12171
1018.808	64.15482
1019.174	-8.01934
1019.539	0
1019.905	23.05246
1020.27	16.03802
1020.636	39.08824
1021.001	40.09215
1021.366	25.05806
1021.731	102.25378
1022.096	-18.04465
1022.461	63.14261
1022.826	17.03925
1023.191	25.06352
1023.556	7.0157
1023.92	-7.01649
1024.285	9.02094
1024.649	-16.03777
1025.014	-7.01658
1025.378	52.1264
1025.742	2.00476
1026.107	55.11784
1026.471	7.01561
1026.835	41.09763
1027.199	23.05342
1027.562	-12.02664
1027.926	12.02811
1028.29	37.09026
1028.654	66.14351
1029.017	51.1205
1029.381	61.13965
1029.744	64.15662
1030.107	51.11521
1030.471	40.09237
1030.834	0
1031.197	36.08303
1031.56	12.02708
1031.923	18.04514
1032.286	7.01583
1032.648	40.09016
1033.011	48.10686
1033.374	19.04236
1033.736	8.02045
1034.099	22.05169
1034.461	69.16839
1034.823	29.06993
1035.185	18.0433
1035.548	56.13106
1035.91	9.02073
1036.272	61.13284
1036.634	70.16318
1036.995	-40.0906
1037.357	39.09161
1037.719	52.12127
1038.08	57.13039
1038.442	39.08846
1038.803	-24.05491
1039.165	19.04604
1039.526	46.10656
1039.887	11.02532
1040.248	44.10603
1040.609	11.02592
1040.97	20.0469
1041.331	39.09578
1041.692	54.12276
1042.053	49.10548
1042.413	53.11684
1042.774	45.10513
1043.134	-6.0136
1043.495	42.10141
1043.855	63.1477
1044.215	40.09471
1044.576	22.051
1044.936	45.0977
1045.296	30.07202
1045.656	-10.02349
1046.016	64.14631
1046.375	53.12294
1046.735	12.02667
1047.095	55.12282
1047.454	43.08523
1047.814	17.03939
1048.173	43.09666
1048.533	26.05704
1048.892	-8.01868
1049.251	10.02405
1049.61	18.04279
1049.969	29.0653
1050.328	17.03523
1050.687	-11.02573
1051.046	42.09756
1051.405	-31.07427
1051.763	20.04469
1052.122	-3.00723
1052.48	31.07333
1052.839	68.15508
1053.197	34.07654
1053.555	53.11208
1053.914	26.06092
1054.272	5.01138
1054.63	7.01658
1054.988	35.08058
1055.345	0
1055.703	56.129
1056.061	71.1772
1056.419	77.19426
1056.776	17.03893
1057.134	-11.0241
1057.491	42.1011
1057.848	4.00956
1058.206	-7.01561
1058.563	15.03154
1058.92	46.10054
1059.277	27.06407
1059.634	9.02005
1059.991	79.18035
1060.348	54.11667
1060.704	70.16293
1061.061	28.06094
1061.418	-6.0141
1061.774	4.00955
1062.131	34.08836
1062.487	41.09099
1062.843	57.13593
1063.199	19.04561
1063.555	31.06951
1063.911	17.04116
1064.267	60.11584
1064.623	54.12707
1064.979	-54.11977
1065.335	35.07932
1065.691	-2.00455
1066.046	59.12247
1066.402	6.013
1066.757	17.04147
1067.112	-4.00945
1067.468	59.13491
1067.823	-42.09606
1068.178	22.05076
1068.533	23.05359
1068.888	44.0999
1069.243	28.0665
1069.598	-25.05852
1069.952	84.18328
1070.307	22.0528
1070.662	42.09683
1071.016	32.06964
1071.371	52.11331
1071.725	44.09958
1072.079	60.13805
1072.434	0
1072.788	6.01356
1073.142	80.18759
1073.496	1.00228
1073.85	17.03773
1074.203	44.10237
1074.557	47.1222
1074.911	29.0658
1075.265	2.00447
1075.618	77.17918
1075.971	2.00458
1076.325	36.08888
1076.678	25.05481
1077.031	-32.06849
1077.385	31.06475
1077.738	26.05593
1078.091	66.144
1078.444	10.02199
1078.796	5.01194
1079.149	69.1643
1079.502	31.0708
1079.855	16.0359
1080.207	43.10113
1080.56	29.0729
1080.912	6.01406
1081.264	53.12255
1081.617	28.06589
1081.969	37.09046
1082.321	23.0538
1082.673	41.09095
1083.025	-5.01137
1083.377	26.05853
1083.728	39.08637
1084.08	25.05967
1084.432	18.04156
1084.783	-5.01105
1085.135	40.09687
1085.486	11.02435
1085.838	46.10905
1086.189	52.12194
1086.54	20.04565
1086.891	80.1973
1087.242	78.18433
1087.593	-5.01157
1087.944	63.13679
1088.295	42.09067
1088.646	82.19304
1088.996	44.10225
1089.347	21.04925
1089.698	20.04602
1090.048	-5.01253
1090.398	43.0944
1090.749	37.08389
1091.099	15.03696
1091.449	45.1081
1091.799	41.09856
1092.149	34.08097
1092.499	10.02354
1092.849	45.11019
1093.199	17.0407
1093.548	16.03748
1093.898	-10.02415
1094.248	15.03687
1094.597	28.06999
1094.947	27.06994
1095.296	44.10491
1095.645	28.06999
1095.994	59.13518
1096.343	49.11887
1096.692	37.09561
1097.041	33.08809
1097.39	13.03129
1097.739	41.10262
1098.088	27.0695
1098.437	38.098
1098.785	1.0026
1099.134	-12.0305
1099.482	36.0964
1099.83	0
1100.179	49.12573
1100.527	1.00255
1100.875	42.10817
1101.223	38.09831
1101.571	-47.1272
1101.919	44.11367
1102.267	15.04158
1102.615	-4.01286
1102.962	-1.00321
1103.31	5.01606
1103.658	-2.00641
