Data from N3 R1 sample 8_Subt2__2__15-09-50-075.txt Node

Date: Wed Sep 17 15:09:50 PDT 2025
User: uwsun
Spectrometer: HDX01956
Trigger mode: 0
Integration Time (sec): 5.000000E-1
Scans to average: 1
Nonlinearity correction enabled: true
Boxcar width: 0
Storing dark spectrum: false
XAxis mode: Wavelengths
Number of Pixels in Spectrum: 2068
>>>>>Begin Spectral Data<<<<<
194.03	60.17266
194.578	71.22895
195.127	64.20362
195.676	83.26442
196.225	74.1952
196.773	98.26971
197.321	118.32434
197.87	188.47672
198.418	207.52704
198.966	253.65366
199.513	244.60924
200.061	189.47628
200.609	190.49677
201.156	220.4743
201.704	185.46202
202.251	193.5083
202.798	177.45575
203.345	249.60512
203.892	206.51493
204.438	216.5053
204.985	212.49749
205.532	212.5505
206.078	213.51337
206.624	310.75544
207.17	253.58174
207.716	249.59968
208.262	232.45178
208.808	273.67088
209.354	216.52798
209.899	230.56971
210.445	250.61403
210.99	273.65124
211.535	235.5451
212.08	232.52972
212.625	222.54647
213.17	264.65869
213.715	250.56045
214.259	250.57243
214.804	226.54522
215.348	233.53018
215.892	282.66767
216.436	221.49636
216.98	228.49154
217.524	277.64607
218.068	239.59276
218.612	247.61662
219.155	230.53467
219.698	253.58871
220.242	196.47767
220.785	281.64197
221.328	234.56686
221.871	265.65939
222.414	209.50868
222.956	171.40528
223.499	177.39035
224.041	229.51179
224.583	192.39846
225.126	207.44599
225.668	183.43924
226.21	221.54952
226.751	260.56342
227.293	184.41046
227.835	233.55902
228.376	190.42543
228.918	210.51331
229.459	230.56199
230	253.59242
230.541	217.48898
231.082	212.50719
231.622	156.34973
232.163	176.4193
232.704	265.64568
233.244	231.56075
233.784	219.51963
234.324	263.57539
234.864	188.41835
235.404	196.45366
235.944	209.48269
236.484	243.59209
237.023	219.50538
237.563	253.57266
238.102	244.5625
238.641	215.52973
239.18	216.49736
239.719	236.57729
240.258	268.58323
240.797	248.57742
241.335	224.53283
241.874	248.4696
242.412	248.58809
242.95	249.58716
243.488	222.48723
244.026	212.48445
244.564	317.62421
245.102	229.50799
245.64	218.50957
246.177	214.46552
246.715	248.58083
247.252	209.46498
247.789	268.47896
248.326	237.55843
248.863	237.5093
249.4	271.59514
249.936	278.56353
250.473	236.5458
251.009	220.4932
251.546	261.56691
252.082	188.39974
252.618	259.56304
253.154	214.50572
253.69	188.41557
254.226	259.60362
254.761	252.55028
255.297	222.47429
255.832	215.50207
256.367	236.54168
256.903	304.65116
257.438	251.57275
257.972	177.38954
258.507	192.4338
259.042	243.51522
259.576	317.67445
260.111	235.52672
260.645	313.64855
261.179	234.53622
261.713	225.4935
262.247	220.49178
262.781	269.54965
263.315	190.45404
263.849	228.55938
264.382	249.55695
264.915	204.47536
265.449	186.44822
265.982	243.53837
266.515	235.56403
267.048	283.57957
267.58	243.51027
268.113	288.60115
268.646	247.58922
269.178	251.54589
269.71	323.68572
270.243	285.63983
270.775	279.69598
271.307	211.49215
271.838	250.57495
272.37	244.58352
272.902	206.4584
273.433	258.55693
273.965	250.59215
274.496	250.60402
275.027	247.60071
275.558	263.62522
276.089	293.70936
276.62	238.58629
277.15	253.60608
277.681	223.46951
278.211	247.58742
278.741	248.53741
279.272	252.56238
279.802	272.65716
280.332	265.60884
280.861	242.56478
281.391	303.66401
281.921	263.61101
282.45	261.62976
282.98	292.73775
283.509	264.58477
284.038	326.71666
284.567	250.56828
285.096	293.68848
285.625	222.48949
286.153	311.71765
286.682	301.66824
287.21	275.63509
287.739	287.65674
288.267	252.59942
288.795	308.77761
289.323	247.56703
289.851	356.801
290.378	254.55135
290.906	262.62536
291.433	315.75773
291.961	288.63792
292.488	284.6833
293.015	296.67692
293.542	326.80921
294.069	324.77449
294.596	273.64824
295.122	326.7533
295.649	294.6213
296.175	259.60742
296.702	318.75085
297.228	265.621
297.754	300.65231
298.28	314.69754
298.806	319.74138
299.332	361.77174
299.857	297.65361
300.383	319.77403
300.908	356.83958
301.433	321.75985
301.958	282.6275
302.483	330.78733
303.008	341.81621
303.533	308.76872
304.058	320.71824
304.582	309.70593
305.107	267.67785
305.631	297.65169
306.155	324.72752
306.679	329.74556
307.203	369.81816
307.727	312.71465
308.251	339.80492
308.775	375.87287
309.298	322.74968
309.822	321.77859
310.345	388.88405
310.868	386.88801
311.391	370.87191
311.914	392.93663
312.437	375.81796
312.96	350.79169
313.482	333.75309
314.005	329.7917
314.527	338.84662
315.049	404.97376
315.571	389.83374
316.093	425.99738
316.615	404.9205
317.137	435.89205
317.659	394.90894
318.18	397.89926
318.702	415.92243
319.223	383.74104
319.744	410.87514
320.265	400.92865
320.786	462.08605
321.307	398.93678
321.828	476.00178
322.348	464.02354
322.869	426.96198
323.389	777.30906
323.909	481.02453
324.43	424.95942
324.95	484.03339
325.47	495.1477
325.989	476.0575
326.509	491.02456
327.029	535.1289
327.548	504.06082
328.067	511.15535
328.587	542.26104
329.106	492.03142
329.625	547.32077
330.144	565.20795
330.662	515.12462
331.181	531.16158
331.7	531.14151
332.218	570.13099
332.736	562.21111
333.255	544.1848
333.773	528.15573
334.291	606.3896
334.808	623.27347
335.326	559.15381
335.844	617.32326
336.361	656.53852
336.879	673.42737
337.396	673.4813
337.913	627.31639
338.43	643.31025
338.947	654.41506
339.464	655.2694
339.981	654.40301
340.497	651.45258
341.014	688.51023
341.53	620.27048
342.046	731.63592
342.562	715.59878
343.078	725.52107
343.594	717.52278
344.11	733.56557
344.626	718.62887
345.141	719.46534
345.657	743.48825
346.172	796.69107
346.687	750.52202
347.202	857.69161
347.717	794.6656
348.232	814.78401
348.747	820.65214
349.261	761.47097
349.776	801.67403
350.29	830.82595
350.805	845.82362
351.319	791.61445
351.833	853.70101
352.347	843.73235
352.861	876.77479
353.374	801.59201
353.888	903.90482
354.401	863.69312
354.915	906.74879
355.428	883.91053
355.941	925.83623
356.454	892.69379
356.967	861.73603
357.48	898.73912
357.993	904.91649
358.505	910.90158
359.018	1061.16351
359.53	1002.06282
360.042	984.84435
360.554	1026.10759
361.066	976.01011
361.578	1013.85739
362.09	1002.00109
362.602	1044.91963
363.113	990.96222
363.625	1043.9585
364.136	1101.95858
364.647	1085.11983
365.158	1063.04159
365.669	1091.1436
366.18	1067.07282
366.691	1105.95762
367.201	1092.1541
367.712	1137.10586
368.222	1183.18157
368.733	1125.96744
369.243	1198.1255
369.753	1167.16052
370.263	1243.39047
370.773	1142.2655
371.282	1299.43185
371.792	1231.26024
372.301	1267.41933
372.811	1301.72618
373.32	1320.18209
373.829	1324.42132
374.338	1431.36876
374.847	1483.54002
375.356	1402.51464
375.865	1605.42146
376.373	1581.58901
376.882	1635.03074
377.39	1638.8495
377.898	1670.95086
378.407	1764.74071
378.915	1894.69579
379.423	1890.92397
379.93	2073.04362
380.438	2014.14662
380.946	2170.09897
381.453	2267.29343
381.96	2274.27312
382.468	2434.26211
382.975	2729.56667
383.482	2789.07603
383.989	2829.87881
384.495	2937.3076
385.002	3001.73413
385.509	3236.42181
386.015	3480.47462
386.521	3632.02276
387.028	3758.96044
387.534	3818.5651
388.04	3968.26548
388.546	4041.64944
389.051	4248.52276
389.557	4588.66097
390.063	4922.29733
390.568	5302.51575
391.073	5338.95017
391.578	5561.48451
392.084	5678.93017
392.589	5910.52231
393.093	6428.97171
393.598	6944.67942
394.103	7649.04151
394.607	8338.61323
395.112	8828.28885
395.616	9433.35336
396.12	10118.16911
396.624	11208.14968
397.128	12062.23175
397.632	13469.56999
398.136	14675.90964
398.639	15499.47254
399.143	17289.17104
399.646	19358.94526
400.15	21759.48919
400.653	24005.52061
401.156	26940.98944
401.659	31417.58658
402.162	38101.0923
402.664	49826.38101
403.167	62111.19464
403.67	63769.22307
404.172	63919.58413
404.674	63858.43483
405.176	63738.15102
405.678	63977.72923
406.18	64011.81569
406.682	63863.44694
407.184	63926.60148
407.686	63841.39382
408.187	64025.8516
408.688	63892.51763
409.19	63833.37461
409.691	63977.72923
410.192	62538.95634
410.693	54199.29043
411.194	48833.09257
411.694	46084.6827
412.195	43055.96404
412.696	38857.15906
413.196	35918.91486
413.696	34675.20479
414.196	35330.61088
414.696	34957.07643
415.196	32976.01955
415.696	29945.85261
416.196	24790.0052
416.695	19213.16169
417.195	16225.73672
417.694	15373.30714
418.194	14448.15213
418.693	13448.77911
419.192	13048.5442
419.691	12650.03139
420.19	12430.37084
420.688	12030.94307
421.187	11763.80752
421.685	10925.0176
422.184	9943.6126
422.682	8653.77994
423.18	7253.72346
423.678	6498.65789
424.176	6001.78063
424.674	5705.7382
425.172	5427.23109
425.669	5018.76687
426.167	4745.52021
426.664	4348.5859
427.161	4027.83471
427.659	3739.32214
428.156	3470.60184
428.652	3238.70246
429.149	3168.45652
429.646	3103.9555
430.143	2845.37889
430.639	2718.29906
431.135	2539.55968
431.632	2327.01898
432.128	2264.23075
432.624	2139.51878
433.12	2046.88445
433.616	1980.68742
434.111	1961.00081
434.607	1761.87863
435.103	1851.44326
435.598	1751.36351
436.093	1678.69875
436.588	1655.55836
437.083	1551.45296
437.578	1515.52661
438.073	1392.64782
438.568	1422.62715
439.062	1328.10297
439.557	1323.34282
440.051	1224.11599
440.546	1178.08773
441.04	1141.1834
441.534	1179.3677
442.028	1150.2033
442.522	1124.15646
443.015	1081.82903
443.509	1072.11358
444.002	1090.15515
444.496	1000.75141
444.989	957.93156
445.482	993.03377
445.975	993.87906
446.468	1016.76836
446.961	994.74634
447.454	925.71527
447.947	917.83216
448.439	936.92147
448.931	973.83309
449.424	957.03908
449.916	913.87127
450.408	851.64208
450.9	862.77659
451.392	848.84452
451.884	862.66692
452.375	757.63012
452.867	819.5591
453.358	795.55587
453.849	869.54333
454.341	801.53955
454.832	784.43854
455.323	790.70087
455.814	714.41987
456.304	743.48688
456.795	772.51186
457.285	730.38503
457.776	774.51078
458.266	727.50112
458.756	711.46477
459.247	662.39822
459.737	669.42937
460.226	745.46475
460.716	700.46501
461.206	668.40844
461.695	642.41035
462.185	642.35
462.674	600.22167
463.163	651.28388
463.653	605.13882
464.142	637.3709
464.63	571.245
465.119	581.20949
465.608	634.3156
466.096	610.16936
466.585	544.11903
467.073	559.18633
467.561	594.27414
468.05	568.17163
468.538	516.147
469.026	526.13002
469.513	474.91121
470.001	541.1201
470.489	506.09491
470.976	527.11491
471.463	538.21476
471.951	498.13071
472.438	476.02242
472.925	466.00606
473.412	443.99322
473.899	456.96108
474.385	472.06032
474.872	386.84034
475.359	461.04297
475.845	475.894
476.331	387.76564
476.817	463.03517
477.303	384.8335
477.789	359.80295
478.275	388.9008
478.761	379.84138
479.247	410.84705
479.732	341.80374
480.218	408.99972
480.703	338.7863
481.188	380.76641
481.673	324.70418
482.158	359.72655
482.643	388.92885
483.128	398.86462
483.612	372.83116
484.097	307.70278
484.581	381.8233
485.066	326.7563
485.55	344.71549
486.034	280.57849
486.518	380.85183
487.002	291.67391
487.486	302.69675
487.969	243.56789
488.453	247.5908
488.936	278.59702
489.42	277.58448
489.903	267.63619
490.386	186.37376
490.869	267.55942
491.352	250.57748
491.835	237.46558
492.318	246.5308
492.8	268.52959
493.283	285.69518
493.765	233.55072
494.247	284.63011
494.73	266.56287
495.212	230.52537
495.694	241.54683
496.175	266.61248
496.657	252.57283
497.139	215.35465
497.62	191.44673
498.102	185.44842
498.583	180.43031
499.064	211.45519
499.545	216.47586
500.026	193.42439
500.507	166.37322
500.988	242.58271
501.469	176.42749
501.949	171.412
502.43	224.52175
502.91	240.48962
503.39	175.42291
503.87	255.57883
504.35	164.37477
504.83	179.38119
505.31	183.42936
505.79	153.35406
506.269	150.33725
506.749	182.40483
507.228	159.36634
507.707	203.43925
508.187	190.44169
508.666	159.3857
509.145	143.32829
509.623	164.37537
510.102	165.39016
510.581	223.52014
511.059	146.36073
511.538	195.48893
512.016	175.40931
512.494	170.39894
512.972	185.43151
513.45	163.37196
513.928	188.44514
514.406	172.41213
514.884	159.40169
515.361	176.41108
515.839	176.3957
516.316	195.46109
516.793	154.38105
517.27	169.39714
517.747	151.38025
518.224	196.43868
518.701	161.34807
519.178	162.39703
519.654	144.33489
520.131	139.33858
520.607	131.31503
521.083	103.23106
521.56	134.31077
522.036	137.29327
522.512	182.43842
522.987	157.37081
523.463	156.36237
523.939	169.41041
524.414	140.3149
524.89	143.33539
525.365	138.30658
525.84	118.28016
526.315	164.38892
526.79	166.36617
527.265	197.44264
527.74	109.26163
528.215	130.29863
528.689	115.24905
529.164	81.17287
529.638	81.20398
530.112	85.19866
530.587	110.23298
531.061	122.29144
531.534	94.22473
532.008	150.35819
532.482	121.27456
532.956	97.24524
533.429	188.44858
533.903	117.25327
534.376	125.27256
534.849	95.2167
535.322	117.27269
535.795	116.27668
536.268	132.31484
536.741	132.30856
537.213	122.27677
537.686	111.26866
538.158	101.22788
538.631	122.29166
539.103	153.33912
539.575	164.33001
540.047	135.28974
540.519	165.38592
540.991	113.27247
541.463	102.2431
541.934	109.24381
542.406	119.28259
542.877	111.24798
543.348	153.36276
543.82	129.30928
544.291	134.30831
544.762	148.34637
545.233	192.47472
545.703	140.30675
546.174	118.27063
546.645	112.26837
547.115	164.38817
547.585	129.29283
548.056	200.4794
548.526	133.31169
548.996	176.41157
549.466	217.51191
549.935	201.4679
550.405	195.41742
550.875	178.41363
551.344	168.39255
551.814	190.4249
552.283	227.47961
552.752	221.50288
553.221	190.4098
553.69	283.61286
554.159	226.54625
554.628	188.41678
555.096	215.53227
555.565	183.39563
556.033	231.53413
556.502	192.45232
556.97	169.36896
557.438	198.45319
557.906	160.37092
558.374	250.55953
558.842	156.36752
559.31	160.35205
559.777	206.49058
560.245	86.19669
560.712	191.42687
561.18	176.38156
561.647	164.35691
562.114	144.32535
562.581	216.51656
563.048	179.40121
563.514	251.60861
563.981	208.46342
564.448	236.51578
564.914	190.43068
565.381	224.49638
565.847	181.4122
566.313	230.51647
566.779	224.48852
567.245	200.45095
567.711	249.57506
568.176	206.44964
568.642	228.55669
569.108	219.52264
569.573	230.51498
570.038	274.54805
570.504	257.55893
570.969	233.55881
571.434	272.57935
571.899	264.60181
572.363	335.72762
572.828	323.70515
573.293	352.76113
573.757	359.78572
574.222	360.75943
574.686	359.77842
575.15	339.77383
575.614	400.88411
576.078	334.74319
576.542	325.7029
577.006	334.71479
577.469	363.84261
577.933	381.81449
578.396	312.7046
578.86	354.78671
579.323	353.80449
579.786	382.7754
580.249	366.81303
580.712	327.75546
581.175	350.81645
581.637	330.71356
582.1	422.85229
582.563	334.67023
583.025	332.76716
583.487	356.68831
583.95	294.60087
584.412	358.70644
584.874	357.82279
585.336	336.7557
585.797	399.80898
586.259	308.68677
586.721	339.75322
587.182	360.78175
587.643	377.80384
588.105	389.86142
588.566	370.72223
589.027	388.89297
589.488	394.8461
589.949	417.94531
590.41	432.78729
590.87	432.9177
591.331	459.92298
591.791	422.90934
592.252	449.96813
592.712	401.89908
593.172	483.00605
593.632	507.02522
594.092	467.95637
594.552	566.09741
595.011	512.06681
595.471	591.19758
595.931	582.17636
596.39	563.22131
596.849	592.23434
597.308	613.15277
597.768	636.47126
598.227	697.46998
598.685	643.29422
599.144	753.53611
599.603	754.52249
600.062	703.27831
600.52	834.59039
600.978	828.6637
601.437	909.71399
601.895	894.57923
602.353	976.73699
602.811	1050.89504
603.269	1069.04431
603.727	1065.06208
604.184	1163.0637
604.642	1124.20909
605.099	1206.18274
605.557	1217.30801
606.014	1266.03498
606.471	1299.51507
606.928	1385.24578
607.385	1459.71371
607.842	1439.39381
608.299	1496.51297
608.755	1517.65777
609.212	1556.41558
609.668	1673.55216
610.125	1633.75586
610.581	1675.69012
611.037	1684.53239
611.493	1694.68829
611.949	1746.90487
612.405	1721.23671
612.861	1748.67503
613.316	1771.85544
613.772	1827.71891
614.227	1815.90604
614.683	1860.44491
615.138	1825.80988
615.593	1853.78776
616.048	1834.71731
616.503	1854.975
616.958	1755.02257
617.412	1839.87103
617.867	1751.57468
618.321	1801.31642
618.776	1767.52516
619.23	1714.71423
619.684	1783.58145
620.138	1704.61598
620.592	1662.80142
621.046	1736.76654
621.5	1653.76154
621.954	1633.43658
622.407	1521.34368
622.861	1601.74344
623.314	1605.49316
623.768	1591.63277
624.221	1521.99551
624.674	1560.52413
625.127	1522.50881
625.58	1505.3755
626.033	1503.28877
626.485	1493.5762
626.938	1549.61872
627.39	1499.50516
627.843	1537.49284
628.295	1519.47573
628.747	1500.57271
629.199	1561.47173
629.651	1499.43747
630.103	1486.42622
630.555	1521.18775
631.006	1569.54941
631.458	1550.5735
631.909	1528.38402
632.361	1576.52756
632.812	1607.56835
633.263	1667.39187
633.714	1644.29091
634.165	1723.80045
634.616	1736.75566
635.067	1817.54191
635.518	1906.89661
635.968	1925.18553
636.419	1988.60709
636.869	2031.9724
637.319	2049.89325
637.769	2136.79575
638.219	2130.00887
638.669	2193.07626
639.119	2230.12471
639.569	2334.18382
640.019	2434.02562
640.468	2518.89228
640.918	2594.19921
641.367	2675.90197
641.816	2761.86763
642.265	2846.1403
642.714	3014.03127
643.163	3055.07815
643.612	3176.4406
644.061	3171.6135
644.51	3201.00864
644.958	3391.73636
645.406	3420.22774
645.855	3538.30531
646.303	3560.9634
646.751	3557.97764
647.199	3755.76619
647.647	3774.92138
648.095	3800.78552
648.543	3826.06871
648.99	3918.10307
649.438	3992.79487
649.885	3978.35992
650.333	4046.7212
650.78	4047.09061
651.227	4040.18895
651.674	4072.67056
652.121	4035.21139
652.568	4067.18586
653.015	3950.30448
653.461	3987.99393
653.908	3977.75171
654.354	3918.03249
654.801	3861.94959
655.247	3832.43924
655.693	3859.7387
656.139	3764.10721
656.585	3812.09471
657.031	3725.01975
657.477	3754.53477
657.922	3554.85188
658.368	3645.35734
658.813	3566.8478
659.259	3620.27121
659.704	3574.13033
660.149	3439.97896
660.594	3451.1674
661.039	3439.90634
661.484	3391.16618
661.929	3370.08266
662.373	3283.58317
662.818	3250.48231
663.262	3248.33274
663.707	3243.68642
664.151	3286.37898
664.595	3235.3345
665.039	3142.51415
665.483	3218.68531
665.927	3222.13543
666.371	3161.16704
666.814	3142.22428
667.258	3229.31225
667.701	3231.56681
668.145	3272.5215
668.588	3151.50349
669.031	3244.14691
669.474	3155.28555
669.917	3150.73622
670.36	3230.54658
670.803	3317.31158
671.245	3193.35312
671.688	3167.37528
672.13	3238.90648
672.573	3251.62295
673.015	3300.29892
673.457	3305.65887
673.899	3211.32988
674.341	3208.30223
674.783	3261.26147
675.225	3230.44569
675.666	3228.40985
676.108	3297.6192
676.549	3123.09498
676.991	3254.71698
677.432	3251.17967
677.873	3191.96058
678.314	3137.22732
678.755	3236.45537
679.196	3206.96522
679.637	3109.26241
680.078	3168.1037
680.518	3033.01267
680.959	3055.2319
681.399	3069.48384
681.839	2952.356
682.28	3055.51393
682.72	2959.99499
683.16	2967.53644
683.6	2913.96718
684.039	2882.45723
684.479	2925.46598
684.919	2903.16692
685.358	2859.50581
685.798	2840.80187
686.237	2938.24057
686.676	2871.93189
687.115	2905.16928
687.554	2818.25968
687.993	2766.8141
688.432	2834.98093
688.871	2841.01076
689.309	2795.26936
689.748	2861.49131
690.186	2819.11626
690.625	2825.14651
691.063	2831.23498
691.501	2844.45906
691.939	2867.58078
692.377	2841.33152
692.815	2906.39516
693.253	2938.21907
693.69	2826.7495
694.128	2908.34505
694.565	2892.19041
695.003	2915.68088
695.44	2808.18951
695.877	2805.15015
696.314	2705.55297
696.751	2887.92893
697.188	2897.06359
697.625	2827.8579
698.061	2834.24914
698.498	2801.16603
698.934	2853.23618
699.371	2795.14498
699.807	2832.16069
700.243	2817.29217
700.679	2795.8361
701.115	2825.08882
701.551	2759.06083
701.987	2742.72585
702.422	2797.22565
702.858	2860.22478
703.294	2922.99245
703.729	2858.3375
704.164	2824.2206
704.599	2820.84678
705.035	2832.8691
705.47	2810.3218
705.904	2877.04291
706.339	2843.99236
706.774	2884.10817
707.209	2924.07466
707.643	2883.235
708.078	2881.33421
708.512	2801.52174
708.946	2927.16919
709.38	2934.19288
709.814	2889.90571
710.248	2944.37512
710.682	3000.26133
711.116	2977.35145
711.549	2944.64981
711.983	2848.02227
712.416	2953.18544
712.85	2959.44583
713.283	2864.14772
713.716	2918.44626
714.149	2878.02894
714.582	2901.86341
715.015	2912.37631
715.448	2938.55898
715.881	2951.60263
716.313	2941.07878
716.746	2985.16043
717.178	3001.25645
717.61	3019.62783
718.043	2978.41958
718.475	3061.31029
718.907	3015.49136
719.339	3029.89806
719.77	3062.22898
720.202	3024.51127
720.634	3068.38673
721.065	2946.12367
721.497	3047.3627
721.928	3007.34887
722.359	3036.3335
722.79	3092.21679
723.221	3096.44552
723.652	3125.60635
724.083	3068.83292
724.514	3124.95233
724.945	3100.06834
725.375	3187.0534
725.806	3132.39075
726.236	3175.64326
726.666	3103.10725
727.096	3182.33575
727.526	3272.708
727.956	3228.90363
728.386	3205.3459
728.816	3260.65891
729.246	3217.40338
729.675	3198.31109
730.105	3276.31574
730.534	3263.00167
730.964	3263.45223
731.393	3341.3125
731.822	3330.62802
732.251	3397.56501
732.68	3384.92174
733.109	3393.36043
733.537	3391.30797
733.966	3393.4534
734.395	3489.89389
734.823	3347.64914
735.251	3405.16552
735.68	3347.35069
736.108	3380.44244
736.536	3400.98956
736.964	3445.91235
737.392	3446.42966
737.82	3394.11589
738.247	3415.09769
738.675	3375.01173
739.102	3399.42565
739.53	3489.6546
739.957	3403.71513
740.384	3285.19067
740.811	3396.39698
741.238	3482.29805
741.665	3371.0385
742.092	3232.9003
742.519	3308.4174
742.945	3316.27278
743.372	3373.41188
743.798	3322.62367
744.225	3243.0838
744.651	3322.45199
745.077	3292.4354
745.503	3265.20957
745.929	3352.23727
746.355	3160.27245
746.781	3103.34508
747.207	3206.13297
747.632	3193.43656
748.058	3174.53789
748.483	3045.93914
748.908	3108.45254
749.334	3070.38665
749.759	3135.16281
750.184	2995.24693
750.609	3024.3314
751.033	3061.01449
751.458	2980.76038
751.883	2986.35633
752.307	2949.08794
752.732	2852.62658
753.156	2881.36031
753.58	2848.08699
754.005	2770.46319
754.429	2792.14022
754.853	2746.42923
755.277	2730.13986
755.7	2726.39604
756.124	2661.39711
756.548	2595.0798
756.971	2639.27424
757.394	2539.52254
757.818	2569.60099
758.241	2548.50155
758.664	2450.42344
759.087	2447.82366
759.51	2432.27185
759.933	2417.17742
760.356	2435.55475
760.778	2339.22418
761.201	2317.11495
761.623	2315.03062
762.046	2243.91237
762.468	2264.04436
762.89	2274.1447
763.312	2285.18312
763.734	2227.07689
764.156	2222.19447
764.578	2101.73863
765	2118.06929
765.421	2072.28462
765.843	2028.371
766.264	1956.82874
766.686	1921.01715
767.107	1929.92441
767.528	1925.2074
767.949	1922.12928
768.37	1840.96874
768.791	1828.79586
769.212	1753.96632
769.632	1698.61878
770.053	1675.03382
770.473	1746.75453
770.894	1685.78053
771.314	1665.59781
771.734	1650.54686
772.154	1639.89058
772.575	1576.43848
772.994	1598.39724
773.414	1572.54371
773.834	1470.61308
774.254	1490.56086
774.673	1476.56613
775.093	1477.63029
775.512	1451.56925
775.931	1395.59684
776.351	1397.54321
776.77	1368.4559
777.189	1351.32254
777.607	1281.46959
778.026	1281.38985
778.445	1266.43654
778.864	1179.29739
779.282	1192.13551
779.701	1155.23675
780.119	1215.35766
780.537	1127.17309
780.955	1157.25762
781.373	1131.15695
781.791	1137.95111
782.209	1039.79948
782.627	1077.26343
783.045	1024.80013
783.462	1038.11225
783.88	1021.12686
784.297	983.98951
784.715	971.03416
785.132	918.7796
785.549	915.86104
785.966	931.90476
786.383	894.80717
786.8	918.701
787.217	913.76443
787.633	873.81577
788.05	845.59311
788.466	816.55075
788.883	818.76495
789.299	795.55807
789.715	846.69834
790.131	753.57779
790.547	721.5233
790.963	749.5618
791.379	735.57797
791.795	715.34102
792.21	699.36256
792.626	677.3465
793.041	729.51467
793.457	624.32074
793.872	669.31758
794.287	668.3844
794.702	618.28863
795.117	601.30607
795.532	646.41082
795.947	589.20441
796.362	586.17796
796.776	550.09124
797.191	567.21432
797.605	542.12743
798.02	531.13221
798.434	542.04128
798.848	509.12696
799.262	489.07811
799.676	489.05604
800.09	481.04981
800.504	461.99102
800.918	418.85583
801.331	342.80438
801.745	394.8067
802.158	437.97172
802.572	446.9664
802.985	416.89295
803.398	413.88059
803.811	368.84391
804.224	365.81502
804.637	375.81311
805.05	363.75315
805.462	369.81816
805.875	322.77471
806.288	326.72629
806.7	265.61225
807.112	350.72732
807.525	248.55963
807.937	309.70593
808.349	272.62729
808.761	318.72196
809.173	296.66438
809.584	269.61234
809.996	197.45298
810.408	239.58604
810.819	225.49434
811.231	322.79957
811.642	277.63997
812.053	293.66102
812.464	254.55746
812.875	286.68237
813.286	268.6497
813.697	219.46312
814.108	244.55128
814.519	285.58736
814.929	201.48097
815.34	164.37145
815.75	224.53937
816.16	138.32246
816.571	183.44807
816.981	197.42936
817.391	213.47545
817.801	139.33008
818.211	140.31528
818.62	194.44118
819.03	183.42079
819.44	112.275
819.849	129.3061
820.259	200.47593
820.668	158.36977
821.077	166.39427
821.486	109.24673
821.895	164.37643
822.304	132.33354
822.713	134.2988
823.122	148.34949
823.531	66.1479
823.939	124.28906
824.348	168.38221
824.756	75.17954
825.164	109.26063
825.573	117.28051
825.981	113.26555
826.389	106.25399
826.797	156.3775
827.205	165.35901
827.612	78.18362
828.02	62.13906
828.428	111.26987
828.835	87.22223
829.243	80.18105
829.65	105.25184
830.057	82.18957
830.464	108.25454
830.871	160.36283
831.278	75.17405
831.685	76.16104
832.092	28.06566
832.499	83.17398
832.905	63.15254
833.312	73.1558
833.718	122.29177
834.124	127.27527
834.531	83.19854
834.937	87.21524
835.343	52.11964
835.749	94.2057
836.155	78.19674
836.561	48.1141
836.966	53.12426
837.372	90.21836
837.777	57.13744
838.183	48.10171
838.588	77.18489
838.993	89.20735
839.399	64.15125
839.804	38.08973
840.209	69.17139
840.613	78.16498
841.018	62.15032
841.423	34.08462
841.828	28.06906
842.232	41.0962
842.637	103.2341
843.041	10.0251
843.445	20.04827
843.849	46.11043
844.253	79.17882
844.657	82.19963
845.061	88.19387
845.465	28.06545
845.869	51.1138
846.272	50.11803
846.676	24.05507
847.079	60.14841
847.483	61.14592
847.886	69.1593
848.289	83.21639
848.692	22.05364
849.095	91.20749
849.498	59.14167
849.901	70.15189
850.304	59.13513
850.707	37.0909
851.109	45.10924
851.512	58.13755
851.914	36.08853
852.316	93.22797
852.718	101.2568
853.121	44.10406
853.523	5.01124
853.925	70.17802
854.326	55.13352
854.728	53.13213
855.13	65.1634
855.531	17.03945
855.933	70.15913
856.334	32.0779
856.736	53.11498
857.137	78.17494
857.538	53.12953
857.939	79.19006
858.34	44.10209
858.741	52.13084
859.142	28.06455
859.542	63.16171
859.943	43.10302
860.343	38.09161
860.744	30.07068
861.144	90.21179
861.544	46.10812
861.945	23.05676
862.345	80.18613
862.745	72.17312
863.145	77.17216
863.544	33.08098
863.944	75.16921
864.344	38.0898
864.743	63.14984
865.143	48.12025
865.542	20.04414
865.941	48.11497
866.34	37.08416
866.74	21.05492
867.139	84.19505
867.537	15.03666
867.936	64.14843
868.335	22.05412
868.734	68.16752
869.132	16.03541
869.531	28.0645
869.929	54.11857
870.327	63.14475
870.726	25.05962
871.124	39.08684
871.522	34.08345
871.92	66.15622
872.318	47.10967
872.715	23.05418
873.113	17.03984
873.511	25.06003
873.908	16.03991
874.306	36.08728
874.703	-8.01928
875.1	10.02446
875.497	-1.00232
875.894	34.08206
876.291	39.09251
876.688	38.09496
877.085	9.02075
877.482	33.07975
877.878	34.0801
878.275	-1.00248
878.671	1.00208
879.068	71.16385
879.464	48.11146
879.86	-23.05297
880.256	8.01881
880.652	8.01976
881.048	32.07565
881.444	6.01361
881.84	13.03201
882.236	18.04379
882.631	107.25135
883.027	37.08586
883.422	-13.0322
883.817	7.01724
884.213	35.08691
884.608	84.20166
885.003	50.11472
885.398	6.0146
885.793	41.09879
886.188	-13.03142
886.582	44.1078
886.977	29.0658
887.371	16.03892
887.766	42.10141
888.16	-14.03341
888.554	23.05453
888.949	55.13272
889.343	60.13971
889.737	38.09919
890.131	62.14947
890.525	59.14634
890.918	21.05111
891.312	70.15822
891.706	15.03814
892.099	72.17515
892.492	73.14828
892.886	25.05891
893.279	28.06883
893.672	35.08678
894.065	7.01703
894.458	36.08643
894.851	34.07967
895.244	29.07161
895.637	60.13904
896.029	75.17666
896.422	11.02567
896.814	7.01681
897.206	42.09764
897.599	59.13984
897.991	54.12623
898.383	34.07751
898.775	89.19316
899.167	51.11591
899.559	70.16831
899.951	57.12729
900.342	26.0633
900.734	39.09578
901.125	-6.01523
901.517	17.04046
901.908	50.11311
902.299	55.1296
902.69	68.15489
903.082	71.16444
903.473	34.07979
903.863	31.07599
904.254	43.09706
904.645	18.0427
905.036	36.08584
905.426	61.13103
905.817	29.06815
906.207	1.00228
906.597	25.05698
906.987	35.08691
907.378	42.10309
907.768	60.15356
908.158	26.06102
908.547	34.08628
908.937	10.02457
909.327	34.07932
909.717	14.03384
910.106	14.03233
910.495	59.13962
910.885	75.18262
911.274	34.08184
911.663	48.11616
912.052	68.15858
912.441	47.11619
912.83	-19.04199
913.219	22.05559
913.608	72.1695
913.997	12.02948
914.385	54.12365
914.774	1.00235
915.162	36.08359
915.55	19.044
915.939	31.07627
916.327	1.0024
916.715	48.1199
917.103	13.03037
917.491	78.18369
917.878	44.10374
918.266	45.1121
918.654	92.22673
919.041	41.10495
919.429	75.16873
919.816	29.07093
920.203	36.08498
920.591	44.10527
920.978	68.15933
921.365	58.14734
921.752	22.04971
922.139	56.1158
922.525	21.04891
922.912	11.02584
923.299	9.02172
923.685	-10.02519
924.072	-7.01521
924.458	42.10072
924.844	19.0455
925.231	-26.05824
925.617	35.08703
926.003	22.05424
926.389	21.05123
926.774	1.00245
927.16	42.10018
927.546	43.10778
927.931	72.17075
928.317	52.11355
928.702	13.02952
929.088	65.1506
929.473	55.13587
929.858	35.08315
930.243	67.1556
930.628	28.06648
931.013	54.1288
931.398	4.00871
931.783	-3.0076
932.167	71.16802
932.552	67.16033
932.937	39.09258
933.321	10.02455
933.705	59.14108
934.09	14.0335
934.474	8.01816
934.858	31.07801
935.242	26.05774
935.626	55.13632
936.009	33.08601
936.393	86.21257
936.777	31.07728
937.16	27.06865
937.544	24.05345
937.927	36.08875
938.311	70.16203
938.694	57.14585
939.077	36.08286
939.46	19.04397
939.843	61.11734
940.226	35.08621
940.609	80.17699
940.991	24.05869
941.374	10.02382
941.757	34.08044
942.139	62.13332
942.522	23.05196
942.904	76.17438
943.286	69.16744
943.668	96.24059
944.05	66.15585
944.432	18.04274
944.814	3.00708
945.196	18.04279
945.578	21.04906
945.959	42.09327
946.341	28.06486
946.722	65.14461
947.104	71.16209
947.485	58.12901
947.866	32.07857
948.247	57.13972
948.628	-8.01853
949.009	36.08905
949.39	34.08097
949.771	-15.03294
950.152	70.16459
950.532	47.11461
950.913	45.10397
951.293	56.14762
951.674	37.08607
952.054	43.1047
952.434	51.1219
952.814	33.07449
953.194	-15.03775
953.574	69.16164
953.954	-29.06623
954.334	63.15214
954.714	37.08729
955.093	53.12494
955.473	42.1024
955.853	18.04521
956.232	36.09554
956.611	23.05236
956.99	23.05615
957.37	2.00491
957.749	-23.0524
958.128	45.10994
958.506	19.0479
958.885	31.0752
959.264	31.0743
959.643	52.11389
960.021	48.11528
960.4	3.00655
960.778	10.02343
961.156	1.00242
961.535	21.04655
961.913	77.17259
962.291	62.1551
962.669	33.08119
963.047	54.13342
963.424	60.14939
963.802	49.11605
964.18	2.00482
964.557	87.18882
964.935	47.10652
965.312	25.06348
965.69	54.12846
966.067	18.04176
966.444	-21.04931
966.821	76.18813
967.198	0
967.575	20.04708
967.952	74.16542
968.329	61.14313
968.705	97.19739
969.082	70.17499
969.458	36.08435
969.835	29.06796
970.211	70.17448
970.587	68.16251
970.963	25.06142
971.339	67.16915
971.715	77.18426
972.091	61.14368
972.467	16.03796
972.843	59.14232
973.219	91.20515
973.594	15.0381
973.97	24.05336
974.345	90.20583
974.721	57.12986
975.096	72.16791
975.471	30.06806
975.846	-2.00461
976.221	-20.0496
976.596	50.11706
976.971	82.19476
977.346	25.05539
977.72	-5.01231
978.095	33.08233
978.469	44.10014
978.844	42.10091
979.218	32.07507
979.593	51.11634
979.967	-5.01156
980.341	99.21678
980.715	55.13352
981.089	56.13439
981.463	32.07047
981.837	53.12591
982.21	24.05205
982.584	11.0258
982.957	61.14714
983.331	-7.01575
983.704	78.18555
984.078	-12.02867
984.451	24.05654
984.824	25.05914
985.197	14.03226
985.57	-25.06003
985.943	18.04204
986.316	6.014
986.688	54.12435
987.061	83.18558
987.434	49.1249
987.806	19.04371
988.179	22.04971
988.551	23.05609
988.923	-19.04519
989.295	49.11685
989.667	36.08405
990.039	55.13282
990.411	1.00218
990.783	-19.04173
991.155	-29.0682
991.527	15.03489
991.898	59.14178
992.27	55.13197
992.641	30.07202
993.012	28.06145
993.384	30.06836
993.755	38.09403
994.126	40.09328
994.497	-7.01667
994.868	36.07811
995.239	3.00701
995.61	15.03657
995.98	24.05606
996.351	42.10083
996.722	74.16542
997.092	-3.00692
997.462	21.04786
997.833	10.02262
998.203	35.08016
998.573	24.05795
998.943	72.16175
999.313	43.09951
999.683	6.01397
1000.053	15.03233
1000.423	9.02094
1000.792	17.04215
1001.162	55.12869
1001.531	57.13494
1001.901	17.0407
1002.27	-5.01053
1002.639	-6.01477
1003.009	31.0706
1003.378	36.08898
1003.747	31.06977
1004.116	-13.03008
1004.485	14.03223
1004.853	-27.06567
1005.222	-31.07472
1005.591	42.09513
1005.959	51.11017
1006.328	40.08642
1006.696	6.01391
1007.064	8.01927
1007.433	42.09999
1007.801	38.08789
1008.169	2.00484
1008.537	51.10728
1008.905	68.15207
1009.273	18.04252
1009.64	64.1479
1010.008	33.07531
1010.375	27.06179
1010.743	10.02145
1011.11	95.21775
1011.478	47.11256
1011.845	35.07835
1012.212	54.11802
1012.579	41.09688
1012.946	36.08107
1013.313	87.19444
1013.68	52.11052
1014.047	15.03442
1014.414	13.02951
1014.78	35.08411
1015.147	20.04593
1015.513	42.09702
1015.88	34.08311
1016.246	28.06558
1016.612	32.06941
1016.978	72.16963
1017.344	57.13525
1017.71	31.07208
1018.076	40.0892
1018.442	71.17565
1018.808	90.21664
1019.174	-28.06796
1019.539	-37.07886
1019.905	87.19589
1020.27	-9.02149
1020.636	20.04543
1021.001	92.20973
1021.366	22.05112
1021.731	69.1727
1022.096	6.01482
1022.461	55.1247
1022.826	61.1396
1023.191	31.07868
1023.556	5.01122
1023.92	35.0818
1024.285	59.13594
1024.649	0
1025.014	42.09856
1025.378	55.13362
1025.742	45.1062
1026.107	64.13685
1026.471	20.04449
1026.835	41.09763
1027.199	-15.0351
1027.562	15.03311
1027.926	33.07697
1028.29	19.04651
1028.654	11.0242
1029.017	56.13219
1029.381	27.06224
1029.744	33.08122
1030.107	47.10626
1030.471	42.09695
1030.834	-12.02587
1031.197	28.06468
1031.56	20.04506
1031.923	43.10736
1032.286	47.10539
1032.648	0
1033.011	38.08477
1033.374	14.03124
1033.736	-24.0617
1034.099	18.04232
1034.461	25.06151
1034.823	13.03144
1035.185	7.01687
1035.548	36.08458
1035.91	15.03451
1036.272	56.12208
1036.634	45.10542
1036.995	16.03583
1037.357	30.0706
1037.719	18.04226
1038.08	105.23787
1038.442	38.08621
1038.803	-10.02282
1039.165	52.12522
1039.526	34.07895
1039.887	60.13678
1040.248	76.18204
1040.609	-15.03552
1040.97	15.03521
1041.331	47.11525
1041.692	45.10248
1042.053	47.10122
1042.413	17.03776
1042.774	63.14666
1043.134	41.09201
1043.495	56.13485
1043.855	75.17542
1044.215	27.06409
1044.576	5.01163
1044.936	-22.04845
1045.296	53.12668
1045.656	1.00234
1046.016	50.11463
1046.375	6.01405
1046.735	81.17744
1047.095	59.13165
1047.454	8.01599
1047.814	30.06933
1048.173	45.10111
1048.533	28.0614
1048.892	-13.03038
1049.251	35.08379
1049.61	3.00715
1049.969	-17.03864
1050.328	58.11908
1050.687	18.04186
1051.046	16.03736
1051.405	13.03088
1051.763	18.04024
1052.122	3.00723
1052.48	27.06392
1052.839	68.15508
1053.197	-9.02044
1053.555	55.11626
1053.914	28.06558
1054.272	-22.05036
1054.63	58.13601
1054.988	47.10795
1055.345	0
1055.703	28.06486
1056.061	47.11781
1056.419	69.17432
1056.776	-27.06238
1057.134	-3.00656
1057.491	25.06037
1057.848	10.02388
1058.206	-14.03127
1058.563	33.06911
1058.92	41.0897
1059.277	44.10406
1059.634	9.02005
1059.991	86.19605
1060.348	-6.01313
1060.704	42.0983
1061.061	46.09973
1061.418	-2.0047
1061.774	-3.00717
1062.131	39.10126
1062.487	9.02011
1062.843	43.10282
1063.199	32.07662
1063.555	27.06059
1063.911	35.08446
1064.267	25.04867
1064.623	60.14103
1064.979	-41.09069
1065.335	28.06355
1065.691	17.03853
1066.046	41.08545
1066.402	-1.00217
1066.757	51.12362
1067.112	13.0306
1067.468	13.03
1067.823	-13.02956
1068.178	9.02082
1068.533	36.08366
1068.888	50.11339
1069.243	6.01431
1069.598	16.03715
1069.952	77.16825
1070.307	47.11226
1070.662	53.12192
1071.016	24.05232
1071.371	32.07003
1071.725	28.06357
1072.079	45.10385
1072.434	44.1029
1072.788	25.05627
1073.142	26.06161
1073.496	17.03865
1073.85	36.07958
1074.203	43.10006
1074.557	59.15308
1074.911	67.15086
1075.265	50.11066
1075.618	58.13547
1075.971	12.02742
1076.325	22.05446
1076.678	10.02199
1077.031	-18.03841
1077.385	35.07304
1077.738	44.09429
1078.091	38.0834
1078.444	-4.00882
1078.796	57.13473
1079.149	39.0934
1079.502	54.12276
1079.855	55.12242
1080.207	20.04725
1080.56	-3.00758
1080.912	27.063
1081.264	33.07661
1081.617	33.07758
1081.969	40.09774
1082.321	17.03981
1082.673	65.14347
1083.025	34.0767
1083.377	276.5894
1083.728	39.08637
1084.08	6.01437
1084.432	-11.02555
1084.783	-12.02655
1085.135	37.08965
1085.486	7.01551
1085.838	26.06187
1086.189	45.10567
1086.54	38.08642
1086.891	56.13872
1087.242	61.14463
1087.593	32.07348
1087.944	19.04164
1088.295	38.0821
1088.646	75.1768
1088.996	0
1089.347	-31.07345
1089.698	26.05975
1090.048	16.03994
1090.398	50.1096
1090.749	4.00913
1091.099	16.03942
1091.449	40.09618
1091.799	45.1081
1092.149	19.04538
1092.499	-3.00708
1092.849	47.11504
1093.199	54.12836
1093.548	76.17591
1093.898	37.08857
1094.248	-1.00246
1094.597	13.03259
1094.947	20.05187
1095.296	33.07885
1095.645	18.04508
1095.994	45.10339
1096.343	32.07787
1096.692	36.09304
1097.041	61.16207
1097.39	50.11949
1097.739	33.08272
1098.088	24.06181
1098.437	12.03109
1098.785	9.02338
1099.134	-18.04579
1099.482	60.16003
1099.83	49.12415
1100.179	68.17391
1100.527	-40.1028
1100.875	10.0259
1101.223	38.09831
1101.571	-19.05119
1101.919	29.07512
1102.267	-6.01669
1102.615	1.00321
1102.962	2.00642
1103.31	4.01285
1103.658	-7.02246
