Data from N3 R1 sample 1_Subt2__2__16-09-43-570.txt Node

Date: Wed Sep 17 16:09:43 PDT 2025
User: uwsun
Spectrometer: HDX01956
Trigger mode: 0
Integration Time (sec): 5.000000E-1
Scans to average: 1
Nonlinearity correction enabled: true
Boxcar width: 0
Storing dark spectrum: false
XAxis mode: Wavelengths
Number of Pixels in Spectrum: 2068
>>>>>Begin Spectral Data<<<<<
194.03	228.63968
194.578	229.7245
195.127	244.75908
195.676	259.80725
196.225	236.60542
196.773	293.7812
197.321	421.09821
197.87	599.40447
198.418	663.54799
198.966	635.52825
199.513	584.36527
200.061	601.39929
200.609	597.44865
201.156	624.2268
201.704	572.32517
202.251	576.41512
202.798	581.38711
203.345	619.39703
203.892	655.50056
204.438	620.33285
204.985	626.34749
205.532	593.43517
206.078	669.47003
206.624	715.60731
207.17	681.42929
207.716	667.47606
208.262	658.15062
208.808	688.55762
209.354	709.57038
209.899	650.48285
210.445	668.51047
210.99	692.5152
211.535	683.44105
212.08	688.42399
212.625	663.49581
213.17	713.63025
213.715	690.40457
214.259	698.4518
214.804	638.41622
215.348	724.48122
215.892	678.47953
216.436	624.2833
216.98	638.2526
217.524	662.42446
218.068	685.55679
218.612	704.60805
219.155	673.42489
219.698	620.3357
220.242	583.31516
220.785	617.31188
221.328	572.29478
221.871	580.3575
222.414	606.36237
222.956	573.2499
223.499	569.14978
224.041	562.16754
224.583	599.12861
225.126	544.08535
225.668	569.26263
226.21	606.39792
226.751	617.23325
227.293	555.14093
227.835	568.2732
228.376	566.16698
228.918	544.24429
229.459	575.31186
230	639.38051
230.541	638.31154
231.082	555.23816
231.622	568.16324
232.163	593.29686
232.704	643.45301
233.244	548.24843
233.784	554.22701
234.324	633.27464
234.864	565.15682
235.404	534.15068
235.944	623.31776
236.484	571.30325
237.023	605.28633
237.563	651.35183
238.102	610.3012
238.641	601.37234
239.18	604.28058
239.719	600.36538
240.258	583.18189
240.797	597.29187
241.335	589.30002
241.874	640.09499
242.412	677.46956
242.95	636.38427
243.488	533.09119
244.026	604.26888
244.564	607.11235
245.102	631.28052
245.64	637.36386
246.177	575.15289
246.715	621.34558
247.252	584.19606
247.789	631.02157
248.326	638.38334
248.863	596.17992
249.4	643.29956
249.936	657.21508
250.473	644.36609
251.009	560.16545
251.546	735.43353
252.082	599.15792
252.618	656.30376
253.154	630.36598
253.69	620.2447
254.226	636.36963
254.761	632.26708
255.297	598.17173
255.832	648.38176
256.367	622.31478
256.903	636.26277
257.438	684.42202
257.972	657.29816
258.507	630.29391
259.042	634.22775
259.576	739.42634
260.111	678.37886
260.645	669.27434
261.179	695.44267
261.713	671.33145
262.247	621.27109
262.781	664.23387
263.315	610.33773
263.849	663.49216
264.382	645.32267
264.915	702.47244
265.449	690.50066
265.982	682.37063
266.515	720.5653
267.048	663.23965
267.58	659.25526
268.113	677.28961
268.646	620.37052
269.178	705.38339
269.71	746.43608
270.243	725.47825
270.775	702.61312
271.307	631.34751
271.838	674.41613
272.37	697.51942
272.902	671.34694
273.433	721.40019
273.965	737.5782
274.496	715.57251
275.027	694.54319
275.558	712.5433
276.089	722.60351
276.62	676.52734
277.15	679.4914
277.681	733.36876
278.211	688.49441
278.741	709.3834
279.272	715.44067
279.802	742.63022
280.332	720.50094
280.861	676.44029
281.391	723.44213
281.921	648.38833
282.45	727.59624
282.98	710.65616
283.509	783.54463
284.038	774.53935
284.567	794.60336
285.096	773.64324
285.625	649.30092
286.153	777.62382
286.682	753.51248
287.21	700.47728
287.739	720.5016
288.267	813.7216
288.795	741.72207
289.323	754.55241
289.851	824.67389
290.378	775.49379
290.906	764.64485
291.433	787.72011
291.961	798.57758
292.488	774.68563
293.015	768.58694
293.542	845.89423
294.069	834.79565
294.596	827.7505
295.122	825.71434
295.649	752.42823
296.175	826.71908
296.702	818.74086
297.228	817.70448
297.754	842.61809
298.28	857.68686
298.806	795.671
299.332	885.67599
299.857	865.67472
300.383	849.85099
300.908	809.73696
301.433	853.80793
301.958	810.60283
302.483	803.73885
303.008	914.94443
303.533	868.94141
304.058	847.69293
304.582	882.77964
305.107	842.9141
305.631	873.68138
306.155	867.72736
306.679	912.81922
307.203	915.79612
307.727	920.84706
308.251	911.92086
308.775	953.96209
309.298	908.86645
309.822	937.00329
310.345	1042.05623
310.868	985.99175
311.391	983.03494
311.914	971.05735
312.437	1007.90097
312.96	924.84318
313.482	953.88046
314.005	988.07391
314.527	992.18331
315.049	1014.15555
315.571	975.82431
316.093	1050.15793
316.615	1010.01524
317.137	1053.85849
317.659	1087.1567
318.18	1086.11131
318.702	1122.12481
319.223	1025.68072
319.744	1108.00579
320.265	1126.2337
320.786	1170.37053
321.307	1130.27485
321.828	1108.01086
322.348	1139.15971
322.869	1211.29327
323.389	1567.09457
323.909	1209.17216
324.43	1218.30712
324.95	1242.2209
325.47	1278.50418
325.989	1293.38865
326.509	1305.23831
327.029	1284.26936
327.548	1357.32797
328.067	1339.5192
328.587	1390.69356
329.106	1315.26272
329.625	1340.7485
330.144	1404.46328
330.662	1398.48834
331.181	1417.52553
331.7	1433.49032
332.218	1390.24076
332.736	1442.52767
333.255	1472.58186
333.773	1455.56843
334.291	1546.87961
334.808	1554.51994
335.326	1519.47299
335.844	1591.70605
336.361	1660.12928
336.879	1655.77087
337.396	1688.93399
337.913	1678.72286
338.43	1654.61379
338.947	1730.8967
339.464	1758.53925
339.981	1678.81801
340.497	1752.02922
341.014	1742.9876
341.53	1761.70224
342.046	1891.2333
342.562	1889.21458
343.078	1851.94119
343.594	1911.02675
344.11	1918.06791
344.626	1937.31963
345.141	1942.89203
345.657	2014.89129
346.172	1969.13917
346.687	1964.91668
347.202	2080.9735
347.717	1981.09516
348.232	2070.3605
348.747	2151.05897
349.261	2100.81622
349.776	2256.25049
350.29	2237.50414
350.805	2148.37468
351.319	2180.10028
351.833	2347.13443
352.347	2255.21659
352.861	2283.20006
353.374	2237.02528
353.888	2312.42202
354.401	2258.03993
354.915	2353.04994
355.428	2379.55586
355.941	2326.17858
356.454	2440.99241
356.967	2316.17849
357.48	2283.03042
357.993	2478.52162
358.505	2457.44945
359.018	2530.52376
359.53	2601.52927
360.042	2548.05617
360.554	2629.55307
361.066	2575.49482
361.578	2585.99847
362.09	2600.38055
362.602	2559.03901
363.113	2731.35342
363.625	2706.15303
364.136	2746.97913
364.647	2869.41168
365.158	2840.29862
365.669	2852.4457
366.18	2858.36109
366.691	2857.96685
367.201	2859.46776
367.712	2893.21165
368.222	2960.24524
368.733	2968.92585
369.243	3040.07472
369.753	3110.23747
370.263	3116.52791
370.773	3089.5689
371.282	3228.44849
371.792	3261.25634
372.301	3332.50055
372.811	3407.08705
373.32	3429.81403
373.829	3520.30192
374.338	3694.87357
374.847	3732.10229
375.356	3845.19704
375.865	3991.53342
376.373	4132.83302
376.882	4200.58541
377.39	4258.18304
377.898	4406.24844
378.407	4623.56246
378.915	4843.19561
379.423	4941.54205
379.93	5223.38312
380.438	5318.56437
380.946	5739.11817
381.453	5940.24428
381.96	6082.15079
382.468	6537.91013
382.975	6996.1226
383.482	7229.65278
383.989	7248.44324
384.495	7605.98586
385.002	7843.74855
385.509	8387.67236
386.015	8936.23848
386.521	9281.9928
387.028	9789.21465
387.534	10032.0177
388.04	10414.00859
388.546	10570.80119
389.051	10998.54782
389.557	11895.62746
390.063	12979.56477
390.568	13455.28719
391.073	13703.2061
391.578	14328.06676
392.084	14610.66657
392.589	15254.71355
393.093	16355.48234
393.598	17925.15066
394.103	19515.37197
394.607	21468.70847
395.112	23068.31486
395.616	24257.79312
396.12	26383.74233
396.624	29251.37597
397.128	31090.66328
397.632	34728.93812
398.136	38092.19251
398.639	39858.77832
399.143	44401.8639
399.646	50170.59307
400.15	55255.77694
400.653	60925.4073
401.156	62813.64132
401.659	63817.02339
402.162	63853.42274
402.664	62441.93235
403.167	63977.72923
403.67	63769.22307
404.172	63919.58413
404.674	63858.43483
405.176	63738.15102
405.678	63977.72923
406.18	64011.81569
406.682	63863.44694
407.184	63926.60148
407.686	63841.39382
408.187	64025.8516
408.688	63892.51763
409.19	63833.37461
409.691	63977.72923
410.192	63945.6488
410.693	63713.09355
411.194	63812.32447
411.694	63919.58413
412.195	64038.8851
412.696	63881.49072
413.196	63630.90911
413.696	63920.58661
414.196	63735.14409
414.696	63998.78251
415.196	63858.43483
415.696	63774.23477
416.196	63867.45664
416.695	50021.39631
417.195	42311.9357
417.694	39859.55234
418.194	37814.06035
418.693	35128.61108
419.192	33879.84431
419.691	33340.39776
420.19	32327.73586
420.688	31707.49014
421.187	30278.34147
421.685	28521.23822
422.184	26000.83825
422.682	22286.43794
423.18	18899.94435
423.678	16831.9634
424.176	15622.60598
424.674	14609.10065
425.172	13975.75973
425.669	13139.87666
426.167	12252.70661
426.664	11173.23344
427.161	10317.81979
427.659	9491.47583
428.156	8974.32279
428.652	8478.9253
429.149	8209.51078
429.646	7770.83515
430.143	7368.96327
430.639	7054.84284
431.135	6664.21288
431.632	6180.73352
432.128	5870.18515
432.624	5559.90919
433.12	5433.03728
433.616	5181.91048
434.111	4999.55686
434.607	4884.67916
435.103	4590.95144
435.598	4621.89582
436.093	4352.76501
436.588	4255.58384
437.083	3951.70289
437.578	3866.95585
438.073	3679.57388
438.568	3630.46146
439.062	3533.59211
439.557	3308.18121
440.051	3266.94797
440.546	3087.04058
441.04	3062.37703
441.534	3027.68061
442.028	2981.39526
442.522	2895.36827
443.015	2813.74345
443.509	2826.43816
444.002	2766.46487
444.496	2714.80056
444.989	2708.40198
445.482	2636.50339
445.975	2630.1226
446.468	2626.78817
446.961	2552.79631
447.454	2631.95912
447.947	2502.26053
448.439	2485.4023
448.931	2447.04354
449.424	2429.58589
449.916	2454.35944
450.408	2350.99307
450.9	2347.29036
451.392	2294.50129
451.884	2176.94554
452.375	2191.30722
452.867	2177.84451
453.358	2172.92869
453.849	2158.62594
454.341	2076.8192
454.832	2089.63989
455.323	2111.28851
455.814	2011.83667
456.304	1977.86578
456.795	1970.80612
457.285	1891.61267
457.776	1974.79808
458.266	1828.86587
458.756	1875.8796
459.247	1827.89608
459.737	1824.94264
460.226	1859.72781
460.716	1771.84751
461.206	1721.80644
461.695	1678.89374
462.185	1689.74922
462.674	1642.56962
463.163	1683.53761
463.653	1600.29935
464.142	1608.74897
464.63	1554.69125
465.119	1498.49332
465.608	1571.59092
466.096	1486.26195
466.585	1489.42377
467.073	1434.47058
467.561	1449.54197
468.05	1468.42711
468.538	1469.62533
469.026	1404.45307
469.513	1303.01205
470.001	1403.35387
470.489	1392.44846
470.976	1383.38538
471.463	1252.41642
471.951	1241.39457
472.438	1169.13961
472.925	1241.23895
473.412	1179.24008
473.899	1162.06882
474.385	1204.30039
474.872	1141.08402
475.359	1099.1644
475.845	1080.73352
476.331	1050.75677
476.817	1082.11147
477.303	1062.97132
477.789	972.89696
478.275	954.96371
478.761	980.90177
479.247	951.726
479.732	952.97362
480.218	1011.19321
480.703	916.8846
481.188	960.67853
481.673	869.66806
482.158	944.6548
482.643	941.00926
483.128	909.75836
483.612	903.79417
484.097	806.65736
484.581	825.61162
485.066	799.67721
485.55	752.4206
486.034	785.43713
486.518	802.63951
487.002	719.52106
487.486	709.50054
487.969	711.50609
488.453	728.57801
488.936	653.28723
489.42	684.31275
489.903	650.43213
490.386	615.11231
490.869	732.37465
491.352	662.40127
491.835	624.11283
492.318	635.25404
492.8	650.16828
493.283	650.47451
493.765	641.39251
494.247	649.32849
494.73	634.23185
495.212	525.12569
495.694	604.2672
496.175	536.16537
496.657	606.27644
497.139	500.76006
497.62	587.26371
498.102	559.25685
498.583	462.04248
499.064	533.06853
499.545	524.07782
500.026	558.13086
500.507	489.02445
500.988	523.18972
501.469	462.05943
501.949	523.1734
502.43	533.1635
502.91	557.05292
503.39	451.03065
503.87	495.06673
504.35	446.96105
504.83	513.01129
505.31	487.07235
505.79	455.98947
506.269	415.88217
506.749	472.98649
507.228	450.97632
507.707	504.01844
508.187	501.09077
508.666	478.08742
509.145	427.92426
509.623	423.91755
510.102	400.90255
510.581	408.91684
511.059	440.0258
511.538	434.0387
512.016	409.91249
512.494	455.00595
512.972	430.95437
513.45	412.89275
513.928	422.95373
514.406	410.93756
514.884	428.02665
515.361	394.88067
515.839	479.00788
516.316	408.92473
516.793	402.94913
517.27	410.91793
517.747	406.97525
518.224	353.76443
518.701	356.73747
519.178	413.96469
519.654	385.85256
520.131	379.88148
520.607	351.80864
521.083	313.67174
521.56	365.80761
522.036	373.75765
522.512	401.92564
522.987	416.9329
523.463	378.83933
523.939	415.96099
524.414	370.79286
524.89	400.89076
525.365	348.73928
525.84	369.83347
526.315	389.88221
526.79	407.85235
527.265	400.8612
527.74	329.75646
528.215	317.70083
528.689	337.69515
529.164	360.72173
529.638	312.75293
530.112	331.73606
530.587	343.6894
531.061	285.65949
531.534	337.76803
532.008	366.83764
532.482	317.69058
532.956	331.80163
533.429	365.84122
533.903	322.66645
534.376	331.69014
534.849	327.71086
535.322	331.73881
535.795	348.79293
536.268	317.72916
536.741	318.7161
537.213	360.77709
537.686	357.82377
538.158	323.69559
538.631	312.71867
539.103	300.64454
539.575	362.69521
540.047	296.61319
540.519	344.77622
540.991	339.78225
541.463	255.58985
541.934	238.51817
542.406	328.74737
542.877	326.69586
543.348	363.8256
543.82	344.79078
544.291	371.813
544.762	326.73621
545.233	375.89585
545.703	336.7057
546.174	320.70407
546.645	388.88048
547.115	341.77934
547.585	338.73461
548.056	413.94954
548.526	420.9287
548.996	416.92676
549.466	380.86792
549.935	396.88623
550.405	449.90828
550.875	419.92707
551.344	423.93864
551.814	445.94263
552.283	452.90785
552.752	497.06555
553.221	457.92912
553.69	514.05626
554.159	511.16613
554.628	488.0122
555.096	511.19372
555.565	461.93725
556.033	477.04678
556.502	407.91853
556.97	416.8606
557.438	338.75178
557.906	345.77037
558.374	383.83364
558.842	327.74464
559.31	335.70996
559.777	303.70809
560.245	309.67487
560.712	263.57903
561.18	302.63709
561.647	253.54017
562.114	274.60262
562.581	309.72579
563.048	298.65154
563.514	308.73879
563.981	297.64949
564.448	295.63666
564.914	333.73282
565.381	369.79293
565.847	318.70407
566.313	287.6369
566.779	281.60541
567.245	289.63974
567.711	262.60351
568.176	252.54468
568.642	300.72261
569.108	297.69815
569.573	226.50644
570.038	318.62957
570.504	356.75792
570.969	289.6857
571.434	303.64102
571.899	301.68101
572.363	317.69117
572.828	407.87269
573.293	319.69465
573.757	386.83999
574.222	332.70468
574.686	408.8754
575.15	358.81407
575.614	373.82909
576.078	322.71828
576.542	348.74894
577.006	369.78371
577.469	399.91956
577.933	376.80467
578.396	337.75717
578.86	331.73911
579.323	365.82981
579.786	388.7865
580.249	377.83555
580.712	344.79204
581.175	325.76187
581.637	315.68332
582.1	320.66142
582.563	344.6887
583.025	360.82722
583.487	331.6438
583.95	332.67268
584.412	309.61677
584.874	354.81636
585.336	365.81603
585.797	333.68536
586.259	328.72833
586.721	339.75322
587.182	331.72322
587.643	372.79404
588.105	349.7793
588.566	338.66478
589.027	374.86316
589.488	377.81256
589.949	402.91409
590.41	396.72826
590.87	429.91192
591.331	403.82083
591.791	392.85014
592.252	413.89739
592.712	380.85568
593.172	432.9117
593.632	434.89382
594.092	400.83158
594.552	414.83306
595.011	378.81244
595.471	503.03943
595.931	452.94219
596.39	480.05934
596.849	467.00026
597.308	470.91614
597.768	484.15285
598.227	515.12889
598.685	527.08863
599.144	538.15038
599.603	541.14508
600.062	590.10318
600.52	606.21879
600.978	614.29388
601.437	572.16669
601.895	734.35
602.353	642.24031
602.811	722.41113
603.269	723.49819
603.727	789.62855
604.184	743.4615
604.642	804.69919
605.099	923.79058
605.557	881.80726
606.014	921.62409
606.471	986.04977
606.928	1019.82073
607.385	1107.2361
607.842	1204.12959
608.299	1285.27993
608.755	1214.29285
609.212	1289.15334
609.668	1302.19941
610.125	1391.498
610.581	1418.439
611.037	1436.31548
611.493	1474.48244
611.949	1487.64547
612.405	1522.10642
612.861	1513.47133
613.316	1539.63932
613.772	1634.56868
614.227	1679.78869
614.683	1653.31749
615.138	1639.65679
615.593	1689.66136
616.048	1748.6548
616.503	1675.81973
616.958	1793.05787
617.412	1759.80753
617.867	1705.54088
618.321	1764.29609
618.776	1746.51085
619.23	1737.73318
619.684	1713.53168
620.138	1768.66514
620.592	1707.84327
621.046	1663.70353
621.5	1673.78014
621.954	1640.44205
622.407	1644.44515
622.861	1649.79051
623.314	1609.49656
623.768	1611.65161
624.221	1538.00609
624.674	1562.52599
625.127	1481.46817
625.58	1482.35421
626.033	1459.24987
626.485	1403.47748
626.938	1461.5273
627.39	1420.42312
627.843	1372.32581
628.295	1407.36317
628.747	1394.45707
629.199	1328.23996
629.651	1358.29332
630.103	1260.18426
630.555	1321.01515
631.006	1248.20661
631.458	1336.34586
631.909	1230.08163
632.361	1222.15264
632.812	1263.21193
633.263	1259.03106
633.714	1231.93769
634.165	1218.25469
634.616	1176.16054
635.067	1270.07938
635.518	1266.28249
635.968	1255.77771
636.419	1317.10741
636.869	1264.27656
637.319	1291.25061
637.769	1332.20446
638.219	1314.32501
638.669	1338.37621
639.119	1347.40638
639.569	1442.52373
640.019	1483.44204
640.468	1462.32481
640.918	1525.57098
641.367	1565.41218
641.816	1525.35401
642.265	1649.63168
642.714	1636.55574
643.163	1707.64578
643.612	1763.92627
644.061	1804.42782
644.51	1900.75297
644.958	1870.58552
645.406	1865.90053
645.855	1923.01007
646.303	2003.84619
646.751	2078.89613
647.199	2105.81491
647.647	2209.97335
648.095	2160.86537
648.543	2216.38673
648.99	2232.14893
649.438	2193.9436
649.885	2250.34981
650.333	2305.23024
650.78	2270.19611
651.227	2327.28774
651.674	2296.92368
652.121	2291.28526
652.568	2365.31021
653.015	2332.34463
653.461	2354.14511
653.908	2326.95935
654.354	2304.13167
654.801	2283.0481
655.247	2233.65927
655.693	2237.56934
656.139	2257.12149
656.585	2317.1509
657.031	2228.03682
657.477	2203.69307
657.922	2211.86756
658.368	2198.23987
658.813	2140.83807
659.259	2208.17963
659.704	2119.02535
660.149	2086.87665
660.594	2039.98254
661.039	2026.79548
661.484	2124.01873
661.929	2078.93241
662.373	1997.21465
662.818	2003.14784
663.262	2134.12479
663.707	2055.32576
664.151	2011.08571
664.595	1984.03219
665.039	2086.22031
665.483	2015.29429
665.927	2059.93832
666.371	2060.95512
666.814	2042.98432
667.258	2123.10182
667.701	2128.55556
668.145	2082.2306
668.588	2148.25143
669.031	2150.99712
669.474	2122.07522
669.917	2191.69089
670.36	2227.33336
670.803	2337.21528
671.245	2125.38601
671.688	2209.18978
672.13	2313.87816
672.573	2291.4273
673.015	2282.17981
673.457	2337.70218
673.899	2314.20768
674.341	2352.20105
674.783	2375.18333
675.225	2402.33765
675.666	2483.33767
676.108	2420.68514
676.549	2378.03387
676.991	2516.77099
677.432	2534.31397
677.873	2462.95428
678.314	2512.18446
678.755	2585.40744
679.196	2545.97701
679.637	2512.21216
680.078	2608.10154
680.518	2505.98849
680.959	2527.18615
681.399	2583.42229
681.839	2636.32027
682.28	2669.47102
682.72	2667.99127
683.16	2644.4875
683.6	2731.96721
684.039	2603.47912
684.479	2692.43525
684.919	2751.15995
685.358	2722.48466
685.798	2723.77379
686.237	2812.23604
686.676	2775.93284
687.115	2933.16911
687.554	2902.26391
687.993	2991.79875
688.432	3007.97203
688.871	3067.99672
689.309	3095.271
689.748	3169.4283
690.186	3155.09811
690.625	3237.11773
691.063	3233.21476
691.501	3272.4537
691.939	3400.5672
692.377	3346.30111
692.815	3529.32662
693.253	3562.11785
693.69	3587.5718
694.128	3657.23232
694.565	3644.05923
695.003	3769.5873
695.44	3878.97314
695.877	3798.95854
696.314	3916.18636
696.751	3927.63994
697.188	4127.70524
697.625	4017.50989
698.061	4150.92163
698.498	4185.80419
698.934	4295.83225
699.371	4438.64679
699.807	4461.65173
700.243	4511.7915
700.679	4588.17653
701.115	4679.44091
701.551	4714.38933
701.987	4780.92839
702.422	4870.50824
702.858	5004.42627
703.294	5130.06859
703.729	5086.52252
704.164	5159.33607
704.599	5232.83033
705.035	5316.81382
705.47	5454.30497
705.904	5547.90865
706.339	5771.74489
706.774	5733.89934
707.209	5770.84402
707.643	5933.964
708.078	5963.07046
708.512	6039.27787
708.946	6237.7801
709.38	6374.77002
709.814	6522.43766
710.248	6552.93089
710.682	6622.79795
711.116	6850.87083
711.549	6852.18511
711.983	6895.54483
712.416	7080.72065
712.85	7172.9796
713.283	7225.71417
713.716	7408.0308
714.149	7343.64702
714.582	7603.64735
715.015	7617.04792
715.448	7733.25302
715.881	7898.72318
716.313	8040.12005
716.746	8199.32114
717.178	8156.33504
717.61	8667.10415
718.043	8667.00505
718.475	8802.1566
718.907	8832.27037
719.339	9012.41766
719.77	9151.74029
720.202	9167.83347
720.634	9454.38788
721.065	9720.03219
721.497	9850.35101
721.928	9818.26723
722.359	10055.9311
722.79	10250.5617
723.221	10441.10824
723.652	10646.75476
724.083	10711.44056
724.514	11036.70372
724.945	11321.89558
725.375	11550.00591
725.806	11729.55938
726.236	11738.35017
726.666	12090.85829
727.096	12427.50835
727.526	12747.94523
727.956	12939.56269
728.386	13223.74954
728.816	13334.96948
729.246	13696.15885
729.675	13922.15925
730.105	14100.59444
730.534	14386.84194
730.964	14564.27231
731.393	15065.24112
731.822	15440.03016
732.251	15800.84446
732.68	16162.77969
733.109	16335.21428
733.537	16872.50387
733.966	17199.85132
734.395	17652.39855
734.823	17845.02027
735.251	18084.89839
735.68	18474.24267
736.108	18767.70946
736.536	19133.5186
736.964	19436.96265
737.392	19523.9232
737.82	20097.3197
738.247	20434.14378
738.675	20876.91434
739.102	20995.70115
739.53	21276.6572
739.957	21589.97622
740.384	22233.80787
740.811	22680.24377
741.238	23188.99482
741.665	23424.72543
742.092	23253.06128
742.519	23746.6677
742.945	24310.39493
743.372	24894.99175
743.798	25009.71099
744.225	25478.66442
744.651	25664.53559
745.077	25959.64751
745.503	26393.44522
745.929	26878.63081
746.355	26971.81698
746.781	27318.98815
747.207	27598.32897
747.632	27796.60021
748.058	28488.67019
748.483	28991.86835
748.908	29410.72808
749.334	29598.06829
749.759	30007.31325
750.184	30253.70239
750.609	30639.47416
751.033	31041.59505
751.458	31646.3592
751.883	31736.39477
752.307	32010.82036
752.732	31999.09206
753.156	32641.88065
753.58	33142.13323
754.005	33569.8247
754.429	33760.34222
754.853	34001.61305
755.277	34161.72646
755.7	34809.43164
756.124	35037.26104
756.548	35681.24082
756.971	35786.60398
757.394	36070.1768
757.818	36688.93081
758.241	36931.08242
758.664	37114.65146
759.087	37689.8895
759.51	37669.46779
759.933	38103.21883
760.356	38473.2298
760.778	38596.04663
761.201	39067.28811
761.623	38738.77998
762.046	39229.21932
762.468	39535.45857
762.89	39768.17951
763.312	40167.61842
763.734	40326.32805
764.156	40232.06021
764.578	40567.60218
765	40826.78858
765.421	40794.57516
765.843	40842.5819
766.264	40756.70815
766.686	40893.11873
767.107	40973.28836
767.528	41255.80105
767.949	41476.25394
768.37	41452.43911
768.791	40953.34209
769.212	41117.87727
769.632	40994.08637
770.053	41450.40924
770.473	41499.54583
770.894	41147.73481
771.314	41055.64876
771.734	40905.39806
772.154	40819.90654
772.575	41115.65834
772.994	41337.14961
773.414	41238.27793
773.834	41153.53884
774.254	41081.24058
774.673	40760.09278
775.093	40413.57275
775.512	40118.06219
775.931	40131.71711
776.351	40179.4293
776.77	39799.32535
777.189	39518.45707
777.607	39412.33694
778.026	39437.97201
778.445	39186.48196
778.864	38449.44471
779.282	38501.84007
779.701	38360.86203
780.119	37983.60109
780.537	37874.03649
780.955	37407.06506
781.373	37016.28762
781.791	37100.1256
782.209	36862.40901
782.627	36141.32042
783.045	35947.01188
783.462	35895.86146
783.88	35737.34989
784.297	35199.48385
784.715	34878.44805
785.132	34318.9748
785.549	33813.08381
785.966	33490.16257
786.383	33520.71055
786.8	32836.79304
787.217	32355.8523
787.633	31892.50309
788.05	31573.0626
788.466	31542.75454
788.883	31297.24327
789.299	30939.37088
789.715	30000.92307
790.131	29698.18943
790.547	29410.95215
790.963	28960.94899
791.379	28732.72335
791.795	28212.44935
792.21	27746.07274
792.626	27047.9673
793.041	26780.2112
793.457	26656.70189
793.872	26402.84759
794.287	25838.05958
794.702	25315.02164
795.117	24863.72694
795.532	24528.59865
795.947	23818.59945
796.362	23625.29486
796.776	23045.4863
797.191	22806.8365
797.605	22324.79134
798.02	21957.83168
798.434	21186.37634
798.848	20951.33884
799.262	20199.88535
799.676	20045.28333
800.09	19867.55085
800.504	19177.61019
800.918	18725.9927
801.331	18077.38477
801.745	17934.73409
802.158	17478.83638
802.572	17113.97135
802.985	16650.87535
803.398	16234.30888
803.811	15805.40079
804.224	15532.10763
804.637	15142.7059
805.05	14687.11631
805.462	14229.95779
805.875	13864.90693
806.288	13359.03965
806.7	13266.06793
807.112	12990.10298
807.525	12561.58757
807.937	12304.78872
808.349	12004.06192
808.761	11580.90656
809.173	11305.68859
809.584	11017.37873
809.996	10770.40013
810.408	10543.3638
810.819	10260.68104
811.231	9890.44518
811.642	9907.50522
812.053	9612.75058
812.464	9292.00545
812.875	9052.65227
813.286	8728.20069
813.697	8543.59008
814.108	8248.38905
814.519	8046.93895
814.929	7771.21704
815.34	7534.79611
815.75	7377.12525
816.16	7095.79913
816.571	7057.14304
816.981	6690.45652
817.391	6571.62001
817.801	6447.94558
818.211	6150.67421
818.62	5968.87505
819.03	5882.97125
819.44	5676.46137
819.849	5544.28448
820.259	5319.53353
820.668	5221.3961
821.077	5046.62033
821.486	4942.2369
821.895	4771.51431
822.304	4565.34827
822.713	4457.44138
823.122	4309.95352
823.531	4150.54265
823.939	4066.94121
824.348	3968.87561
824.756	3912.13385
825.164	3697.25248
825.573	3729.27239
825.981	3605.16403
826.389	3411.34086
826.797	3375.48318
827.205	3330.81674
827.612	3153.22805
828.02	3022.92751
828.428	2975.48543
828.835	2909.78251
829.243	2837.01076
829.65	2715.36679
830.057	2632.11633
830.464	2621.25076
830.871	2557.08361
831.278	2442.08776
831.685	2355.6277
832.092	2261.03142
832.499	2255.5652
832.905	2175.18521
833.312	2030.55523
833.718	2080.12457
834.124	1997.64947
834.531	1910.97743
834.937	1873.10308
835.343	1808.71346
835.749	1740.50669
836.155	1713.03481
836.561	1680.7367
836.966	1584.60039
837.372	1535.70341
837.777	1549.67201
838.183	1556.22978
838.588	1455.56975
838.993	1411.42753
839.399	1392.43706
839.804	1301.31318
840.209	1340.54253
840.613	1248.96968
841.018	1230.31751
841.423	1191.32738
841.828	1164.25902
842.232	1131.08227
842.637	1155.06212
843.041	1069.15922
843.445	953.88836
843.849	1035.00956
844.253	977.80471
844.657	937.91014
845.061	989.76608
845.465	897.73511
845.869	883.62911
846.272	886.7477
846.676	857.63472
847.079	761.63524
847.483	818.66923
847.886	820.60676
848.289	765.75479
848.692	711.50609
849.095	715.42219
849.498	699.47033
849.901	701.31472
850.304	645.30063
850.707	728.55522
851.109	632.36159
851.512	633.33134
851.914	589.29677
852.316	679.47953
852.718	581.3479
853.121	544.15922
853.523	524.05021
853.925	520.21359
854.326	536.18067
854.728	530.20348
855.13	498.15124
855.531	479.00744
855.933	450.94385
856.334	485.07776
856.736	468.92525
857.137	439.91123
857.538	448.01165
857.939	450.00377
858.34	429.91907
858.741	408.9603
859.142	415.88255
859.542	402.97004
859.943	408.90894
860.343	343.77886
860.744	397.86814
861.144	379.84138
861.544	378.83061
861.945	348.807
862.345	299.66546
862.745	383.86614
863.145	308.65574
863.544	320.74326
863.944	333.71158
864.344	284.63902
864.743	285.64875
865.143	308.73513
865.542	276.57636
865.941	285.65164
866.34	247.53787
866.74	295.73508
867.139	292.65002
867.537	218.51257
867.936	258.57529
868.335	247.58222
868.734	188.45287
869.132	210.44593
869.531	218.48309
869.929	225.47622
870.327	227.50439
870.726	198.45647
871.124	237.50601
871.522	203.4826
871.92	219.50296
872.318	191.43304
872.715	207.47007
873.113	155.35342
873.511	184.42842
873.908	196.47285
874.306	214.5014
874.703	160.37327
875.1	141.3365
875.497	194.43188
875.894	214.49885
876.291	178.41085
876.688	148.36245
877.085	180.40071
877.482	181.42517
877.878	163.37436
878.275	128.30998
878.671	107.21715
879.068	165.37363
879.464	153.34787
879.86	93.20923
880.256	93.21505
880.652	128.30916
881.048	138.31954
881.444	86.19185
881.84	125.3014
882.236	130.3096
882.631	156.36294
883.027	177.39934
883.422	89.2163
883.817	137.32921
884.213	86.21155
884.608	163.38543
885.003	67.1532
885.398	68.16356
885.793	78.18662
886.188	68.16182
886.582	139.33452
886.977	152.33627
887.371	103.24648
887.766	85.20356
888.16	52.12251
888.554	126.2928
888.949	105.25097
889.343	122.28059
889.737	108.27853
890.131	72.17325
890.525	124.3039
890.918	95.22803
891.312	107.24003
891.706	102.25535
892.099	119.28693
892.492	128.25674
892.886	98.22764
893.279	70.17073
893.672	59.14564
894.065	84.20143
894.458	52.12446
894.851	87.20173
895.244	92.22456
895.637	60.13904
896.029	116.27105
896.422	101.2315
896.814	54.12856
897.206	108.2478
897.599	145.33795
897.991	77.17918
898.383	65.14725
898.775	129.27758
899.167	116.26017
899.559	80.19199
899.951	86.1909
900.342	55.13317
900.734	101.24519
901.125	63.15797
901.517	95.22272
901.908	109.24361
902.299	96.22441
902.69	110.24843
903.082	102.23478
903.473	113.26109
903.863	55.13422
904.254	91.20338
904.645	53.12489
905.036	116.27233
905.426	54.11617
905.817	77.17925
906.207	22.04995
906.597	61.13802
906.987	61.15075
907.378	89.21655
907.768	75.19144
908.158	80.18576
908.547	80.20136
908.937	16.03927
909.327	80.18495
909.717	60.14377
910.106	36.08277
910.495	72.16996
910.885	88.21375
911.274	49.11761
911.663	20.04865
912.052	30.07049
912.441	96.23519
912.83	70.15182
913.219	90.22466
913.608	92.21573
913.997	42.10259
914.385	55.12592
914.774	45.10505
915.162	113.25838
915.55	14.03246
915.939	46.11286
916.327	55.13071
916.715	72.17907
917.103	72.16626
917.491	59.13946
917.878	89.208
918.266	56.13923
918.654	105.25815
919.041	49.12525
919.429	70.15764
919.816	60.14591
920.203	45.10604
920.591	78.18541
920.978	94.21913
921.365	52.13224
921.752	10.02265
922.139	50.10353
922.525	50.11578
922.912	49.11425
923.299	57.1363
923.685	12.03011
924.072	47.10092
924.458	76.18107
924.844	19.0455
925.231	36.07961
925.617	36.0895
926.003	69.16864
926.389	31.07548
926.774	57.13827
927.16	58.13792
927.546	69.17214
927.931	61.14497
928.317	23.05053
928.702	56.12606
929.088	57.13228
929.473	50.12363
929.858	53.12547
930.243	60.13954
930.628	45.10649
931.013	55.13116
931.398	96.20501
931.783	11.02781
932.167	104.24454
932.552	42.10099
932.937	33.07843
933.321	81.19627
933.705	-6.01452
934.09	35.0834
934.474	29.06554
934.858	23.05796
935.242	50.11048
935.626	53.13141
936.009	78.20172
936.393	94.232
936.777	86.21226
937.16	71.17912
937.544	21.0468
937.927	40.09854
938.311	75.17343
938.694	83.21141
939.077	44.10112
939.46	-18.04196
939.843	52.10025
940.226	23.05678
940.609	69.153
940.991	17.04163
941.374	73.17182
941.757	37.08749
942.139	107.22786
942.522	49.1101
942.904	72.16533
943.286	72.17463
943.668	88.22086
944.05	72.16983
944.432	60.1413
944.814	43.10069
945.196	32.07586
945.578	36.08386
945.959	-15.0337
946.341	45.10389
946.722	107.23598
947.104	98.22251
947.485	59.13121
947.866	41.1005
948.247	78.19046
948.628	-29.06746
949.009	13.03229
949.39	61.14452
949.771	6.01312
950.152	53.12503
950.532	89.21533
950.913	68.1564
951.293	54.1424
951.674	85.19585
952.054	63.15283
952.434	30.072
952.814	32.07224
953.194	20.05001
953.574	85.1985
953.954	53.11904
954.334	78.18783
954.714	14.03318
955.093	56.13193
955.473	79.19128
955.853	55.13722
956.232	51.13501
956.611	59.13333
956.99	73.17655
957.37	18.04408
957.749	18.04067
958.128	49.11962
958.506	39.09797
958.885	7.01706
959.264	51.12176
959.643	109.23585
960.021	91.21676
960.4	85.18227
960.778	36.08392
961.156	23.05546
961.535	32.07077
961.913	71.15934
962.291	51.12784
962.669	41.10073
963.047	8.01993
963.424	78.19357
963.802	27.06422
964.18	42.10049
964.557	45.09854
964.935	95.2132
965.312	18.04576
965.69	35.08356
966.067	41.09469
966.444	6.01401
966.821	58.14404
967.198	23.05306
967.575	49.1147
967.952	71.15881
968.329	61.14313
968.705	95.19341
969.082	76.18978
969.458	51.11915
969.835	44.10281
970.211	63.15723
970.587	78.18605
970.963	65.15851
971.339	25.06359
971.715	92.21952
972.091	92.2154
972.467	34.08038
972.843	81.19457
973.219	70.15848
973.594	-5.01274
973.97	22.04894
974.345	23.05331
974.721	34.07782
975.096	98.22737
975.471	34.07707
975.846	14.03219
976.221	35.08592
976.596	83.19307
976.971	84.19944
977.346	70.15364
977.72	47.11461
978.095	49.12189
978.469	31.07074
978.844	68.16257
979.218	108.24958
979.593	46.10504
979.967	-30.06972
980.341	70.15422
980.715	60.14552
981.089	69.16518
981.463	87.18938
981.837	73.17275
982.21	18.03909
982.584	40.09328
982.957	32.07761
983.331	-2.00449
983.704	83.19725
984.078	27.06402
984.451	37.08695
984.824	48.11304
985.197	5.01154
985.57	18.04287
985.943	42.09764
986.316	26.06042
986.688	70.16067
987.061	81.18118
987.434	61.15516
987.806	15.03453
988.179	4.00907
988.551	78.18825
988.923	22.05191
989.295	32.07656
989.667	22.05151
990.039	83.19938
990.411	-23.05045
990.783	11.02401
991.155	36.08359
991.527	17.03953
991.898	75.17968
992.27	82.19574
992.641	24.05768
993.012	-3.00663
993.384	24.05476
993.755	37.09157
994.126	90.20782
994.497	1.00238
994.868	38.08242
995.239	50.11569
995.61	31.07534
995.98	7.01641
996.351	42.10083
996.722	63.14115
997.092	17.03903
997.462	12.0274
997.833	49.10997
998.203	58.13222
998.573	101.24031
998.943	49.1106
999.313	53.12241
999.683	54.12454
1000.053	-21.04562
1000.423	47.10855
1000.792	49.12078
1001.162	22.05181
1001.531	91.21401
1001.901	44.10479
1002.27	-2.00421
1002.639	-27.06672
1003.009	16.03655
1003.378	44.1086
1003.747	32.07201
1004.116	-19.04402
1004.485	44.10067
1004.853	9.02174
1005.222	4.00958
1005.591	27.06134
1005.959	70.15059
1006.328	62.13332
1006.696	16.03702
1007.064	20.04807
1007.433	26.06209
1007.801	41.09477
1008.169	35.08414
1008.537	86.17951
1008.905	41.0922
1009.273	42.09876
1009.64	56.12962
1010.008	54.12271
1010.375	31.07088
1010.743	56.11892
1011.11	75.1726
1011.478	54.12915
1011.845	31.06946
1012.212	85.18455
1012.579	55.1296
1012.946	38.08554
1013.313	41.0925
1013.68	75.1586
1014.047	34.07773
1014.414	74.1659
1014.78	25.06019
1015.147	5.01152
1015.513	23.05333
1015.88	37.0904
1016.246	55.12814
1016.612	81.17384
1016.978	54.12767
1017.344	56.13291
1017.71	57.13186
1018.076	56.12446
1018.442	77.19029
1018.808	44.10684
1019.174	-12.02904
1019.539	43.09006
1019.905	64.14478
1020.27	26.06166
1020.636	6.01367
1021.001	73.16706
1021.366	44.1018
1021.731	88.2195
1022.096	36.08843
1022.461	53.12021
1022.826	80.18238
1023.191	36.09129
1023.556	36.08028
1023.92	34.07948
1024.285	10.02327
1024.649	-1.00235
1025.014	58.13569
1025.378	47.11436
1025.742	6.01427
1026.107	33.07104
1026.471	75.16492
1026.835	51.1212
1027.199	1.00233
1027.562	0
1027.926	65.15066
1028.29	20.04894
1028.654	31.06791
1029.017	82.19259
1029.381	46.10563
1029.744	9.02225
1030.107	39.08832
1030.471	81.18551
1030.834	20.04282
1031.197	98.22323
1031.56	14.03158
1031.923	13.03263
1032.286	96.2131
1032.648	40.09016
1033.011	101.22237
1033.374	32.07115
1033.736	22.05611
1034.099	34.0797
1034.461	59.14425
1034.823	52.12484
1035.185	22.05288
1035.548	79.18405
1035.91	44.10063
1036.272	60.13069
1036.634	47.11006
1036.995	30.06698
1037.357	48.11256
1037.719	45.10509
1038.08	60.13717
1038.442	-9.02061
1038.803	7.01592
1039.165	-51.1252
1039.526	33.07664
1039.887	41.09383
1040.248	49.11797
1040.609	-29.06887
1040.97	-38.09012
1041.331	44.10796
1041.692	94.21195
1042.053	61.13098
1042.413	41.09061
1042.774	55.12824
1043.134	21.04732
1043.495	32.07741
1043.855	58.13611
1044.215	22.05227
1044.576	26.06023
1044.936	50.10845
1045.296	60.14322
1045.656	-4.00938
1046.016	24.05531
1046.375	25.05831
1046.735	58.12767
1047.095	22.04946
1047.454	70.13787
1047.814	2.00465
1048.173	14.03166
1048.533	24.05268
1048.892	24.05568
1049.251	24.05757
1049.61	38.08998
1049.969	23.05185
1050.328	36.07428
1050.687	29.0673
1051.046	13.03037
1051.405	-7.01669
1051.763	58.12859
1052.122	15.03605
1052.48	19.04505
1052.839	50.11445
1053.197	15.0339
1053.555	44.09323
1053.914	47.10967
1054.272	13.02955
1054.63	25.059
1054.988	36.08286
1055.345	40.08049
1055.703	76.17438
1056.061	73.18212
1056.419	69.17432
1056.776	33.07534
1057.134	-20.0439
1057.491	28.06758
1057.848	41.09733
1058.206	-8.01785
1058.563	62.12902
1058.92	44.09621
1059.277	62.14613
1059.634	49.10825
1059.991	54.1239
1060.348	33.07162
1060.704	64.14914
1061.061	47.10187
1061.418	13.03044
1061.774	41.09718
1062.131	29.07543
1062.487	43.09539
1062.843	31.0743
1063.199	32.07662
1063.555	52.1161
1063.911	37.08925
1064.267	98.18747
1064.623	67.15726
1064.979	-5.01098
1065.335	61.13752
1065.691	28.06332
1066.046	50.104
1066.402	20.04319
1066.757	10.02443
1067.112	38.089
1067.468	50.11454
1067.823	14.03166
1068.178	47.1079
1068.533	66.15246
1068.888	20.04563
1069.243	19.04521
1069.598	44.1016
1069.952	54.11857
1070.307	5.01204
1070.662	47.10825
1071.016	89.19134
1071.371	50.109
1071.725	77.17309
1072.079	30.06944
1072.434	32.07501
1072.788	12.02708
1073.142	69.16215
1073.496	16.03639
1073.85	10.02223
1074.203	75.17343
1074.557	72.1864
1074.911	86.19288
1075.265	29.06447
1075.618	68.15852
1075.971	56.12684
1076.325	47.11581
1076.678	28.06135
1077.031	-60.12919
1077.385	33.0689
1077.738	60.12813
1078.091	44.09645
1078.444	8.0176
1078.796	27.06419
1079.149	55.13131
1079.502	61.13847
1079.855	65.14437
1080.207	21.0496
1080.56	43.10782
1080.912	60.1391
1081.264	63.14539
1081.617	49.11483
1081.969	37.09046
1082.321	25.05845
1082.673	46.10194
1083.025	13.02945
1083.377	295.62738
1083.728	54.11922
1084.08	15.03587
1084.432	40.09196
1084.783	2.00441
1085.135	22.05346
1085.486	56.12281
1085.838	50.11844
1086.189	45.10567
1086.54	47.10669
1086.891	70.17296
1087.242	99.23301
1087.593	51.11666
1087.944	93.20063
1088.295	55.1184
1088.646	85.19998
1088.996	50.11605
1089.347	6.01411
1089.698	42.09621
1090.048	36.08954
1090.398	6.01327
1090.749	50.11306
1091.099	55.13452
1091.449	54.12949
1091.799	60.14372
1092.149	66.15622
1092.499	33.07734
1092.849	38.09317
1093.199	64.15183
1093.548	34.07935
1093.898	15.03606
1094.248	28.06865
1094.597	23.05755
1094.947	56.14432
1095.296	60.14262
1095.645	50.12449
1095.994	57.13065
1096.343	45.10924
1096.692	73.18745
1097.041	62.1647
1097.39	44.10527
1097.739	52.1299
1098.088	56.14342
1098.437	47.12102
1098.785	3.0078
1099.134	8.02026
1099.482	19.05102
1099.83	52.13168
1100.179	51.13082
1100.527	-8.02045
1100.875	22.05686
1101.223	65.16737
1101.571	-3.00806
1101.919	20.05188
1102.267	29.08021
1102.615	-1.00321
1102.962	1.00321
1103.31	13.0417
1103.658	-7.02246
