Data from N3 R1 sample 7_Subt2__0__15-09-09-077.txt Node

Date: Wed Sep 17 15:09:09 PDT 2025
User: uwsun
Spectrometer: HDX01956
Trigger mode: 0
Integration Time (sec): 5.000000E-1
Scans to average: 1
Nonlinearity correction enabled: true
Boxcar width: 0
Storing dark spectrum: false
XAxis mode: Wavelengths
Number of Pixels in Spectrum: 2068
>>>>>Begin Spectral Data<<<<<
194.03	73.20967
194.578	89.28638
195.127	71.2257
195.676	84.26758
196.225	84.22121
196.773	129.35328
197.321	155.42353
197.87	203.51338
198.418	237.60021
198.966	279.71757
199.513	271.67333
200.061	256.63734
200.609	265.68395
201.156	225.48456
201.704	243.60047
202.251	238.62203
202.798	213.54499
203.345	305.7334
203.892	285.70217
204.438	234.54547
204.985	249.58009
205.532	245.63256
206.078	257.61425
206.624	317.77149
207.17	316.71742
207.716	277.66356
208.262	297.56941
208.808	307.74967
209.354	315.75572
209.899	278.68253
210.445	270.66069
210.99	315.74536
211.535	287.65885
212.08	240.5471
212.625	279.67953
213.17	327.80651
213.715	359.78671
214.259	301.68212
214.804	263.63003
215.348	274.61829
215.892	326.76526
216.436	271.6024
216.98	281.59891
217.524	299.69436
218.068	296.72644
218.612	316.77895
219.155	306.70063
219.698	245.57099
220.242	263.63291
220.785	256.58781
221.328	227.55063
221.871	300.7417
222.414	303.72445
222.956	186.43955
223.499	284.61227
224.041	244.54363
224.583	204.42223
225.126	276.58582
225.668	255.60364
226.21	266.65597
226.751	289.62238
227.293	253.55632
227.835	222.53375
228.376	245.54235
228.918	259.6273
229.459	203.49851
230	217.51171
230.541	211.47604
231.082	283.66784
231.622	200.44431
232.163	250.58711
232.704	311.75123
233.244	247.59779
233.784	215.51054
234.324	340.73172
234.864	258.56576
235.404	242.555
235.944	222.51138
236.484	277.67063
237.023	251.57552
237.563	277.62391
238.102	234.54053
238.641	263.64225
239.18	220.50617
239.719	235.57495
240.258	286.62002
240.797	252.58627
241.335	248.58719
241.874	273.51378
242.412	272.64201
242.95	251.59165
243.488	250.54545
244.026	264.59694
244.564	265.5282
245.102	272.59797
245.64	276.63778
246.177	250.53967
246.715	333.76687
247.252	238.5263
247.789	352.61548
248.326	277.64759
248.863	260.55596
249.4	264.58062
249.936	298.6013
250.473	324.73617
251.009	228.51029
251.546	311.66831
252.082	232.48857
252.618	247.53833
253.154	292.67958
253.69	253.55164
254.226	307.7087
254.761	257.5606
255.297	257.5449
255.832	302.69314
256.367	330.74312
256.903	316.67511
257.438	297.67141
257.972	285.61297
258.507	257.57294
259.042	325.67672
259.576	326.69224
260.111	235.52672
260.645	281.58641
261.179	288.6528
261.713	299.64557
262.247	246.54695
262.781	287.58403
263.315	252.59504
263.849	296.71702
264.382	278.61809
264.915	308.70294
265.449	250.59512
265.982	284.62382
266.515	329.77547
267.048	304.61961
267.58	264.55179
268.113	287.5992
268.646	261.62095
269.178	273.59095
269.71	346.73086
270.243	387.85056
270.775	331.81787
271.307	266.6137
271.838	329.74465
272.37	259.61761
272.902	323.70126
273.433	360.7601
273.965	287.67491
274.496	294.70441
275.027	316.75855
275.558	317.74574
276.089	316.76172
276.62	257.63087
277.15	331.78109
277.681	300.62092
278.211	287.67728
278.741	304.65088
279.272	312.68762
279.802	286.68916
280.332	338.76517
280.861	325.74607
281.391	303.66401
281.921	282.65268
282.45	288.69135
282.98	295.74493
283.509	345.75126
284.038	334.73302
284.567	287.64749
285.096	355.82405
285.625	291.63233
286.153	338.77575
286.682	357.78332
287.21	293.67424
287.739	308.70181
288.267	325.76217
288.795	337.8464
289.323	337.75965
289.851	283.64628
290.378	281.60645
290.906	326.76855
291.433	324.77804
291.961	333.73067
292.488	349.8293
293.015	369.83143
293.542	371.91331
294.069	367.87004
294.596	321.75514
295.122	411.93361
295.649	310.65282
296.175	308.71539
296.702	361.84525
297.228	340.78502
297.754	329.71094
298.28	380.83255
298.806	332.7696
299.332	376.80119
299.857	348.75763
300.383	342.82624
300.908	394.92231
301.433	402.93661
301.958	351.76983
302.483	325.77614
303.008	381.90496
303.533	362.8946
304.058	356.79312
304.582	395.88672
305.107	322.80947
305.631	389.83698
306.155	415.91439
306.679	405.90357
307.203	392.86499
307.727	417.93495
308.251	386.90819
308.775	403.93284
309.298	402.92112
309.822	410.97775
310.345	449.00835
310.868	428.97634
311.391	415.96936
311.914	380.91005
312.437	421.90933
312.96	448.99307
313.482	399.89018
314.005	414.9801
314.527	416.02496
315.049	464.10345
315.571	460.97078
316.093	457.06363
316.615	437.98903
317.137	473.96164
317.659	471.0678
318.18	413.93245
318.702	486.06231
319.223	447.85164
319.744	512.06681
320.265	499.13367
320.786	498.16263
321.307	448.04203
321.828	467.98663
322.348	476.04743
322.869	528.16545
323.389	854.40915
323.909	512.08336
324.43	513.13772
324.95	525.11116
325.47	511.18111
325.989	496.09745
326.509	594.21163
327.029	578.20831
327.548	557.15894
328.067	556.24575
328.587	562.30249
329.106	543.12575
329.625	578.38756
330.144	592.25838
330.662	579.24753
331.181	598.2899
331.7	569.21336
332.218	608.19585
332.736	622.32339
333.255	645.37506
333.773	655.3958
334.291	673.52271
334.808	653.32583
335.326	679.36428
335.844	681.44059
336.361	728.68354
336.879	658.40008
337.396	720.56927
337.913	758.54597
338.43	734.46512
338.947	739.57023
339.464	718.37083
339.981	735.54952
340.497	723.58945
341.014	729.58656
341.53	779.53961
342.046	803.77059
342.562	757.67815
343.078	769.59787
343.594	795.66001
344.11	848.76647
344.626	801.78676
345.141	781.56951
345.657	849.65935
346.172	830.75036
346.687	804.61171
347.202	892.74639
347.717	904.85073
348.232	884.90904
348.747	912.79905
349.261	910.69703
349.776	937.89979
350.29	899.94929
350.805	963.02446
351.319	922.82644
351.833	939.83551
352.347	941.89143
352.861	957.90335
353.374	930.79347
353.888	1021.09684
354.401	943.81554
354.915	1004.89299
355.428	989.09009
355.941	973.91012
356.454	1006.85792
356.967	1008.96453
357.48	1066.98268
357.993	1038.13514
358.505	1040.10963
359.018	1041.13223
359.53	1143.27956
360.042	1131.04291
360.554	1138.27949
361.066	1097.19874
361.578	1119.99786
362.09	1073.10816
362.602	1131.03359
363.113	1171.22269
363.625	1162.11772
364.136	1155.02518
364.647	1166.2351
365.158	1250.29467
365.669	1225.3322
366.18	1199.2573
366.691	1175.04323
367.201	1251.37724
367.712	1236.23385
368.222	1263.2834
368.733	1268.13475
369.243	1300.24684
369.753	1305.33461
370.263	1396.58787
370.773	1320.51173
371.282	1432.59478
371.792	1442.51063
372.301	1440.63689
372.811	1451.94121
373.32	1497.35738
373.829	1437.5548
374.338	1569.50142
374.847	1559.61742
375.356	1638.7651
375.865	1702.49632
376.373	1752.73748
376.882	1830.23277
377.39	1876.06527
377.898	1898.1611
378.407	2051.93384
378.915	2065.79043
379.423	2161.09241
379.93	2250.13592
380.438	2349.33602
380.946	2421.20567
381.453	2526.39876
381.96	2683.41301
382.468	2798.34383
382.975	3068.60413
383.482	3065.06742
383.989	3021.91131
384.495	3200.29306
385.002	3327.66249
385.509	3618.34318
386.015	3816.3337
386.521	3987.8811
387.028	4197.76394
387.534	4334.30669
388.04	4459.0341
388.546	4599.35379
389.051	4885.16894
389.557	5152.34292
390.063	5514.97567
390.568	5635.33858
391.073	5822.72078
391.578	6125.22304
392.084	6296.70084
392.589	6446.38536
393.093	7022.90889
393.598	7586.85699
394.103	8337.57192
394.607	9265.99979
395.112	9719.01016
395.616	10385.9139
396.12	11171.14401
396.624	12276.63355
397.128	13505.59212
397.632	14980.42426
398.136	16265.0274
398.639	17149.72837
399.143	19084.01662
399.646	21665.6073
400.15	24078.06875
400.653	26510.11895
401.156	30090.28169
401.659	34918.94579
402.162	42512.62626
402.664	55606.80995
403.167	62743.16555
403.67	63769.22307
404.172	63919.58413
404.674	63858.43483
405.176	63738.15102
405.678	63977.72923
406.18	64011.81569
406.682	63863.44694
407.184	63926.60148
407.686	63841.39382
408.187	64025.8516
408.688	63892.51763
409.19	63833.37461
409.691	63977.72923
410.192	63945.6488
410.693	59970.58688
411.194	53822.96846
411.694	51272.5085
412.195	47887.4189
412.696	43106.87596
413.196	40170.20415
413.696	38752.05305
414.196	39133.3807
414.696	38772.77194
415.196	36705.88673
415.696	33579.85658
416.196	27339.27711
416.695	21181.83198
417.195	18118.23362
417.694	17185.78936
418.194	16184.84458
418.693	14991.03449
419.192	14450.58682
419.691	14181.46939
420.19	13812.99362
420.688	13355.29271
421.187	12911.14134
421.685	12121.86736
422.184	11050.48174
422.682	9401.25609
423.18	8019.14527
423.678	7007.64224
424.176	6610.63019
424.674	6214.5551
425.172	6006.95994
425.669	5608.44197
426.167	5260.23045
426.664	4848.30752
427.161	4396.64915
427.659	4060.19764
428.156	3859.44266
428.652	3689.62484
429.149	3445.41644
429.646	3381.89694
430.143	3192.37538
430.639	2970.31751
431.135	2785.62702
431.632	2755.1081
432.128	2562.34205
432.624	2388.67305
433.12	2286.99465
433.616	2204.78735
434.111	2149.11617
434.607	2055.09629
435.103	2044.53486
435.598	2009.49613
436.093	1892.86662
436.588	1794.66509
437.083	1703.58028
437.578	1681.68025
438.073	1579.87021
438.568	1555.77976
439.062	1498.26032
439.557	1473.50944
440.051	1366.2747
440.546	1285.21553
441.04	1343.44699
441.534	1323.57012
442.028	1332.44208
442.522	1257.33574
443.015	1201.9674
443.509	1191.28368
444.002	1177.28053
444.496	1148.93395
444.989	1164.23766
445.482	1119.2275
445.975	1153.09651
446.468	1088.85829
446.961	1123.90754
447.454	1054.89261
447.947	1064.0528
448.439	1076.13829
448.931	1061.95631
449.424	1093.26097
449.916	1054.09061
450.408	1043.92114
450.9	985.97452
451.392	955.02867
451.884	916.74872
452.375	931.93049
452.867	925.71612
453.358	953.79622
453.849	899.58437
454.341	908.70081
454.832	927.64064
455.323	945.96736
455.814	851.63895
456.304	909.74999
456.795	862.65262
457.285	824.52802
457.776	843.61885
458.266	811.64334
458.756	775.57389
459.247	799.63742
459.737	775.61821
460.226	786.53061
460.716	741.5369
461.206	713.48863
461.695	687.49508
462.185	741.52459
462.674	711.41159
463.163	772.47981
463.653	731.33404
464.142	689.46643
464.63	647.38828
465.119	679.38309
465.608	749.5148
466.096	593.14137
466.585	637.2833
467.073	624.30577
467.561	611.30587
468.05	619.26242
468.538	609.32797
469.026	567.20752
469.513	604.12328
470.001	609.242
470.489	648.36024
470.976	599.24757
471.463	603.34371
471.951	554.24381
472.438	516.09898
472.925	548.1627
473.412	540.18453
473.899	542.11892
474.385	488.09273
474.872	519.09604
475.359	538.19845
475.845	505.94347
476.331	459.89278
476.817	443.99649
477.303	463.98804
477.789	435.95764
478.275	412.95197
478.761	398.88006
479.247	453.92686
479.732	452.04018
480.218	481.16034
480.703	425.97165
481.188	425.84831
481.673	423.89995
482.158	420.83813
482.643	382.91553
483.128	431.92973
483.612	459.00509
484.097	371.83833
484.581	411.88241
485.066	440.99764
485.55	371.767
486.034	373.75454
486.518	416.92561
487.002	298.68916
487.486	335.76778
487.969	306.70625
488.453	309.73032
488.936	326.69285
489.42	335.69785
489.903	292.69241
490.386	266.52465
490.869	343.70657
491.352	272.62554
491.835	264.51532
492.318	280.59976
492.8	334.64979
493.283	263.64416
493.765	239.56424
494.247	311.68614
494.73	289.60846
495.212	212.48601
495.694	292.65567
496.175	285.65373
496.657	301.67741
497.139	267.43408
497.62	267.61515
498.102	276.65751
498.583	180.43031
499.064	246.52671
499.545	218.48007
500.026	246.5349
500.507	228.50609
500.988	291.69417
501.469	191.46262
501.949	228.54338
502.43	252.58372
502.91	283.57169
503.39	228.54547
503.87	238.5421
504.35	215.48626
504.83	197.41787
505.31	168.39533
505.79	164.37869
506.269	202.44931
506.749	161.35968
507.228	238.53969
507.707	244.52333
508.187	214.49512
508.666	201.48372
509.145	173.39478
509.623	214.48488
510.102	203.47647
510.581	246.57118
511.059	209.5104
511.538	228.56826
512.016	203.47219
512.494	188.43963
512.972	202.46958
513.45	171.38958
513.928	205.48379
514.406	190.4537
514.884	220.54972
515.361	221.51162
515.839	237.52617
516.316	216.50866
516.793	211.51662
517.27	154.36295
517.747	164.41203
518.224	182.40852
518.701	205.43902
519.178	212.51473
519.654	143.33263
520.131	175.42339
520.607	127.30564
521.083	152.33754
521.56	170.39145
522.036	150.32019
522.512	171.41278
522.987	199.46617
523.463	155.36012
523.939	216.51991
524.414	194.43152
524.89	196.45492
525.365	163.36023
525.84	173.40638
526.315	199.46872
526.79	193.42332
527.265	168.37973
527.74	128.30612
528.215	124.28519
528.689	106.23
529.164	102.21669
529.638	136.3391
530.112	158.36396
530.587	181.37739
531.061	159.37713
531.534	153.36164
532.008	227.53404
532.482	134.30325
532.956	158.3951
533.429	222.52624
533.903	144.30992
534.376	159.34419
534.849	123.27898
535.322	190.43645
535.795	133.3162
536.268	191.45041
536.741	100.23523
537.213	159.358
537.686	124.29939
538.158	190.42087
538.631	162.38432
539.103	130.28953
539.575	135.27347
540.047	103.22259
540.519	127.29926
540.991	159.38004
541.463	143.33814
541.934	101.22629
542.406	142.33571
542.877	156.34527
543.348	154.36506
543.82	143.34193
544.291	181.41253
544.762	157.36678
545.233	190.46995
545.703	148.32373
546.174	147.33518
546.645	123.29411
547.115	190.44744
547.585	172.38703
548.056	203.48631
548.526	187.4336
548.996	149.35028
549.466	175.4162
549.935	182.42526
550.405	143.30956
550.875	184.42707
551.344	182.42409
551.814	188.4206
552.283	188.40061
552.752	173.39748
553.221	163.3536
553.69	265.57609
554.159	219.53003
554.628	210.46342
555.096	199.4941
555.565	186.40186
556.033	226.52309
556.502	182.4296
556.97	196.42546
557.438	147.33991
557.906	174.40226
558.374	162.36915
558.842	140.33085
559.31	175.38384
559.777	189.45157
560.245	71.16287
560.712	118.2677
561.18	97.21384
561.647	93.20545
562.114	108.24581
562.581	110.26839
563.048	137.30973
563.514	188.46125
563.981	113.25672
564.448	128.28613
564.914	150.34278
565.381	98.22287
565.847	114.26313
566.313	106.24408
566.779	129.287
567.245	99.22783
567.711	103.24478
568.176	61.13723
568.642	144.3571
569.108	127.30842
569.573	95.21862
570.038	99.20605
570.504	162.35944
570.969	75.18528
571.434	134.29398
571.899	110.25855
572.363	93.2124
572.828	164.37009
573.293	113.25682
573.757	141.3228
574.222	157.34596
574.686	175.39434
575.15	166.39214
575.614	212.48698
576.078	125.29019
576.542	171.38202
577.006	181.40018
577.469	174.41899
577.933	198.44005
578.396	137.32044
578.86	138.32043
579.323	173.4086
579.786	215.45307
580.249	226.51665
580.712	144.34478
581.175	141.34242
581.637	170.38018
582.1	186.39601
582.563	122.25681
583.025	169.40317
583.487	220.43922
583.95	127.26939
584.412	239.4848
584.874	180.42949
585.336	195.45125
585.797	188.39957
586.259	177.40537
586.721	159.36649
587.182	235.5239
587.643	199.44071
588.105	196.45149
588.566	220.44473
589.027	262.61817
589.488	269.59324
589.949	259.60599
590.41	273.51758
590.87	357.77078
591.331	330.68331
591.791	327.71901
592.252	317.70288
592.712	336.76343
593.172	347.74598
593.632	367.76723
594.092	336.7085
594.552	359.73154
595.011	354.7648
595.471	428.90088
595.931	440.91962
596.39	449.99922
596.849	444.95756
597.308	453.88657
597.768	526.24297
598.227	535.16788
598.685	567.16092
599.144	613.28979
599.603	583.22281
600.062	612.13818
600.52	725.41868
600.978	716.47541
601.437	774.50721
601.895	794.43866
602.353	810.50275
602.811	976.79433
603.269	871.74578
603.727	971.92318
604.184	1029.88962
604.642	1058.1112
605.099	1122.07336
605.557	1160.22996
606.014	1204.96961
606.471	1212.39462
606.928	1376.23668
607.385	1443.69439
607.842	1433.38765
608.299	1578.5933
608.755	1637.7804
609.212	1658.50018
609.668	1670.54976
610.125	1720.83648
610.581	1756.75793
611.037	1760.58889
611.493	1780.75794
611.949	1835.98111
612.405	1791.27536
612.861	1943.81044
613.316	1958.9977
613.772	1982.81834
614.227	2078.0904
614.683	2062.53851
615.138	1991.92326
615.593	2013.89071
616.048	2074.86151
616.503	2006.08591
616.958	2093.29522
617.412	2144.06657
617.867	2084.77073
618.321	2007.41128
618.776	2055.6876
619.23	2043.94544
619.684	1987.70493
620.138	2023.8292
620.592	1959.04636
621.046	1933.91516
621.5	1904.97133
621.954	1861.59484
622.407	1837.58009
622.861	1803.92858
623.314	1784.63263
623.768	1821.82959
624.221	1698.10109
624.674	1728.66869
625.127	1694.66402
625.58	1660.50767
626.033	1689.43585
626.485	1625.70853
626.938	1594.66294
627.39	1663.65872
627.843	1576.52898
628.295	1558.51245
628.747	1567.64086
629.199	1530.44351
629.651	1515.45277
630.103	1539.47671
630.555	1485.15909
631.006	1478.46114
631.458	1499.52279
631.909	1444.30635
632.361	1448.40429
632.812	1475.44344
633.263	1516.27423
633.714	1475.16275
634.165	1513.59994
634.616	1462.49787
635.067	1460.26779
635.518	1528.57538
635.968	1524.98286
636.419	1631.38573
636.869	1633.67195
637.319	1634.59945
637.769	1644.49493
638.219	1720.73307
638.669	1703.74776
639.119	1667.74007
639.569	1749.82274
640.019	1841.74333
640.468	1917.67115
640.918	1818.83054
641.367	1961.68923
641.816	2004.68246
642.265	2034.90812
642.714	2126.876
643.163	2209.95237
643.612	2201.23571
644.061	2272.62258
644.51	2311.95237
644.958	2300.77261
645.406	2388.18598
645.855	2466.29602
646.303	2517.04559
646.751	2569.06657
647.199	2552.95269
647.647	2623.09304
648.095	2578.98666
648.543	2621.42269
648.99	2702.2966
649.438	2674.07353
649.885	2769.5328
650.333	2762.21698
650.78	2793.34328
651.227	2784.4188
651.674	2782.01208
652.121	2825.44039
652.568	2815.42981
653.015	2824.48737
653.461	2801.24445
653.908	2846.04304
654.354	2774.24892
654.801	2738.15872
655.247	2741.72807
655.693	2809.81199
656.139	2752.25801
656.585	2753.26269
657.031	2694.16724
657.477	2740.77875
657.922	2716.97972
658.368	2693.42183
658.813	2692.97802
659.259	2758.35508
659.704	2729.22115
660.149	2626.04762
660.594	2673.21567
661.039	2728.99608
661.484	2689.20463
661.929	2807.13875
662.373	2677.54549
662.818	2729.46534
663.262	2731.33287
663.707	2793.65919
664.151	2825.39107
664.595	2768.33798
665.039	2944.51317
665.483	2900.67415
665.927	3030.15791
666.371	2960.18289
666.814	3037.23298
667.258	3093.32579
667.701	3158.58549
668.145	3219.52683
668.588	3276.4923
669.031	3239.14776
669.474	3308.26385
669.917	3366.68092
670.36	3484.50813
670.803	3508.27001
671.245	3443.26793
671.688	3585.2951
672.13	3545.82085
672.573	3650.55089
673.015	3717.19039
673.457	3840.45674
673.899	3848.16207
674.341	3834.13656
674.783	3959.04903
675.225	4003.23078
675.666	4081.15641
676.108	4027.32105
676.549	4174.73845
676.991	4192.33057
677.432	4242.7093
677.873	4318.52238
678.314	4335.81163
678.755	4404.05365
679.196	4398.48784
679.637	4499.76263
680.078	4588.53542
680.518	4606.39845
680.959	4583.67549
681.399	4659.93813
681.839	4733.74036
682.28	4761.91811
682.72	4787.26741
683.16	4866.88975
683.6	5026.09514
684.039	4993.49836
684.479	5124.65793
684.919	5270.20461
685.358	5259.63982
685.798	5387.95675
686.237	5409.22016
686.676	5581.75932
687.115	5682.99598
687.554	5756.0758
687.993	5879.49215
688.432	5908.67584
688.871	5997.67752
689.309	6184.91784
689.748	6229.05265
690.186	6391.68345
690.625	6458.70293
691.063	6612.77402
691.501	6693.00717
691.939	6822.12233
692.377	6986.85698
692.815	7038.91939
693.253	7201.77281
693.69	7342.42019
694.128	7420.94475
694.565	7508.84684
695.003	7641.31992
695.44	7930.10066
695.877	7923.06821
696.314	7980.76956
696.751	8005.99918
697.188	8227.29619
697.625	8313.29557
698.061	8499.70942
698.498	8621.83618
698.934	8776.0898
699.371	8892.24923
699.807	8987.41891
700.243	9107.6701
700.679	9160.71242
701.115	9535.56773
701.551	9505.49597
701.987	9648.91761
702.422	9893.48647
702.858	10129.17835
703.294	10217.54567
703.729	10198.35892
704.164	10395.04112
704.599	10510.66552
705.035	10780.71103
705.47	10851.66191
705.904	11143.11326
706.339	11268.73947
706.774	11581.12986
707.209	11624.38806
707.643	11843.33522
708.078	12009.10492
708.512	12284.38955
708.946	12423.76143
709.38	12624.98808
709.814	12586.25139
710.248	13047.47841
710.682	13269.27046
711.116	13467.54976
711.549	13474.99683
711.983	13770.66875
712.416	13996.10506
712.85	14288.92084
713.283	14479.37701
713.716	14598.62419
714.149	14681.56897
714.582	15116.26568
715.015	15175.20929
715.448	15292.80841
715.881	15629.44993
716.313	15976.43663
716.746	16001.4093
717.178	16378.20804
717.61	16736.92251
718.043	16963.30605
718.475	17205.59837
718.907	17427.57489
719.339	17705.46902
719.77	18086.88196
720.202	18237.62807
720.634	18718.43527
721.065	18743.97751
721.497	19217.23943
721.928	19406.89403
722.359	19853.13007
722.79	20361.82083
723.221	20636.63851
723.652	20800.21578
724.083	20944.0569
724.514	21251.85171
724.945	21573.9539
725.375	22084.38016
725.806	22170.01656
726.236	22746.18821
726.666	22982.22333
727.096	23523.91228
727.526	23910.73021
727.956	24434.96639
728.386	24675.30736
728.816	24992.34044
729.246	25274.42749
729.675	25759.52011
730.105	26014.91722
730.534	26425.76757
730.964	26765.3342
731.393	27265.31463
731.822	27935.53949
732.251	27969.15304
732.68	28452.39545
733.109	28852.51145
733.537	29187.56717
733.966	29769.62604
734.395	30056.47472
734.823	30542.50929
735.251	30678.23516
735.68	31029.3111
736.108	31160.35178
736.536	31294.99422
736.964	31658.72645
737.392	32045.01016
737.82	32450.65755
738.247	32853.34894
738.675	33192.60319
739.102	32987.74576
739.53	33171.80475
739.957	33354.3173
740.384	33839.80998
740.811	33972.40719
741.238	34354.8087
741.665	34389.74901
742.092	33886.94557
742.519	34262.84879
742.945	34276.28933
743.372	34552.25134
743.798	34778.67807
744.225	34587.34135
744.651	34589.48997
745.077	34836.57374
745.503	34595.10445
745.929	34926.72697
746.355	34708.93087
746.781	34393.15823
747.207	34329.1011
747.632	34309.22579
748.058	34389.66871
748.483	34775.30282
748.908	34656.08754
749.334	34531.21158
749.759	34192.91539
750.184	33921.44313
750.609	34050.32236
751.033	34101.53762
751.458	33888.43092
751.883	33810.21888
752.307	33456.87638
752.732	33138.62385
753.156	33167.60766
753.58	33052.34012
754.005	33166.28076
754.429	32563.78934
754.853	32220.73393
755.277	32172.15856
755.7	31952.28246
756.124	31868.43651
756.548	31679.61956
756.971	31460.86264
757.394	31336.69833
757.818	31112.20049
758.241	30719.48697
758.664	30712.57347
759.087	30342.03775
759.51	30377.61441
759.933	30080.80212
760.356	29710.23443
760.778	29247.24813
761.201	28928.03714
761.623	28635.0091
762.046	28380.44471
762.468	28314.03342
762.89	28042.26392
763.312	27893.26608
763.734	27540.28705
764.156	26969.36331
764.578	26641.3766
765	26584.73446
765.421	26143.41361
765.843	25614.47485
766.264	25318.56445
766.686	24683.25564
767.107	24816.81399
767.528	24644.43359
767.949	24240.19924
768.37	23939.57199
768.791	23391.8874
769.212	23097.87649
769.632	22869.9235
770.053	22453.37598
770.473	22472.37576
770.894	21863.90786
771.314	21555.77579
771.734	21112.68366
772.154	20980.91878
772.575	20808.69674
772.994	20487.60698
773.414	20118.95404
773.834	19859.85495
774.254	19570.4733
774.673	19208.34239
775.093	18905.7429
775.512	18532.05324
775.931	18317.50031
776.351	18102.19407
776.77	17816.00075
777.189	17444.30597
777.607	17231.84515
778.026	16722.51167
778.445	16583.42068
778.864	16216.50094
779.282	16175.46459
779.701	15741.65731
780.119	15520.13023
780.537	15237.75339
780.955	14978.98255
781.373	14898.65225
781.791	14511.50232
782.209	14390.61578
782.627	14029.94137
783.045	13671.32666
783.462	13488.24487
783.88	13288.5946
784.297	13056.35757
784.715	12771.17199
785.132	12457.9652
785.549	12328.81248
785.966	12010.94906
786.383	11906.51956
786.8	11559.19879
787.217	11466.51325
787.633	11082.49023
788.05	10934.27975
788.466	10814.77678
788.883	10649.75429
789.299	10398.11664
789.715	10191.35913
790.131	9899.481
790.547	9644.82742
790.963	9446.36698
791.379	9383.25112
791.795	9102.58728
792.21	8853.13126
792.626	8576.7148
793.041	8377.59319
793.457	8445.65949
793.872	8173.18541
794.287	8034.20506
794.702	7904.08421
795.117	7626.07592
795.532	7476.08841
795.947	7297.65876
796.362	7058.51814
796.776	6992.41042
797.191	6911.8022
797.605	6620.62427
798.02	6534.76309
798.434	6325.25272
798.848	6228.04983
799.262	5989.0825
799.676	5919.97257
800.09	5698.13187
800.504	5581.04521
800.918	5472.72959
801.331	5263.6896
801.745	5121.87905
802.158	4924.60245
802.572	4854.47312
802.985	4792.40016
803.398	4573.47439
803.811	4394.01704
804.224	4408.81133
804.637	4293.68345
805.05	4181.4408
805.462	3998.96923
805.875	3862.54542
806.288	3731.05042
806.7	3625.24779
807.112	3580.70405
807.525	3401.12986
807.937	3426.28455
808.349	3273.32653
808.761	3242.28997
809.173	3222.1936
809.584	3070.26289
809.996	2970.24028
810.408	2908.69217
810.819	2889.01243
811.231	2801.85541
811.642	2727.34595
812.053	2728.2301
812.464	2548.01352
812.875	2522.48837
813.286	2417.51724
813.697	2360.76074
814.108	2370.1022
814.519	2263.68695
814.929	2101.21324
815.34	2059.90049
815.75	2060.23789
816.16	1980.96884
816.571	1940.19188
816.981	1889.67111
817.391	1776.69947
817.801	1731.84779
818.211	1730.64097
818.62	1672.671
819.03	1611.64871
819.44	1600.83375
819.849	1526.63971
820.259	1406.56286
820.668	1470.55163
821.077	1378.50157
821.486	1341.27358
821.895	1333.33996
822.304	1277.55193
822.713	1261.15558
823.122	1187.23138
823.531	1139.98784
823.939	1128.10413
824.348	1105.03324
824.756	1069.06591
825.164	1115.14581
825.573	1046.05645
825.981	1022.97116
826.389	1018.00783
826.797	996.02115
827.205	978.7594
827.612	934.82787
828.02	842.58317
828.428	853.78043
828.835	826.82852
829.243	817.56885
829.65	801.66221
830.057	768.53024
830.464	785.60291
830.871	717.43941
831.278	704.42726
831.685	669.23238
832.092	650.33564
832.499	669.21944
832.905	656.40731
833.312	588.113
833.718	647.38887
834.124	580.13372
834.531	575.24314
834.937	573.28784
835.343	559.1533
835.749	548.0822
836.155	473.10569
836.561	520.12094
836.966	504.07477
837.372	487.09071
837.777	453.00777
838.183	496.94799
838.588	467.03554
838.993	409.89248
839.399	425.93367
839.804	371.81917
840.209	425.98648
840.613	402.78992
841.018	362.82782
841.423	395.91795
841.828	374.86316
842.232	389.85029
842.637	377.80907
843.041	365.85695
843.445	316.71974
843.849	297.6788
844.253	311.67061
844.657	294.6872
845.061	364.7554
845.465	289.64081
845.869	307.64863
846.272	308.69046
846.676	254.55582
847.079	249.59445
847.483	329.74647
847.886	301.66269
848.289	281.70756
848.692	220.51647
849.095	258.56838
849.498	272.62654
849.901	240.50185
850.304	265.58172
850.707	280.65679
851.109	271.62984
851.512	218.50097
851.914	219.52023
852.316	228.54484
852.718	264.65176
853.121	205.46968
853.523	180.39006
853.925	209.51836
854.326	195.46091
854.728	194.47121
855.13	172.42403
855.531	183.41068
855.933	156.34844
856.334	156.37094
856.736	170.35958
857.137	174.38253
857.538	198.47081
857.939	193.45424
858.34	164.37145
858.741	138.34184
859.142	135.30458
859.542	132.33473
859.943	119.28095
860.343	145.34247
860.744	109.25285
861.144	184.42504
861.544	127.29378
861.945	97.2361
862.345	139.31962
862.745	116.27658
863.145	125.27672
863.544	114.27555
863.944	139.3095
864.344	115.26771
864.743	156.36437
865.143	179.43779
865.542	80.17433
865.941	118.27886
866.34	106.23774
866.74	81.20966
867.139	117.2699
867.537	93.22399
867.936	159.36181
868.335	93.22577
868.734	123.29994
869.132	106.2302
869.531	95.21591
869.929	84.18328
870.327	82.18769
870.726	111.26034
871.124	84.18529
871.522	71.17307
871.92	92.21666
872.318	71.16489
872.715	66.15416
873.113	108.24859
873.511	89.2111
873.908	95.23356
874.306	80.19235
874.703	67.15917
875.1	44.10696
875.497	29.06677
875.894	66.15833
876.291	86.20214
876.688	76.18861
877.085	54.12335
877.482	54.12999
877.878	121.28024
878.275	70.17137
878.671	30.06195
879.068	89.20465
879.464	78.18004
879.86	72.16268
880.256	52.12122
880.652	95.23088
881.048	55.12945
881.444	94.20935
881.84	61.14886
882.236	21.05106
882.631	95.22368
883.027	82.18859
883.422	19.04678
883.817	59.14388
884.213	39.09677
884.608	117.27912
885.003	55.12607
885.398	10.02432
885.793	49.11788
886.188	84.19928
886.582	27.06636
886.977	65.14641
887.371	52.12565
887.766	65.15626
888.16	48.11317
888.554	45.10624
888.949	71.17081
889.343	55.12819
889.737	30.07842
890.131	90.21582
890.525	106.26065
890.918	48.11624
891.312	69.156
891.706	41.10377
892.099	38.09303
892.492	96.19398
892.886	29.06828
893.279	41.10054
893.672	85.20882
894.065	112.26714
894.458	17.04096
894.851	63.14678
895.244	28.06916
895.637	83.19147
896.029	24.05709
896.422	30.06974
896.814	28.06699
897.206	92.21176
897.599	91.21435
897.991	71.16542
898.383	96.21611
898.775	77.16754
899.167	52.11816
899.559	44.10632
899.951	38.08519
900.342	92.2212
900.734	102.24757
901.125	43.10821
901.517	61.14396
901.908	49.11087
902.299	45.10624
902.69	97.21966
903.082	126.28863
903.473	35.08212
903.863	7.01724
904.254	59.13274
904.645	22.05215
905.036	41.09766
905.426	120.25449
905.817	46.10774
906.207	-16.03661
906.597	67.15141
906.987	60.1483
907.378	60.14678
907.768	56.14342
908.158	32.07501
908.547	72.18148
908.937	-1.00246
909.327	37.08627
909.717	33.07948
910.106	21.04842
910.495	45.10678
910.885	81.19701
911.274	82.19559
911.663	48.11616
912.052	-13.0308
912.441	49.12109
912.83	31.0678
913.219	64.16051
913.608	74.17414
913.997	75.18207
914.385	69.15752
914.774	49.1143
915.162	47.1089
915.55	35.0808
915.939	15.03701
916.327	63.14949
916.715	42.10503
917.103	64.14802
917.491	55.13011
917.878	58.13638
918.266	37.09231
918.654	53.13155
919.041	57.14549
919.429	30.06811
919.816	56.13628
920.203	78.18262
920.591	81.19242
920.978	62.14544
921.365	31.07913
921.752	18.0407
922.139	61.126
922.525	28.06512
922.912	72.16712
923.299	45.10785
923.685	14.03511
924.072	13.02812
924.458	45.10785
924.844	45.10723
925.231	-27.06049
925.617	32.07962
926.003	25.0616
926.389	36.08758
926.774	6.01469
927.16	92.21734
927.546	57.14251
927.931	15.03596
928.317	65.14155
928.702	98.21871
929.088	107.24585
929.473	100.24499
929.858	60.14185
930.243	21.04922
930.628	73.17182
931.013	38.09092
931.398	36.07788
931.783	10.02529
932.167	58.1376
932.552	44.10575
932.937	102.23918
933.321	22.0539
933.705	7.0169
934.09	50.1188
934.474	56.12586
934.858	37.09301
935.242	27.05995
935.626	42.10435
936.009	64.16591
936.393	69.17108
936.777	77.19036
937.16	53.13414
937.544	30.06673
937.927	14.03466
938.311	82.18935
938.694	67.17114
939.077	12.02775
939.46	-18.04196
939.843	30.05814
940.226	17.04201
940.609	55.12232
940.991	12.02941
941.374	50.11821
941.757	56.13193
942.139	52.11206
942.522	14.03168
942.904	41.09473
943.286	79.19135
943.668	59.14885
944.05	37.08786
944.432	54.12732
944.814	51.11924
945.196	36.08528
945.578	44.10233
945.959	38.08446
946.341	40.09244
946.722	28.06277
947.104	81.18454
947.485	52.11581
947.866	39.09564
948.247	106.25747
948.628	-3.00694
949.009	42.10377
949.39	13.03109
949.771	44.09543
950.152	49.11569
950.532	54.13151
950.913	90.20608
951.293	48.1267
951.674	78.17997
952.054	52.1264
952.434	44.10531
952.814	-3.00682
953.194	37.09224
953.574	52.12222
953.954	10.02266
954.334	74.17833
954.714	40.09431
955.093	90.21063
955.473	50.12172
955.853	44.10999
956.232	38.10081
956.611	26.05915
956.99	16.03911
957.37	23.05628
957.749	33.07433
958.128	58.14136
958.506	33.08299
958.885	64.15429
959.264	17.04085
959.643	95.20618
960.021	71.16977
960.4	15.03265
960.778	48.11163
961.156	12.029
961.535	-17.03798
961.913	55.12384
962.291	38.09547
962.669	66.1614
963.047	73.17974
963.424	84.20823
963.802	57.13478
964.18	21.05044
964.557	68.14818
964.935	60.13562
965.312	22.05589
965.69	19.0455
966.067	33.07634
966.444	23.05354
966.821	63.15632
967.198	25.05765
967.575	29.06815
967.952	72.16102
968.329	83.19391
968.705	121.24488
969.082	65.16263
969.458	14.03294
969.835	54.12593
970.211	66.16463
970.587	79.1884
970.963	30.07363
971.339	54.13665
971.715	35.08443
972.091	43.10164
972.467	1.00238
972.843	56.13516
973.219	57.12939
973.594	17.04316
973.97	-9.02015
974.345	60.13805
974.721	16.03676
975.096	48.11247
975.471	60.13529
975.846	18.04135
976.221	11.02712
976.596	102.23637
976.971	76.18072
977.346	5.01112
977.72	21.05146
978.095	39.09719
978.469	49.11141
978.844	32.07703
979.218	71.16529
979.593	61.13886
979.967	-37.0861
980.341	59.13028
980.715	41.0998
981.089	35.08433
981.463	4.00886
981.837	53.12591
982.21	-13.02842
982.584	33.07707
982.957	62.14953
983.331	28.06254
983.704	61.14558
984.078	43.10164
984.451	-11.02609
984.824	52.12237
985.197	-17.03942
985.57	-6.01436
985.943	47.10916
986.316	-1.00234
986.688	73.16746
987.061	41.09247
987.434	72.18278
987.806	15.03453
988.179	13.02943
988.551	51.12372
988.923	32.07536
989.295	37.08844
989.667	44.10257
990.039	90.2159
990.411	-12.02626
990.783	48.10393
991.155	12.028
991.527	41.09488
991.898	52.12512
992.27	46.11056
992.641	66.15736
993.012	4.00882
993.384	-17.03911
993.755	55.13567
994.126	96.22141
994.497	25.05918
994.868	11.024
995.239	39.09043
995.61	52.12588
995.98	3.00704
996.351	31.07458
996.722	79.17642
997.092	10.02299
997.462	28.06373
997.833	36.08101
998.203	7.01612
998.573	49.11775
998.943	55.12399
999.313	88.20183
999.683	54.12454
1000.053	43.09213
1000.423	18.04181
1000.792	-40.10021
1001.162	-35.08334
1001.531	78.18391
1001.901	7.01679
1002.27	8.0168
1002.639	2.00492
1003.009	49.11119
1003.378	-11.02742
1003.747	61.13645
1004.116	17.03911
1004.485	15.03452
1004.853	5.01209
1005.222	-21.05052
1005.591	55.12424
1005.959	3.00655
1006.328	43.09285
1006.696	38.08754
1007.064	4.00964
1007.433	49.1165
1007.801	-2.00466
1008.169	44.10559
1008.537	83.17337
1008.905	71.15868
1009.273	24.05663
1009.64	42.09749
1010.008	41.09341
1010.375	80.18112
1010.743	8.01717
1011.11	94.2155
1011.478	48.11493
1011.845	48.10717
1012.212	117.2523
1012.579	29.06868
1012.946	20.04519
1013.313	44.09921
1013.68	61.12939
1014.047	26.05954
1014.414	11.02498
1014.78	26.06259
1015.147	56.12766
1015.513	73.16759
1015.88	50.12186
1016.246	4.00941
1016.612	28.06078
1016.978	90.21129
1017.344	19.04541
1017.71	60.13871
1018.076	64.14201
1018.442	74.18297
1018.808	62.15003
1019.174	-10.02419
1019.539	40.08383
1019.905	55.12465
1020.27	-7.01671
1020.636	19.04317
1021.001	66.15125
1021.366	47.10868
1021.731	74.18505
1022.096	7.01729
1022.461	47.10673
1022.826	56.12828
1023.191	27.06858
1023.556	37.08249
1023.92	31.07251
1024.285	6.01397
1024.649	15.03519
1025.014	45.10554
1025.378	42.10229
1025.742	34.08041
1026.107	40.08598
1026.471	51.11271
1026.835	-10.02404
1027.199	10.02328
1027.562	37.08129
1027.926	23.05375
1028.29	57.13853
1028.654	75.16277
1029.017	18.0428
1029.381	8.01851
1029.744	1.00248
1030.107	96.21487
1030.471	61.14027
1030.834	18.03856
1031.197	82.18739
1031.56	5.0113
1031.923	32.08005
1032.286	66.14742
1032.648	5.01135
1033.011	86.18995
1033.374	88.19339
1033.736	-3.00768
1034.099	6.01414
1034.461	29.0713
1034.823	10.0242
1035.185	17.0409
1035.548	37.08692
1035.91	30.06881
1036.272	7.01542
1036.634	95.22037
1036.995	26.0581
1037.357	-17.04037
1037.719	74.17183
1038.08	42.09637
1038.442	19.04327
1038.803	-14.03197
1039.165	15.03637
1039.526	43.09967
1039.887	5.01153
1040.248	94.22438
1040.609	33.07743
1040.97	-30.07104
1041.331	48.11768
1041.692	38.08666
1042.053	19.04117
1042.413	78.17105
1042.774	84.19474
1043.134	30.06748
1043.495	14.03398
1043.855	65.15233
1044.215	33.07824
1044.576	25.05792
1044.936	53.11488
1045.296	52.12432
1045.656	2.00469
1046.016	12.02772
1046.375	59.1367
1046.735	58.12767
1047.095	53.11841
1047.454	21.04184
1047.814	32.07392
1048.173	30.06762
1048.533	49.10698
1048.892	-13.03038
1049.251	36.08616
1049.61	37.08763
1049.969	3.00679
1050.328	57.11705
1050.687	-6.01402
1051.046	42.09756
1051.405	-27.06464
1051.763	53.11762
1052.122	9.02165
1052.48	80.18745
1052.839	65.14833
1053.197	61.13656
1053.555	37.07852
1053.914	37.08651
1054.272	26.05894
1054.63	37.08712
1054.988	88.20045
1055.345	31.06251
1055.703	73.16759
1056.061	80.19933
1056.419	90.22653
1056.776	43.09797
1057.134	10.02181
1057.491	53.12731
1057.848	64.15125
1058.206	33.07299
1058.563	34.07119
1058.92	63.13719
1059.277	33.07821
1059.634	50.11043
1059.991	106.24067
1060.348	52.1124
1060.704	60.13993
1061.061	16.03491
1061.418	18.04211
1061.774	33.07834
1062.131	27.07025
1062.487	35.07777
1062.843	60.143
1063.199	25.05994
1063.555	88.19501
1063.911	-12.02921
1064.267	47.09102
1064.623	38.0897
1064.979	-32.07065
1065.335	67.15086
1065.691	45.1014
1066.046	22.04604
1066.402	14.03027
1066.757	55.13322
1067.112	43.10062
1067.468	77.17543
1067.823	-29.06615
1068.178	14.03235
1068.533	-2.00468
1068.888	64.14472
1069.243	45.10653
1069.598	-7.01633
1069.952	104.22595
1070.307	32.07665
1070.662	53.12192
1071.016	75.16173
1071.371	116.24934
1071.725	51.11525
1072.079	51.11756
1072.434	29.06802
1072.788	26.05851
1073.142	39.09219
1073.496	35.07929
1073.85	55.1211
1074.203	63.14603
1074.557	47.1222
1074.911	78.17523
1075.265	55.1216
1075.618	68.15852
1075.971	67.15141
1076.325	43.10603
1076.678	31.06788
1077.031	26.05495
1077.385	61.12657
1077.738	61.13024
1078.091	-9.01995
1078.444	30.06571
1078.796	49.116
1079.149	75.17838
1079.502	38.08666
1079.855	9.02022
1080.207	75.17529
1080.56	41.10284
1080.912	48.11154
1081.264	61.14083
1081.617	67.15647
1081.969	28.06857
1082.321	5.01174
1082.673	46.10194
1083.025	34.0767
1083.377	297.63136
1083.728	75.16485
1084.08	18.04302
1084.432	71.16222
1084.783	10.02202
1085.135	35.08484
1085.486	43.09456
1085.838	-9.02156
1086.189	57.13353
1086.54	38.08642
1086.891	66.16319
1087.242	61.14463
1087.593	17.03915
1087.944	23.05036
1088.295	82.1755
1088.646	124.28952
1088.996	45.10455
1089.347	0
1089.698	10.02305
1090.048	56.13877
1090.398	56.1226
1090.749	7.01597
1091.099	53.12968
1091.449	50.11999
1091.799	49.11761
1092.149	-7.0168
1092.499	10.02354
1092.849	36.0883
1093.199	18.04308
1093.548	36.08399
1093.898	49.11703
1094.248	1.00246
1094.597	29.07248
1094.947	51.13155
1095.296	68.16139
1095.645	30.07497
1095.994	49.11249
1096.343	48.11646
1096.692	45.11612
1097.041	21.05617
1097.39	6.01446
1097.739	16.04023
1098.088	34.08741
1098.437	39.10056
1098.785	9.02338
1099.134	12.03037
1099.482	14.03762
1099.83	43.10906
1100.179	50.12828
1100.527	7.01784
1100.875	28.07229
1101.223	43.11115
1101.571	-7.01882
1101.919	49.12648
1102.267	32.08846
1102.615	11.0353
1102.962	3.00962
1103.31	4.01285
1103.658	2.00641
