Data from N3 R1 sample 5_Subt2__1__15-08-08-078.txt Node

Date: Wed Sep 17 15:08:08 PDT 2025
User: uwsun
Spectrometer: HDX01956
Trigger mode: 0
Integration Time (sec): 5.000000E-1
Scans to average: 1
Nonlinearity correction enabled: true
Boxcar width: 0
Storing dark spectrum: false
XAxis mode: Wavelengths
Number of Pixels in Spectrum: 2068
>>>>>Begin Spectral Data<<<<<
194.03	10.02899
194.578	17.05516
195.127	22.07035
195.676	24.077
196.225	22.05854
196.773	39.10834
197.321	55.15269
197.87	103.26513
198.418	135.34809
198.966	120.31717
199.513	106.27128
200.061	109.27861
200.609	111.29413
201.156	114.25137
201.704	92.23363
202.251	121.32255
202.798	118.30695
203.345	134.33266
203.892	93.23722
204.438	132.31388
204.985	135.32157
205.532	78.2072
206.078	79.19523
206.624	157.39352
207.17	168.39286
207.716	105.25977
208.262	136.27089
208.808	150.37699
209.354	124.30829
209.899	83.21111
210.445	84.21264
210.99	139.34009
211.535	144.34004
212.08	104.24359
212.625	92.23189
213.17	130.33223
213.715	155.35427
214.259	157.3662
214.804	97.23971
215.348	150.34705
215.892	175.42291
216.436	94.21663
216.98	111.24531
217.524	140.33533
218.068	155.39033
218.612	166.42049
219.155	147.34733
219.698	145.34459
220.242	105.26024
220.785	179.41735
221.328	137.33794
221.871	140.35628
222.414	109.27026
222.956	65.15721
223.499	75.16894
224.041	66.15246
224.583	126.26535
225.126	65.14431
225.668	118.28673
226.21	130.32861
226.751	112.25037
227.293	84.19126
227.835	98.24116
228.376	88.20118
228.918	66.16564
229.459	78.19597
230	147.35136
230.541	129.29592
231.082	139.33718
231.622	29.06671
232.163	75.18214
232.704	124.31008
233.244	128.31672
233.784	65.1588
234.324	162.36199
234.864	94.21325
235.404	97.22892
235.944	94.22206
236.484	123.30641
237.023	124.29156
237.563	131.30388
238.102	119.28117
238.641	126.31554
239.18	109.25635
239.719	137.34129
240.258	137.30644
240.797	109.26073
241.335	72.17626
241.874	155.30018
242.412	101.24629
242.95	108.26164
243.488	73.16524
244.026	136.31554
244.564	168.34242
245.102	119.27002
245.64	106.25322
246.177	96.21407
246.715	153.365
247.252	96.21858
247.789	128.23704
248.326	92.22288
248.863	111.24501
249.4	148.33344
249.936	178.36908
250.473	199.46361
251.009	75.17315
251.546	139.30976
252.082	104.22518
252.618	95.21373
253.154	136.32625
253.69	78.17638
254.226	133.31765
254.761	120.26936
255.297	85.18699
255.832	132.31328
256.367	76.18003
256.903	139.30835
257.438	102.23974
257.972	121.26943
258.507	97.22341
259.042	84.18429
259.576	184.40282
260.111	107.24614
260.645	134.28877
261.179	138.32233
261.713	165.36648
262.247	99.22683
262.781	91.19345
263.315	93.22636
263.849	113.28314
264.382	155.35342
264.915	174.40785
265.449	115.28085
265.982	124.28154
266.515	159.38714
267.048	125.26515
267.58	92.19962
268.113	73.15965
268.646	82.20179
269.178	119.26607
269.71	186.40668
270.243	161.37065
270.775	158.40279
271.307	103.24535
271.838	124.29236
272.37	136.33195
272.902	132.29824
273.433	168.36965
273.965	143.34571
274.496	130.3212
275.027	162.40026
275.558	194.46732
276.089	127.31707
276.62	91.23023
277.15	117.28754
277.681	108.23314
278.211	125.30425
278.741	146.32327
279.272	118.27063
279.802	84.21013
280.332	118.27908
280.861	104.2493
281.391	132.2997
281.921	129.30763
282.45	140.34553
282.98	130.33793
283.509	169.38176
284.038	169.38378
284.567	164.37929
285.096	142.34349
285.625	81.18387
286.153	185.43761
286.682	164.37447
287.21	102.24366
287.739	128.30226
288.267	135.32834
288.795	129.33608
289.323	149.34877
289.851	186.43307
290.378	115.25702
290.906	157.38227
291.433	131.3261
291.961	167.37924
292.488	151.37247
293.015	138.32562
293.542	220.55667
294.069	185.45398
294.596	130.31719
295.122	188.44634
295.649	144.31432
296.175	140.33597
296.702	165.40115
297.228	153.3664
297.754	153.34308
298.28	170.38895
298.806	162.38817
299.332	187.41483
299.857	173.39063
300.383	174.43369
300.908	167.40829
301.433	156.38105
301.958	151.34513
302.483	148.3654
303.008	182.44885
303.533	181.46215
304.058	129.3009
304.582	188.43997
305.107	149.38619
305.631	150.33932
306.155	157.36462
306.679	177.4135
307.203	197.45244
307.727	170.4005
308.251	207.50401
308.775	203.48853
309.298	205.48829
309.822	176.43851
310.345	201.47527
310.868	225.53428
311.391	165.4043
311.914	181.44991
312.437	175.39789
312.96	236.54623
313.482	135.31761
314.005	142.35381
314.527	186.47867
315.049	211.52714
315.571	178.39889
316.093	240.58358
316.615	200.47446
317.137	190.41121
317.659	251.59555
318.18	210.49376
318.702	191.44428
319.223	211.42507
319.744	219.48682
320.265	279.66325
320.786	237.58264
321.307	215.52407
321.828	207.46225
322.348	206.47983
322.869	240.56253
323.389	297.56638
323.909	224.50465
324.43	216.50945
324.95	212.48015
325.47	296.7146
325.989	273.63323
326.509	252.5547
327.029	295.65629
327.548	204.45846
328.067	267.63473
328.587	311.75774
329.106	246.54467
329.625	311.78561
330.144	253.57825
330.662	266.61248
331.181	338.77077
331.7	206.47453
332.218	286.60599
332.736	313.71161
333.255	354.80334
333.773	241.56035
334.291	313.7609
334.808	325.71011
335.326	263.57976
335.844	311.71193
336.361	352.87563
336.879	364.82503
337.396	391.91261
337.913	343.76622
338.43	337.73539
338.947	343.79242
339.464	364.7554
339.981	321.73895
340.497	339.80616
341.014	346.81505
341.53	321.70315
342.046	436.03397
342.562	396.94474
343.078	340.77471
343.594	400.90918
344.11	368.84898
344.626	392.94913
345.141	453.9801
345.657	431.92654
346.172	379.87904
346.687	417.91148
347.202	459.99139
347.717	418.95046
348.232	429.01519
348.747	474.02992
349.261	478.98753
349.776	422.95684
350.29	467.10442
350.805	466.0861
351.319	457.00239
351.833	483.04484
352.347	458.02165
352.861	535.16738
353.374	456.98006
353.888	490.12599
354.401	407.88511
354.915	475.01041
355.428	506.1818
355.941	478.04655
356.454	476.99617
356.967	449.99177
357.48	430.92658
357.993	468.08521
358.505	476.08897
359.018	534.21845
359.53	587.32096
360.042	549.13821
360.554	568.28676
361.066	525.19042
361.578	587.19055
362.09	474.06177
362.602	574.17873
363.113	573.24515
363.625	591.23198
364.136	573.15734
364.647	614.33294
365.158	587.25613
365.669	562.24113
366.18	593.28156
366.691	569.14715
367.201	598.31579
367.712	646.34232
368.222	628.31821
368.733	637.25564
369.243	659.33195
369.753	646.35067
370.263	664.45384
370.773	626.39071
371.282	688.4811
371.792	673.40813
372.301	691.50252
372.811	733.72754
373.32	738.41521
373.829	694.46972
374.338	751.47518
374.847	782.5892
375.356	800.65534
375.865	866.59331
376.373	825.63369
376.882	871.91976
377.39	918.89802
377.898	866.84785
378.407	1016.91939
378.915	1043.87711
379.423	978.91319
379.93	1215.24411
380.438	1141.22738
380.946	1187.20854
381.453	1252.37857
381.96	1293.41822
382.468	1311.39566
382.975	1475.72206
383.482	1473.42945
383.989	1529.95583
384.495	1588.67723
385.002	1665.39337
385.509	1801.95113
386.015	1950.47514
386.521	1954.87054
387.028	1985.87935
387.534	2137.70985
388.04	2217.2656
388.546	2194.86082
389.051	2337.89534
389.557	2457.1587
390.063	2758.08113
390.568	2848.42637
391.073	2930.98735
391.578	3009.52334
392.084	3144.09468
392.589	3251.78931
393.093	3510.32066
393.598	3785.96916
394.103	4094.06654
394.607	4520.93831
395.112	4947.85928
395.616	5251.60165
396.12	5640.98759
396.624	6296.94278
397.128	6667.01106
397.632	7417.94589
398.136	8148.31445
398.639	8493.75625
399.143	9413.34697
399.646	10858.63854
400.15	11948.81244
400.653	13377.17453
401.156	14953.74976
401.659	17533.49626
402.162	21344.47936
402.664	27920.88526
403.167	39080.46301
403.67	60597.35467
404.172	63919.58413
404.674	63858.43483
405.176	63738.15102
405.678	63977.72923
406.18	64011.81569
406.682	63863.44694
407.184	63926.60148
407.686	63841.39382
408.187	64025.8516
408.688	63892.51763
409.19	51320.53183
409.691	41383.17291
410.192	34752.69955
410.693	30247.59032
411.194	27151.45287
411.694	25751.75154
412.195	23853.64763
412.696	21532.86572
413.196	19870.09585
413.696	19409.3646
414.196	19493.62975
414.696	19253.37525
415.196	18179.69706
415.696	16539.55142
416.196	13515.93449
416.695	10490.30627
417.195	8877.33385
417.694	8529.54944
418.194	7977.89257
418.693	7284.75697
419.192	7034.86695
419.691	6971.78302
420.19	6759.98064
420.688	6647.12102
421.187	6381.12839
421.685	5932.96721
422.184	5368.33324
422.682	4675.17211
423.18	3982.87774
423.678	3635.97294
424.176	3245.06575
424.674	3085.94352
425.172	2942.25732
425.669	2773.48692
426.167	2613.15698
426.664	2413.99967
427.161	2163.96777
427.659	2000.11376
428.156	1964.5646
428.652	1785.11005
429.149	1720.89686
429.646	1714.57809
430.143	1563.69773
430.639	1510.60365
431.135	1439.70659
431.632	1315.27948
432.128	1287.38813
432.624	1178.44618
433.12	1158.08391
433.616	1182.01506
434.111	1037.01441
434.607	1003.98293
435.103	986.67452
435.598	947.61284
436.093	967.86538
436.588	936.74905
437.083	853.61765
437.578	838.65521
438.073	794.72848
438.568	794.6956
439.062	762.40161
439.557	706.44957
440.051	674.33461
440.546	611.24156
441.04	657.4037
441.534	641.44614
442.028	701.48812
442.522	597.29022
443.015	557.07504
443.509	636.38193
444.002	608.33726
444.496	561.0947
444.989	501.11567
445.482	497.1314
445.975	524.10396
446.468	533.04488
446.961	558.09115
447.454	506.03512
447.947	552.19513
448.439	517.16039
448.931	513.07435
449.424	574.32456
449.916	548.21471
450.408	470.99058
450.9	460.03246
451.392	465.09248
451.884	503.05522
452.375	452.03604
452.867	446.92679
453.358	399.8548
453.849	454.89378
454.341	425.89162
454.832	411.82569
455.323	486.11367
455.814	396.84673
456.304	381.82717
456.795	454.95686
457.285	359.74352
457.776	468.98073
458.266	374.83425
458.756	335.74928
459.247	371.83457
459.737	386.8763
460.226	402.85509
460.716	382.85667
461.206	361.81341
461.695	300.70726
462.185	382.85033
462.674	360.77409
463.163	364.7672
463.653	381.75766
464.142	353.80708
464.63	339.77664
465.119	318.70172
465.608	340.75277
466.096	303.62474
466.585	305.66219
467.073	265.59933
467.561	303.69167
468.05	321.69989
468.538	286.66719
469.026	257.58502
469.513	312.62319
470.001	329.71459
470.489	275.62549
470.976	325.71912
471.463	255.60993
471.951	263.62666
472.438	278.62373
472.925	282.634
473.412	280.64883
473.899	270.59232
474.385	260.6106
474.872	263.58753
475.359	275.64695
475.845	251.49844
476.331	185.38333
476.817	196.46318
477.303	207.46626
477.789	187.43308
478.275	230.55067
478.761	188.43393
479.247	221.47594
479.732	216.52149
480.218	254.64016
480.703	215.51231
481.188	193.40599
481.673	213.47388
482.158	204.42752
482.643	196.48639
483.128	199.45062
483.612	251.57483
484.097	207.48339
484.581	153.34674
485.066	212.50293
485.55	219.46819
486.034	162.34356
486.518	196.456
487.002	108.25918
487.486	98.23527
487.969	134.31986
488.453	88.21687
488.936	146.32246
489.42	161.34837
489.903	130.3179
490.386	94.1929
490.869	193.411
491.352	96.22854
491.835	128.25792
492.318	136.30038
492.8	154.31246
493.283	148.37023
493.765	163.39049
494.247	122.2798
494.73	128.27904
495.212	88.20676
495.694	167.38462
496.175	126.29823
496.657	177.40846
497.139	125.21135
497.62	119.28226
498.102	162.39437
498.583	69.16845
499.064	158.34473
499.545	121.27188
500.026	121.2701
500.507	130.29444
500.988	141.34601
501.469	106.26085
501.949	138.33457
502.43	120.28524
502.91	136.28401
503.39	93.22822
503.87	104.2433
504.35	104.24053
504.83	71.15475
505.31	56.13465
505.79	24.05696
506.269	77.17571
506.749	65.14809
507.228	68.15952
507.707	121.26641
508.187	115.2713
508.666	112.27408
509.145	68.15846
509.623	93.2159
510.102	78.18754
510.581	134.31802
511.059	139.34388
511.538	87.22238
512.016	82.19529
512.494	54.12959
512.972	139.32715
513.45	76.17647
513.928	86.20764
514.406	124.29984
514.884	99.25279
515.361	66.15749
515.839	114.25957
516.316	122.29255
516.793	111.27682
517.27	84.20067
517.747	100.25413
518.224	66.15167
518.701	90.19753
519.178	47.11764
519.654	119.27812
520.131	74.18244
520.607	31.07596
521.083	42.0954
521.56	65.15281
522.036	93.20098
522.512	63.15518
522.987	91.21768
523.463	77.18165
523.939	135.32994
524.414	52.11907
524.89	107.25272
525.365	19.04325
525.84	77.18426
526.315	62.14992
526.79	109.24331
527.265	114.26051
527.74	18.04395
528.215	65.15126
528.689	8.01772
529.164	2.00434
529.638	38.09643
530.112	49.11533
530.587	106.2247
531.061	70.16888
531.534	62.14913
532.008	94.22687
532.482	35.0808
532.956	63.16024
533.429	121.29242
533.903	87.18954
534.376	100.2192
534.849	73.16726
535.322	83.19474
535.795	41.0992
536.268	125.29855
536.741	35.08337
537.213	56.12875
537.686	73.17795
538.158	104.2345
538.631	34.08265
539.103	80.18002
539.575	83.17013
540.047	33.07238
540.519	96.22758
540.991	89.21557
541.463	72.17259
541.934	43.09749
542.406	71.17016
542.877	98.21953
543.348	69.16625
543.82	47.11444
544.291	72.16771
544.762	68.16164
545.233	99.24895
545.703	59.13148
546.174	59.13692
546.645	54.13082
547.115	84.20189
547.585	110.25066
548.056	84.20579
548.526	98.23124
548.996	28.06737
549.466	102.24599
549.935	85.20239
550.405	48.10602
550.875	86.20348
551.344	52.12427
551.814	111.25228
552.283	78.17018
552.752	116.26956
553.221	122.26697
553.69	142.31677
554.159	148.36299
554.628	113.25443
555.096	138.34646
555.565	123.26933
556.033	145.34101
556.502	86.20678
556.97	104.23018
557.438	122.2835
557.906	118.27583
558.374	115.26454
558.842	124.29395
559.31	118.26193
559.777	101.24537
560.245	64.14702
560.712	56.12864
561.18	70.15519
561.647	94.20761
562.114	61.14016
562.581	127.30889
563.048	114.25894
563.514	139.34413
563.981	117.26559
564.448	149.33163
564.914	113.26015
565.381	191.42617
565.847	108.24958
566.313	91.21017
566.779	96.21505
567.245	94.21654
567.711	121.28656
568.176	110.24498
568.642	127.31592
569.108	79.19358
569.573	91.20959
570.038	154.3166
570.504	149.3315
570.969	114.2796
571.434	183.39733
571.899	169.39264
572.363	157.35393
572.828	179.4027
573.293	179.40138
573.757	202.45676
574.222	172.37782
574.686	202.45267
575.15	227.52988
575.614	259.58934
576.078	173.3978
576.542	191.42493
577.006	172.381
577.469	212.5068
577.933	227.50146
578.396	183.42416
578.86	237.5395
579.323	245.57054
579.786	275.57185
580.249	291.65651
580.712	209.49419
581.175	209.50107
581.637	222.49113
582.1	199.42248
582.563	241.494
583.025	234.55126
583.487	260.51426
583.95	238.4926
584.412	264.53246
584.874	338.78196
585.336	289.65626
585.797	341.70056
586.259	313.69719
586.721	334.74288
587.182	362.78576
587.643	397.84281
588.105	380.84307
588.566	387.75237
589.027	508.13899
589.488	422.90075
589.949	486.08423
590.41	499.894
590.87	565.16361
591.331	588.14558
591.791	619.27557
592.252	652.34277
592.712	655.38976
593.172	725.43006
593.632	832.55897
594.092	801.51518
594.552	862.55502
595.011	857.65052
595.471	975.80459
595.931	1029.86979
596.39	1020.99921
596.849	1071.99839
597.308	1200.93801
597.768	1257.54876
598.227	1326.41409
598.685	1446.38265
599.144	1532.58217
599.603	1628.64246
600.062	1683.32763
600.52	1788.64654
600.978	1820.84343
601.437	2031.82114
601.895	2145.62506
602.353	2185.74101
602.811	2403.93384
603.269	2598.25034
603.727	2752.33128
604.184	2915.04202
604.642	2984.49554
605.099	3185.16377
605.557	3285.40512
606.014	3434.61661
606.471	3664.55269
606.928	3807.66637
607.385	4141.3678
607.842	4183.69143
608.299	4275.77601
608.755	4564.88764
609.212	4536.31535
609.668	4815.23435
610.125	4937.63705
610.581	5151.30823
611.037	5212.95817
611.493	5291.1961
611.949	5474.42523
612.405	5577.21187
612.861	5685.89056
613.316	5741.15766
613.772	5870.78531
614.227	5954.08842
614.683	5907.29722
615.138	5955.90779
615.593	5911.85363
616.048	6007.72194
616.503	6018.12769
616.958	6047.35665
617.412	6068.95026
617.867	6030.57414
618.321	5893.15249
618.776	5855.53493
619.23	5854.93554
619.684	5757.65094
620.138	5712.83383
620.592	5620.29879
621.046	5564.13415
621.5	5390.35693
621.954	5288.81185
622.407	5211.8526
622.861	5127.56844
623.314	5131.05098
623.768	5048.40432
624.221	4785.39525
624.674	4762.40266
625.127	4658.50497
625.58	4675.24833
626.033	4493.17435
626.485	4445.82989
626.938	4428.8066
627.39	4270.75556
627.843	4148.71458
628.295	4061.75694
628.747	4061.99777
629.199	3982.70786
629.651	3930.7786
630.103	3834.82307
630.555	3656.36906
631.006	3648.98187
631.458	3559.09195
631.909	3507.78673
632.361	3413.00191
632.812	3367.03689
633.263	3330.65665
633.714	3279.52896
634.165	3163.29478
634.616	3077.21311
635.067	3057.79646
635.518	3073.23065
635.968	3038.21208
636.419	3067.75201
636.869	2957.22847
637.319	2902.11041
637.769	2954.92703
638.219	2872.20409
638.669	2775.24213
639.119	2811.28236
639.569	2786.29621
640.019	2841.08225
640.468	2800.91498
640.918	2788.22722
641.367	2815.90581
641.816	2832.86683
642.265	2852.14046
642.714	2893.03796
643.163	2884.08713
643.612	2933.44469
644.061	2862.66573
644.51	2840.04069
644.958	2887.83211
645.406	2843.28009
645.855	2965.38044
646.303	2973.07964
646.751	2962.09212
647.199	2920.97149
647.647	2936.1121
648.095	2954.00247
648.543	2894.39533
648.99	3012.31702
649.438	2877.08483
649.885	3003.55774
650.333	2978.17386
650.78	3048.3528
651.227	2939.4329
651.674	2875.01274
652.121	2946.45016
652.568	2901.43795
653.015	2853.49087
653.461	2786.24316
653.908	2813.04258
654.354	2769.24841
654.801	2674.15119
655.247	2538.71949
655.693	2720.78923
656.139	2562.22476
656.585	2480.20745
657.031	2571.14671
657.477	2526.76602
657.922	2443.93962
658.368	2406.33716
658.813	2353.91598
659.259	2382.2576
659.704	2380.14023
660.149	2297.96722
660.594	2330.12398
661.039	2241.89239
661.484	2268.08711
661.929	2170.97857
662.373	2084.27621
662.818	2107.217
663.262	2154.13585
663.707	2147.38924
664.151	2058.11633
664.595	2042.07004
665.039	2103.23121
665.483	2009.28974
665.927	1997.90236
666.371	2003.92182
666.814	2002.96
667.258	1983.01571
667.701	2043.52396
668.145	1952.13867
668.588	1987.14528
669.031	1955.88669
669.474	1930.9559
669.917	1955.59067
670.36	1944.14645
670.803	1960.00881
671.245	1845.28048
671.688	1987.05709
672.13	1916.69911
672.573	1934.19054
673.015	1929.97746
673.457	1910.5404
673.899	1976.02151
674.341	1933.97343
674.783	1868.90443
675.225	1972.09929
675.666	1957.06406
676.108	1935.52494
676.549	1957.83969
676.991	1891.55982
677.432	2036.24535
677.873	2008.78233
678.314	1996.95801
678.755	2044.15619
679.196	1956.75833
679.637	2016.99352
680.078	1993.87191
680.518	2008.80337
680.959	2031.97776
681.399	2022.15393
681.839	2108.11367
682.28	2098.22617
682.72	2132.84742
683.16	2091.24018
683.6	2083.80094
684.039	2104.40651
684.479	2174.23805
684.919	2092.95993
685.358	2122.24313
685.798	2148.49656
686.237	2253.09628
686.676	2250.83993
687.115	2358.07784
687.554	2281.12802
687.993	2398.77724
688.432	2323.90493
688.871	2458.96785
689.309	2426.19281
689.748	2552.50732
690.186	2598.09332
690.625	2523.10629
691.063	2548.19339
691.501	2653.42678
691.939	2616.52921
692.377	2690.31268
692.815	2782.38371
693.253	2719.20636
693.69	2790.75116
694.128	2847.34139
694.565	2835.18868
695.003	2872.67512
695.44	2932.1929
695.877	2946.15221
696.314	2927.53118
696.751	3037.91617
697.188	3107.04786
697.625	3124.82591
698.061	3139.2421
698.498	3156.15272
698.934	3273.20819
699.371	3302.10539
699.807	3337.1134
700.243	3353.25794
700.679	3388.73726
701.115	3505.98855
701.551	3511.95777
701.987	3499.57383
702.422	3683.09215
702.858	3698.08144
703.294	3813.7665
703.729	3824.16844
704.164	3751.05955
704.599	3879.56172
705.035	3937.56185
705.47	3985.08907
705.904	4043.72077
706.339	4141.61132
706.774	4220.71244
707.209	4230.66755
707.643	4280.83701
708.078	4350.92378
708.512	4323.18421
708.946	4474.65338
709.38	4463.68844
709.814	4476.32907
710.248	4594.84138
710.682	4739.62086
711.116	4635.78896
711.549	4730.11091
711.983	4813.28133
712.416	4949.40741
712.85	4972.71684
713.283	4991.33676
713.716	5096.64948
714.149	5076.1414
714.582	5111.92069
715.015	5123.54662
715.448	5304.67281
715.881	5304.51738
716.313	5291.08647
716.746	5417.12018
717.178	5396.24755
717.61	5399.7001
718.043	5580.3488
718.475	5501.25968
718.907	5662.39344
719.339	5707.67772
719.77	5591.11776
720.202	5706.3953
720.634	5829.18921
721.065	5786.89525
721.497	5862.14538
721.928	5983.07643
722.359	5962.06803
722.79	6043.90704
723.221	6053.16225
723.652	6131.31644
724.083	6120.46183
724.514	6152.58777
724.945	6157.70624
725.375	6320.65869
725.806	6254.03018
726.236	6312.2934
726.666	6300.70761
727.096	6388.93614
727.526	6456.32529
727.956	6416.49589
728.386	6518.91919
728.816	6489.26206
729.246	6522.9794
729.675	6454.89601
730.105	6533.89516
730.534	6533.5808
730.964	6542.03159
731.393	6538.90205
731.822	6613.20681
732.251	6667.14166
732.68	6702.51861
733.109	6738.92899
733.537	6802.87315
733.966	6796.0131
734.395	6874.52332
734.823	6718.26752
735.251	6832.74234
735.68	6860.90263
736.108	6766.00322
736.536	6677.58584
736.964	6776.52446
737.392	6659.01759
737.82	6700.70006
738.247	6779.6837
738.675	6726.59756
739.102	6572.02002
739.53	6691.24336
739.957	6606.30837
740.384	6563.76599
740.811	6570.9909
741.238	6606.90558
741.665	6595.63186
742.092	6314.51329
742.519	6417.03176
742.945	6376.89367
743.372	6448.0292
743.798	6292.2916
744.225	6216.72806
744.651	6140.15999
745.077	6153.1324
745.503	6129.89266
745.929	6190.9186
746.355	5999.99342
746.781	5816.14883
747.207	5884.89229
747.632	5735.30087
748.058	5855.35919
748.483	5723.71942
748.908	5746.30735
749.334	5615.29246
749.759	5553.06771
750.184	5566.14761
750.609	5539.26351
751.033	5404.96093
751.458	5445.63435
751.883	5363.3864
752.307	5126.18833
752.732	5108.88219
753.156	4982.60848
753.58	5030.23917
754.005	4865.8231
754.429	4915.37401
754.853	4729.86
755.277	4689.50793
755.7	4698.838
756.124	4598.91115
756.548	4501.55753
756.971	4449.83365
757.394	4456.20481
757.818	4380.33741
758.241	4304.24747
758.664	4255.21125
759.087	4182.42096
759.51	4085.08798
759.933	4033.98764
760.356	4072.48636
760.778	4070.07744
761.201	3836.03519
761.623	3720.96394
762.046	3663.85833
762.468	3744.00174
762.89	3576.19179
763.312	3619.22502
763.734	3443.16414
764.156	3422.33321
764.578	3320.80682
765	3314.25758
765.421	3302.6048
765.843	3152.78312
766.264	3045.0888
766.686	3062.39191
767.107	2980.25215
767.528	3066.66452
767.949	2890.54502
768.37	2923.41044
768.791	2816.16919
769.212	2668.47984
769.632	2680.04763
770.053	2632.68232
770.473	2638.18112
770.894	2530.26842
771.314	2467.01953
771.734	2433.95777
772.154	2421.4497
772.575	2447.89533
772.994	2399.79955
773.414	2371.03166
773.834	2249.23328
774.254	2238.12067
774.673	2213.1378
775.093	2184.21304
775.512	2100.12007
775.931	2079.23967
776.351	2072.15437
776.77	1931.98574
777.189	1957.84485
777.607	1955.1793
778.026	1886.00934
778.445	1826.05474
778.864	1765.97408
779.282	1677.64225
779.701	1736.9084
780.119	1719.94554
780.537	1617.76081
780.955	1623.82545
781.373	1557.67038
781.791	1590.40779
782.209	1501.28972
782.627	1493.85476
783.045	1476.29552
783.462	1473.70627
783.88	1383.65278
784.297	1397.56232
784.715	1340.58175
785.132	1347.34748
785.549	1287.39754
785.966	1299.43779
786.383	1255.32856
786.8	1267.1463
787.217	1255.22877
787.633	1217.33812
788.05	1158.01724
788.466	1195.064
788.883	1113.24926
789.299	1001.86753
789.715	1059.02124
790.131	1010.99725
790.547	1035.0362
790.963	978.93661
791.379	969.97632
791.795	949.67881
792.21	927.71046
792.626	891.68491
793.041	851.72056
793.457	854.71757
793.872	844.59472
794.287	822.64556
794.702	804.608
795.117	761.59807
795.532	790.67322
795.947	735.45388
796.362	710.38699
796.776	748.41648
797.191	726.50207
797.605	688.38524
798.02	686.41415
798.434	697.28985
798.848	722.52841
799.262	639.3652
799.676	609.28192
800.09	568.21725
800.504	582.21668
800.918	538.06987
801.331	497.1314
801.745	500.99917
802.158	496.08741
802.572	519.10514
802.985	458.97419
803.398	499.04221
803.811	468.04959
804.224	445.97719
804.637	441.94273
805.05	402.8268
805.462	455.99074
805.875	436.02403
806.288	409.89551
806.7	379.8557
807.112	374.77303
807.525	359.79169
807.937	352.79719
808.349	346.78615
808.761	399.89092
809.173	367.8117
809.584	324.72931
809.996	272.61603
810.408	302.73183
810.819	239.52355
811.231	324.80425
811.642	360.81795
812.053	309.69484
812.464	301.65406
812.875	350.82479
813.286	327.7839
813.697	292.60761
814.108	273.61314
814.519	332.67699
814.929	265.62634
815.34	219.49046
815.75	263.62859
816.16	216.49697
816.571	229.5559
816.981	185.40424
817.391	200.44763
817.801	216.5053
818.211	183.40849
818.62	181.4127
819.03	180.41414
819.44	166.40351
819.849	155.36594
820.259	157.37669
820.668	171.39917
821.077	180.42636
821.486	139.31271
821.895	157.36087
822.304	158.39738
822.713	122.27272
823.122	139.32881
823.531	98.21817
823.939	170.3927
824.348	144.3292
824.756	146.34476
825.164	179.42227
825.573	162.38506
825.981	128.29991
826.389	149.3541
826.797	152.36809
827.205	140.30623
827.612	104.24359
828.02	66.1479
828.428	88.21487
828.835	120.30473
829.243	127.28466
829.65	125.29866
830.057	130.29767
830.464	124.29134
830.871	129.29437
831.278	123.28272
831.685	117.24569
832.092	53.12367
832.499	103.21495
832.905	106.25457
833.312	87.18511
833.718	153.36374
834.124	98.21373
834.531	70.16786
834.937	95.23468
835.343	89.20326
835.749	82.1799
836.155	60.15183
836.561	87.20524
836.966	49.11497
837.372	80.19447
837.777	56.13506
838.183	87.18277
838.588	77.18489
838.993	92.21421
839.399	77.18151
839.804	36.08504
840.209	88.21783
840.613	66.13997
841.018	52.12631
841.423	59.14618
841.828	71.17372
842.232	50.11711
842.637	93.2118
843.041	61.15169
843.445	50.11999
843.849	38.09137
844.253	78.17659
844.657	52.1273
845.061	118.25833
845.465	83.19192
845.869	36.08058
846.272	36.08521
846.676	16.03677
847.079	82.20201
847.483	107.2537
847.886	82.18882
848.289	60.15704
848.692	40.0972
849.095	62.1422
849.498	80.19133
849.901	60.13047
850.304	88.20037
850.707	50.12254
851.109	74.17867
851.512	86.20285
851.914	33.08119
852.316	111.27118
852.718	85.21673
853.121	48.11344
853.523	43.09591
853.925	46.11748
854.326	26.06346
854.728	83.20579
855.13	40.101
855.531	20.04639
855.933	40.09148
856.334	54.13092
856.736	86.18525
857.137	63.14173
857.538	50.12227
857.939	59.14248
858.34	59.13648
858.741	67.16812
859.142	32.07372
859.542	50.12864
859.943	29.06966
860.343	50.12027
860.744	27.06365
861.144	63.14903
861.544	35.08244
861.945	27.06658
862.345	55.12859
862.745	58.13983
863.145	25.0565
863.544	55.13442
863.944	66.14918
864.344	30.07101
864.743	82.19431
865.143	80.19926
865.542	-32.07139
865.941	69.16461
866.34	33.07512
866.74	33.08612
867.139	51.11919
867.537	-2.0049
867.936	35.08164
868.335	43.10537
868.734	38.09413
869.132	29.06401
869.531	44.10104
869.929	48.10553
870.327	2.00465
870.726	31.07384
871.124	-13.02926
871.522	29.07125
871.92	82.19349
872.318	6.01411
872.715	17.04009
873.113	13.03049
873.511	23.05525
873.908	34.08453
874.306	31.07523
874.703	29.0694
875.1	-18.04426
875.497	31.07134
875.894	35.08446
876.291	53.12537
876.688	44.10983
877.085	62.1414
877.482	58.13951
877.878	56.13137
878.275	21.05188
878.671	6.01246
879.068	99.22719
879.464	31.07222
879.86	18.04112
880.256	22.05159
880.652	34.08358
881.048	33.078
881.444	16.03621
881.84	22.05408
882.236	57.13765
882.631	49.11641
883.027	43.09967
883.422	-7.01732
883.817	31.07599
884.213	-8.02002
884.608	41.09924
885.003	4.00926
885.398	6.0146
885.793	18.04356
886.188	17.04085
886.582	61.14898
886.977	36.08157
887.371	52.12565
887.766	33.07981
888.16	19.04505
888.554	59.13892
888.949	65.15655
889.343	37.08654
889.737	14.03669
890.131	21.05102
890.525	101.24859
890.918	-12.02939
891.312	21.04794
891.706	36.0912
892.099	52.12697
892.492	126.25284
892.886	8.01891
893.279	-1.00247
893.672	26.06457
894.065	17.04129
894.458	4.00966
894.851	65.15138
895.244	12.02973
895.637	68.15733
896.029	39.09251
896.422	22.05123
896.814	18.04315
897.206	66.15271
897.599	80.18884
897.991	53.12392
898.383	53.12036
898.775	71.15468
899.167	23.05257
899.559	10.02432
899.951	10.02255
900.342	12.02929
900.734	71.17333
901.125	20.05054
901.517	41.09714
901.908	80.17987
902.299	20.04745
902.69	100.22631
903.082	48.11168
903.473	141.32396
903.863	22.05402
904.254	91.20338
904.645	20.04743
905.036	48.11418
905.426	21.0455
905.817	6.01416
906.207	-46.10588
906.597	86.1936
906.987	-5.01251
907.378	72.17574
907.768	53.13581
908.158	62.14448
908.547	48.12151
908.937	5.0123
909.327	65.15072
909.717	16.03866
910.106	7.01619
910.495	17.04056
910.885	84.20419
911.274	50.11999
911.663	31.07526
912.052	52.12165
912.441	26.06452
912.83	37.08081
913.219	7.01774
913.608	78.18341
913.997	52.12678
914.385	42.0964
914.774	85.19686
915.162	52.12036
915.55	44.1014
915.939	41.10069
916.327	44.10479
916.715	78.19378
917.103	33.07679
917.491	24.05711
917.878	50.11775
918.266	45.1121
918.654	72.17809
919.041	62.15812
919.429	10.0228
919.816	52.12664
920.203	62.14561
920.591	54.12895
920.978	63.14776
921.365	37.09434
921.752	-11.02502
922.139	52.10763
922.525	45.1043
922.912	51.11887
923.299	7.0169
923.685	12.03011
924.072	-31.06768
924.458	31.07449
924.844	14.03356
925.231	-19.0425
925.617	47.11662
926.003	48.11777
926.389	-5.01226
926.774	30.07314
927.16	56.13321
927.546	80.19919
927.931	35.0836
928.317	27.05927
928.702	36.08137
929.088	28.06535
929.473	67.16515
929.858	58.13718
930.243	81.1876
930.628	92.21573
931.013	15.03605
931.398	48.10357
931.783	16.04042
932.167	44.10467
932.552	44.10575
932.937	7.01672
933.321	40.09767
933.705	-11.02665
934.09	-1.0024
934.474	54.12141
934.858	1.00253
935.242	10.02228
935.626	24.05982
936.009	50.12993
936.393	45.11206
936.777	72.17816
937.16	70.17663
937.544	35.07777
937.927	37.0912
938.311	26.06071
938.694	68.17366
939.077	12.02775
939.46	24.05549
939.843	3.00585
940.226	38.09355
940.609	99.21815
940.991	6.01472
941.374	44.10415
941.757	28.06633
942.139	47.10139
942.522	60.13451
942.904	23.05333
943.286	7.01718
943.668	48.12133
944.05	54.12781
944.432	9.02141
944.814	14.03297
945.196	31.0735
945.578	52.12074
945.959	-6.01346
946.341	-14.0327
946.722	28.06277
947.104	47.10782
947.485	39.08709
947.866	32.07857
948.247	35.08615
948.628	-26.06044
949.009	30.07429
949.39	10.02393
949.771	-2.00438
950.152	29.06873
950.532	38.09282
950.913	28.06491
951.293	48.1267
951.674	41.0953
952.054	87.21009
952.434	32.07677
952.814	-20.04563
953.194	6.01504
953.574	39.0919
953.954	-9.02047
954.334	56.13541
954.714	13.03081
955.093	84.19682
955.473	19.04652
955.853	-5.01261
956.232	2.00534
956.611	9.02055
956.99	51.12386
957.37	-7.01722
957.749	-11.025
958.128	37.09053
958.506	49.12287
958.885	9.02192
959.264	51.12176
959.643	58.12687
960.021	6.01452
960.4	-7.01531
960.778	28.06538
961.156	2.00484
961.535	3.00667
961.913	58.13051
962.291	40.10046
962.669	28.06895
963.047	47.11628
963.424	72.17888
963.802	30.07131
964.18	38.09099
964.557	23.0506
964.935	54.12221
965.312	38.09626
965.69	18.04312
966.067	-18.04206
966.444	-29.0682
966.821	44.10955
967.198	14.03235
967.575	26.06114
967.952	70.15661
968.329	43.10125
968.705	68.13929
969.082	49.12296
969.458	16.03764
969.835	35.08193
970.211	32.08031
970.587	41.09849
970.963	18.04428
971.339	11.02805
971.715	73.17482
972.091	57.13437
972.467	-7.01668
972.843	56.13516
973.219	49.11141
973.594	14.03557
973.97	-12.02688
974.345	23.05331
974.721	-2.00461
975.096	29.0682
975.471	51.11521
975.846	29.06647
976.221	2.00494
976.596	47.1101
976.971	70.16665
977.346	27.0598
977.72	9.0221
978.095	25.06246
978.469	4.00918
978.844	65.15548
979.218	29.06807
979.593	64.14561
979.967	5.01154
980.341	52.11499
980.715	48.11668
981.089	-8.01943
981.463	71.15508
981.837	50.11885
982.21	-16.035
982.584	27.06313
982.957	27.06555
983.331	-35.07919
983.704	73.17382
984.078	2.00476
984.451	33.07761
984.824	45.10604
985.197	34.07804
985.57	33.07837
985.943	3.00703
986.316	7.01633
986.688	37.08549
987.061	85.18997
987.434	111.27983
987.806	-36.08372
988.179	35.07887
988.551	35.08516
988.923	16.0378
989.295	32.07656
989.667	3.00705
990.039	76.1828
990.411	31.06722
990.783	4.00874
991.155	40.09281
991.527	55.12693
991.898	45.10842
992.27	39.09386
992.641	68.16207
993.012	-3.00663
993.384	-17.03911
993.755	47.11611
994.126	38.08865
994.497	33.078
994.868	25.05437
995.239	35.08122
995.61	18.04385
995.98	-2.0047
996.351	44.10559
996.722	40.09005
997.092	56.12756
997.462	5.01143
997.833	-9.02044
998.203	28.06422
998.573	53.12726
998.943	50.11283
999.313	66.15204
999.683	20.04644
1000.053	-15.03254
1000.423	36.08333
1000.792	12.02978
1001.162	-19.0451
1001.531	87.20477
1001.901	32.07639
1002.27	0
1002.639	12.02944
1003.009	45.10219
1003.378	32.07915
1003.747	23.05185
1004.116	27.06199
1004.485	44.10067
1004.853	28.0674
1005.222	-2.00479
1005.591	39.08839
1005.959	56.12084
1006.328	65.13969
1006.696	10.02316
1007.064	30.07197
1007.433	66.1564
1007.801	43.09935
1008.169	3.00726
1008.537	70.14664
1008.905	23.05191
1009.273	30.07071
1009.64	67.15474
1010.008	69.15631
1010.375	44.10035
1010.743	16.03427
1011.11	88.20199
1011.478	76.181
1011.845	40.08946
1012.212	92.19945
1012.579	73.17141
1012.946	28.06316
1013.313	59.13263
1013.68	57.12101
1014.047	9.02068
1014.414	28.06337
1014.78	43.10317
1015.147	-3.00692
1015.513	52.11988
1015.88	16.03924
1016.246	6.01411
1016.612	29.06294
1016.978	100.23431
1017.344	16.03827
1017.71	55.12728
1018.076	24.0537
1018.442	40.09952
1018.808	32.07787
1019.174	17.04091
1019.539	-2.00423
1019.905	19.04338
1020.27	3.00715
1020.636	2.00456
1021.001	73.16706
1021.366	52.12012
1021.731	81.2023
1022.096	-9.02229
1022.461	27.06156
1022.826	46.10559
1023.191	16.04072
1023.556	40.08912
1023.92	5.01175
1024.285	10.02327
1024.649	-13.03067
1025.014	1.00237
1025.378	39.09503
1025.742	-23.055
1026.107	-10.02173
1026.471	32.071
1026.835	19.04543
1027.199	-2.00467
1027.562	-15.03332
1027.926	34.07929
1028.29	35.08541
1028.654	5.01101
1029.017	81.19027
1029.381	56.12833
1029.744	49.12025
1030.107	64.14419
1030.471	64.14708
1030.834	-22.04753
1031.197	71.16261
1031.56	7.01581
1031.923	21.05264
1032.286	50.11205
1032.648	33.07449
1033.011	75.16603
1033.374	14.03124
1033.736	14.03575
1034.099	36.08435
1034.461	13.03206
1034.823	12.02903
1035.185	30.072
1035.548	57.13337
1035.91	60.13678
1036.272	31.06794
1036.634	81.18842
1036.995	8.01794
1037.357	30.0706
1037.719	16.03758
1038.08	74.1687
1038.442	29.06591
1038.803	-30.06872
1039.165	-24.05862
1039.526	7.01634
1039.887	44.10063
1040.248	49.11797
1040.609	34.07976
1040.97	9.02115
1041.331	78.19017
1041.692	43.09797
1042.053	63.13521
1042.413	44.09718
1042.774	48.11207
1043.134	50.112
1043.495	10.02429
1043.855	79.18463
1044.215	29.06881
1044.576	0
1044.936	71.1533
1045.296	53.12668
1045.656	19.04437
1046.016	2.00463
1046.375	0
1046.735	46.10151
1047.095	13.02928
1047.454	107.20891
1047.814	18.0417
1048.173	19.04292
1048.533	47.10266
1048.892	-12.02804
1049.251	17.04084
1049.61	32.07586
1049.969	12.02711
1050.328	47.09673
1050.687	22.05112
1051.046	57.13201
1051.405	6.01427
1051.763	29.06468
1052.122	4.00963
1052.48	17.04032
1052.839	72.16407
1053.197	-8.01816
1053.555	1.00214
1053.914	43.10042
1054.272	0
1054.63	31.07308
1054.988	29.06685
1055.345	27.05449
1055.703	47.10846
1056.061	66.16487
1056.419	64.16184
1056.776	-5.0115
1057.134	-51.11267
1057.491	22.05316
1057.848	31.07373
1058.206	10.02223
1058.563	44.09193
1058.92	39.08536
1059.277	14.0333
1059.634	20.04445
1059.991	54.1239
1060.348	0
1060.704	89.20637
1061.061	25.05444
1061.418	18.04211
1061.774	15.03573
1062.131	41.10642
1062.487	-4.00896
1062.843	19.04564
1063.199	18.04321
1063.555	29.06506
1063.911	-3.00729
1064.267	60.11584
1064.623	30.07093
1064.979	30.06537
1065.335	11.02505
1065.691	22.04981
1066.046	-7.01474
1066.402	45.09666
1066.757	14.03417
1067.112	18.04232
1067.468	19.0438
1067.823	-19.04325
1068.178	-1.00232
1068.533	30.0698
1068.888	31.07057
1069.243	13.03097
1069.598	32.07407
1069.952	61.13374
1070.307	34.08141
1070.662	52.11964
1071.016	61.13194
1071.371	27.05915
1071.725	23.05227
1072.079	46.10614
1072.434	-31.07356
1072.788	-18.04087
1073.142	102.23815
1073.496	10.02277
1073.85	29.0642
1074.203	45.10468
1074.557	64.16591
1074.911	55.12414
1075.265	37.08211
1075.618	71.16542
1075.971	28.06378
1076.325	41.10114
1076.678	1.0022
1077.031	-16.03412
1077.385	79.16325
1077.738	44.09429
1078.091	55.12028
1078.444	63.13702
1078.796	72.16969
1079.149	85.20177
1079.502	71.16084
1079.855	46.10258
1080.207	40.09413
1080.56	50.12522
1080.912	65.15054
1081.264	48.1111
1081.617	55.12874
1081.969	2.00492
1082.321	41.09556
1082.673	24.05343
1083.025	4.00908
1083.377	311.6591
1083.728	26.05774
1084.08	-15.03607
1084.432	-1.00232
1084.783	-37.08228
1085.135	36.08725
1085.486	-19.04232
1085.838	51.12078
1086.189	66.15434
1086.54	48.10894
1086.891	47.11662
1087.242	64.15166
1087.593	12.02767
1087.944	67.14535
1088.295	54.11627
1088.646	63.14886
1088.996	20.0467
1089.347	30.07024
1089.698	44.10075
1090.048	22.05486
1090.398	23.0507
1090.749	-11.02518
1091.099	4.00988
1091.449	31.07466
1091.799	12.02901
1092.149	35.08334
1092.499	54.12603
1092.849	45.11019
1093.199	33.07876
1093.548	0
1093.898	-7.0169
1094.248	11.02705
1094.597	4.01004
1094.947	1.0026
1095.296	31.0741
1095.645	19.04757
1095.994	35.08058
1096.343	39.09479
1096.692	33.08533
1097.041	17.0455
1097.39	54.12895
1097.739	-13.03286
1098.088	17.04384
1098.437	8.02074
1098.785	-19.04959
1099.134	23.05809
1099.482	45.12032
1099.83	19.0484
1100.179	58.14859
1100.527	-16.04095
1100.875	24.062
1101.223	63.16228
1101.571	19.05087
1101.919	52.13415
1102.267	10.02774
1102.615	-5.01607
1102.962	-1.00321
1103.31	-3.00964
1103.658	4.01282
