Data from N3 R1 sample 10_Subt2__4__15-14-16-577.txt Node

Date: Wed Sep 17 15:14:16 PDT 2025
User: uwsun
Spectrometer: HDX01956
Trigger mode: 0
Integration Time (sec): 5.000000E-1
Scans to average: 1
Nonlinearity correction enabled: true
Boxcar width: 0
Storing dark spectrum: false
XAxis mode: Wavelengths
Number of Pixels in Spectrum: 2068
>>>>>Begin Spectral Data<<<<<
194.03	118.33666
194.578	127.40682
195.127	118.37296
195.676	133.42114
196.225	132.34478
196.773	144.39342
197.321	205.55565
197.87	280.69835
198.418	321.80072
198.966	348.8842
199.513	340.83409
200.061	294.72687
200.609	324.82761
201.156	295.62574
201.704	332.80693
202.251	332.85369
202.798	279.70555
203.345	370.87868
203.892	337.82229
204.438	308.70747
204.985	350.7991
205.532	304.77681
206.078	315.74449
206.624	411.98257
207.17	418.92929
207.716	324.76917
208.262	361.68142
208.808	371.8951
209.354	411.96793
209.899	318.77493
210.445	361.86835
210.99	356.83567
211.535	367.82895
212.08	341.76144
212.625	313.75748
213.17	392.9552
213.715	377.82302
214.259	393.8739
214.804	355.83543
215.348	443.96502
215.892	384.89117
216.436	362.78944
216.98	361.75603
217.524	398.9061
218.068	370.89555
218.612	390.9482
219.155	373.8425
219.698	320.73474
220.242	248.59851
220.785	364.81765
221.328	333.79159
221.871	383.9324
222.414	342.81157
222.956	248.57901
223.499	288.62036
224.041	261.57945
224.583	300.60757
225.126	310.6531
225.668	283.66629
226.21	292.71663
226.751	362.76734
227.293	291.63476
227.835	315.74392
228.376	340.7377
228.918	304.73003
229.459	329.789
230	326.7524
230.541	315.69554
231.082	333.77818
231.622	287.62603
232.163	316.73252
232.704	342.82126
233.244	306.73232
233.784	309.72041
234.324	373.79704
234.864	285.62141
235.404	307.69487
235.944	330.74372
236.484	352.84012
237.023	280.63827
237.563	342.76004
238.102	327.74133
238.641	298.72295
239.18	335.75298
239.719	299.72279
240.258	333.71466
240.797	308.7086
241.335	319.74489
241.874	320.59528
242.412	369.8545
242.95	347.80261
243.488	294.63545
244.026	353.78367
244.564	329.64601
245.102	372.80058
245.64	330.75436
246.177	330.70013
246.715	351.80541
247.252	266.58478
247.789	317.55938
248.326	328.75913
248.863	263.56201
249.4	359.77377
249.936	406.7989
250.473	352.79524
251.009	313.68823
251.546	378.80055
252.082	304.63004
252.618	338.72242
253.154	358.8223
253.69	358.76317
254.226	368.83917
254.761	346.74047
255.297	265.56088
255.832	355.8061
256.367	333.74941
256.903	376.79283
257.438	383.85061
257.972	348.73831
258.507	319.70202
259.042	332.69022
259.576	382.80124
260.111	356.778
260.645	333.6869
261.179	363.81022
261.713	368.78278
262.247	381.8233
262.781	418.82523
263.315	342.79341
263.849	383.91251
264.382	328.72167
264.915	411.91847
265.449	314.73825
265.982	396.84929
266.515	400.92975
267.048	318.64608
267.58	334.68726
268.113	339.69959
268.646	338.79219
269.178	364.77259
269.71	442.91398
270.243	378.83236
270.775	391.95542
271.307	323.73672
271.838	391.87378
272.37	368.85911
272.902	362.7794
273.433	386.81034
273.965	344.79994
274.496	342.81189
275.027	394.93169
275.558	388.90009
276.089	378.90043
276.62	354.85329
277.15	357.83818
277.681	345.70685
278.211	370.85902
278.741	407.85198
279.272	373.81153
279.802	363.86189
280.332	401.89612
280.861	410.92511
281.391	368.79538
281.921	378.85814
282.45	374.88304
282.98	383.95185
283.509	404.86869
284.038	417.89915
284.567	416.91371
285.096	372.86059
285.625	380.81006
286.153	448.00342
286.682	429.927
287.21	343.78138
287.739	419.93325
288.267	369.85789
288.795	371.92607
289.323	381.85109
289.851	413.91836
290.378	439.9153
290.906	421.97411
291.433	394.93349
291.961	438.93976
292.488	384.90629
293.015	397.88938
293.542	483.1621
294.069	451.04964
294.596	422.97313
295.122	482.07706
295.649	425.87233
296.175	427.96837
296.702	404.93794
297.228	387.88515
297.754	362.77672
298.28	506.07718
298.806	456.02892
299.332	455.95286
299.857	483.01943
300.383	425.00841
300.908	423.98455
301.433	468.07407
301.958	440.9469
302.483	371.87817
303.008	472.09925
303.533	462.11842
304.058	447.97704
304.582	443.98465
305.107	457.11852
305.631	490.02949
306.155	447.97827
306.679	434.96245
307.203	470.01818
307.727	489.07811
308.251	474.09394
308.775	523.17964
309.298	466.05195
309.822	432.02368
310.345	535.18068
310.868	500.12195
311.391	541.23023
311.914	517.20351
312.437	566.18266
312.96	548.18746
313.482	514.11746
314.005	463.08354
314.527	561.34595
315.049	538.26155
315.571	537.1123
316.093	600.35768
316.615	515.14501
317.137	546.08985
317.659	559.24504
318.18	511.12858
318.702	584.25051
319.223	540.00402
319.744	613.24903
320.265	575.28653
320.786	587.3468
321.307	592.33847
321.828	649.3147
322.348	586.2602
322.869	617.33691
323.389	938.51238
323.909	598.2419
324.43	633.36928
324.95	649.33688
325.47	647.45553
325.989	695.47473
326.509	716.42054
327.029	662.3585
327.548	748.49103
328.067	682.48889
328.587	752.67777
329.106	675.35872
329.625	732.70616
330.144	694.44283
330.662	762.57804
331.181	769.59858
331.7	723.49085
332.218	775.4652
332.736	785.6116
333.255	764.58712
333.773	761.58474
334.291	825.80926
334.808	789.55284
335.326	788.54397
335.844	844.72234
336.361	900.00868
336.879	907.82637
337.396	853.80714
337.913	850.69776
338.43	900.72807
338.947	909.86056
339.464	878.6122
339.981	900.82926
340.497	952.99289
341.014	907.8999
341.53	934.7797
342.046	1005.12118
342.562	1006.11359
343.078	972.92919
343.594	933.88909
344.11	1011.02886
344.626	1022.17445
345.141	1025.94537
345.657	1085.0023
346.172	1049.10526
346.687	1000.91487
347.202	1076.01476
347.717	1071.10914
348.232	1061.20347
348.747	1125.10832
349.261	1080.93051
349.776	1078.11454
350.29	1151.36103
350.805	1121.27575
351.319	1123.12001
351.833	1185.18202
352.347	1170.22776
352.861	1149.18293
353.374	1174.13214
353.888	1217.39056
354.401	1155.11073
354.915	1153.0944
355.428	1245.48561
355.941	1244.28703
356.454	1224.13831
356.967	1215.2519
357.48	1224.18747
357.993	1279.49032
358.505	1215.36769
359.018	1327.54511
359.53	1340.55233
360.042	1340.29439
360.554	1440.6868
361.066	1315.5052
361.578	1425.34716
362.09	1359.49362
362.602	1391.33865
363.113	1374.48175
363.625	1458.46325
364.136	1379.27963
364.647	1477.62357
365.158	1462.54431
365.669	1437.59798
366.18	1524.6459
366.691	1469.36183
367.201	1508.69055
367.712	1554.58721
368.222	1549.60192
368.733	1520.38915
369.243	1525.48284
369.753	1635.68408
370.263	1696.9158
370.773	1531.76728
371.282	1664.84237
371.792	1762.81789
372.301	1735.94813
372.811	1808.37173
373.32	1775.58066
373.829	1804.91325
374.338	1907.76078
374.847	1971.95424
375.356	2001.05949
375.865	2044.70197
376.373	2212.02204
376.882	2224.54531
377.39	2284.3317
377.898	2317.44074
378.407	2407.08774
378.915	2538.94404
379.423	2631.25938
379.93	2811.28468
380.438	2773.46135
380.946	2982.29323
381.453	3077.47618
381.96	3183.44001
382.468	3351.31849
382.975	3690.51158
383.482	3771.88163
383.989	3823.82591
384.495	3904.0975
385.002	4084.34863
385.509	4331.05209
386.015	4699.85965
386.521	4804.45165
387.028	5130.24986
387.534	5198.8236
388.04	5434.4918
388.546	5502.85817
389.051	5703.74181
389.557	6218.84999
390.063	6698.60604
390.568	7015.95429
391.073	7026.52947
391.578	7483.11885
392.084	7586.82209
392.589	7820.78893
393.093	8506.7843
393.598	9244.91541
394.103	10209.39045
394.607	11195.01831
395.112	11874.13321
395.616	12662.75768
396.12	13710.88706
396.624	15160.20974
397.128	16425.97966
397.632	18208.94785
398.136	19912.43311
398.639	20868.35197
399.143	23223.93611
399.646	26289.27159
400.15	29259.54976
400.653	32391.0117
401.156	36479.47288
401.659	42438.92293
402.162	51881.57952
402.664	60658.76872
403.167	63942.85926
403.67	63769.22307
404.172	63919.58413
404.674	63858.43483
405.176	63738.15102
405.678	63977.72923
406.18	64011.81569
406.682	63863.44694
407.184	63926.60148
407.686	63841.39382
408.187	64025.8516
408.688	63892.51763
409.19	63833.37461
409.691	63977.72923
410.192	63945.6488
410.693	63713.09355
411.194	63737.46673
411.694	61707.57652
412.195	57562.67785
412.696	51547.62593
413.196	47717.0673
413.696	46467.01667
414.196	47208.03117
414.696	46501.59644
415.196	43996.37605
415.696	40215.63899
416.196	32735.79589
416.695	25262.4795
417.195	21697.74744
417.694	20402.91834
418.194	19114.62945
418.693	17998.99787
419.192	17432.21676
419.691	17157.21996
420.19	16551.44806
420.688	16172.8598
421.187	15629.55371
421.685	14585.07579
422.184	13215.778
422.682	11374.37968
423.18	9796.23221
423.678	8497.6432
424.176	7994.09258
424.674	7566.69606
425.172	7204.80834
425.669	6788.03715
426.167	6337.76866
426.664	5792.81518
427.161	5355.11544
427.659	4854.78677
428.156	4676.00727
428.652	4343.37068
429.149	4152.17093
429.646	4059.6324
430.143	3756.2436
430.639	3585.22164
431.135	3374.63829
431.632	3261.07535
432.128	3006.40028
432.624	2861.84224
433.12	2705.09246
433.616	2745.88969
434.111	2474.25422
434.607	2414.27375
435.103	2497.64914
435.598	2357.60068
436.093	2290.08439
436.588	2132.86218
437.083	2078.81657
437.578	1982.90195
438.073	1822.11349
438.568	1871.0813
439.062	1739.44313
439.557	1737.75649
440.051	1597.49634
440.546	1605.53919
441.04	1630.76033
441.534	1523.82067
442.028	1550.6899
442.522	1424.53871
443.015	1446.21084
443.509	1429.58606
444.002	1386.55409
444.496	1413.21257
444.989	1401.54285
445.482	1365.56452
445.975	1347.33155
446.468	1312.10824
446.961	1340.14508
447.454	1251.13385
447.947	1267.32772
448.439	1236.36622
448.931	1262.21075
449.424	1255.5033
449.916	1253.37187
450.408	1181.10008
450.9	1170.24493
451.392	1138.32232
451.884	1108.01695
452.375	1086.17317
452.867	1091.94174
453.358	1085.97976
453.849	1079.81383
454.341	1046.89355
454.832	1027.77112
455.323	1112.22835
455.814	1035.90637
456.304	999.88216
456.795	942.77155
457.285	942.69622
457.776	997.84448
458.266	955.8721
458.756	883.7495
459.247	933.85471
459.737	917.85498
460.226	970.80736
460.716	943.86853
461.206	877.76509
461.695	813.72235
462.185	867.73375
462.674	881.68058
463.163	844.59005
463.653	848.50244
464.142	835.72128
464.63	761.59316
465.119	784.55927
465.608	799.59762
466.096	757.40041
466.585	785.5283
467.073	709.45606
467.561	714.49237
468.05	752.48791
468.538	696.49
469.026	678.40953
469.513	670.22589
470.001	726.44175
470.489	666.39254
470.976	731.47835
471.463	663.45927
471.951	674.47637
472.438	634.31619
472.925	644.33816
473.412	608.31486
473.899	577.18197
474.385	551.21807
474.872	606.25574
475.359	598.31579
475.845	526.97761
476.331	560.06144
476.817	539.18655
477.303	589.22073
477.789	484.05258
478.275	477.0858
478.761	464.00986
479.247	541.0831
479.732	475.0882
480.218	536.27981
480.703	444.00912
481.188	535.03892
481.673	472.99348
482.158	455.9006
482.643	490.14795
483.128	412.89237
483.612	458.00311
484.097	400.8985
484.581	443.94455
485.066	406.92692
485.55	419.85691
486.034	399.80233
486.518	430.95398
487.002	364.83072
487.486	392.88811
487.969	322.74081
488.453	365.85328
488.936	338.71647
489.42	344.71517
489.903	337.79216
490.386	227.45183
490.869	398.80972
491.352	294.67316
491.835	328.63052
492.318	308.65574
492.8	324.63184
493.283	322.77999
493.765	308.71737
494.247	332.72924
494.73	293.61634
495.212	283.63951
495.694	323.72065
496.175	330.7501
496.657	295.66472
497.139	262.42655
497.62	279.64125
498.102	269.6417
498.583	215.51054
499.064	255.54491
499.545	293.63505
500.026	305.65485
500.507	252.55656
500.988	279.66708
501.469	266.63515
501.949	265.62707
502.43	251.58152
502.91	350.69617
503.39	242.57741
503.87	289.65147
504.35	207.46893
504.83	219.46231
505.31	213.49681
505.79	164.37869
506.269	214.47482
506.749	201.44532
507.228	190.43505
507.707	254.5436
508.187	256.58734
508.666	225.53901
509.145	222.50157
509.623	184.41945
510.102	215.50345
510.581	257.59542
511.059	199.48688
511.538	180.45255
512.016	230.53213
512.494	199.46434
512.972	194.4517
513.45	167.38078
513.928	222.52218
514.406	224.53139
514.884	198.49672
515.361	202.4694
515.839	238.52828
516.316	236.55359
516.793	201.49305
517.27	228.5296
517.747	197.49199
518.224	179.40204
518.701	166.3585
519.178	164.40178
519.654	170.39332
520.131	220.52774
520.607	168.40117
521.083	147.32677
521.56	193.44237
522.036	190.40206
522.512	208.49857
522.987	199.46617
523.463	185.42726
523.939	234.56131
524.414	170.38002
524.89	232.53463
525.365	176.38791
525.84	159.37451
526.315	191.45058
526.79	188.41279
527.265	180.40586
527.74	144.34333
528.215	156.35649
528.689	105.22788
529.164	128.27039
529.638	176.43565
530.112	155.35727
530.587	147.30882
531.061	156.37023
531.534	181.4255
532.008	193.45706
532.482	179.40138
532.956	124.31199
533.429	196.46695
533.903	155.33281
534.376	152.32953
534.849	133.30105
535.322	160.36975
535.795	111.26501
536.268	178.42081
536.741	120.28117
537.213	132.29885
537.686	166.3976
538.158	204.45056
538.631	152.3613
539.103	155.34341
539.575	170.34161
540.047	149.31882
540.519	165.38592
540.991	178.42391
541.463	168.39533
541.934	123.27433
542.406	177.41561
542.877	185.40697
543.348	160.37885
543.82	162.38595
544.291	199.4519
544.762	167.38937
545.233	232.5694
545.703	185.4015
546.174	214.48133
546.645	231.54091
547.115	227.53071
547.585	201.44959
548.056	245.58221
548.526	257.58762
548.996	228.52772
549.466	222.5232
549.935	221.51243
550.405	238.50473
550.875	276.6289
551.344	219.50658
551.814	266.58551
552.283	305.63339
552.752	318.70935
553.221	292.61599
553.69	343.73326
554.159	313.74406
554.628	358.76549
555.096	324.78601
555.565	282.59673
556.033	369.82973
556.502	322.73933
556.97	307.65062
557.438	310.69351
557.906	322.72243
558.374	342.75089
558.842	295.67612
559.31	345.72955
559.777	292.68386
560.245	309.67487
560.712	287.62868
561.18	342.71513
561.647	280.59431
562.114	342.7414
562.581	389.89938
563.048	370.79662
563.514	432.00949
563.981	398.85174
564.448	378.80125
564.914	418.90343
565.381	446.94248
565.847	410.89031
566.313	421.90816
566.779	422.88161
567.245	444.95099
567.711	446.98946
568.176	468.9647
568.642	489.13332
569.108	535.19692
569.573	464.98867
570.038	552.03147
570.504	600.20781
570.969	529.19465
571.434	579.14915
571.899	594.26154
572.363	590.21
572.828	626.27701
573.293	599.22489
573.757	623.28555
574.222	667.31056
574.686	659.3356
575.15	668.42138
575.614	728.49681
576.078	655.35833
576.542	681.35887
577.006	688.35792
577.469	656.43208
577.933	737.4524
578.396	654.37165
578.86	634.32497
579.323	741.55399
579.786	689.29916
580.249	708.45891
580.712	675.44904
581.175	677.47516
581.637	640.29024
582.1	632.21337
582.563	706.29385
583.025	620.34827
583.487	689.2249
583.95	618.16875
584.412	648.19034
584.874	675.45464
585.336	582.24085
585.797	631.20999
586.259	625.30007
586.721	618.29148
587.182	704.4149
587.643	634.27461
588.105	592.25347
588.566	642.17101
589.027	661.43601
589.488	655.32567
589.949	674.44596
590.41	683.16468
590.87	725.4401
591.331	757.41645
591.791	709.43184
592.252	721.4621
592.712	759.57427
593.172	804.55682
593.632	836.56494
594.092	746.42989
594.552	827.50505
595.011	862.65818
595.471	923.73024
595.931	913.70726
596.39	957.90335
596.849	937.8057
597.308	986.68713
597.768	1064.25121
598.227	1091.10251
598.685	1125.01556
599.144	1159.14779
599.603	1162.12836
600.062	1265.98013
600.52	1285.1863
600.978	1273.29806
601.437	1370.2963
601.895	1433.185
602.353	1466.28641
602.811	1525.42655
603.269	1624.70026
603.727	1672.78073
604.184	1788.67825
604.642	1875.05272
605.099	1874.83728
605.557	1939.05272
606.014	2054.60753
606.471	2123.33194
606.928	2265.82384
607.385	2383.4685
607.842	2351.99539
608.299	2464.12306
608.755	2560.34151
609.212	2545.90498
609.668	2764.98436
610.125	2823.35806
610.581	2840.19588
611.037	2883.94067
611.493	2883.16911
611.949	3036.43705
612.405	3039.42561
612.861	3054.07339
613.316	3161.31768
613.772	3254.02114
614.227	3231.33247
614.683	3287.56076
615.138	3233.16905
615.593	3204.10816
616.048	3337.99255
616.503	3267.38687
616.958	3225.60673
617.412	3316.2339
617.867	3248.87939
618.321	3331.39836
618.776	3221.78894
619.23	3252.15314
619.684	3197.86553
620.138	3199.01398
620.592	3217.38287
621.046	3217.21463
621.5	3163.33516
621.954	3184.81176
622.407	3085.83022
622.861	3074.39644
623.314	3121.95768
623.768	3111.22
624.221	3020.24145
624.674	2999.09241
625.127	3005.12809
625.58	2943.92788
626.033	2952.78005
626.485	2956.30058
626.938	3057.27108
627.39	3066.15757
627.843	2989.07629
628.295	3040.0723
628.747	3061.27823
629.199	3086.9919
629.651	3204.01558
630.103	3138.02884
630.555	3199.52965
631.006	3236.09264
631.458	3369.14254
631.909	3375.82721
632.361	3468.98636
632.812	3505.99908
633.263	3712.5186
633.714	3823.31738
634.165	3930.08394
634.616	3962.96815
635.067	4122.41079
635.518	4210.87218
635.968	4338.61951
636.419	4487.16387
636.869	4511.7062
637.319	4855.36729
637.769	5013.05704
638.219	5224.27651
638.669	5325.27695
639.119	5529.2159
639.569	5799.10476
640.019	6047.74254
640.468	6372.46703
640.918	6433.80084
641.367	6690.42451
641.816	6987.40955
642.265	7243.71247
642.714	7464.704
643.163	7749.89866
643.612	8044.36166
644.061	8199.07388
644.51	8422.51411
644.958	8776.97351
645.406	8881.27168
645.855	9117.70824
646.303	9333.0978
646.751	9484.44464
647.199	9774.20444
647.647	9995.80717
648.095	9965.74832
648.543	10245.99476
648.99	10285.6424
649.438	10347.94323
649.885	10554.45176
650.333	10524.26248
650.78	10733.19077
651.227	10632.77947
651.674	10712.3256
652.121	10637.7895
652.568	10688.9802
653.015	10468.17957
653.461	10582.68932
653.908	10344.95314
654.354	10199.38733
654.801	10150.26228
655.247	9921.71441
655.693	9815.25882
656.139	9816.27009
656.585	9635.80635
657.031	9672.90423
657.477	9505.52494
657.922	9297.01404
658.368	9181.84499
658.813	9148.69777
659.259	9027.54447
659.704	8820.15699
660.149	8805.07971
660.594	8573.79801
661.039	8467.55481
661.484	8280.43873
661.929	8056.17187
662.373	7884.35861
662.818	7953.32835
663.262	7803.12621
663.707	7676.33162
664.151	7617.06585
664.595	7441.95591
665.039	7377.0823
665.483	7314.22722
665.927	7170.71445
666.371	7342.77841
666.814	7197.78722
667.258	7042.85347
667.701	6941.19822
668.145	7028.05264
668.588	6923.02554
669.031	6730.698
669.474	6806.816
669.917	6697.2995
670.36	6812.0815
670.803	6831.8617
671.245	6537.96659
671.688	6497.95015
672.13	6495.48872
672.573	6443.23542
673.015	6536.88149
673.457	6469.27317
673.899	6430.92292
674.341	6294.92979
674.783	6348.87963
675.225	6168.12975
675.666	6382.0221
676.108	6182.28083
676.549	6299.69747
676.991	6118.38237
677.432	5996.88531
677.873	5883.70162
678.314	5907.97757
678.755	5926.23876
679.196	5874.71324
679.637	5759.08013
680.078	5767.90364
680.518	5593.86129
680.959	5602.11518
681.399	5541.4468
681.839	5588.26784
682.28	5432.5413
682.72	5363.94837
683.16	5284.65334
683.6	5263.96455
684.039	5234.37247
684.479	5185.6235
684.919	5241.22047
685.358	5036.76582
685.798	5015.16782
686.237	5049.41852
686.676	4950.09243
687.115	4985.36647
687.554	4980.48722
687.993	4962.93642
688.432	4837.21614
688.871	4885.22609
689.309	4867.56623
689.748	4823.62886
690.186	4757.43164
690.625	4888.39518
691.063	4808.55228
691.501	4752.86838
691.939	4886.94612
692.377	4815.67024
692.815	4892.70173
693.253	4777.54622
693.69	4818.93993
694.128	4837.66977
694.565	4816.48881
695.003	4770.13227
695.44	4860.46677
695.877	4873.40955
696.314	4736.73635
696.751	4770.19158
697.188	4793.34454
697.625	4827.06896
698.061	4758.5983
698.498	4788.47829
698.934	4938.47848
699.371	4793.44912
699.807	4847.43602
700.243	4804.62871
700.679	4842.03246
701.115	4899.31617
701.551	4884.29285
701.987	4842.89333
702.422	4917.48154
702.858	4923.47223
703.294	5011.13489
703.729	5010.56558
704.164	5003.42388
704.599	5027.94194
705.035	5042.96155
705.47	4978.56878
705.904	5033.18269
706.339	5156.05142
706.774	5200.1705
707.209	5283.08505
707.643	5187.33518
708.078	5249.42517
708.512	5296.6497
708.946	5261.21243
709.38	5390.17202
709.814	5409.81312
710.248	5454.36126
710.682	5550.17311
711.116	5490.31259
711.549	5357.75738
711.983	5527.89327
712.416	5589.06128
712.85	5577.38311
713.283	5612.0044
713.716	5702.32292
714.149	5710.81541
714.582	5750.60583
715.015	5700.2385
715.448	5843.39159
715.881	5767.31184
716.313	5939.77969
716.746	6006.8495
717.178	5922.99379
717.61	5992.40107
718.043	6149.09425
718.475	6108.98555
718.907	6172.16808
719.339	6230.49539
719.77	6241.85104
720.202	6203.17964
720.634	6408.97681
721.065	6316.70874
721.497	6371.95954
721.928	6417.93146
722.359	6489.89887
722.79	6455.78574
723.221	6544.00971
723.652	6593.17266
724.083	6582.37869
724.514	6694.49563
724.945	6681.6047
725.375	6770.59867
725.806	6713.92666
726.236	6751.18441
726.666	6885.63954
727.096	6904.86488
727.526	7080.232
727.956	7045.49478
728.386	7054.88262
728.816	7080.1838
729.246	7049.93681
729.675	7037.84838
730.105	7005.86034
730.534	7237.62642
730.964	7237.00777
731.393	7246.89865
731.822	7255.17533
732.251	7321.13871
732.68	7374.63388
733.109	7391.98277
733.537	7530.98886
733.966	7365.05245
734.395	7548.71604
734.823	7621.57413
735.251	7491.86697
735.68	7364.95999
736.108	7382.04565
736.536	7500.74099
736.964	7384.64357
737.392	7463.06912
737.82	7356.77682
738.247	7430.79329
738.675	7448.72893
739.102	7336.02311
739.53	7262.22214
739.957	7314.27054
740.384	7349.81565
740.811	7324.99596
741.238	7327.93059
741.665	7157.65616
742.092	7029.4898
742.519	6958.95789
742.945	7127.83981
743.372	6973.96294
743.798	6937.15773
744.225	6878.63696
744.651	6824.9978
745.077	6713.98865
745.503	6708.76334
745.929	6573.82314
746.355	6676.81397
746.781	6518.90865
747.207	6421.72062
747.632	6318.0655
748.058	6324.17267
748.483	6235.53949
748.908	6330.07294
749.334	6200.03978
749.759	6164.81053
750.184	6030.93958
750.609	6055.02809
751.033	5985.70049
751.458	5863.45418
751.883	5846.14389
752.307	5647.91666
752.732	5621.59904
753.156	5592.27464
753.58	5536.96754
754.005	5504.46635
754.429	5353.13092
754.853	5326.52362
755.277	5182.2297
755.7	5182.56461
756.124	5069.6466
756.548	4949.30522
756.971	4943.55879
757.394	4862.98433
757.818	4875.07379
758.241	4761.00745
758.664	4794.92716
759.087	4596.19439
759.51	4536.86101
759.933	4561.71999
760.356	4526.27269
760.778	4490.86794
761.201	4269.83681
761.623	4224.73892
762.046	4200.61788
762.468	4049.87243
762.89	4124.97716
763.312	4019.07429
763.734	3908.00577
764.156	3912.17929
764.578	3753.65717
765	3787.12366
765.421	3731.51348
765.843	3582.73562
766.264	3582.97216
766.686	3481.33317
767.107	3428.19156
767.528	3495.62601
767.949	3372.52893
768.37	3350.38168
768.791	3270.13717
769.212	3147.52153
769.632	3123.03836
770.053	3018.75763
770.473	3012.20264
770.894	2982.32717
771.314	2910.06564
771.734	2775.00504
772.154	2835.56456
772.575	2744.93205
772.994	2754.83861
773.414	2719.10279
773.834	2623.36846
774.254	2537.22727
774.673	2611.27732
775.093	2443.3302
775.512	2411.2685
775.931	2448.43324
776.351	2364.30775
776.77	2321.20462
777.189	2317.01943
777.607	2230.36242
778.026	2170.19769
778.445	2138.2869
778.864	2046.19558
779.282	2045.89821
779.701	1963.09279
780.119	1980.16488
780.537	1931.02964
780.955	1913.08456
781.373	1842.92754
781.791	1864.60319
782.209	1828.53112
782.627	1745.13762
783.045	1689.47025
783.462	1710.96012
783.88	1631.94591
784.297	1691.8789
784.715	1600.89475
785.132	1544.5551
785.549	1458.60359
785.966	1505.68449
786.383	1527.64629
786.8	1497.38296
787.217	1437.43471
787.633	1390.56149
788.05	1366.25243
788.466	1313.19843
788.883	1315.53649
789.299	1242.18009
789.715	1294.33198
790.131	1243.32443
790.547	1239.3226
790.963	1157.19499
791.379	1142.2372
791.795	1163.94503
792.21	1120.96839
792.626	1071.93745
793.041	1024.98916
793.457	1010.95914
793.872	1008.82923
794.287	1029.96244
794.702	918.78806
795.117	979.95797
795.532	923.89859
795.947	898.70934
796.362	896.67417
796.776	894.63342
797.191	865.73453
797.605	810.58564
798.02	863.70903
798.434	823.47581
798.848	808.67861
799.262	741.54852
799.676	760.54725
800.09	707.47022
800.504	721.46143
800.918	664.28227
801.331	638.41153
801.745	660.26844
802.158	665.40671
802.572	650.34525
802.985	615.26164
803.398	614.25022
803.811	559.23064
804.224	557.19236
804.637	590.21872
805.05	536.06737
805.462	534.14132
805.875	483.12425
806.288	472.01773
806.7	438.97697
807.112	438.89232
807.525	463.99874
807.937	419.93595
808.349	453.00485
808.761	466.0241
809.173	440.95828
809.584	409.90457
809.996	371.82328
810.408	411.97544
810.819	410.86566
811.231	454.09779
811.642	437.97736
812.053	481.04139
812.464	414.87793
812.875	411.95701
813.286	381.90392
813.697	335.6904
814.108	324.72005
814.519	362.73313
814.929	331.7723
815.34	286.63165
815.75	294.6985
816.16	269.61234
816.571	298.71399
816.981	278.59547
817.391	227.50523
817.801	274.63367
818.211	228.50419
818.62	234.52782
819.03	219.49994
819.44	180.43639
819.849	211.49273
820.259	184.4392
820.668	219.50638
821.077	250.58414
821.486	162.36273
821.895	227.51444
822.304	195.48717
822.713	253.55024
823.122	183.42919
823.531	139.30681
823.939	185.42607
824.348	197.44555
824.756	172.40411
825.164	161.38114
825.573	157.37354
825.981	188.43531
826.389	189.44569
826.797	193.46377
827.205	150.32741
827.612	141.32785
828.02	149.32819
828.428	120.29126
828.835	157.39607
829.243	139.31079
829.65	133.31729
830.057	132.30213
830.464	169.39357
830.871	169.38254
831.278	146.33404
831.685	137.28641
832.092	70.1628
832.499	171.35147
832.905	130.31079
833.312	70.14949
833.718	140.33367
834.124	191.40833
834.531	105.25011
834.937	131.32147
835.343	75.17177
835.749	121.26328
836.155	110.27587
836.561	105.24684
836.966	107.24821
837.372	101.24455
837.777	77.18496
838.183	186.38221
838.588	126.29973
838.993	95.22107
839.399	77.18151
839.804	71.16659
840.209	107.26394
840.613	83.17537
841.018	69.16707
841.423	104.25555
841.828	62.15195
842.232	84.19543
842.637	136.30703
843.041	58.14431
843.445	71.16971
843.849	61.14603
844.253	97.21876
844.657	64.15633
845.061	130.28388
845.465	94.21689
845.869	90.1992
846.272	68.15995
846.676	48.1096
847.079	91.22381
847.483	124.29304
847.886	110.25188
848.289	108.28036
848.692	69.16675
849.095	111.25207
849.498	102.24292
849.901	87.18809
850.304	102.23159
850.707	60.14678
851.109	94.2261
851.512	72.17029
851.914	84.20472
852.316	145.352
852.718	65.16632
853.121	33.07821
853.523	77.17053
853.925	85.21559
854.326	98.23599
854.728	66.16415
855.13	95.23752
855.531	71.163
855.933	69.15689
856.334	68.16443
856.736	74.15981
857.137	92.20575
857.538	72.17535
857.939	94.2255
858.34	29.06748
858.741	62.15572
859.142	49.11249
859.542	82.20979
859.943	55.13146
860.343	51.12265
860.744	92.21413
861.144	102.23946
861.544	55.12905
861.945	62.1519
862.345	28.06581
862.745	119.28357
863.145	23.052
863.544	73.17782
863.944	64.14472
864.344	35.08276
864.743	120.28227
865.143	102.25304
865.542	29.06388
865.941	100.23715
866.34	63.14255
866.74	80.20711
867.139	46.10761
867.537	19.0464
867.936	62.14385
868.335	63.1538
868.734	36.08921
869.132	13.02879
869.531	44.10104
869.929	34.07497
870.327	45.10377
870.726	56.13275
871.124	43.09567
871.522	54.13205
871.92	77.18187
872.318	10.0235
872.715	72.16798
873.113	96.2215
873.511	40.09577
873.908	86.21179
874.306	76.18287
874.703	42.10026
875.1	40.09731
875.497	41.09417
875.894	97.23132
876.291	53.12537
876.688	37.09248
877.085	43.09844
877.482	63.15139
877.878	67.15683
878.275	61.14959
878.671	-18.03757
879.068	71.16385
879.464	84.19366
879.86	8.01831
880.256	39.09115
880.652	70.17092
881.048	45.10612
881.444	54.12126
881.84	22.05408
882.236	55.13287
882.631	45.10699
883.027	68.15683
883.422	20.04924
883.817	34.0833
884.213	47.11645
884.608	67.16137
885.003	13.03005
885.398	26.06304
885.793	44.10595
886.188	13.03126
886.582	20.04922
886.977	36.08157
887.371	24.0583
887.766	41.09901
888.16	17.04032
888.554	99.23129
888.949	52.12555
889.343	38.08886
889.737	27.07061
890.131	29.07035
890.525	72.17816
890.918	34.08256
891.312	63.14261
891.706	29.07355
892.099	76.18474
892.492	36.07374
892.886	65.15197
893.279	32.0786
893.672	61.15053
894.065	67.16119
894.458	6.01449
894.851	67.15597
895.244	16.03961
895.637	54.12529
896.029	54.12772
896.422	34.07898
896.814	30.07175
897.206	63.14585
897.599	88.2074
897.991	56.13085
898.383	48.10912
898.775	102.22076
899.167	81.18298
899.559	48.11589
899.951	73.16248
900.342	24.05845
900.734	53.12982
901.125	24.0606
901.517	40.09479
901.908	21.04779
902.299	26.06161
902.69	93.21077
903.082	75.17356
903.473	53.12392
903.863	5.01232
904.254	54.12161
904.645	-1.00238
905.036	73.17282
905.426	50.10766
905.817	64.14937
906.207	3.00684
906.597	79.17809
906.987	25.06219
907.378	85.20697
907.768	41.10528
908.158	45.10521
908.547	58.14656
908.937	-9.02219
909.327	35.08164
909.717	45.10814
910.106	27.06219
910.495	52.12322
910.885	64.15616
911.274	62.14845
911.663	28.06801
912.052	31.07282
912.441	70.17232
912.83	29.06345
913.219	19.04804
913.608	47.11118
913.997	53.1292
914.385	69.15752
914.774	44.10273
915.162	45.1043
915.55	29.06703
915.939	25.06158
916.327	61.1448
916.715	32.08017
917.103	45.10447
917.491	70.16511
917.878	22.05209
918.266	33.08239
918.654	36.08963
919.041	55.14044
919.429	57.12871
919.816	63.15311
920.203	50.11771
920.591	53.12659
920.978	46.10825
921.365	22.05624
921.752	24.0542
922.139	81.16656
922.525	-4.00936
922.912	33.07719
923.299	22.05296
923.685	16.04011
924.072	-46.10075
924.458	20.04816
924.844	17.04073
925.231	27.05982
925.617	15.03744
926.003	50.12263
926.389	5.01223
926.774	34.08283
927.16	34.08122
927.546	62.15488
927.931	25.05983
928.317	23.05053
928.702	76.17038
929.088	100.23008
929.473	50.12363
929.858	69.16284
930.243	51.11882
930.628	50.11821
931.013	33.07903
931.398	28.06068
931.783	12.03033
932.167	66.15634
932.552	58.13903
932.937	20.04765
933.321	29.07096
933.705	-27.06562
934.09	35.0834
934.474	1.00227
934.858	39.098
935.242	12.02673
935.626	29.07222
936.009	59.15308
936.393	70.17353
936.777	45.1119
937.16	64.16166
937.544	43.09539
937.927	47.11564
938.311	67.15517
938.694	60.15345
939.077	37.08515
939.46	-12.02794
939.843	37.07159
940.226	4.00991
940.609	60.1333
940.991	5.01227
941.374	43.1018
941.757	58.13659
942.139	112.23825
942.522	45.1012
942.904	32.07407
943.286	29.0709
943.668	77.19363
944.05	53.12547
944.432	53.12499
944.814	6.01415
945.196	89.20866
945.578	78.18018
945.959	-16.03596
946.341	29.06717
946.722	39.08724
947.104	84.19126
947.485	38.08488
947.866	14.03449
948.247	56.1373
948.628	24.05524
949.009	22.05456
949.39	33.07861
949.771	47.10187
950.152	23.05458
950.532	86.20819
950.913	54.12454
951.293	40.10573
951.674	28.06525
952.054	71.17198
952.434	60.14317
952.814	30.06776
953.194	-1.00251
953.574	46.10825
953.954	29.06546
954.334	71.1712
954.714	8.01898
955.093	79.18529
955.473	60.1458
955.853	32.08017
956.232	33.08762
956.611	34.07723
956.99	76.1837
957.37	24.05871
957.749	56.12555
958.128	44.10752
958.506	10.02525
958.885	21.05104
959.264	62.14771
959.643	95.20618
960.021	76.18155
960.4	30.0651
960.778	20.04677
961.156	10.02417
961.535	25.05537
961.913	140.30973
962.291	13.03281
962.669	21.05178
963.047	80.19672
963.424	56.13953
963.802	51.12074
964.18	8.01926
964.557	66.14388
964.935	70.1579
965.312	31.07863
965.69	23.05504
966.067	18.04176
966.444	-25.05875
966.821	20.05001
967.198	62.14191
967.575	56.13091
967.952	36.08111
968.329	95.22142
968.705	103.20932
969.082	79.19716
969.458	47.10989
969.835	46.10745
970.211	70.17448
970.587	63.1507
970.963	47.115
971.339	13.03314
971.715	42.10118
972.091	67.15763
972.467	8.01901
972.843	70.1685
973.219	64.14508
973.594	19.04822
973.97	-2.00447
974.345	74.16979
974.721	56.12761
975.096	54.12638
975.471	89.19949
975.846	13.02989
976.221	23.05659
976.596	66.15404
976.971	79.18775
977.346	81.17737
977.72	47.11461
978.095	64.15877
978.469	52.11816
978.844	61.14603
979.218	61.14229
979.593	42.09598
979.967	-9.02083
980.341	74.16289
980.715	31.0756
981.089	48.11537
981.463	54.11837
981.837	23.05495
982.21	16.03476
982.584	23.05382
982.957	31.0752
983.331	1.00225
983.704	109.25774
984.078	37.08756
984.451	19.04481
984.824	4.0095
985.197	16.03686
985.57	-7.01675
985.943	50.11605
986.316	81.18618
986.688	61.14027
987.061	57.12813
987.434	71.18027
987.806	-2.00462
988.179	-3.00681
988.551	-6.01471
988.923	32.07536
989.295	68.16157
989.667	47.1095
990.039	96.23003
990.411	53.11439
990.783	15.03271
991.155	26.06049
991.527	91.2085
991.898	65.15602
992.27	102.24254
992.641	68.16207
993.012	56.12218
993.384	30.06836
993.755	43.1063
994.126	47.10946
994.497	49.11546
994.868	31.06734
995.239	31.072
995.61	3.00733
995.98	28.06535
996.351	16.0386
996.722	72.16102
997.092	56.12756
997.462	31.07051
997.833	49.10997
998.203	4.00922
998.573	11.02662
998.943	49.1106
999.313	49.11326
999.683	11.02559
1000.053	-7.01516
1000.423	5.01164
1000.792	15.03721
1001.162	5.01181
1001.531	31.07376
1001.901	38.0906
1002.27	-18.03801
1002.639	-8.0197
1003.009	61.13808
1003.378	18.04464
1003.747	46.10321
1004.116	24.05513
1004.485	39.08932
1004.853	7.01692
1005.222	-66.16013
1005.591	-6.01372
1005.959	60.12936
1006.328	41.08856
1006.696	0
1007.064	-2.00483
1007.433	48.11414
1007.801	8.01861
1008.169	19.04581
1008.537	56.11767
1008.905	48.10779
1009.273	7.01657
1009.64	62.14334
1010.008	33.07531
1010.375	34.0777
1010.743	2.0043
1011.11	121.2759
1011.478	32.07685
1011.845	49.10938
1012.212	79.17175
1012.579	46.10858
1012.946	24.05418
1013.313	55.12374
1013.68	32.06831
1014.047	-3.00691
1014.414	18.04082
1014.78	0
1015.147	26.05963
1015.513	50.11532
1015.88	20.04902
1016.246	31.07257
1016.612	21.04565
1016.978	94.22051
1017.344	11.02633
1017.71	88.20231
1018.076	28.06259
1018.442	92.22673
1018.808	77.18581
1019.174	7.01688
1019.539	38.07967
1019.905	37.08416
1020.27	2.00476
1020.636	7.01594
1021.001	65.14899
1021.366	49.11326
1021.731	84.20968
1022.096	19.04682
1022.461	35.07968
1022.826	61.1396
1023.191	22.05593
1023.556	57.12655
1023.92	66.15331
1024.285	52.11998
1024.649	24.05621
1025.014	13.03068
1025.378	40.09745
1025.742	29.06865
1026.107	19.04102
1026.471	28.06218
1026.835	44.10471
1027.199	32.07419
1027.562	-2.00443
1027.926	47.10933
1028.29	58.14094
1028.654	36.07878
1029.017	81.19027
1029.381	22.05076
1029.744	14.03458
1030.107	109.24331
1030.471	44.10152
1030.834	19.04069
1031.197	62.14225
1031.56	33.07415
1031.923	-3.00755
1032.286	77.1716
1032.648	25.05652
1033.011	42.09362
1033.374	35.07777
1033.736	23.05865
1034.099	61.14223
1034.461	73.17802
1034.823	-10.02429
1035.185	38.09106
1035.548	39.09158
1035.91	7.01613
1036.272	69.15001
1036.634	82.1907
1036.995	49.10897
1037.357	33.07761
1037.719	52.12127
1038.08	75.17094
1038.442	81.18215
1038.803	46.10376
1039.165	25.06051
1039.526	29.0674
1039.887	49.11195
1040.248	41.09886
1040.609	20.04705
1040.97	9.02115
1041.331	37.0909
1041.692	85.19201
1042.053	49.10548
1042.413	19.04218
1042.774	69.16044
1043.134	67.14956
1043.495	83.19884
1043.855	131.30303
1044.215	47.11114
1044.576	21.04869
1044.936	34.07399
1045.296	62.14794
1045.656	45.10455
1046.016	59.13502
1046.375	31.07222
1046.735	75.16451
1047.095	36.08071
1047.454	65.12817
1047.814	59.13556
1048.173	16.03617
1048.533	35.07664
1048.892	30.06952
1049.251	-8.01931
1049.61	7.01667
1049.969	26.05858
1050.328	63.1292
1050.687	26.06037
1051.046	16.03736
1051.405	8.01902
1051.763	45.10003
1052.122	37.08854
1052.48	54.12717
1052.839	48.10991
1053.197	32.07207
1053.555	37.07852
1053.914	32.07489
1054.272	13.02955
1054.63	9.02131
1054.988	52.11931
1055.345	17.03439
1055.703	86.19692
1056.061	73.18212
1056.419	54.13679
1056.776	-8.01841
1057.134	-51.11267
1057.491	42.1011
1057.848	11.02626
1058.206	22.04877
1058.563	19.03992
1058.92	83.17998
1059.277	78.18326
1059.634	36.07975
1059.991	84.19157
1060.348	66.14223
1060.704	70.16293
1061.061	39.08468
1061.418	35.08161
1061.774	14.03335
1062.131	47.12186
1062.487	31.06894
1062.843	34.08144
1063.199	59.14054
1063.555	59.13154
1063.911	67.1607
1064.267	55.10631
1064.623	56.13173
1064.979	-11.02418
1065.335	67.15086
1065.691	-36.08247
1066.046	48.09988
1066.402	17.03674
1066.757	72.17384
1067.112	39.09133
1067.468	28.06442
1067.823	5.01133
1068.178	38.0874
1068.533	55.12733
1068.888	58.13131
1069.243	-9.02153
1069.598	45.10389
1069.952	73.15965
1070.307	37.08854
1070.662	51.11737
1071.016	59.12767
1071.371	95.20512
1071.725	5.01141
1072.079	48.11071
1072.434	30.07035
1072.788	-13.02949
1073.142	106.2473
1073.496	9.0205
1073.85	49.10802
1074.203	71.16431
1074.557	50.12993
1074.911	46.10402
1075.265	49.10847
1075.618	40.09376
1075.971	43.09765
1076.325	43.10603
1076.678	6.01321
1077.031	-20.04269
1077.385	43.08958
1077.738	49.10489
1078.091	22.04845
1078.444	-26.05762
1078.796	57.13473
1079.149	62.14783
1079.502	69.15638
1079.855	26.05822
1080.207	37.08712
1080.56	25.06289
1080.912	9.02108
1081.264	54.12484
1081.617	34.07992
1081.969	37.09046
1082.321	4.00939
1082.673	38.08435
1083.025	10.02267
1083.377	276.5894
1083.728	31.06877
1084.08	-31.07478
1084.432	52.11926
1084.783	-14.03099
1085.135	71.17094
1085.486	3.00665
1085.838	33.07843
1086.189	62.1451
1086.54	68.1537
1086.891	97.23848
1087.242	93.21914
1087.593	11.02537
1087.944	55.11962
1088.295	68.14597
1088.646	94.22077
1088.996	-11.02584
1089.347	28.06558
1089.698	25.05746
1090.048	18.04492
1090.398	23.0507
1090.749	8.01825
1091.099	26.06393
1091.449	26.06268
1091.799	41.09856
1092.149	26.06202
1092.499	62.14448
1092.849	44.10776
1093.199	2.0048
1093.548	45.1048
1093.898	-27.06542
1094.248	17.04177
1094.597	-8.02013
1094.947	-3.00781
1095.296	63.14966
1095.645	40.09978
1095.994	45.10339
1096.343	31.07546
1096.692	58.14932
1097.041	51.13573
1097.39	27.06481
1097.739	37.09268
1098.088	42.10783
1098.437	26.06719
1098.785	38.09821
1099.134	-12.0305
1099.482	33.08841
1099.83	47.11912
1100.179	49.12573
1100.527	-13.03325
1100.875	66.16927
1101.223	37.09574
1101.571	11.02949
1101.919	59.15203
1102.267	8.0222
1102.615	12.0385
1102.962	5.01603
1103.31	5.01606
1103.658	-6.01925
