Data from N3 R1 sample 5_Subt2__3__15-08-10-077.txt Node

Date: Wed Sep 17 15:08:10 PDT 2025
User: uwsun
Spectrometer: HDX01956
Trigger mode: 0
Integration Time (sec): 5.000000E-1
Scans to average: 1
Nonlinearity correction enabled: true
Boxcar width: 0
Storing dark spectrum: false
XAxis mode: Wavelengths
Number of Pixels in Spectrum: 2068
>>>>>Begin Spectral Data<<<<<
194.03	12.03478
194.578	28.09074
195.127	16.0512
195.676	15.04818
196.225	33.08765
196.773	14.03904
197.321	50.13891
197.87	102.2626
198.418	104.26961
198.966	128.33786
199.513	163.41297
200.061	89.22829
200.609	108.28632
201.156	89.19727
201.704	111.28093
202.251	96.25697
202.798	82.21463
203.345	114.28405
203.892	126.31952
204.438	116.27668
204.985	104.2492
205.532	86.22815
206.078	101.24859
206.624	169.42268
207.17	177.41318
207.716	133.32735
208.262	114.22823
208.808	140.35249
209.354	144.3567
209.899	114.28837
210.445	102.25737
210.99	121.29704
211.535	135.31934
212.08	118.27562
212.625	116.29113
213.17	148.37703
213.715	142.32541
214.259	153.35715
214.804	102.25184
215.348	163.37616
215.892	127.30969
216.436	131.29966
216.98	152.33304
217.524	115.27677
218.068	154.38788
218.612	179.45237
219.155	132.31279
219.698	128.30519
220.242	80.19919
220.785	125.29455
221.328	111.27511
221.871	148.3761
222.414	101.25079
222.956	77.18581
223.499	97.21751
224.041	102.23394
224.583	72.15343
225.126	67.14869
225.668	101.2462
226.21	130.32861
226.751	144.31977
227.293	100.22696
227.835	119.2917
228.376	69.15835
228.918	90.2249
229.459	110.27478
230	173.41144
230.541	124.28473
231.082	89.21792
231.622	68.15521
232.163	82.19888
232.704	111.27823
233.244	130.32155
233.784	62.15156
234.324	154.34468
234.864	95.21548
235.404	119.27964
235.944	80.1895
236.484	143.35494
237.023	72.17101
237.563	156.36007
238.102	115.27193
238.641	79.19952
239.18	123.28848
239.719	94.236
240.258	140.31296
240.797	104.24901
241.335	84.20518
241.874	130.25327
242.412	115.2797
242.95	98.23786
243.488	79.1786
244.026	125.29065
244.564	141.28915
245.102	159.35785
245.64	54.13028
246.177	81.18118
246.715	131.31384
247.252	101.22974
247.789	126.23345
248.326	147.35243
248.863	100.22124
249.4	187.41793
249.936	215.4421
250.473	121.28623
251.009	72.16632
251.546	163.36144
252.082	115.24841
252.618	154.34226
253.154	113.27226
253.69	99.22291
254.226	111.26623
254.761	119.26717
255.297	126.2748
255.832	90.21533
256.367	113.26575
256.903	160.35338
257.438	142.33115
257.972	122.2716
258.507	71.16437
259.042	135.29299
259.576	189.41332
260.111	144.3288
260.645	148.31798
261.179	113.26523
261.713	131.29302
262.247	126.28712
262.781	78.16629
263.315	66.16146
263.849	114.28559
264.382	142.32463
264.915	150.35325
265.449	78.1918
265.982	155.34971
266.515	152.37058
267.048	136.28779
267.58	111.23987
268.113	80.1747
268.646	84.20663
269.178	122.27261
269.71	167.3666
270.243	183.41945
270.775	165.42011
271.307	93.22195
271.838	163.38139
272.37	117.28659
272.902	130.29384
273.433	162.3569
273.965	151.3645
274.496	129.31879
275.027	152.37624
275.558	184.44407
276.089	153.38017
276.62	115.28971
277.15	140.3426
277.681	122.26257
278.211	174.41962
278.741	124.27582
279.272	145.33075
279.802	108.269
280.332	109.25824
280.861	85.20449
281.391	128.29086
281.921	147.34934
282.45	128.31661
282.98	141.36583
283.509	189.42519
284.038	160.36401
284.567	134.31176
285.096	140.33878
285.625	131.29435
286.153	213.50111
286.682	130.29887
287.21	153.36192
287.739	134.31606
288.267	162.39201
288.795	92.24121
289.323	132.31001
289.851	159.37218
290.378	94.211
290.906	167.40586
291.433	150.37211
291.961	179.4055
292.488	117.29041
293.015	151.35539
293.542	180.45871
294.069	140.34642
294.596	121.29572
295.122	170.40501
295.649	147.32066
296.175	125.30083
296.702	193.46676
297.228	148.35476
297.754	132.29727
298.28	197.44827
298.806	153.36724
299.332	160.35693
299.857	209.46845
300.383	146.36575
300.908	178.43429
301.433	197.47751
301.958	173.39366
302.483	145.35819
303.008	208.51051
303.533	161.41253
304.058	165.38214
304.582	144.33991
305.107	151.39124
305.631	171.38517
306.155	178.41167
306.679	175.40899
307.203	156.36122
307.727	161.37996
308.251	201.48995
308.775	251.59853
309.298	177.42387
309.822	179.44575
310.345	219.51603
310.868	188.44961
311.391	197.47984
311.914	182.45231
312.437	232.52139
312.96	178.41673
313.482	151.35415
314.005	169.41901
314.527	155.40105
315.049	242.60118
315.571	246.54354
316.093	179.44023
316.615	170.40563
317.137	192.41536
317.659	185.44454
318.18	180.4257
318.702	243.55942
319.223	156.31825
319.744	219.48682
320.265	185.44775
320.786	239.58734
321.307	194.47474
321.828	211.47079
322.348	220.51102
322.869	277.64454
323.389	279.53438
323.909	190.43103
324.43	177.42063
324.95	260.58311
325.47	256.62271
325.989	237.55366
326.509	254.55887
327.029	274.61223
327.548	300.6609
328.067	280.66396
328.587	282.69081
329.106	242.53627
329.625	239.6115
330.144	280.63647
330.662	309.70536
331.181	293.67424
331.7	283.64185
332.218	291.61591
332.736	296.67529
333.255	332.75679
333.773	304.69801
334.291	356.85843
334.808	315.68972
335.326	296.64799
335.844	319.72907
336.361	381.94275
336.879	353.80189
337.396	367.86064
337.913	348.77658
338.43	362.78576
338.947	320.74267
339.464	349.72669
339.981	322.7411
340.497	368.87023
341.014	345.81285
341.53	380.82201
342.046	383.9195
342.562	423.00173
343.078	363.82326
343.594	389.88615
344.11	407.93163
344.626	387.93791
345.141	397.86924
345.657	416.89718
346.172	409.94297
346.687	420.91745
347.202	442.95815
347.717	445.00425
348.232	436.03039
348.747	481.04361
349.261	439.91489
349.776	471.05525
350.29	454.07632
350.805	482.11993
351.319	478.04391
351.833	454.99003
352.347	445.99729
352.861	461.02136
353.374	490.04351
353.888	546.24086
354.401	439.9482
354.915	480.01996
355.428	489.14583
355.941	448.98894
356.454	489.01857
356.967	438.9697
357.48	465.99445
357.993	454.0556
358.505	468.07236
359.018	573.29731
359.53	560.26707
360.042	577.1889
360.554	584.31876
361.066	507.15373
361.578	527.08327
362.09	532.17772
362.602	546.1282
363.113	601.29832
363.625	588.22653
364.136	588.18362
364.647	588.28347
365.158	609.2971
365.669	533.18411
366.18	596.28723
366.691	590.18383
367.201	629.3751
367.712	635.32266
368.222	660.37572
368.733	602.19627
369.243	594.21822
369.753	606.27812
370.263	722.56167
370.773	605.34984
371.282	734.56467
371.792	705.46475
372.301	632.39127
372.811	711.6828
373.32	764.45599
373.829	728.53039
374.338	747.46869
374.847	766.5623
375.356	821.69088
375.865	874.60484
376.373	862.69235
376.882	885.94494
377.39	884.84152
377.898	899.90465
378.407	921.77991
378.915	1023.85041
379.423	1046.01223
379.93	1202.22718
380.438	1108.17961
380.946	1177.19527
381.453	1212.3246
381.96	1322.45509
382.468	1370.467
382.975	1455.69829
383.482	1466.42246
383.989	1558.99143
384.495	1588.67723
385.002	1646.37951
385.509	1787.93919
386.015	1943.47187
386.521	2022.91189
387.028	2056.92045
387.534	2126.70548
388.04	2235.27512
388.546	2189.8588
389.051	2312.88768
389.557	2467.1616
390.063	2732.07923
390.568	2877.42898
391.073	2898.98882
391.578	3055.52391
392.084	3164.09184
392.589	3242.79145
393.093	3504.32217
393.598	3863.93767
394.103	4189.022
394.607	4575.90864
395.112	4874.90058
395.616	5122.67428
396.12	5679.96911
396.624	6264.95243
397.128	6762.99837
397.632	7548.99421
398.136	8202.36663
398.639	8709.03904
399.143	9553.64143
399.646	10842.57601
400.15	12012.15885
400.653	13317.73412
401.156	15110.26152
401.659	17395.82347
402.162	21347.52334
402.664	28220.2401
403.167	39502.0451
403.67	60629.79909
404.172	63919.58413
404.674	63858.43483
405.176	63738.15102
405.678	63977.72923
406.18	64011.81569
406.682	63863.44694
407.184	63926.60148
407.686	63841.39382
408.187	64025.8516
408.688	63892.51763
409.19	51419.17306
409.691	41102.4773
410.192	34697.242
410.693	29890.777
411.194	27315.54367
411.694	25449.60131
412.195	23818.136
412.696	21433.42719
413.196	19986.73786
413.696	19290.74711
414.196	19523.0364
414.696	19232.08737
415.196	18207.04926
415.696	16384.79684
416.196	13578.40972
416.695	10450.16868
417.195	8887.34933
417.694	8393.35331
418.194	7954.87067
418.693	7435.80708
419.192	7093.87232
419.691	6928.78117
420.19	6794.97726
420.688	6582.13402
421.187	6376.12895
421.685	6019.93269
422.184	5468.27989
422.682	4692.16246
423.18	4022.85953
423.678	3554.99984
424.176	3313.05193
424.674	3081.94408
425.172	2984.2569
425.669	2838.49622
426.167	2678.16733
426.664	2471.01425
427.161	2173.97243
427.659	2044.14353
428.156	1977.57091
428.652	1776.10147
429.149	1752.92597
429.646	1643.52199
430.143	1576.71103
430.639	1560.65509
431.135	1452.7225
431.632	1328.29427
432.128	1223.30485
432.624	1252.55754
433.12	1148.0711
433.616	1165.99615
434.111	1050.03345
434.607	1060.06649
435.103	1014.70927
435.598	1011.69267
436.093	955.84747
436.588	877.66243
437.083	852.61614
437.578	815.61837
438.073	787.71576
438.568	781.67249
439.062	729.35187
439.557	716.46682
440.051	685.35294
440.546	650.30923
441.04	686.45656
441.534	682.52588
442.028	674.43913
442.522	610.3147
443.015	617.17398
443.509	595.30398
444.002	590.30251
444.496	564.09978
444.989	563.2379
445.482	506.14983
445.975	590.22526
446.468	562.09432
446.961	609.17672
447.454	503.02967
447.947	528.14892
448.439	533.19244
448.931	541.12609
449.424	557.28961
449.916	538.19498
450.408	512.06728
450.9	472.05685
451.392	481.12662
451.884	474.00062
452.375	463.05897
452.867	441.91742
453.358	428.91118
453.849	475.9305
454.341	499.02792
454.832	432.86368
455.323	476.0929
455.814	447.94521
456.304	432.92769
456.795	403.8589
457.285	381.7852
457.776	432.9125
458.266	406.89962
458.756	350.7804
459.247	376.84495
459.737	441.98996
460.226	471.9868
460.716	439.97293
461.206	368.82799
461.695	341.7975
462.185	386.85852
462.674	368.78993
463.163	397.83068
463.653	381.75766
464.142	370.84305
464.63	375.85289
465.119	333.73251
465.608	343.75894
466.096	304.62666
466.585	279.6091
467.073	282.63556
467.561	298.68094
468.05	311.67953
468.538	318.73716
469.026	270.613
469.513	289.58033
470.001	314.68419
470.489	286.64905
470.976	354.77854
471.463	251.60083
471.951	305.72086
472.438	258.58124
472.925	238.53991
473.412	220.51586
473.899	272.59646
474.385	269.63062
474.872	232.5216
475.359	243.57524
475.845	234.46652
476.331	193.39919
476.817	235.55114
477.303	261.58138
477.789	193.44645
478.275	215.51623
478.761	182.42059
479.247	215.46362
479.732	195.47266
480.218	250.63054
480.703	187.44798
481.188	206.4321
481.673	188.42043
482.158	201.42152
482.643	217.53643
483.128	200.45279
483.612	251.57483
484.097	141.33354
484.581	177.39918
485.066	243.57301
485.55	208.44573
486.034	165.34969
486.518	252.57978
487.002	150.35709
487.486	136.32414
487.969	136.32451
488.453	135.32982
488.936	165.36298
489.42	181.38997
489.903	150.36544
490.386	44.09131
490.869	129.27853
491.352	122.28899
491.835	83.16898
492.318	126.27887
492.8	126.25728
493.283	165.41148
493.765	100.24244
494.247	158.35975
494.73	122.2663
495.212	113.2642
495.694	113.26306
496.175	110.26117
496.657	163.3772
497.139	124.20971
497.62	152.35823
498.102	159.38729
498.583	87.21168
499.064	127.27891
499.545	122.27407
500.026	155.34356
500.507	100.22788
500.988	154.377
501.469	57.14153
501.949	128.31091
502.43	139.32919
502.91	152.31629
503.39	103.25229
503.87	155.35898
504.35	77.17904
504.83	105.2272
505.31	123.29197
505.79	68.16002
506.269	52.11926
506.749	80.18171
507.228	93.2171
507.707	131.28782
508.187	127.29891
508.666	121.29561
509.145	98.22701
509.623	52.1217
510.102	126.30019
510.581	82.19656
511.059	91.22711
511.538	68.1744
512.016	108.25592
512.494	60.14383
512.972	60.14339
513.45	68.15815
513.928	77.18623
514.406	130.31399
514.884	71.18219
515.361	117.27645
515.839	96.21938
516.316	151.36009
516.793	110.27438
517.27	71.17003
517.747	81.20654
518.224	68.15621
518.701	64.14124
519.178	81.20149
519.654	93.21846
520.131	73.18001
520.607	7.01723
521.083	10.02286
521.56	22.05215
522.036	54.11767
522.512	113.27576
522.987	94.22473
523.463	78.18398
523.939	160.38921
524.414	96.21788
524.89	128.30109
525.365	96.21513
525.84	58.1393
526.315	87.20938
526.79	117.26074
527.265	94.21567
527.74	57.13817
528.215	42.09818
528.689	61.13363
529.164	31.06688
529.638	20.05092
530.112	27.06382
530.587	56.12001
531.061	72.17364
531.534	66.15863
532.008	71.1721
532.482	55.12647
532.956	47.11988
533.429	135.32539
533.903	82.17884
534.376	66.14571
534.849	82.18754
535.322	53.12508
535.795	43.104
536.268	80.19272
536.741	46.10934
537.213	52.11964
537.686	95.23063
538.158	90.20351
538.631	85.20464
539.103	30.0682
539.575	68.13986
540.047	85.1844
540.519	91.21593
540.991	81.19649
541.463	93.22204
541.934	13.02965
542.406	77.18433
542.877	49.11087
543.348	108.25829
543.82	20.04894
544.291	51.11929
544.762	69.16398
545.233	121.30307
545.703	74.1644
546.174	76.17577
546.645	50.12122
547.115	107.25605
547.585	45.10389
548.056	132.3205
548.526	122.28653
548.996	47.11269
549.466	70.16984
549.935	95.22577
550.405	76.16688
550.875	86.20348
551.344	95.22516
551.814	99.22555
552.283	121.2616
552.752	104.24225
553.221	118.25844
553.69	134.29942
554.159	114.28136
554.628	103.23239
555.096	139.34891
555.565	133.29062
556.033	213.49427
556.502	75.18071
556.97	100.22151
557.438	103.24025
557.906	121.28268
558.374	123.28249
558.842	121.287
559.31	120.26626
559.777	120.29049
560.245	72.16513
560.712	111.25218
561.18	107.23539
561.647	79.17503
562.114	114.25915
562.581	113.27556
563.048	142.3207
563.514	165.40655
563.981	124.28108
564.448	131.29266
564.914	130.29827
565.381	149.33535
565.847	143.32816
566.313	88.20337
566.779	100.22382
567.245	63.14603
567.711	103.24478
568.176	111.24716
568.642	127.31592
569.108	131.3179
569.573	140.31928
570.038	137.28273
570.504	188.41487
570.969	104.25555
571.434	190.41191
571.899	116.27233
572.363	143.32329
572.828	169.38098
573.293	169.37973
573.757	162.3693
574.222	200.43673
574.686	207.46339
575.15	223.52095
575.614	260.59149
576.078	181.41553
576.542	209.46324
577.006	163.36174
577.469	176.42364
577.933	224.49514
578.396	235.53906
578.86	235.53516
579.323	245.57054
579.786	233.48905
580.249	264.59889
580.712	212.50099
581.175	181.43625
581.637	235.51848
582.1	263.55056
582.563	220.4531
583.025	231.54451
583.487	235.46754
583.95	191.39948
584.412	265.53435
584.874	248.58401
585.336	275.62624
585.797	301.62396
586.259	332.7366
586.721	329.73252
587.182	348.75763
587.643	379.80776
588.105	384.85124
588.566	422.81358
589.027	466.05366
589.488	460.97376
589.949	503.11829
590.41	500.89556
590.87	555.14554
591.331	579.13042
591.791	546.14333
592.252	598.24632
592.712	650.38064
593.172	681.35698
593.632	831.55748
594.092	781.48448
594.552	792.45398
595.011	838.62121
595.471	939.75337
595.931	933.73614
596.39	980.93877
596.849	1048.96647
597.308	1112.83966
597.768	1216.48838
598.227	1307.39071
598.685	1314.24247
599.144	1432.47752
599.603	1512.53182
600.062	1626.28838
600.52	1746.61601
600.978	1864.87656
601.437	1934.76572
601.895	2000.56625
602.353	2115.71374
602.811	2346.9179
603.269	2437.2068
603.727	2528.28507
604.184	2672.03353
604.642	2854.48623
605.099	3064.17732
605.557	3145.42012
606.014	3283.66253
606.471	3464.59917
606.928	3702.70999
607.385	3788.50405
607.842	3933.81046
608.299	4063.88007
608.755	4177.08607
609.212	4386.39833
609.668	4595.35889
610.125	4737.7501
610.581	4897.45164
611.037	4938.11053
611.493	5116.29267
611.949	5164.5959
612.405	5351.31274
612.861	5395.0342
613.316	5442.30838
613.772	5545.93209
614.227	5639.23339
614.683	5638.399
615.138	5752.99466
615.593	5693.94848
616.048	5774.8147
616.503	5683.27914
616.958	5825.45704
617.412	5766.0769
617.867	5645.72698
618.321	5677.22881
618.776	5529.67498
619.23	5622.04224
619.684	5479.77821
620.138	5475.94726
620.592	5330.45222
621.046	5362.2394
621.5	5137.49674
621.954	5049.9409
622.407	4986.97596
622.861	4951.66824
623.314	4755.26271
623.768	4735.58174
624.221	4562.52057
624.674	4548.52291
625.127	4408.64272
625.58	4440.37997
626.033	4295.2837
626.485	4186.96197
626.938	4124.9599
627.39	4110.8351
627.843	3970.79936
628.295	3928.81823
628.747	3800.10764
629.199	3780.79649
629.651	3703.87286
630.103	3650.8952
630.555	3451.45016
631.006	3414.05361
631.458	3330.151
631.909	3280.85199
632.361	3284.03269
632.812	3187.07336
633.263	3181.69556
633.714	3145.56477
634.165	3005.30498
634.616	2935.21909
635.067	2971.80819
635.518	2972.23543
635.968	2840.25565
636.419	2858.77694
636.869	2789.2227
637.319	2799.10851
637.769	2855.93241
638.219	2707.19134
638.669	2682.23048
639.119	2676.26535
639.569	2683.28223
640.019	2751.0784
640.468	2702.91241
640.918	2644.20867
641.367	2653.90034
641.816	2691.86564
642.265	2800.13838
642.714	2689.03081
643.163	2789.08516
643.612	2765.42764
644.061	2727.67356
644.51	2771.03883
644.958	2832.83504
645.406	2798.27657
645.855	2747.36271
646.303	2821.0818
646.751	2889.09411
647.199	2839.97401
647.647	2798.11075
648.095	2851.00612
648.543	2854.40168
648.99	2823.31132
649.438	2813.08385
649.885	2898.55064
650.333	2790.21262
650.78	2875.35045
651.227	2764.41592
651.674	2768.01155
652.121	2743.42873
652.568	2663.40429
653.015	2635.4516
653.461	2645.22435
653.908	2667.03299
654.354	2612.22475
654.801	2573.13415
655.247	2517.71721
655.693	2502.71076
656.139	2498.20834
656.585	2450.19841
657.031	2437.11327
657.477	2462.75688
657.922	2330.90908
658.368	2364.32003
658.813	2267.88831
659.259	2393.2618
659.704	2322.11889
660.149	2204.93122
660.594	2260.09543
661.039	2154.85718
661.484	2109.01074
661.929	2176.98137
662.373	2079.27283
662.818	2021.16041
663.262	2005.04619
663.707	1964.25641
664.151	2001.07898
664.595	2016.05339
665.039	1935.11357
665.483	1948.24178
665.927	2004.90657
666.371	1914.86487
666.814	1937.91786
667.258	1980.0137
667.701	1921.46966
668.145	1967.14995
668.588	1957.12327
669.031	1929.86979
669.474	1849.89674
669.917	1875.54751
670.36	1995.18475
670.803	1898.96522
671.245	1834.2752
671.688	1899.99471
672.13	1842.65287
672.573	1933.18974
673.015	1932.97958
673.457	1884.52633
673.899	1874.94894
674.341	1906.95415
674.783	1893.92278
675.225	1926.06542
675.666	1924.03991
676.108	1883.49793
676.549	1912.81114
676.991	1941.58683
677.432	1953.21845
677.873	1950.7497
678.314	2022.9741
678.755	2065.16999
679.196	1934.74534
679.637	1960.95741
680.078	1945.84251
680.518	2060.83096
680.959	2037.98135
681.399	2040.16618
681.839	2084.0995
682.28	2082.21587
682.72	2076.821
683.16	2095.24278
683.6	2173.84099
684.039	2112.40892
684.479	2147.22249
684.919	2162.99547
685.358	2169.27144
685.798	2209.53762
686.237	2272.1045
686.676	2291.85361
687.115	2340.07153
687.554	2312.14089
687.993	2374.77193
688.432	2390.92433
688.871	2476.9719
689.309	2459.20328
689.748	2512.50554
690.186	2520.07801
690.625	2580.11823
691.063	2538.191
691.501	2576.40715
691.939	2651.53885
692.377	2695.31353
692.815	2797.38558
693.253	2779.21265
693.69	2800.75077
694.128	2841.34092
694.565	2864.18979
695.003	2959.68559
695.44	2993.1914
695.877	2922.15265
696.314	2960.52583
696.751	3106.90647
697.188	3093.04962
697.625	3153.82046
698.061	3237.22941
698.498	3238.14033
698.934	3310.20145
699.371	3250.11542
699.807	3371.10574
700.243	3376.25324
700.679	3492.70403
701.115	3535.97932
701.551	3570.93891
701.987	3595.53778
702.422	3658.10068
702.858	3782.05066
703.294	3810.76776
703.729	3825.16806
704.164	3882.00818
704.599	3955.52622
705.035	3962.55003
705.47	4080.04698
705.904	4048.71838
706.339	4183.59004
706.774	4293.67487
707.209	4340.61013
707.643	4296.82884
708.078	4399.89837
708.512	4437.12675
708.946	4506.63593
709.38	4592.61771
709.814	4720.19167
710.248	4711.77665
710.682	4826.57168
711.116	4875.65423
711.549	4822.05992
711.983	4873.24725
712.416	5136.30196
712.85	5009.69582
713.283	5125.26138
713.716	5159.61387
714.149	5082.13805
714.582	5256.84252
715.015	5220.49215
715.448	5169.74869
715.881	5304.51738
716.313	5488.98308
716.746	5460.0978
717.178	5593.14566
717.61	5734.52285
718.043	5697.28992
718.475	5657.18072
718.907	5775.33775
719.339	5836.62399
719.77	5921.96614
720.202	5933.28831
720.634	5978.1241
721.065	6047.79097
721.497	6047.06782
721.928	6015.06349
722.359	6109.01063
722.79	6127.87697
723.221	6226.09805
723.652	6250.27173
724.083	6172.44761
724.514	6337.54077
724.945	6409.64151
725.375	6342.65349
725.806	6304.01453
726.236	6392.26754
726.666	6427.67848
727.096	6518.90601
727.526	6655.27526
727.956	6560.47638
728.386	6692.89076
728.816	6637.22653
729.246	6690.95016
729.675	6671.85762
730.105	6657.87475
730.534	6675.56693
730.964	6841.98895
731.393	6816.86737
731.822	6831.17144
732.251	6831.1188
732.68	6968.52985
733.109	6938.91856
733.537	6882.86999
733.966	6894.00641
734.395	6885.52406
734.823	6911.28623
735.251	6894.74247
735.68	6972.90204
736.108	6886.9941
736.536	6832.58264
736.964	6794.52465
737.392	6747.00535
737.82	6913.6962
738.247	6840.68284
738.675	6872.59772
739.102	6733.99393
739.53	6757.23208
739.957	6757.27834
740.384	6622.75759
740.811	6630.98004
741.238	6736.88848
741.665	6735.62091
742.092	6437.48997
742.519	6475.01714
742.945	6519.86126
743.372	6424.03538
743.798	6404.25536
744.225	6222.72631
744.651	6221.13074
745.077	6299.08251
745.503	6090.90637
745.929	6177.9229
746.355	6083.96136
746.781	5961.0855
747.207	5792.93169
747.632	5935.20866
748.058	5883.34623
748.483	5833.67323
748.908	5833.26615
749.334	5713.2439
749.759	5586.05132
750.184	5517.17253
750.609	5447.31163
751.033	5471.92676
751.458	5416.64853
751.883	5319.41042
752.307	5215.1392
752.732	5134.86743
753.156	5125.52747
753.58	5068.21783
754.005	4929.78687
754.429	4867.40127
754.853	4826.8056
755.277	4741.47858
755.7	4610.88655
756.124	4692.85942
756.548	4454.58324
756.971	4542.78354
757.394	4436.21504
757.818	4417.31906
758.241	4369.21551
758.664	4196.23905
759.087	4299.35892
759.51	4093.08434
759.933	4102.9559
760.356	4107.47176
760.778	3964.12369
761.201	3967.98007
761.623	3761.94834
762.046	3720.83668
762.468	3775.98954
762.89	3615.17993
763.312	3646.2166
763.734	3553.13396
764.156	3434.3306
764.578	3490.75617
765	3339.25287
765.421	3294.60568
765.843	3247.78084
766.264	3148.07678
766.686	3130.38837
767.107	3084.24708
767.528	2955.65818
767.949	2938.54924
768.37	2961.41189
768.791	2871.17124
769.212	2799.50502
769.632	2763.05427
770.053	2684.6981
770.473	2644.18213
770.894	2518.2651
771.314	2510.02932
771.734	2428.95653
772.154	2395.43857
772.575	2437.89313
772.994	2367.79217
773.414	2357.02714
773.834	2244.23081
774.254	2182.09369
774.673	2285.17124
775.093	2223.2338
775.512	2100.12007
775.931	2096.25084
776.351	2064.14927
776.77	2001.03293
777.189	1921.82206
777.607	1898.1339
778.026	1861.99052
778.445	1833.0608
778.864	1814.01655
779.282	1719.67688
779.701	1732.90476
780.119	1715.94173
780.537	1614.75784
780.955	1666.86839
781.373	1607.72038
781.791	1634.44318
782.209	1541.32384
782.627	1509.87442
783.045	1480.29915
783.462	1461.69214
783.88	1435.71869
784.297	1372.53196
784.715	1352.59751
785.132	1318.31411
785.549	1238.33376
785.966	1292.42875
786.383	1298.38309
786.8	1286.16756
787.217	1172.12528
787.633	1188.29807
788.05	1145.0013
788.466	1119.97226
788.883	1121.26134
789.299	1078.97338
789.715	1084.05664
790.131	1102.13135
790.547	1042.04665
790.963	1002.97311
791.379	958.95872
791.795	922.64235
792.21	948.74014
792.626	858.63545
793.041	842.70584
793.457	861.72889
793.872	858.61568
794.287	875.73041
794.702	779.56692
795.117	807.67765
795.532	745.59328
795.947	745.47025
796.362	679.33606
796.776	760.43504
797.191	696.44957
797.605	695.39711
798.02	633.32024
798.434	697.28985
798.848	715.51589
799.262	623.33557
799.676	687.42161
800.09	591.26034
800.504	555.16707
800.918	585.15081
801.331	520.17835
801.745	512.01854
802.158	487.06966
802.572	546.15593
802.985	483.01988
803.398	544.12506
803.811	449.01082
804.224	421.92916
804.637	428.91752
805.05	417.85475
805.462	438.95717
805.875	397.9415
806.288	421.91944
806.7	373.84319
807.112	344.71581
807.525	314.69898
807.937	368.8307
808.349	341.77557
808.761	377.84563
809.173	325.72512
809.584	311.70191
809.996	275.62245
810.408	305.73868
810.819	328.70499
811.231	360.88771
811.642	368.83477
812.053	385.85221
812.464	305.66219
812.875	293.69813
813.286	312.75009
813.697	262.54883
814.108	246.55557
814.519	315.64481
814.929	237.5632
815.34	216.48404
815.75	239.57385
816.16	208.47933
816.571	207.50457
816.981	246.53058
817.391	182.40886
817.801	193.45353
818.211	212.47038
818.62	197.44773
819.03	223.50866
819.44	140.34197
819.849	198.46355
820.259	126.3041
820.668	153.35842
821.077	187.44234
821.486	182.40583
821.895	150.34526
822.304	182.45577
822.713	168.37198
823.122	150.35407
823.531	139.30681
823.939	174.40162
824.348	155.35356
824.756	165.38819
825.164	152.36046
825.573	121.28988
825.981	149.34768
826.389	157.37253
826.797	154.3728
827.205	177.38414
827.612	53.12537
828.02	84.18754
828.428	93.22687
828.835	98.24984
829.243	99.22318
829.65	103.24713
830.057	103.23713
830.464	160.37327
830.871	169.38254
831.278	118.2715
831.685	116.24364
832.092	63.14672
832.499	115.23936
832.905	103.24751
833.312	35.07531
833.718	122.29177
834.124	113.24566
834.531	76.18204
834.937	106.26133
835.343	59.13556
835.749	59.13007
836.155	82.20669
836.561	75.17735
836.966	86.20032
837.372	65.15845
837.777	67.16125
838.183	119.24823
838.588	63.15168
838.993	86.20048
839.399	43.10203
839.804	56.13178
840.209	71.1763
840.613	74.15666
841.018	68.16468
841.423	72.17796
841.828	59.14468
842.232	64.14949
842.637	108.24521
843.041	53.13199
843.445	38.0914
843.849	74.17671
844.253	84.18995
844.657	76.18523
845.061	114.24978
845.465	54.12559
845.869	99.2187
846.272	32.0758
846.676	45.10281
847.079	92.22623
847.483	65.15537
847.886	57.13191
848.289	84.21896
848.692	50.12127
849.095	26.06006
849.498	41.09879
849.901	35.07651
850.304	55.12607
850.707	44.10796
851.109	80.19294
851.512	66.15628
851.914	57.13962
852.316	96.23519
852.718	83.21171
853.121	31.0735
853.523	46.10253
853.925	48.12254
854.326	60.14552
854.728	58.14446
855.13	54.13601
855.531	27.06253
855.933	56.12766
856.334	52.12612
856.736	75.16194
857.137	76.17052
857.538	46.11257
857.939	79.19006
858.34	61.14105
858.741	9.02282
859.142	50.11477
859.542	32.08259
859.943	59.14092
860.343	20.04838
860.744	80.18664
861.144	84.1979
861.544	70.16376
861.945	30.07393
862.345	19.04474
862.745	73.17549
863.145	34.0767
863.544	53.12958
863.944	42.0954
864.344	26.06159
864.743	83.19664
865.143	68.16974
865.542	-20.04451
865.941	57.1363
866.34	23.05246
866.74	65.16871
867.139	72.16758
867.537	20.04884
867.936	72.16672
868.335	26.06391
868.734	69.16995
869.132	24.05303
869.531	27.06221
869.929	83.18113
870.327	51.11746
870.726	57.1351
871.124	30.06693
871.522	31.07613
871.92	57.13515
872.318	49.1143
872.715	19.04479
873.113	51.11873
873.511	9.02168
873.908	47.11658
874.306	59.14243
874.703	54.1286
875.1	5.01224
875.497	-21.04883
875.894	72.17253
876.291	37.0878
876.688	34.08502
877.085	38.08708
877.482	34.08215
877.878	33.07776
878.275	31.07644
878.671	50.10279
879.068	80.18429
879.464	66.15271
879.86	-1.00229
880.256	21.04925
880.652	3.00742
881.048	39.09208
881.444	33.07442
881.84	46.11257
882.236	22.05348
882.631	90.21212
883.027	47.10885
883.422	18.04433
883.817	9.02215
884.213	40.09923
884.608	80.19221
885.003	4.00926
885.398	22.05338
885.793	-10.02433
886.188	-19.04597
886.582	62.15139
886.977	53.11968
887.371	8.01949
887.766	39.09422
888.16	-8.01907
888.554	73.17141
888.949	77.18503
889.343	50.11665
889.737	25.0654
890.131	13.03163
890.525	56.13898
890.918	7.01708
891.312	49.11123
891.706	46.11632
892.099	24.05891
892.492	-3.0062
892.886	42.09864
893.279	22.05414
893.672	52.12853
894.065	49.11829
894.458	5.01207
894.851	32.07501
895.244	17.04207
895.637	49.1138
896.029	34.08072
896.422	39.0905
896.814	34.08125
897.206	44.10225
897.599	85.20045
897.991	16.03768
898.383	34.07751
898.775	61.13318
899.167	61.13836
899.559	34.08231
899.951	23.05172
900.342	29.07056
900.734	49.12011
901.125	55.13811
901.517	42.09949
901.908	42.09517
902.299	6.01427
902.69	64.1459
903.082	78.1804
903.473	34.07979
903.863	20.04913
904.254	79.177
904.645	8.01902
905.036	44.10475
905.426	17.03686
905.817	2.00472
906.207	-7.01599
906.597	69.15587
906.987	49.12136
907.378	37.0909
907.768	41.10528
908.158	-23.05449
908.547	53.13404
908.937	7.01721
909.327	38.08859
909.717	38.09144
910.106	-13.03018
910.495	43.10207
910.885	61.14892
911.274	30.07227
911.663	8.01951
912.052	29.06815
912.441	42.10393
912.83	32.06997
913.219	35.08824
913.608	65.15323
913.997	46.11228
914.385	53.12139
914.774	31.07257
915.162	51.11807
915.55	37.08539
915.939	12.02963
916.327	5.012
916.715	68.16925
917.103	13.03037
917.491	29.06895
917.878	46.10842
918.266	12.03007
918.654	69.17077
919.041	44.11257
919.429	16.03643
919.816	58.14109
920.203	58.13633
920.591	53.12659
920.978	54.12687
921.365	42.107
921.752	-1.00227
922.139	73.15038
922.525	43.09971
922.912	49.11425
923.299	20.04816
923.685	-29.07329
924.072	16.03458
924.458	51.12209
924.844	17.04073
925.231	12.02667
925.617	15.03744
926.003	76.1855
926.389	4.00979
926.774	12.02936
927.16	47.112
927.546	71.17707
927.931	6.01441
928.317	39.0854
928.702	36.08137
929.088	92.21202
929.473	40.09909
929.858	29.06897
930.243	51.11882
930.628	20.04756
931.013	33.07903
931.398	30.06498
931.783	43.10809
932.167	48.1141
932.552	22.0531
932.937	36.08551
933.321	38.09282
933.705	-22.05342
934.09	33.07867
934.474	-11.02506
934.858	26.06549
935.242	59.13012
935.626	3.00751
936.009	37.09637
936.393	92.22715
936.777	27.06736
937.16	65.16416
937.544	1.00224
937.927	30.07404
938.311	43.10006
938.694	65.16609
939.077	11.02545
939.46	-20.04664
939.843	37.07159
940.226	-9.02235
940.609	79.17481
940.991	-7.01722
941.374	33.07828
941.757	66.15519
942.139	21.04556
942.522	35.07887
942.904	69.15854
943.286	31.07577
943.668	99.24797
944.05	12.02863
944.432	11.02615
944.814	44.10302
945.196	32.07586
945.578	55.12763
945.959	-11.0247
946.341	71.16307
946.722	12.02699
947.104	37.08505
947.485	78.17278
947.866	18.04431
948.247	57.13972
948.628	7.01617
949.009	13.03229
949.39	20.04776
949.771	-3.00657
950.152	23.05458
950.532	62.15077
950.913	26.0603
951.293	24.06361
951.674	-10.02348
952.054	74.17914
952.434	6.01446
952.814	70.1568
953.194	36.08977
953.574	52.12222
953.954	-13.02959
954.334	43.10423
954.714	31.07322
955.093	77.18067
955.473	63.153
955.853	-4.01009
956.232	7.01867
956.611	-2.00458
956.99	42.10217
957.37	12.02942
957.749	-26.05927
958.128	26.06375
958.506	7.01769
958.885	21.05104
959.264	38.09095
959.643	76.16561
960.021	49.11766
960.4	50.10803
960.778	32.07466
961.156	12.029
961.535	46.10143
961.913	37.08362
962.291	40.10046
962.669	0
963.047	45.11137
963.424	72.17888
963.802	36.08547
964.18	-6.01449
964.557	59.12881
964.935	12.02739
965.312	28.07106
965.69	26.06218
966.067	25.05792
966.444	10.02334
966.821	57.14159
967.198	33.07597
967.575	23.05411
967.952	95.21145
968.329	79.18471
968.705	95.19341
969.082	48.12047
969.458	53.12377
969.835	17.03993
970.211	50.12508
970.587	44.10563
970.963	50.12227
971.339	32.08129
971.715	64.15353
972.091	72.16923
972.467	4.00951
972.843	48.11602
973.219	57.12939
973.594	24.06086
973.97	6.01339
974.345	9.02092
974.721	18.04133
975.096	13.03067
975.471	78.17523
975.846	39.08921
976.221	17.04187
976.596	64.14943
976.971	86.20411
977.346	41.09054
977.72	5.01229
978.095	45.11202
978.469	46.10465
978.844	11.02658
979.218	51.11919
979.593	50.11408
979.967	-23.05337
980.341	87.19099
980.715	62.15032
981.089	38.09151
981.463	37.0814
981.837	45.10707
982.21	11.02392
982.584	81.18737
982.957	34.08243
983.331	1.00225
983.704	72.17147
984.078	-5.01193
984.451	0
984.824	-5.0119
985.197	2.00462
985.57	4.00955
985.943	11.02573
986.316	40.0927
986.688	14.0325
987.061	44.09917
987.434	68.17275
987.806	10.02305
988.179	-3.00681
988.551	51.12372
988.923	-10.02374
989.295	12.02882
989.667	46.10719
990.039	30.07279
990.411	4.00872
990.783	-16.03512
991.155	-1.00234
991.527	25.05804
991.898	25.06046
992.27	15.03626
992.641	36.08633
993.012	2.00441
993.384	-7.01607
993.755	23.05707
994.126	75.1737
994.497	-13.031
994.868	32.06949
995.239	28.06507
995.61	22.05356
995.98	9.02108
996.351	27.06501
996.722	35.07887
997.092	52.11854
997.462	50.11329
997.833	47.10552
998.203	31.07106
998.573	13.03145
998.943	59.1329
999.313	25.05806
999.683	22.05106
1000.053	-29.0631
1000.423	8.01862
1000.792	-45.11284
1001.162	-2.00473
1001.531	41.09736
1001.901	-6.01443
1002.27	18.03771
1002.639	-28.06921
1003.009	-16.03678
1003.378	-13.03242
1003.747	45.10099
1004.116	-3.00693
1004.485	4.00923
1004.853	-48.1172
1005.222	-18.04328
1005.591	13.02962
1005.959	6.01309
1006.328	21.04556
1006.696	-19.04427
1007.064	-4.00966
1007.433	16.03828
1007.801	-11.02569
1008.169	4.00967
1008.537	25.05289
1008.905	43.09666
1009.273	21.04958
1009.64	11.02569
1010.008	43.09793
1010.375	7.01608
1010.743	11.02359
1011.11	62.14305
1011.478	63.15041
1011.845	30.06723
1012.212	79.17175
1012.579	45.10624
1012.946	38.08554
1013.313	34.07682
1013.68	70.14819
1014.047	-10.02306
1014.414	-9.02052
1014.78	52.12455
1015.147	19.04364
1015.513	35.08096
1015.88	35.08554
1016.246	-10.0236
1016.612	15.03265
1016.978	39.09247
1017.344	42.09995
1017.71	26.06052
1018.076	21.04701
1018.442	31.07726
1018.808	69.16675
1019.174	-27.06552
1019.539	-5.01058
1019.905	43.09769
1020.27	14.03328
1020.636	21.04769
1021.001	63.14446
1021.366	11.02562
1021.731	49.12309
1022.096	-4.0099
1022.461	60.1359
1022.826	72.1644
1023.191	49.12397
1023.556	66.14626
1023.92	21.04922
1024.285	-7.01634
1024.649	26.06087
1025.014	28.06589
1025.378	35.08535
1025.742	13.03087
1026.107	33.07104
1026.471	69.15192
1026.835	33.0787
1027.199	18.04185
1027.562	27.05945
1027.926	68.15752
1028.29	0
1028.654	30.06573
1029.017	80.18796
1029.381	-27.0629
1029.744	62.15178
1030.107	65.14641
1030.471	33.07631
1030.834	-18.03886
1031.197	73.16712
1031.56	-6.01359
1031.923	31.07756
1032.286	42.09428
1032.648	25.05652
1033.011	51.11347
1033.374	18.04014
1033.736	-1.00256
1034.099	-4.00945
1034.461	9.02221
1034.823	38.09147
1035.185	45.10768
1035.548	73.17028
1035.91	25.0574
1036.272	55.11993
1036.634	48.11238
1036.995	19.04252
1037.357	40.09394
1037.719	58.1351
1038.08	82.18663
1038.442	54.12211
1038.803	-11.0251
1039.165	19.04604
1039.526	46.10656
1039.887	43.09836
1040.248	43.10364
1040.609	31.07276
1040.97	16.03755
1041.331	46.11282
1041.692	36.08214
1042.053	17.03685
1042.413	50.11029
1042.774	76.17647
1043.134	30.06748
1043.495	0
1043.855	75.17542
1044.215	-12.0287
1044.576	38.08782
1044.936	88.18932
1045.296	72.17147
1045.656	16.03739
1046.016	41.09417
1046.375	65.15042
1046.735	104.22672
1047.095	11.02479
1047.454	90.17643
1047.814	40.09226
1048.173	13.0294
1048.533	44.09616
1048.892	-16.03742
1049.251	17.04084
1049.61	42.09937
1049.969	3.00679
1050.328	31.06403
1050.687	28.06499
1051.046	48.11137
1051.405	31.07339
1051.763	28.06246
1052.122	-6.01448
1052.48	49.11551
1052.839	57.13028
1053.197	10.02262
1053.555	46.09743
1053.914	16.03756
1054.272	-9.02055
1054.63	25.059
1054.988	49.11249
1055.345	12.0243
1055.703	33.07637
1056.061	97.24094
1056.419	81.2042
1056.776	11.02522
1057.134	-26.05714
1057.491	82.19589
1057.848	18.04292
1058.206	4.0089
1058.563	-4.00845
1058.92	59.12859
1059.277	75.17632
1059.634	30.06654
1059.991	71.16235
1060.348	-4.00875
1060.704	71.16522
1061.061	44.09543
1061.418	13.03044
1061.774	46.10892
1062.131	11.0287
1062.487	19.04236
1062.843	3.00723
1063.199	39.09326
1063.555	59.13154
1063.911	4.00971
1064.267	33.06412
1064.623	32.07562
1064.979	-56.12425
1065.335	77.17302
1065.691	-16.0365
1066.046	50.104
1066.402	51.10941
1066.757	37.08992
1067.112	49.11452
1067.468	-7.01622
1067.823	-28.06386
1068.178	11.02544
1068.533	45.10439
1068.888	-33.0761
1069.243	31.07359
1069.598	31.07177
1069.952	35.07716
1070.307	49.11699
1070.662	46.10597
1071.016	70.15111
1071.371	30.06568
1071.725	58.13089
1072.079	43.09927
1072.434	18.04231
1072.788	22.04955
1073.142	76.17835
1073.496	25.05675
1073.85	28.062
1074.203	52.12079
1074.557	46.11962
1074.911	56.12637
1075.265	34.0755
1075.618	37.08678
1075.971	26.05925
1076.325	20.04953
1076.678	13.02857
1077.031	-18.03841
1077.385	52.10811
1077.738	12.02589
1078.091	42.0921
1078.444	20.0439
1078.796	49.116
1079.149	23.05525
1079.502	17.03893
1079.855	-32.07251
1080.207	30.07073
1080.56	15.0378
1080.912	71.16424
1081.264	40.09273
1081.617	23.05418
1081.969	13.03193
1082.321	12.02813
1082.673	65.14347
1083.025	15.03397
1083.377	298.63334
1083.728	21.04668
1084.08	9.02155
1084.432	-1.00232
1084.783	17.03738
1085.135	24.0583
1085.486	12.02656
1085.838	10.02387
1086.189	55.1289
1086.54	21.04792
1086.891	68.16808
1087.242	52.12351
1087.593	9.02076
1087.944	55.11962
1088.295	50.10775
1088.646	89.20923
1088.996	17.03972
1089.347	15.03522
1089.698	54.1234
1090.048	37.09201
1090.398	35.07696
1090.749	13.02962
1091.099	46.1127
1091.449	24.05788
1091.799	76.18148
1092.149	41.09751
1092.499	41.09594
1092.849	19.04675
1093.199	15.03592
1093.548	62.14391
1093.898	-21.05083
1094.248	32.0784
1094.597	17.04258
1094.947	15.03893
1095.296	53.12615
1095.645	26.06502
1095.994	53.12158
1096.343	50.12127
1096.692	26.06731
1097.041	61.16207
1097.39	50.11949
1097.739	11.02768
1098.088	26.06694
1098.437	9.02333
1098.785	11.02856
1099.134	5.01267
1099.482	42.11235
1099.83	34.08637
1100.179	66.16885
1100.527	-36.09246
1100.875	9.02331
1101.223	53.13676
1101.571	-24.06471
1101.919	44.11367
1102.267	39.10769
1102.615	-3.00964
1102.962	7.02244
1103.31	8.02568
1103.658	1.00321
