Data from N3 R1 sample 7_Subt2__2__15-09-11-075.txt Node

Date: Wed Sep 17 15:09:11 PDT 2025
User: uwsun
Spectrometer: HDX01956
Trigger mode: 0
Integration Time (sec): 5.000000E-1
Scans to average: 1
Nonlinearity correction enabled: true
Boxcar width: 0
Storing dark spectrum: false
XAxis mode: Wavelengths
Number of Pixels in Spectrum: 2068
>>>>>Begin Spectral Data<<<<<
194.03	78.22387
194.578	88.2832
195.127	71.2257
195.676	78.24864
196.225	88.23158
196.773	102.28054
197.321	143.3915
197.87	241.60534
198.418	289.7251
198.966	250.64625
199.513	253.63068
200.061	253.63022
200.609	262.67656
201.156	238.51112
201.704	265.65218
202.251	287.74379
202.798	253.64277
203.345	289.69704
203.892	298.73243
204.438	237.55213
204.985	265.61541
205.532	233.60283
206.078	201.48555
206.624	322.78292
207.17	309.70252
207.716	279.66809
208.262	281.54082
208.808	313.76346
209.354	333.79615
209.899	259.63812
210.445	293.71389
210.99	288.68504
211.535	310.70836
212.08	279.63099
212.625	302.73238
213.17	293.72718
213.715	300.66561
214.259	299.67786
214.804	276.65953
215.348	328.73196
215.892	295.69669
216.436	261.58138
216.98	292.62086
217.524	267.62397
218.068	265.65411
218.612	313.77199
219.155	315.71993
219.698	323.74118
220.242	237.57316
220.785	256.58781
221.328	233.56454
221.871	289.71595
222.414	244.58997
222.956	229.53665
223.499	195.42843
224.041	253.56262
224.583	244.50049
225.126	229.49105
225.668	255.60364
226.21	232.57571
226.751	256.55522
227.293	231.51029
227.835	287.68148
228.376	231.51285
228.918	210.51331
229.459	247.60161
230	290.67412
230.541	212.4782
231.082	241.57337
231.622	199.44218
232.163	224.52873
232.704	298.7216
233.244	264.63688
233.784	236.55813
234.324	285.62062
234.864	260.56991
235.404	226.51997
235.944	237.5443
236.484	277.67063
237.023	277.63182
237.563	266.60049
238.102	247.56908
238.641	204.50365
239.18	274.62359
239.719	251.61226
240.258	228.5004
240.797	272.63029
241.335	202.48253
241.874	286.53653
242.412	266.62858
242.95	294.6872
243.488	233.51019
244.026	300.67336
244.564	272.54127
245.102	278.61038
245.64	252.58511
246.177	235.50892
246.715	290.67359
247.252	259.57023
247.789	316.55776
248.326	270.6321
248.863	290.61607
249.4	240.5305
249.936	349.69596
250.473	283.64837
251.009	260.57807
251.546	302.65023
252.082	260.54416
252.618	298.64245
253.154	278.64878
253.69	242.52889
254.226	268.62348
254.761	255.55647
255.297	254.53889
255.832	308.70606
256.367	294.66693
256.903	312.66714
257.438	308.69472
257.972	267.57648
258.507	229.51348
259.042	266.56115
259.576	330.70013
260.111	289.64054
260.645	283.59032
261.179	292.66132
261.713	301.64961
262.247	278.61398
262.781	254.52077
263.315	250.59055
263.849	256.62481
264.382	282.62646
264.915	359.81089
265.449	257.61096
265.982	273.60105
266.515	324.76443
267.048	286.58531
267.58	293.60847
268.113	264.55399
268.646	262.6232
269.178	278.60113
269.71	327.69361
270.243	331.73606
270.775	320.79229
271.307	242.561
271.838	312.70862
272.37	310.73197
272.902	284.62172
273.433	344.72887
273.965	269.63481
274.496	299.7157
275.027	273.6607
275.558	328.76996
276.089	326.78433
276.62	234.57686
277.15	248.59467
277.681	299.61899
278.211	281.66389
278.741	346.73407
279.272	302.66698
279.802	280.67547
280.332	322.73133
280.861	304.7008
281.391	332.7231
281.921	298.68752
282.45	232.56286
282.98	313.78784
283.509	350.76133
284.038	328.72076
284.567	311.69819
285.096	384.88623
285.625	278.60576
286.153	336.77147
286.682	334.73641
287.21	260.60225
287.739	312.71035
288.267	335.78408
288.795	296.74892
289.323	325.7344
289.851	335.757
290.378	303.65084
290.906	340.79936
291.433	324.77804
291.961	365.79547
292.488	313.74892
293.015	342.77486
293.542	351.86727
294.069	359.8524
294.596	317.74632
295.122	359.8241
295.649	332.69576
296.175	336.7761
296.702	324.76413
297.228	351.80864
297.754	342.73698
298.28	383.83859
298.806	332.7696
299.332	357.76385
299.857	352.76568
300.383	388.9292
300.908	357.84177
301.433	386.90218
301.958	356.77997
302.483	293.70402
303.008	375.89174
303.533	361.8923
304.058	357.79518
304.582	373.84113
305.107	318.79999
305.631	373.80532
306.155	318.71493
306.679	398.88924
307.203	378.83654
307.727	371.83969
308.251	383.90166
308.775	369.85992
309.298	355.82111
309.822	384.92033
310.345	412.93417
310.868	421.96173
311.391	424.98863
311.914	392.93663
312.437	457.97946
312.96	405.90581
313.482	374.83873
314.005	408.96702
314.527	390.96765
315.049	438.0467
315.571	427.90767
316.093	447.04236
316.615	399.91002
317.137	466.94892
317.659	462.04926
318.18	376.85533
318.702	453.99893
319.223	453.86181
319.744	453.9579
320.265	496.12753
320.786	473.10958
321.307	470.08857
321.828	464.98094
322.348	458.01154
322.869	520.14968
323.389	869.42804
323.909	496.05311
324.43	500.11183
324.95	530.12053
325.47	573.30834
325.989	546.1957
326.509	504.04871
327.029	586.22289
327.548	535.11852
328.067	535.2038
328.587	619.41859
329.106	542.12392
329.625	608.45135
330.144	601.27504
330.662	599.28516
331.181	639.36638
331.7	586.24507
332.218	650.266
332.736	661.39458
333.255	669.41888
333.773	589.27291
334.291	641.45966
334.808	668.35171
335.326	693.38797
335.844	687.4514
336.361	738.7033
336.879	704.48313
337.396	766.65339
337.913	747.5273
338.43	730.45847
338.947	701.50169
339.464	685.31815
339.981	703.49237
340.497	753.64506
341.014	728.58471
341.53	765.51684
342.046	826.81259
342.562	778.71723
343.078	776.60993
343.594	759.59737
344.11	860.78673
344.626	896.95965
345.141	827.64452
345.657	867.68739
346.172	847.7796
346.687	859.70031
347.202	904.76492
347.717	863.78303
348.232	887.9143
348.747	886.75831
349.261	940.74011
349.776	908.85307
350.29	941.0205
350.805	960.01946
351.319	950.86972
351.833	997.92242
352.347	1020.01179
352.861	966.91727
353.374	1019.92366
353.888	1002.06651
354.401	1019.92647
354.915	996.88154
355.428	1002.11162
355.941	1004.95673
356.454	1019.8759
356.967	970.90735
357.48	1032.93544
357.993	1045.1462
358.505	1036.10341
359.018	1112.24162
359.53	1161.30593
360.042	1127.03772
360.554	1140.28246
361.066	1108.21523
361.578	1143.02703
362.09	1095.14041
362.602	1125.02586
363.113	1216.28327
363.625	1161.11642
364.136	1218.10113
364.647	1178.25168
365.158	1217.25227
365.669	1230.33892
366.18	1236.30621
366.691	1179.04807
367.201	1233.35312
367.712	1237.2351
368.222	1253.27098
368.733	1320.19166
369.243	1308.25597
369.753	1319.35134
370.263	1362.54579
370.773	1290.47221
371.282	1359.50727
371.792	1384.44566
372.301	1415.60708
372.811	1436.92061
373.32	1457.32007
373.829	1480.60269
374.338	1524.45991
374.847	1595.65239
375.356	1538.66477
375.865	1727.51441
376.373	1755.73988
376.882	1885.28397
377.39	1907.09009
377.898	1898.1611
378.407	1912.8483
378.915	2111.8122
379.423	2145.08397
379.93	2367.18444
380.438	2235.28098
380.946	2439.21162
381.453	2454.37422
381.96	2715.41923
382.468	2765.3399
382.975	3028.60327
383.482	3024.07129
383.989	3134.9199
384.495	3268.28348
385.002	3362.6521
385.509	3648.33433
386.015	3855.31534
386.521	4021.86562
387.028	4266.72892
387.534	4242.35625
388.04	4518.00295
388.546	4540.38684
389.051	4719.26318
389.557	5131.35467
390.063	5616.92576
390.568	5691.3106
391.073	5753.7499
391.578	6121.22459
392.084	6320.69478
392.589	6555.37371
393.093	7020.90879
393.598	7677.90613
394.103	8456.70581
394.607	9211.89452
395.112	9974.66866
395.616	10390.93029
396.12	11289.68245
396.624	12592.55491
397.128	13549.92501
397.632	14961.24241
398.136	16201.32437
398.639	17252.96573
399.143	19182.33895
399.646	21581.38722
400.15	23973.57292
400.653	26552.67976
401.156	30162.04966
401.659	35122.61012
402.162	42738.05474
402.664	55633.17406
403.167	62723.80789
403.67	63769.22307
404.172	63919.58413
404.674	63858.43483
405.176	63738.15102
405.678	63977.72923
406.18	64011.81569
406.682	63863.44694
407.184	63926.60148
407.686	63841.39382
408.187	64025.8516
408.688	63892.51763
409.19	63833.37461
409.691	63977.72923
410.192	63945.6488
410.693	59700.05222
411.194	53944.91713
411.694	51064.04332
412.195	47391.9939
412.696	42897.55857
413.196	39968.37367
413.696	38857.93482
414.196	39178.76841
414.696	38638.66324
415.196	36706.89474
415.696	33412.40789
416.196	27527.65967
416.695	21042.83178
417.195	18028.08637
417.694	17009.65055
418.194	15979.56958
418.693	15027.38411
419.192	14385.01164
419.691	14172.39225
420.19	13943.03318
420.688	13400.6213
421.187	12893.01133
421.685	12087.67317
422.184	11043.45219
422.682	9507.51662
423.18	8048.17059
423.678	7093.65454
424.176	6463.65139
424.674	6248.54634
425.172	5890.00768
425.669	5596.44818
426.167	5231.24635
426.664	4855.30355
427.161	4469.60972
427.659	4121.17046
428.156	3914.41674
428.652	3728.61384
429.149	3520.3994
429.646	3323.91199
430.143	3187.37589
430.639	2976.3175
431.135	2893.6442
431.632	2670.09962
432.128	2548.33819
432.624	2450.7042
433.12	2309.0027
433.616	2235.79837
434.111	2150.11671
434.607	1967.03804
435.103	2003.51765
435.598	2030.50479
436.093	1884.861
436.588	1826.68749
437.083	1785.64124
437.578	1733.72371
438.073	1582.87353
438.568	1522.74333
439.062	1534.29058
439.557	1426.45931
440.051	1351.25876
440.546	1384.32493
441.04	1316.41385
441.534	1333.58348
442.028	1335.44577
442.522	1249.3254
443.015	1197.96299
443.509	1206.30422
444.002	1166.26505
444.496	1188.98
444.989	1136.19831
445.482	1064.14471
445.975	1154.09781
446.468	1133.91219
446.961	1142.93005
447.454	1017.84327
447.947	1052.0354
448.439	1080.14427
448.931	1072.97123
449.424	1085.24839
449.916	1069.11306
450.408	976.82753
450.9	1004.00232
451.392	942.00664
451.884	927.76506
452.375	933.93378
452.867	925.71612
453.358	970.82074
453.849	876.55298
454.341	871.64622
454.832	870.56229
455.323	890.87533
455.814	865.66037
456.304	860.67494
456.795	836.61271
457.285	815.51468
457.776	853.63415
458.266	801.62675
458.756	796.60887
459.247	809.65421
459.737	815.68678
460.226	839.61348
460.716	764.57655
461.206	766.58068
461.695	722.55968
462.185	717.4831
462.674	713.41491
463.163	709.37947
463.653	692.27516
464.142	729.53821
464.63	734.54572
465.119	692.40545
465.608	672.38277
466.096	646.22777
466.585	641.29018
467.073	595.25296
467.561	679.43009
468.05	608.24304
468.538	629.36584
469.026	657.37219
469.513	552.03963
470.001	672.35112
470.489	602.27634
470.976	616.2782
471.463	540.21878
471.951	522.17954
472.438	533.13107
472.925	515.10041
473.412	507.11973
473.899	501.04362
474.385	534.18461
474.872	474.01069
475.359	490.10217
475.845	502.93856
476.331	461.89625
476.817	462.03314
477.303	482.02244
477.789	399.88503
478.275	420.9689
478.761	436.95642
479.247	462.94335
479.732	394.91906
480.218	448.08732
480.703	407.93388
481.188	412.82484
481.673	412.87865
482.158	398.79829
482.643	436.03198
483.128	436.9395
483.612	439.96725
484.097	395.88818
484.581	356.7734
485.066	427.97072
485.55	382.78779
486.034	337.68734
486.518	384.86009
487.002	321.73895
487.486	315.72485
487.969	342.78367
488.453	279.66325
488.936	334.70861
489.42	345.71709
489.903	327.77015
490.386	228.45372
490.869	351.72175
491.352	301.68821
491.835	296.57339
492.318	269.57757
492.8	255.50543
493.283	291.70902
493.765	264.62023
494.247	286.63429
494.73	312.65356
495.212	255.57953
495.694	284.63876
496.175	289.66238
496.657	281.63499
497.139	278.45057
497.62	236.5471
498.102	274.653
498.583	166.39791
499.064	226.48598
499.545	262.57163
500.026	277.59833
500.507	204.45508
500.988	268.64213
501.469	243.58279
501.949	206.49303
502.43	246.5705
502.91	276.55845
503.39	184.4439
503.87	255.57883
504.35	177.40342
504.83	207.43813
505.31	182.4271
505.79	182.41875
506.269	199.44291
506.749	162.36184
507.228	217.49418
507.707	215.46402
508.187	220.50839
508.666	173.41855
509.145	182.41456
509.623	157.35986
510.102	190.44709
510.581	210.49107
511.059	195.47745
511.538	184.46227
512.016	207.48111
512.494	192.44863
512.972	169.39543
513.45	166.37857
513.928	182.43143
514.406	190.4537
514.884	186.46763
515.361	164.38396
515.839	186.41733
516.316	214.50415
516.793	139.34489
517.27	174.40849
517.747	138.34833
518.224	145.32795
518.701	204.43697
519.178	163.3994
519.654	205.471
520.131	154.37406
520.607	111.26795
521.083	116.25952
521.56	138.3198
522.036	162.34491
522.512	173.41745
522.987	204.47741
523.463	196.45168
523.939	218.52453
524.414	172.38433
524.89	125.2942
525.365	127.28279
525.84	153.3608
526.315	184.43466
526.79	222.48395
527.265	170.3841
527.74	132.31545
528.215	149.34097
528.689	122.26381
529.164	128.27039
529.638	130.3245
530.112	166.38178
530.587	140.29457
531.061	161.38173
531.534	126.29938
532.008	170.40439
532.482	143.32303
532.956	139.34878
533.429	197.46924
533.903	139.29948
534.376	124.27043
534.849	131.29665
535.322	127.29542
535.795	99.2369
536.268	173.40939
536.741	101.23753
537.213	161.36235
537.686	138.33231
538.158	185.41022
538.631	129.30798
539.103	135.30035
539.575	114.23204
540.047	147.31468
540.519	147.34504
540.991	147.35216
541.463	103.24544
541.934	73.1645
542.406	157.37009
542.877	137.30442
543.348	138.32815
543.82	131.31396
544.291	134.30831
544.762	145.33954
545.233	154.38343
545.703	143.31313
546.174	97.22341
546.645	153.36374
547.115	156.3698
547.585	173.3892
548.056	207.49551
548.526	204.47142
548.996	139.32741
549.466	147.35149
549.935	216.50133
550.405	207.44196
550.875	208.48047
551.344	136.31978
551.814	193.43134
552.283	236.49765
552.752	195.44605
553.221	179.38699
553.69	242.52866
554.159	207.50212
554.628	196.43379
555.096	213.52751
555.565	159.34551
556.033	216.50094
556.502	121.289
556.97	190.41296
557.438	154.3556
557.906	142.33037
558.374	151.34485
558.842	146.34463
559.31	158.3478
559.777	135.32588
560.245	81.18544
560.712	94.21429
561.18	162.35226
561.647	118.25931
562.114	132.29897
562.581	137.33258
563.048	169.37958
563.514	165.40655
563.981	123.27887
564.448	133.297
564.914	109.25114
565.381	119.26947
565.847	75.17446
566.313	123.28227
566.779	120.26748
567.245	95.2188
567.711	101.24012
568.176	64.1439
568.642	100.24998
569.108	111.27038
569.573	72.16646
570.038	133.27472
570.504	93.20931
570.969	82.20231
571.434	143.31313
571.899	131.30664
572.363	134.3035
572.828	170.38315
573.293	122.27677
573.757	164.37371
574.222	115.25564
574.686	219.48904
575.15	124.29531
575.614	198.4561
576.078	143.33079
576.542	118.2665
577.006	129.28831
577.469	170.40967
577.933	174.38864
578.396	119.27932
578.86	110.25683
579.323	125.29798
579.786	150.32061
580.249	192.44193
580.712	130.31209
581.175	119.29019
581.637	122.27554
582.1	129.27806
582.563	138.28946
583.025	157.3754
583.487	161.32584
583.95	129.27352
584.412	214.43657
584.874	178.42488
585.336	204.47123
585.797	173.36889
586.259	191.4362
586.721	200.45721
587.182	181.40803
587.643	204.45131
588.105	212.48679
588.566	171.34957
589.027	260.61369
589.488	227.50502
589.949	308.7137
590.41	270.51226
590.87	284.62277
591.331	335.69289
591.791	250.55861
592.252	299.66546
592.712	308.70379
593.172	306.66365
593.632	436.89753
594.092	344.72409
594.552	415.83488
595.011	348.7528
595.471	413.87218
595.931	425.89122
596.39	419.93827
596.849	413.89663
597.308	383.76199
597.768	491.16798
598.227	503.10533
598.685	502.04269
599.144	598.26233
599.603	586.2283
600.062	596.11277
600.52	664.31784
600.978	710.465
601.437	768.49764
601.895	780.41827
602.353	772.44564
602.811	863.63108
603.269	870.74417
603.727	899.81025
604.184	975.81445
604.642	1038.08076
605.099	1070.00251
605.557	1087.12574
606.014	1107.85907
606.471	1192.36597
606.928	1316.17424
607.385	1357.58666
607.842	1357.30702
608.299	1403.41497
608.755	1503.64267
609.212	1587.44219
609.668	1608.49859
610.125	1650.77211
610.581	1693.70565
611.037	1713.55449
611.493	1721.7108
611.949	1724.88502
612.405	1799.27955
612.861	1884.7726
613.316	1879.941
613.772	1879.75433
614.227	1983.02976
614.683	1886.45863
615.138	1928.88276
615.593	1922.83458
616.048	1997.82
616.503	1961.05474
616.958	2032.25278
617.412	1985.97383
617.867	1939.69566
618.321	1991.405
618.776	2033.67736
619.23	1942.88345
619.684	1867.63614
620.138	1939.78068
620.592	1929.02475
621.046	1875.8746
621.5	1847.92816
621.954	1703.48951
622.407	1789.54925
622.861	1732.86735
623.314	1784.63263
623.768	1717.74594
624.221	1708.10638
624.674	1678.62807
625.127	1661.63613
625.58	1628.48199
626.033	1586.35784
626.485	1564.64921
626.938	1584.65326
627.39	1596.59869
627.843	1486.44366
628.295	1492.44956
628.747	1451.52045
629.199	1536.44904
629.651	1430.36903
630.103	1444.38455
630.555	1387.07573
631.006	1454.43669
631.458	1454.47621
631.909	1428.29089
632.361	1326.27391
632.812	1435.4027
633.263	1500.26068
633.714	1414.11085
634.165	1451.53363
634.616	1354.37884
635.067	1434.2438
635.518	1473.51878
635.968	1536.99068
636.419	1588.35237
636.869	1547.59014
637.319	1592.56204
637.769	1565.42899
638.219	1583.61086
638.669	1609.66279
639.119	1619.69553
639.569	1725.80219
640.019	1801.71479
640.468	1763.5723
640.918	1784.80402
641.367	1873.63819
641.816	2004.68246
642.265	2029.90526
642.714	1932.77129
643.163	2118.91085
643.612	2176.222
644.061	2194.60075
644.51	2233.92389
644.958	2323.77898
645.406	2321.16051
645.855	2367.2599
646.303	2364.00523
646.751	2449.03992
647.199	2414.92444
647.647	2561.08225
648.095	2529.9784
648.543	2541.42321
648.99	2571.27033
649.438	2606.06424
649.885	2616.49796
650.333	2689.22656
650.78	2700.33019
651.227	2729.41028
651.674	2640.00141
652.121	2700.42094
652.568	2750.42067
653.015	2678.46175
653.461	2672.22891
653.908	2649.03093
654.354	2659.23345
654.801	2604.14007
655.247	2609.72521
655.693	2628.76013
656.139	2576.228
656.585	2552.22669
657.031	2587.14992
657.477	2679.77784
657.922	2543.9597
658.368	2597.39964
658.813	2552.96119
659.259	2629.33209
659.704	2641.20815
660.149	2590.04219
660.594	2629.2082
661.039	2656.99017
661.484	2597.18891
661.929	2619.11864
662.373	2654.53964
662.818	2647.44782
663.262	2702.32827
663.707	2693.63633
664.151	2750.38154
664.595	2786.34016
665.039	2732.4866
665.483	2825.66276
665.927	2911.16219
666.371	2962.18284
666.814	2935.23579
667.258	3029.32881
667.701	3089.60102
668.145	3139.53209
668.588	3209.49931
669.031	3107.16595
669.474	3087.29142
669.917	3226.71903
670.36	3381.52748
670.803	3383.29907
671.245	3345.30401
671.688	3460.32739
672.13	3481.84181
672.573	3630.55622
673.015	3683.20186
673.457	3648.53993
673.899	3742.20113
674.341	3742.17059
674.783	3859.09032
675.225	3835.29698
675.666	3964.20669
676.108	3990.3396
676.549	3965.83784
676.991	3997.43016
677.432	4177.74548
677.873	4122.62362
678.314	4231.86462
678.755	4331.0907
679.196	4302.53936
679.637	4337.84846
680.078	4348.66606
680.518	4316.55741
680.959	4474.73506
681.399	4476.0372
681.839	4613.80706
682.28	4618.99695
682.72	4663.33771
683.16	4793.93078
683.6	4784.23197
684.039	4864.56908
684.479	5015.71976
684.919	5033.33641
685.358	5016.77719
685.798	5216.05377
686.237	5242.3106
686.676	5424.836
687.115	5460.10643
687.554	5528.18725
687.993	5728.55146
688.432	5689.76716
688.871	5942.69769
689.309	5863.04195
689.748	6106.07638
690.186	6149.74849
690.625	6317.73451
691.063	6500.79229
691.501	6427.06193
691.939	6572.16357
692.377	6706.86625
692.815	6851.91792
693.253	6940.73933
693.69	7059.32048
694.128	7217.89294
694.565	7237.75522
695.003	7407.24965
695.44	7489.84064
695.877	7533.82751
696.314	7657.47222
696.751	7842.85881
697.188	7928.01355
697.625	7992.94496
698.061	8057.24309
698.498	8188.31409
698.934	8337.50994
699.371	8475.63037
699.807	8727.98929
700.243	8788.12986
700.679	8909.21018
701.115	9040.50076
701.551	9097.60588
701.987	9201.80155
702.422	9577.6655
702.858	9668.89088
703.294	9835.37144
703.729	9841.32912
704.164	9960.67792
704.599	10338.03461
705.035	10363.11049
705.47	10504.37192
705.904	10625.97119
706.339	10963.37201
706.774	11191.26874
707.209	11238.51506
707.643	11342.84234
708.078	11524.6049
708.512	11751.51758
708.946	11856.48924
709.38	12207.42622
709.814	12409.11448
710.248	12633.74094
710.682	12903.70399
711.116	12946.83425
711.549	12945.30497
711.983	13297.99473
712.416	13392.33887
712.85	13774.70268
713.283	13991.15943
713.716	14074.10986
714.149	14238.58231
714.582	14436.81495
715.015	14802.67481
715.448	14783.99776
715.881	15150.47809
716.313	15192.30804
716.746	15654.73012
717.178	15862.58831
717.61	16353.62914
718.043	16405.93034
718.475	16530.72043
718.907	16741.46723
719.339	17244.74822
719.77	17251.47029
720.202	17634.02426
720.634	17943.39219
721.065	18186.65183
721.497	18360.84977
721.928	18904.08249
722.359	19106.87757
722.79	19472.38391
723.221	19695.41211
723.652	19981.65685
724.083	20049.28671
724.514	20384.40268
724.945	20786.59425
725.375	21180.27008
725.806	21627.13432
726.236	21713.17786
726.666	22068.94764
727.096	22658.36229
727.526	23244.09671
727.956	23467.13933
728.386	23646.62221
728.816	23858.19989
729.246	24515.78101
729.675	24655.18748
730.105	24996.9188
730.534	25263.05141
730.964	25809.55155
731.393	26150.71214
731.822	26634.86913
732.251	26846.87026
732.68	27449.15694
733.109	27735.01392
733.537	28072.37633
733.966	28704.44556
734.395	29010.8932
734.823	29437.7197
735.251	29556.19695
735.68	29904.46715
736.108	29865.72759
736.536	30262.44057
736.964	30416.26361
737.392	30826.95468
737.82	31027.96233
738.247	31684.47612
738.675	31691.81757
739.102	31659.33378
739.53	31755.61174
739.957	31829.2052
740.384	32285.99682
740.811	32671.9609
741.238	32870.96497
741.665	32691.06733
742.092	32366.56705
742.519	32747.63707
742.945	33038.61747
743.372	33150.24119
743.798	33085.16519
744.225	32945.3037
744.651	33147.13639
745.077	33081.60457
745.503	33166.9372
745.929	33398.86418
746.355	33071.97283
746.781	32770.08684
747.207	32620.26319
747.632	32605.32425
748.058	32929.00877
748.483	33052.72383
748.908	32822.27446
749.334	32819.42722
749.759	32511.21336
750.184	32385.85394
750.609	32318.99229
751.033	32342.09914
751.458	32348.93369
751.883	32144.28698
752.307	31991.63936
752.732	31742.61508
753.156	31406.14429
753.58	31637.26223
754.005	31173.45328
754.429	30903.81499
754.853	30641.09968
755.277	30504.69042
755.7	30385.51839
756.124	30064.02517
756.548	29838.74993
756.971	29829.9248
757.394	29649.85437
757.818	29590.92435
758.241	29246.38551
758.664	28901.57661
759.087	28801.08173
759.51	28526.80056
759.933	28402.73023
760.356	28066.93683
760.778	27855.71261
761.201	27384.32218
761.623	26994.7888
762.046	26875.75191
762.468	26767.66709
762.89	26536.10435
763.312	26308.90575
763.734	25907.97323
764.156	25520.99414
764.578	25190.88721
765	25147.24671
765.421	24687.26132
765.843	24405.4998
766.264	24021.32149
766.686	23563.25153
767.107	23410.74837
767.528	23075.88341
767.949	22835.92689
768.37	22570.7606
768.791	22140.72251
769.212	21618.38105
769.632	21380.2825
770.053	21146.45325
770.473	21146.13616
770.894	20610.85109
771.314	20377.84365
771.734	19774.65072
772.154	19523.43224
772.575	19482.96836
772.994	19355.69721
773.414	18929.5318
773.834	18689.95007
774.254	18290.30479
774.673	18156.4187
775.093	17719.41011
775.512	17447.29299
775.931	17211.75669
776.351	17015.84889
776.77	16530.63017
777.189	16323.11351
777.607	16131.34555
778.026	15854.96085
778.445	15663.52366
778.864	15271.73378
779.282	15075.02948
779.701	14879.16556
780.119	14652.86987
780.537	14289.03814
780.955	13888.48915
781.373	13707.3914
781.791	13683.36529
782.209	13372.08852
782.627	13241.04912
783.045	12809.88318
783.462	12723.99515
783.88	12385.78308
784.297	12202.00284
784.715	11908.19489
785.132	11741.87609
785.549	11530.55255
785.966	11288.38954
786.383	11233.23451
786.8	10947.33343
787.217	10662.03898
787.633	10365.84559
788.05	10288.80392
788.466	10143.31768
788.883	9929.5422
789.299	9737.08293
789.715	9465.40333
790.131	9317.09604
790.547	9094.66945
790.963	8974.44827
791.379	8829.26989
791.795	8556.60403
792.21	8459.52332
792.626	8109.15114
793.041	8005.23824
793.457	7935.16819
793.872	7813.85895
794.287	7640.93675
794.702	7265.76864
795.117	7106.93441
795.532	7006.01018
795.947	6857.58113
796.362	6752.49007
796.776	6554.39234
797.191	6345.87776
797.605	6324.67573
798.02	6097.87922
798.434	5905.36041
798.848	5668.28656
799.262	5632.24567
799.676	5606.11608
800.09	5454.25493
800.504	5198.24705
800.918	5048.95263
801.331	4894.8985
801.745	4817.04942
802.158	4654.75457
802.572	4562.63724
802.985	4374.63214
803.398	4331.60634
803.811	4168.12833
804.224	4040.99303
804.637	4005.82523
805.05	3847.60309
805.462	3795.05399
805.875	3612.61951
806.288	3532.11605
806.7	3396.30693
807.112	3355.77714
807.525	3213.16716
807.937	3120.33137
808.349	3080.34644
808.761	3073.30716
809.173	2911.21663
809.584	2823.26238
809.996	2733.22844
810.408	2707.65375
810.819	2612.99801
811.231	2598.79203
811.642	2545.30703
812.053	2516.18976
812.464	2410.98251
812.875	2328.40767
813.286	2280.44945
813.697	2179.70718
814.108	2118.99388
814.519	2179.66078
814.929	2056.18413
815.34	1943.83268
815.75	1959.16491
816.16	1832.86405
816.571	1823.09308
816.981	1727.56185
817.391	1689.63114
817.801	1667.78962
818.211	1619.54994
818.62	1556.56528
819.03	1518.55841
819.44	1423.63355
819.849	1390.48923
820.259	1375.52559
820.668	1348.4137
821.077	1377.50038
821.486	1297.22452
821.895	1228.21372
822.304	1212.45797
822.713	1186.06731
823.122	1126.14791
823.531	1056.88266
823.939	1091.05344
824.348	1068.98445
824.756	1031.01031
825.164	1042.03995
825.573	923.86798
825.981	960.87882
826.389	934.8795
826.797	915.89223
827.205	904.65671
827.612	854.70261
828.02	801.52109
828.428	782.65771
828.835	769.72241
829.243	785.51889
829.65	772.6123
830.057	745.49226
830.464	745.53489
830.871	750.49433
831.278	677.38089
831.685	696.27357
832.092	606.25742
832.499	671.22247
832.905	607.31577
833.312	579.09833
833.718	638.37218
834.124	591.15226
834.531	531.15864
834.937	552.2459
835.343	514.07098
835.749	528.04751
836.155	508.17951
836.561	467.01791
836.966	473.01531
837.372	425.96579
837.777	435.97329
838.183	412.80346
838.588	394.88865
838.993	426.92623
839.399	403.88944
839.804	356.78852
840.209	419.97371
840.613	374.73975
841.018	329.75736
841.423	355.83153
841.828	362.83747
842.232	333.73651
842.637	369.79327
843.041	322.76236
843.445	302.6898
843.849	287.65726
844.253	285.61798
844.657	232.54888
845.061	342.71323
845.465	287.63664
845.869	244.52265
846.272	261.59076
846.676	272.59294
847.079	291.68911
847.483	249.57414
847.886	260.57735
848.289	256.64751
848.692	230.53889
849.095	237.52442
849.498	222.51648
849.901	243.50779
850.304	240.52962
850.707	199.47418
851.109	241.56344
851.512	193.44574
851.914	213.50657
852.316	223.5334
852.718	220.54753
853.121	213.48722
853.523	165.3587
853.925	186.46326
854.326	180.42669
854.728	173.42186
855.13	194.47632
855.531	152.34329
855.933	151.33762
856.334	166.39396
856.736	176.37178
857.137	212.46235
857.538	161.38556
857.939	200.47007
858.34	139.31643
858.741	142.35149
859.142	107.24279
859.542	156.3939
859.943	142.33376
860.343	159.37451
860.744	162.37184
861.144	160.37136
861.544	149.34317
861.945	87.21216
862.345	94.21809
862.745	149.35301
863.145	120.26593
863.544	109.26372
863.944	145.32246
864.344	100.23348
864.743	118.27767
865.143	150.36884
865.542	82.17861
865.941	115.27193
866.34	124.27708
866.74	102.26305
867.139	109.25184
867.537	104.24996
867.936	146.3331
868.335	66.16104
868.734	74.1821
869.132	89.19398
869.531	57.13055
869.929	129.27877
870.327	100.22806
870.726	92.21658
871.124	104.22845
871.522	55.13447
871.92	88.2074
872.318	57.13275
872.715	75.17487
873.113	53.12333
873.511	67.1596
873.908	52.12886
874.306	95.22777
874.703	88.20821
875.1	40.09731
875.497	37.08505
875.894	92.21961
876.291	19.04524
876.688	78.1935
877.085	104.23517
877.482	94.22455
877.878	117.27119
878.275	62.15201
878.671	15.03108
879.068	71.16385
879.464	77.17777
879.86	47.10673
880.256	10.0235
880.652	61.1492
881.048	70.16427
881.444	40.09008
881.84	66.16092
882.236	76.18287
882.631	108.25365
883.027	59.13632
883.422	49.11998
883.817	71.17275
884.213	75.18487
884.608	111.26511
885.003	17.03926
885.398	60.14454
885.793	20.04838
886.188	24.0576
886.582	65.15863
886.977	41.09281
887.371	51.12325
887.766	50.12054
888.16	23.05449
888.554	45.10624
888.949	93.2228
889.343	64.1489
889.737	42.10956
890.131	26.06311
890.525	94.23166
890.918	69.16644
891.312	32.07289
891.706	58.14635
892.099	56.13664
892.492	67.13628
892.886	7.01655
893.279	28.06883
893.672	77.18945
894.065	90.21557
894.458	36.08643
894.851	75.17432
895.244	65.15945
895.637	91.20959
896.029	75.17666
896.422	42.09741
896.814	44.10495
897.206	102.23431
897.599	51.12106
897.991	85.19749
898.383	49.11137
898.775	111.23977
899.167	59.13388
899.559	64.15406
899.951	21.04724
900.342	43.10435
900.734	48.11768
901.125	97.24173
901.517	38.09008
901.908	50.11311
902.299	24.05689
902.69	91.20632
903.082	91.20992
903.473	53.12392
903.863	72.17515
904.254	76.17038
904.645	31.07336
905.036	78.18448
905.426	74.15851
905.817	54.12628
906.207	-45.10356
906.597	59.13355
906.987	27.06714
907.378	58.14194
907.768	59.15102
908.158	64.14908
908.547	59.14906
908.937	-22.05438
909.327	97.22349
909.717	27.0651
910.106	39.08961
910.495	15.0358
910.885	67.16338
911.274	17.04105
911.663	64.15441
912.052	50.11702
912.441	64.15773
912.83	58.12612
913.219	45.11324
913.608	78.18341
913.997	73.17728
914.385	30.06903
914.774	53.12353
915.162	59.13637
915.55	45.10368
915.939	56.13715
916.327	46.10951
916.715	72.17907
917.103	69.15943
917.491	64.15113
917.878	25.05916
918.266	24.06002
918.654	65.16099
919.041	29.07439
919.429	47.10634
919.816	64.15552
920.203	50.11771
920.591	59.14076
920.978	55.1292
921.365	78.19745
921.752	10.02265
922.139	52.10763
922.525	14.03265
922.912	-2.00471
923.299	30.07211
923.685	2.00503
924.072	37.07962
924.458	86.2045
924.844	52.12375
925.231	-13.02904
925.617	74.18271
926.003	47.11534
926.389	21.05123
926.774	18.04398
927.16	69.16373
927.546	69.17214
927.931	63.14966
928.317	33.07235
928.702	47.106
929.088	81.18708
929.473	27.06704
929.858	23.05477
930.243	86.19898
930.628	35.08299
931.013	48.11462
931.398	44.09502
931.783	14.03538
932.167	91.21451
932.552	47.1129
932.937	25.05951
933.321	41.10009
933.705	-27.06562
934.09	40.09523
934.474	50.11251
934.858	49.12291
935.242	42.09296
935.626	48.11912
936.009	34.0886
936.393	59.14655
936.777	39.09709
937.16	77.19405
937.544	9.02011
937.927	53.13026
938.311	69.15974
938.694	78.19885
939.077	64.14649
939.46	13.03012
939.843	63.12113
940.226	31.07641
940.609	96.21168
940.991	2.00491
941.374	41.0971
941.757	94.21982
942.139	26.05634
942.522	59.1323
942.904	36.08326
943.286	17.04166
943.668	87.21839
944.05	46.10905
944.432	24.05692
944.814	21.04939
945.196	55.1298
945.578	19.04441
945.959	0
946.341	38.08785
946.722	59.13143
947.104	49.11236
947.485	78.17278
947.866	27.06636
948.247	69.16876
948.628	-36.08386
949.009	7.01741
949.39	40.09515
949.771	17.03708
950.152	25.0593
950.532	81.19627
950.913	60.13822
951.293	46.12146
951.674	34.07914
952.054	85.20534
952.434	29.06961
952.814	17.0385
953.194	13.03255
953.574	38.08956
953.954	29.06546
954.334	78.18783
954.714	2.00475
955.093	57.13426
955.473	17.04164
955.853	37.09261
956.232	35.0929
956.611	29.06594
956.99	28.06829
957.37	5.01227
957.749	7.01585
958.128	70.17022
958.506	12.03029
958.885	17.04135
959.264	82.19461
959.643	64.13982
960.021	9.02178
960.4	31.06725
960.778	10.02343
961.156	11.02658
961.535	41.0905
961.913	69.15491
962.291	49.12287
962.669	47.11534
963.047	52.12853
963.424	56.13953
963.802	50.11839
964.18	19.04566
964.557	117.2523
964.935	43.09753
965.312	32.08115
965.69	45.10723
966.067	-16.03737
966.444	-3.00702
966.821	57.14159
967.198	52.11926
967.575	24.05645
967.952	62.13894
968.329	64.15008
968.705	110.22318
969.082	82.20454
969.458	43.10062
969.835	51.11901
970.211	54.13499
970.587	74.17664
970.963	37.0907
971.339	23.05852
971.715	39.094
972.091	24.05694
972.467	-5.01191
972.843	71.17087
973.219	65.14731
973.594	51.12871
973.97	22.04894
974.345	14.03251
974.721	6.01381
975.096	18.04242
975.471	59.13306
975.846	2.00461
976.221	19.04678
976.596	102.23637
976.971	78.18541
977.346	36.07958
977.72	34.08311
978.095	33.08233
978.469	32.07301
978.844	78.18612
979.218	86.19961
979.593	10.023
979.967	2.00462
980.341	96.21035
980.715	22.05374
981.089	39.0939
981.463	69.15077
981.837	30.07158
982.21	6.01306
982.584	25.05847
982.957	6.01462
983.331	-9.02026
983.704	65.15501
984.078	-4.00954
984.451	9.02127
984.824	37.08732
985.197	-4.00925
985.57	25.05946
985.943	9.02106
986.316	27.06273
986.688	97.22144
987.061	23.05206
987.434	36.09197
987.806	34.07798
988.179	33.07439
988.551	52.12612
988.923	33.0777
989.295	47.11213
989.667	33.0771
990.039	63.15191
990.411	5.0109
990.783	2.00437
991.155	26.06049
991.527	47.10864
991.898	59.14178
992.27	74.17691
992.641	57.13614
993.012	13.02862
993.384	-7.01607
993.755	47.11611
994.126	85.19647
994.497	19.04503
994.868	61.13165
995.239	64.14767
995.61	3.00733
995.98	32.07463
996.351	21.05062
996.722	72.16102
997.092	35.08006
997.462	15.03423
997.833	38.08547
998.203	9.02072
998.573	59.14151
998.943	51.11507
999.313	71.16339
999.683	50.11541
1000.053	6.01296
1000.423	23.05337
1000.792	-1.00249
1001.162	24.0565
1001.531	63.14897
1001.901	39.09297
1002.27	-25.05287
1002.639	-23.0568
1003.009	65.14701
1003.378	39.09634
1003.747	37.08317
1004.116	-22.051
1004.485	61.13909
1004.853	-3.00726
1005.222	5.01197
1005.591	62.13986
1005.959	32.06941
1006.328	20.0434
1006.696	17.03933
1007.064	30.07197
1007.433	41.09763
1007.801	1.00233
1008.169	4.00967
1008.537	80.16721
1008.905	31.06986
1009.273	51.11971
1009.64	28.06517
1010.008	39.08889
1010.375	26.05951
1010.743	-11.0237
1011.11	76.17487
1011.478	79.18803
1011.845	33.07391
1012.212	79.17175
1012.579	41.09688
1012.946	9.02038
1013.313	54.12151
1013.68	10.02145
1014.047	-10.02306
1014.414	0
1014.78	39.09365
1015.147	28.06419
1015.513	57.13128
1015.88	27.06609
1016.246	58.13505
1016.612	22.04782
1016.978	74.17427
1017.344	15.03588
1017.71	65.15012
1018.076	41.09141
1018.442	56.13892
1018.808	78.18818
1019.174	-14.03389
1019.539	13.02741
1019.905	36.0819
1020.27	-27.06468
1020.636	52.11735
1021.001	31.07154
1021.366	16.03723
1021.731	84.20968
1022.096	16.03945
1022.461	20.04567
1022.826	90.20476
1023.191	38.09633
1023.556	57.12655
1023.92	23.05388
1024.285	27.06261
1024.649	6.0141
1025.014	16.03774
1025.378	19.04647
1025.742	44.10386
1026.107	87.18511
1026.471	88.19298
1026.835	45.10707
1027.199	17.03953
1027.562	27.05945
1027.926	19.04444
1028.29	44.1072
1028.654	47.10261
1029.017	33.07824
1029.381	34.07826
1029.744	18.04443
1030.107	48.1085
1030.471	58.13345
1030.834	40.08527
1031.197	39.0899
1031.56	15.03383
1031.923	34.08502
1032.286	70.15622
1032.648	65.14575
1033.011	72.15949
1033.374	49.10856
1033.736	26.06626
1034.099	36.08435
1034.461	49.12003
1034.823	44.10579
1035.185	16.0385
1035.548	51.11948
1035.91	53.12099
1036.272	89.19266
1036.634	54.12628
1036.995	-5.01124
1037.357	32.07527
1037.719	60.13971
1038.08	69.15746
1038.442	5.01142
1038.803	-16.03655
1039.165	18.04362
1039.526	67.15456
1039.887	100.22613
1040.248	58.1394
1040.609	32.0751
1040.97	26.0609
1041.331	74.18056
1041.692	74.16754
1042.053	50.10761
1042.413	42.0928
1042.774	79.18333
1043.134	40.08979
1043.495	33.07981
1043.855	119.27593
1044.215	44.1041
1044.576	10.02324
1044.936	45.0977
1045.296	34.08156
1045.656	41.09533
1046.016	28.06448
1046.375	24.05599
1046.735	53.11679
1047.095	75.16679
1047.454	46.09111
1047.814	41.09454
1048.173	23.05191
1048.533	26.05704
1048.892	14.03255
1049.251	18.04323
1049.61	15.03568
1049.969	38.0854
1050.328	9.01868
1050.687	33.07652
1051.046	-3.00703
1051.405	33.07809
1051.763	44.09783
1052.122	40.09567
1052.48	28.06627
1052.839	68.15508
1053.197	35.07877
1053.555	55.11626
1053.914	44.10273
1054.272	7.01593
1054.63	30.07073
1054.988	68.15552
1055.345	66.13201
1055.703	65.14947
1056.061	55.13766
1056.419	106.26603
1056.776	-1.0023
1057.134	-29.06377
1057.491	34.08197
1057.848	61.14424
1058.206	6.01335
1058.563	23.04828
1058.92	43.09404
1059.277	83.19482
1059.634	37.08194
1059.991	87.19829
1060.348	28.06083
1060.704	71.16522
1061.061	-14.03074
1061.418	24.05608
1061.774	21.04997
1062.131	65.16801
1062.487	40.08879
1062.843	43.10282
1063.199	27.06471
1063.555	59.13154
1063.911	25.06044
1064.267	40.0776
1064.623	44.10374
1064.979	12.02625
1065.335	44.09954
1065.691	39.08799
1066.046	82.16934
1066.402	10.02164
1066.757	67.16192
1067.112	55.12839
1067.468	53.12134
1067.823	-14.03184
1068.178	37.08512
1068.533	94.21593
1068.888	59.13355
1069.243	66.15561
1069.598	-6.01399
1069.952	39.0859
1070.307	59.14059
1070.662	77.17628
1071.016	53.11483
1071.371	64.13911
1071.725	70.15758
1072.079	52.11984
1072.434	41.09594
1072.788	18.04057
1073.142	49.1156
1073.496	57.12855
1073.85	31.0686
1074.203	41.09545
1074.557	67.1736
1074.911	80.17965
1075.265	51.11285
1075.618	35.08212
1075.971	37.08413
1076.325	62.15235
1076.678	26.05699
1077.031	-61.13137
1077.385	75.15513
1077.738	5.01081
1078.091	96.20813
1078.444	26.05699
1078.796	66.15573
1079.149	91.21576
1079.502	73.16531
1079.855	56.12462
1080.207	59.13832
1080.56	52.13018
1080.912	65.15054
1081.264	45.10422
1081.617	33.07758
1081.969	37.09046
1082.321	22.05147
1082.673	77.16953
1083.025	10.02267
1083.377	287.61143
1083.728	39.08637
1084.08	22.05254
1084.432	-2.00464
1084.783	14.0308
1085.135	11.02678
1085.486	39.08583
1085.838	71.1675
1086.189	86.20032
1086.54	62.14031
1086.891	83.20459
1087.242	123.28814
1087.593	47.1076
1087.944	58.12606
1088.295	48.10349
1088.646	68.16052
1088.996	-3.00704
1089.347	6.01411
1089.698	12.02765
1090.048	33.08212
1090.398	-4.00887
1090.749	-16.03667
1091.099	41.10054
1091.449	56.13424
1091.799	31.07466
1092.149	49.11636
1092.499	53.12372
1092.849	66.16098
1093.199	51.1213
1093.548	51.11863
1093.898	16.03846
1094.248	36.08813
1094.597	50.12449
1094.947	-2.00521
1095.296	98.23124
1095.645	28.06999
1095.994	26.05997
1096.343	40.0972
1096.692	40.1033
1097.041	47.12517
1097.39	48.11475
1097.739	40.10014
1098.088	47.12056
1098.437	43.1108
1098.785	3.0078
1099.134	-8.02032
1099.482	38.10172
1099.83	69.1742
1100.179	77.19661
1100.527	-10.02557
1100.875	36.09281
1101.223	53.13676
1101.571	-21.05659
1101.919	44.11367
1102.267	39.10769
1102.615	6.01926
1102.962	0
1103.31	12.0385
1103.658	5.01602
