Data from N3 R1 sample 7_Subt2__3__15-09-12-087.txt Node

Date: Wed Sep 17 15:09:12 PDT 2025
User: uwsun
Spectrometer: HDX01956
Trigger mode: 0
Integration Time (sec): 5.000000E-1
Scans to average: 1
Nonlinearity correction enabled: true
Boxcar width: 0
Storing dark spectrum: false
XAxis mode: Wavelengths
Number of Pixels in Spectrum: 2068
>>>>>Begin Spectral Data<<<<<
194.03	70.20114
194.578	90.28956
195.127	85.26975
195.676	85.27073
196.225	84.22121
196.773	116.31834
197.321	144.39417
197.87	250.62693
198.418	244.61716
198.966	254.65613
199.513	243.60685
200.061	216.54168
200.609	272.70116
201.156	253.54157
201.704	239.59102
202.251	277.71912
202.798	236.60139
203.345	309.74245
203.892	280.69049
204.438	248.57651
204.985	201.4727
205.532	213.553
206.078	278.66176
206.624	304.74165
207.17	357.80374
207.716	326.77362
208.262	295.56585
208.808	305.74506
209.354	311.74669
209.899	263.6475
210.445	282.68851
210.99	267.63766
211.535	273.62847
212.08	277.62672
212.625	263.64248
213.17	328.80882
213.715	354.77657
214.259	289.65653
214.804	262.62775
215.348	285.64166
215.892	338.79157
216.436	277.61497
216.98	321.67821
217.524	293.68123
218.068	268.66114
218.612	344.84358
219.155	291.6683
219.698	269.62396
220.242	259.62375
220.785	280.63982
221.328	231.55991
221.871	300.7417
222.414	267.64277
222.956	160.38002
223.499	253.54907
224.041	249.55419
224.583	233.47912
225.126	233.4992
225.668	247.58561
226.21	245.60652
226.751	223.48706
227.293	224.49555
227.835	254.60696
228.376	261.57584
228.918	226.55078
229.459	284.68693
230	297.68944
230.541	242.54252
231.082	236.56202
231.622	215.47614
232.163	230.54226
232.704	254.62016
233.244	247.59779
233.784	239.5649
234.324	324.69969
234.864	269.58851
235.404	226.51997
235.944	262.59869
236.484	291.70266
237.023	235.54057
237.563	255.57695
238.102	277.63437
238.641	254.62131
239.18	255.58258
239.719	225.55151
240.258	247.53993
240.797	281.64998
241.335	272.64101
241.874	282.52955
242.412	291.68432
242.95	274.64297
243.488	196.43253
244.026	277.62468
244.564	292.57837
245.102	305.66585
245.64	265.61371
246.177	243.52534
246.715	288.66921
247.252	239.5284
247.789	312.55128
248.326	256.60097
248.863	260.55596
249.4	283.61992
249.936	355.70694
250.473	309.70423
251.009	299.65939
251.546	261.56691
252.082	276.57559
252.618	305.65655
253.154	221.52155
253.69	241.52681
254.226	307.7087
254.761	284.61594
255.297	247.52484
255.832	241.5599
256.367	268.61117
256.903	322.68703
257.438	283.64159
257.972	265.57241
258.507	225.50493
259.042	293.61444
259.576	356.751
260.111	270.6008
260.645	293.60982
261.179	280.6357
261.713	294.63545
262.247	270.59731
262.781	279.56879
263.315	219.52043
263.849	308.7444
264.382	270.6013
264.915	288.65995
265.449	289.68279
265.982	304.66494
266.515	349.8194
267.048	287.58723
267.58	272.5675
268.113	264.55399
268.646	293.69278
269.178	255.55411
269.71	315.66991
270.243	330.73399
270.775	300.7455
271.307	267.61589
271.838	294.67018
272.37	281.66723
272.902	283.61966
273.433	320.68158
273.965	297.69706
274.496	259.6247
275.027	304.73141
275.558	283.67017
276.089	265.64496
276.62	245.60275
277.15	277.66052
277.681	307.63441
278.211	279.65942
278.741	308.65887
279.272	281.62333
279.802	298.71644
280.332	246.56734
280.861	309.71161
281.391	344.74733
281.921	265.61541
282.45	266.64122
282.98	331.83044
283.509	342.7452
284.038	294.65067
284.567	329.73586
285.096	358.83051
285.625	236.51883
286.153	344.78857
286.682	328.72409
287.21	307.70447
287.739	306.69753
288.267	336.78627
288.795	289.73213
289.323	325.7344
289.851	340.76751
290.378	298.64079
290.906	330.77737
291.433	338.80949
291.961	356.77734
292.488	299.71734
293.015	319.72613
293.542	411.00202
294.069	363.86123
294.596	331.77715
295.122	359.8241
295.649	339.70933
296.175	352.81046
296.702	392.91224
297.228	366.84067
297.754	373.79842
298.28	381.83456
298.806	327.75876
299.332	354.75792
299.857	372.80574
300.383	358.86228
300.908	336.7955
301.433	373.87402
301.958	401.87021
302.483	332.79179
303.008	377.89615
303.533	386.94969
304.058	354.78899
304.582	398.89291
305.107	345.86368
305.631	350.75939
306.155	388.85974
306.679	423.94021
307.203	422.92533
307.727	369.83551
308.251	401.94071
308.775	429.98789
309.298	402.92112
309.822	361.86901
310.345	439.98992
310.868	461.04255
311.391	342.81032
311.914	428.0134
312.437	443.95233
312.96	414.92421
313.482	401.89428
314.005	388.92318
314.527	375.933
315.049	444.05985
315.571	419.89222
316.093	445.03809
316.615	389.88901
317.137	442.90497
317.659	492.11074
318.18	427.96129
318.702	492.07409
319.223	462.87701
319.744	491.02774
320.265	469.07186
320.786	506.17948
321.307	493.13674
321.828	506.05802
322.348	541.17451
322.869	508.12592
323.389	777.30906
323.909	512.08336
324.43	491.09382
324.95	509.08099
325.47	533.22666
325.989	527.15864
326.509	595.2134
327.029	591.23198
327.548	539.12591
328.067	581.29517
328.587	597.37414
329.106	560.15666
329.625	602.43866
330.144	608.28795
330.662	597.28141
331.181	640.36822
331.7	599.26914
332.218	637.24446
332.736	622.32339
333.255	655.39338
333.773	648.38296
334.291	687.55
334.808	670.35514
335.326	652.31808
335.844	671.42251
336.361	763.7523
336.879	702.47956
337.396	733.59324
337.913	702.44977
338.43	717.43676
338.947	748.58626
339.464	731.39131
339.981	716.5157
340.497	746.63216
341.014	713.55696
341.53	746.48566
342.046	812.78708
342.562	786.732
343.078	790.6339
343.594	825.7113
344.11	818.71524
344.626	868.90956
345.141	816.62676
345.657	849.65935
346.172	903.87405
346.687	891.75059
347.202	939.81821
347.717	863.78303
348.232	846.84173
348.747	893.76934
349.261	904.68832
349.776	903.84494
350.29	907.9633
350.805	966.02944
351.319	889.77452
351.833	958.86431
352.347	984.95847
352.861	992.95705
353.374	975.86019
353.888	1001.0649
354.401	941.81255
354.915	1000.88727
355.428	1024.14769
355.941	1031.99661
356.454	1032.89372
356.967	963.89667
357.48	1050.96058
357.993	1043.14304
358.505	1038.10652
359.018	1147.29386
359.53	1121.24693
360.042	1092.99306
360.554	1140.28246
361.066	1052.13015
361.578	1119.99786
362.09	1072.10669
362.602	1174.08812
363.113	1172.22406
363.625	1172.13064
364.136	1195.07381
364.647	1228.31936
365.158	1265.31363
365.669	1193.28862
366.18	1195.25194
366.691	1197.06965
367.201	1226.34366
367.712	1243.24257
368.222	1251.26849
368.733	1247.11111
369.243	1331.28193
369.753	1342.37845
370.263	1371.55703
370.773	1302.48811
371.282	1402.55938
371.792	1379.43992
372.301	1478.68117
372.811	1514.02419
373.32	1480.34169
373.829	1422.53772
374.338	1540.47486
374.847	1636.69089
375.356	1599.72698
375.865	1688.48598
376.373	1794.77032
376.882	1806.20964
377.39	1820.01846
377.898	1828.10082
378.407	1983.89384
378.915	2091.80292
379.423	2179.10168
379.93	2316.16449
380.438	2254.29082
380.946	2395.19668
381.453	2599.42005
381.96	2696.41561
382.468	2827.34674
382.975	3010.60259
383.482	3082.06556
383.989	3163.92089
384.495	3267.28364
385.002	3350.65572
385.509	3658.3313
386.015	3786.34757
386.521	3978.88515
387.028	4230.7473
387.534	4198.37953
388.04	4455.03619
388.546	4512.40243
389.051	4804.21491
389.557	5184.32508
390.063	5500.98269
390.568	5625.34364
391.073	5837.71464
391.578	6225.18606
392.084	6359.68547
392.589	6569.37266
393.093	6972.90688
393.598	7576.85198
394.103	8264.49626
394.607	9200.87346
395.112	9860.36474
395.616	10343.77747
396.12	11202.28363
396.624	12497.96517
397.128	13337.35326
397.632	15023.83756
398.136	16299.40869
398.639	17344.06611
399.143	19092.12544
399.646	21702.13681
400.15	24112.56184
400.653	26742.16341
401.156	29792.05122
401.659	34922.97886
402.162	42589.44904
402.664	55664.60754
403.167	62736.0336
403.67	63769.22307
404.172	63919.58413
404.674	63858.43483
405.176	63738.15102
405.678	63977.72923
406.18	64011.81569
406.682	63863.44694
407.184	63926.60148
407.686	63841.39382
408.187	64025.8516
408.688	63892.51763
409.19	63833.37461
409.691	63977.72923
410.192	63945.6488
410.693	59858.11238
411.194	54005.88845
411.694	51315.21885
412.195	47751.3617
412.696	42871.2702
413.196	40166.1673
413.696	38905.33084
414.196	39206.00148
414.696	38666.89616
415.196	36681.69456
415.696	33741.24119
416.196	27511.45565
416.695	21089.50284
417.195	18060.49808
417.694	17109.86384
418.194	16204.05989
418.693	14998.10234
419.192	14357.77439
419.691	14142.1359
420.19	13859.36167
420.688	13505.39157
421.187	12913.15582
421.685	12170.14428
422.184	10981.19333
422.682	9547.61836
423.18	8116.23285
423.678	7078.65205
424.176	6688.62342
424.674	6384.5164
425.172	5922.99379
425.669	5650.42047
426.167	5340.18708
426.664	4798.33592
427.161	4487.59989
427.659	4068.19414
428.156	3812.46422
428.652	3605.64639
429.149	3479.40902
429.646	3426.8843
430.143	3166.3779
430.639	2979.31749
431.135	2824.63407
431.632	2657.09794
432.128	2559.34124
432.624	2478.71735
433.12	2315.00483
433.616	2312.82291
434.111	2109.09388
434.607	2085.11478
435.103	2009.52025
435.598	1993.48932
436.093	1965.91559
436.588	1866.71437
437.083	1712.58723
437.578	1744.73263
438.073	1544.8309
438.568	1523.74444
439.062	1491.25431
439.557	1423.45605
440.051	1401.31116
440.546	1386.32706
441.04	1348.45306
441.534	1264.48943
442.028	1348.46167
442.522	1258.33703
443.015	1142.90093
443.509	1210.30967
444.002	1187.2945
444.496	1121.90208
444.989	1170.246
445.482	1112.21711
445.975	1127.06249
446.468	1181.96775
446.961	1177.97069
447.454	1012.8365
447.947	1029.00167
448.439	1069.12779
448.931	1091.99673
449.424	1059.20709
449.916	1037.06493
450.408	987.84318
450.9	983.97141
451.392	988.08389
451.884	973.8322
452.375	905.88737
452.867	899.67855
453.358	916.74197
453.849	872.54747
454.341	900.68912
454.832	917.62711
455.323	904.89902
455.814	824.59712
456.304	865.68269
456.795	815.58003
457.285	912.65464
457.776	831.60037
458.266	829.67297
458.756	749.53001
459.247	835.69741
459.737	825.70369
460.226	830.59959
460.716	757.56453
461.206	744.54278
461.695	683.48762
462.185	762.56047
462.674	733.44789
463.163	719.39564
463.653	765.38425
464.142	730.53998
464.63	719.51907
465.119	660.35013
465.608	743.50471
466.096	673.2708
466.585	614.24342
467.073	631.3184
467.561	605.2947
468.05	635.29041
468.538	658.42009
469.026	542.16045
469.513	592.10419
470.001	629.27704
470.489	640.34579
470.976	586.22398
471.463	556.25086
471.951	562.25973
472.438	555.17219
472.925	476.0255
473.412	511.12764
473.899	525.08788
474.385	545.20629
474.872	467.99916
475.359	492.10623
475.845	502.93856
476.331	429.84039
476.817	506.12148
477.303	491.03953
477.789	417.92149
478.275	437.0026
478.761	394.87195
479.247	447.91583
479.732	446.02758
480.218	452.09623
480.703	402.92333
481.188	450.89299
481.673	411.87671
482.158	389.78186
482.643	395.94434
483.128	400.8686
483.612	437.96325
484.097	365.82578
484.581	345.75126
485.066	382.87635
485.55	385.79344
486.034	361.73227
486.518	410.9134
487.002	317.73033
487.486	287.66412
487.969	290.67146
488.453	326.76795
488.936	334.70861
489.42	343.71325
489.903	297.70359
490.386	251.49681
490.869	308.63947
491.352	277.6364
491.835	288.55896
492.318	248.53489
492.8	288.56644
493.283	304.73889
493.765	242.57099
494.247	268.5966
494.73	260.5509
495.212	221.50573
495.694	256.57909
496.175	278.63857
496.657	295.66472
497.139	240.39314
497.62	239.55372
498.102	262.62584
498.583	194.46254
499.064	228.49007
499.545	208.45901
500.026	287.6186
500.507	222.49338
500.988	290.69191
501.469	218.52532
501.949	231.55022
502.43	242.56167
502.91	255.51844
503.39	201.48336
503.87	276.62382
504.35	218.49274
504.83	213.45023
505.31	213.49681
505.79	126.29315
506.269	188.41939
506.749	204.45169
507.228	207.47236
507.707	214.46196
508.187	187.43497
508.666	181.43724
509.145	195.443
509.623	125.28835
510.102	221.51689
510.581	236.54905
511.059	207.5057
511.538	220.54912
512.016	208.48334
512.494	214.49787
512.972	209.48518
513.45	167.38078
513.928	204.48153
514.406	189.45139
514.884	172.43352
515.361	161.37716
515.839	212.47312
516.316	230.54015
516.793	182.44802
517.27	175.41075
517.747	180.45092
518.224	192.43008
518.701	189.40616
519.178	154.37798
519.654	169.39109
520.131	142.34569
520.607	144.34544
521.083	102.22886
521.56	136.31529
522.036	166.35312
522.512	147.35646
522.987	188.44135
523.463	174.40274
523.939	217.52222
524.414	199.44218
524.89	158.36948
525.365	78.17544
525.84	205.47853
526.315	177.41869
526.79	182.40012
527.265	161.36443
527.74	133.31778
528.215	144.32986
528.689	139.29948
529.164	145.30516
529.638	128.31962
530.112	100.23302
530.587	145.30475
531.061	157.37253
531.534	156.36852
532.008	160.38133
532.482	164.36888
532.956	100.25269
533.429	188.44858
533.903	106.23
534.376	139.30218
534.849	130.29444
535.322	140.32482
535.795	138.32777
536.268	158.37498
536.741	103.24214
537.213	156.35146
537.686	136.32761
538.158	168.37384
538.631	132.31497
539.103	124.27651
539.575	107.21814
540.047	131.2814
540.519	147.34504
540.991	167.39855
541.463	97.23141
541.934	66.14894
542.406	123.29186
542.877	113.25234
543.348	155.36736
543.82	154.36746
544.291	157.35957
544.762	174.40514
545.233	191.47234
545.703	153.33432
546.174	171.38801
546.645	166.39366
547.115	164.38817
547.585	142.32149
548.056	171.41215
548.526	166.38651
548.996	137.32282
549.466	169.4024
549.935	222.51464
550.405	193.41332
550.875	172.40016
551.344	156.36537
551.814	154.34695
552.283	206.43725
552.752	220.5007
553.221	175.37866
553.69	206.45345
554.159	204.49512
554.628	229.50334
555.096	196.48692
555.565	156.33921
556.033	192.4474
556.502	177.4182
556.97	195.42338
557.438	133.30839
557.906	154.35744
558.374	144.32933
558.842	142.33545
559.31	180.39439
559.777	110.26679
560.245	80.18319
560.712	102.23215
561.18	124.27181
561.647	66.14663
562.114	101.2302
562.581	104.25404
563.048	148.33384
563.514	136.33689
563.981	105.23893
564.448	95.21381
564.914	77.17855
565.381	184.41114
565.847	99.22919
566.313	100.23054
566.779	138.30645
567.245	66.15289
567.711	95.22612
568.176	107.23845
568.642	125.31106
569.108	100.24408
569.573	71.16418
570.038	97.20198
570.504	116.25985
570.969	78.19258
571.434	123.27047
571.899	129.30208
572.363	140.3167
572.828	152.34385
573.293	123.27898
573.757	170.38691
574.222	131.29024
574.686	192.43114
575.15	127.30228
575.614	197.45389
576.078	115.2675
576.542	103.23334
577.006	126.28178
577.469	206.49303
577.933	150.3367
578.396	100.23559
578.86	174.40114
579.323	136.32351
579.786	179.38019
580.249	226.51665
580.712	142.34012
581.175	105.25672
581.637	145.32594
582.1	153.32809
582.563	140.29353
583.025	199.472
583.487	199.39924
583.95	135.28586
584.412	183.37596
584.874	188.44789
585.336	162.37735
585.797	181.38528
586.259	165.3788
586.721	153.35308
587.182	197.44264
587.643	208.45978
588.105	220.50435
588.566	215.43512
589.027	231.54831
589.488	249.55143
589.949	276.64361
590.41	285.53874
590.87	264.58136
591.331	263.55275
591.791	239.53524
592.252	295.6571
592.712	321.73157
593.172	341.73403
593.632	353.74025
594.092	357.7493
594.552	379.76878
595.011	384.82427
595.471	403.85293
595.931	476.98692
596.39	388.87441
596.849	455.97896
597.308	434.8532
597.768	535.26207
598.227	500.09941
598.685	523.08132
599.144	572.21423
599.603	589.23379
600.062	595.11117
600.52	698.37447
600.978	672.39828
601.437	673.34164
601.895	730.34398
602.353	778.45475
602.811	854.61758
603.269	829.67756
603.727	965.91395
604.184	1002.85236
604.642	966.96975
605.099	1084.02182
605.557	1078.11256
606.014	1120.87436
606.471	1171.33549
606.928	1291.14732
607.385	1371.60464
607.842	1394.34689
608.299	1440.45484
608.755	1465.60082
609.212	1538.39977
609.668	1565.46126
610.125	1566.68946
610.581	1633.65285
611.037	1682.53084
611.493	1653.65296
611.949	1796.9485
612.405	1834.2973
612.861	1796.71113
613.316	1832.90492
613.772	1831.72171
614.227	1902.97325
614.683	1870.45025
615.138	1900.86377
615.593	1934.84234
616.048	1975.80732
616.503	1948.04544
616.958	1862.1189
617.412	1960.95741
617.867	1881.66124
618.321	2012.4132
618.776	1963.64245
619.23	1799.78214
619.684	1800.59296
620.138	1799.68778
620.592	1837.95481
621.046	1808.82445
621.5	1784.87742
621.954	1771.53722
622.407	1733.51101
622.861	1736.87091
623.314	1694.56571
623.768	1675.70967
624.221	1652.07576
624.674	1685.63388
625.127	1641.61879
625.58	1582.44361
626.033	1559.33598
626.485	1561.64621
626.938	1561.63068
627.39	1599.60146
627.843	1521.47764
628.295	1482.43971
628.747	1436.50404
629.199	1450.36701
629.651	1466.40524
630.103	1455.39561
630.555	1399.08636
631.006	1381.35933
631.458	1405.42353
631.909	1402.26531
632.361	1354.30496
632.812	1429.39647
633.263	1422.19166
633.714	1349.05217
634.165	1396.47205
634.616	1387.41628
635.067	1449.25771
635.518	1437.48034
635.968	1546.99711
636.419	1493.27338
636.869	1497.53973
637.319	1547.52034
637.769	1589.44956
638.219	1555.58397
638.669	1582.63703
639.119	1518.59552
639.569	1662.746
640.019	1775.69556
640.468	1767.5751
640.918	1762.78636
641.367	1842.61881
641.816	1831.58437
642.265	1916.83573
642.714	1949.7816
643.163	2089.89636
643.612	2049.14501
644.061	2105.5708
644.51	2205.91263
644.958	2183.73468
645.406	2232.12177
645.855	2290.22704
646.303	2293.98152
646.751	2415.03066
647.199	2423.92666
647.647	2410.0456
648.095	2524.97747
648.543	2451.41946
648.99	2480.24549
649.438	2571.05834
649.885	2569.48416
650.333	2641.2314
650.78	2650.32092
651.227	2663.39754
651.674	2666.00426
652.121	2673.41544
652.568	2653.4021
653.015	2513.41614
653.461	2631.22181
653.908	2657.03187
654.354	2568.21532
654.801	2576.13475
655.247	2534.71907
655.693	2598.74938
656.139	2542.21992
656.585	2547.22547
657.031	2544.14092
657.477	2597.77323
657.922	2527.95692
658.368	2538.38299
658.813	2497.95126
659.259	2510.30134
659.704	2542.18767
660.149	2557.0365
660.594	2606.20382
661.039	2628.98703
661.484	2531.1743
661.929	2654.12401
662.373	2588.5209
662.818	2521.41229
663.262	2657.32008
663.707	2673.63098
664.151	2666.3667
664.595	2742.33448
665.039	2745.48903
665.483	2727.64252
665.927	2774.1573
666.371	2909.18347
666.814	2841.23322
667.258	2960.32955
667.701	3018.61476
668.145	3078.53379
668.588	3093.50588
669.031	3055.1707
669.474	3077.29208
669.917	3206.7238
670.36	3255.54421
670.803	3333.30874
671.245	3271.329
671.688	3389.34271
672.13	3369.87466
672.573	3459.59467
673.015	3561.23943
673.457	3589.5633
673.899	3661.22829
674.341	3650.20163
674.783	3769.12478
675.225	3807.30711
675.666	3928.22135
676.108	3803.42876
676.549	3847.88903
676.991	3984.43653
677.432	4027.82733
677.873	4085.64192
678.314	4122.9178
678.755	4278.11694
679.196	4210.58743
679.637	4220.90768
680.078	4285.69906
680.518	4354.53715
680.959	4335.80873
681.399	4496.02666
681.839	4459.89041
682.28	4545.03683
682.72	4613.3659
683.16	4769.94418
683.6	4773.23822
684.039	4769.62214
684.479	4891.79014
684.919	4996.35732
685.358	5076.74311
685.798	5165.08273
686.237	5251.30565
686.676	5238.93295
687.115	5458.10747
687.554	5466.21935
687.993	5650.58484
688.432	5719.75382
688.871	5736.78189
689.309	5881.03416
689.748	5937.11997
690.186	6084.76995
690.625	6212.7636
691.063	6300.8393
691.501	6461.05316
691.939	6561.16606
692.377	6658.87206
692.815	6702.93056
693.253	6852.73737
693.69	6911.2903
694.128	7057.87113
694.565	7044.72044
695.003	7359.23984
695.44	7357.79143
695.877	7453.7926
696.314	7488.35232
696.751	7557.66701
697.188	7837.94374
697.625	7861.82816
698.061	8055.24138
698.498	8182.30808
698.934	8234.40016
699.371	8387.52142
699.807	8459.61657
700.243	8567.81803
700.679	8673.80163
701.115	8823.11685
701.551	9007.43396
701.987	9135.65598
702.422	9274.98686
702.858	9428.31742
703.294	9790.24456
703.729	9756.10592
704.164	9884.46257
704.599	10104.24062
705.035	10285.83894
705.47	10401.0178
705.904	10600.87615
706.339	10845.87891
706.774	11015.49638
707.209	11011.50675
707.643	11128.87977
708.078	11446.23047
708.512	11655.03906
708.946	11662.47154
709.38	12081.702
709.814	12091.18266
710.248	12374.1441
710.682	12747.66461
711.116	12809.91932
711.549	12758.09271
711.983	13024.0046
712.416	13351.03088
712.85	13517.72842
713.283	13589.93108
713.716	13990.42338
714.149	14148.80556
714.582	14280.41347
715.015	14230.59413
715.448	14558.9758
715.881	14908.06666
716.313	15022.64661
716.746	15347.58853
717.178	15601.86249
717.61	15847.20795
718.043	16098.55777
718.475	16344.63171
718.907	16582.65902
719.339	16957.27745
719.77	17098.63438
720.202	17251.3723
720.634	17711.48182
721.065	17790.59143
721.497	18251.4327
721.928	18481.4869
722.359	18764.28293
722.79	19029.34234
723.221	19453.07534
723.652	19616.59936
724.083	19940.75714
724.514	20171.38119
724.945	20484.27402
725.375	20911.39764
725.806	21205.03427
726.236	21203.82285
726.666	21844.688
727.096	22314.35866
727.526	22740.78484
727.956	23114.0378
728.386	23426.44399
728.816	23452.34137
729.246	24062.31945
729.675	24189.57836
730.105	24403.55374
730.534	25030.83181
730.964	25188.99911
731.393	25649.92182
731.822	26079.43926
732.251	26598.60413
732.68	26906.25189
733.109	27296.48459
733.537	27852.67503
733.966	28111.31342
734.395	28430.12174
734.823	28858.18725
735.251	29138.48581
735.68	29253.19916
736.108	29409.64496
736.536	29651.85035
736.964	29871.46526
737.392	30349.96109
737.82	30413.63964
738.247	30906.77462
738.675	30901.00579
739.102	31242.21224
739.53	31230.40521
739.957	31463.61366
740.384	31927.6254
740.811	32002.72088
741.238	32146.29185
741.665	32066.30727
742.092	31892.14349
742.519	32079.43556
742.945	32370.54708
743.372	32352.99198
743.798	32541.21531
744.225	32668.81877
744.651	32413.47231
745.077	32528.59179
745.503	32392.94704
745.929	32756.15379
746.355	32380.7031
746.781	31938.35615
747.207	31960.13431
747.632	32026.9229
748.058	31973.13371
748.483	32449.30458
748.908	32346.90779
749.334	32141.1665
749.759	32005.50684
750.184	31680.17874
750.609	31736.46808
751.033	31686.9317
751.458	31481.77593
751.883	31441.51582
752.307	31231.28003
752.732	31025.46228
753.156	30775.78165
753.58	30753.47068
754.005	30589.45611
754.429	30225.76995
754.853	29909.28165
755.277	29845.66233
755.7	29704.13413
756.124	29481.59767
756.548	29101.52723
756.971	29050.1631
757.394	28808.19408
757.818	28800.81943
758.241	28426.75489
758.664	28318.64174
759.087	28151.42434
759.51	27787.81115
759.933	27598.88922
760.356	27359.04775
760.778	27313.91324
761.201	26822.1089
761.623	26428.39873
762.046	26206.97658
762.468	26008.61046
762.89	25661.34917
763.312	25583.08517
763.734	25395.97866
764.156	24884.14151
764.578	24755.83626
765	24481.90138
765.421	24073.51842
765.843	23712.55385
766.264	23290.81497
766.686	22871.22583
767.107	22704.50749
767.528	22506.60708
767.949	22424.94977
768.37	21967.99541
768.791	21481.14633
769.212	21215.56359
769.632	20972.39563
770.053	20658.48223
770.473	20526.25188
770.894	20137.14221
771.314	19811.86662
771.734	19408.57119
772.154	19119.94822
772.575	19010.49235
772.994	18717.00665
773.414	18520.07256
773.834	18182.33401
774.254	17713.96617
774.673	17641.91795
775.093	17135.30006
775.512	16838.02861
775.931	16658.31228
776.351	16654.66338
776.77	16219.15884
777.189	15928.78701
777.607	15747.29841
778.026	15524.54928
778.445	15211.02035
778.864	14814.39659
779.282	14666.15547
779.701	14410.9485
780.119	14019.44966
780.537	13802.02173
780.955	13620.39773
781.373	13312.40869
781.791	13186.52384
782.209	12940.90009
782.627	12820.2559
783.045	12484.7159
783.462	12378.88887
783.88	12048.90266
784.297	11871.19974
784.715	11708.18717
785.132	11343.90698
785.549	11085.55279
785.966	11088.52894
786.383	10805.46246
786.8	10669.19587
787.217	10540.58831
787.633	10134.12946
788.05	9860.45322
788.466	9894.55114
788.883	9703.97793
789.299	9440.34105
789.715	9131.70848
790.131	9069.62263
790.547	8927.38251
790.963	8785.14619
791.379	8417.74244
791.795	8376.34713
792.21	8183.18778
792.626	7751.85385
793.041	7677.02315
793.457	7621.97618
793.872	7582.70675
794.287	7275.79454
794.702	7201.75335
795.117	6984.92658
795.532	6817.01637
795.947	6605.58937
796.362	6480.51016
796.776	6338.42219
797.191	6308.88794
797.605	5897.81536
798.02	5753.02017
798.434	5643.46159
798.848	5757.24325
799.262	5435.34763
799.676	5395.22468
800.09	5172.40857
800.504	5008.35346
800.918	4890.04171
801.331	4722.99477
801.745	4769.07666
802.158	4569.80142
802.572	4520.66033
802.985	4294.67435
803.398	4295.62532
803.811	4058.1782
804.224	3927.0428
804.637	3855.8912
805.05	3746.64678
805.462	3654.10474
805.875	3531.63796
806.288	3459.13628
806.7	3331.31954
807.112	3311.78913
807.525	3154.17543
807.937	3102.33267
808.349	3077.3466
808.761	2946.31013
809.173	2976.21608
809.584	2771.2578
809.996	2705.22484
810.408	2627.63114
810.819	2613.99815
811.231	2623.80136
811.642	2535.30426
812.053	2471.17745
812.464	2325.95704
812.875	2332.40961
813.286	2205.40643
813.697	2110.68085
814.108	2061.9629
814.519	2091.62816
814.929	1981.13213
815.34	1821.75022
815.75	1851.07787
816.16	1781.82391
816.571	1739.0152
816.981	1672.52007
817.391	1635.58566
817.801	1585.71011
818.211	1557.49472
818.62	1578.58619
819.03	1510.55031
819.44	1339.52899
819.849	1322.40799
820.259	1339.48126
820.668	1292.34606
821.077	1247.33764
821.486	1191.09944
821.895	1274.27021
822.304	1102.29023
822.713	1127.99568
823.122	1123.14372
823.531	1057.88396
823.939	1073.02833
824.348	1070.98719
824.756	964.91063
825.164	1023.0116
825.573	965.93439
825.981	965.8864
826.389	961.92194
826.797	908.88067
827.205	946.7156
827.612	823.6525
828.02	773.47781
828.428	791.67352
828.835	739.66536
829.243	683.3534
829.65	703.49042
830.057	739.48227
830.464	746.53661
830.871	670.35947
831.278	605.25394
831.685	625.16385
832.092	632.30386
832.499	639.17348
832.905	620.34027
833.312	557.06218
833.718	581.26469
834.124	532.05152
834.531	558.21071
834.937	529.19951
835.343	497.0394
835.749	515.02476
836.155	486.13324
836.561	493.06878
836.966	458.98817
837.372	448.01124
837.777	439.98142
838.183	491.93957
838.588	439.98102
838.993	442.95774
839.399	406.8955
839.804	344.76385
840.209	360.84637
840.613	391.77029
841.018	324.7466
841.423	344.80751
841.828	354.82026
842.232	307.6827
842.637	366.78733
843.041	312.74012
843.445	282.64672
843.849	286.65511
844.253	309.66659
844.657	293.68499
845.061	340.70937
845.465	261.5821
845.869	309.65257
846.272	278.62706
846.676	195.43203
847.079	280.66448
847.483	295.67395
847.886	296.65236
848.289	227.57713
848.692	214.50297
849.095	199.44383
849.498	253.58499
849.901	218.45807
850.304	252.5547
850.707	192.45812
851.109	222.52096
851.512	196.4524
851.914	186.44466
852.316	219.52424
852.718	219.54514
853.121	187.42999
853.523	184.39839
853.925	233.57534
854.326	229.5377
854.728	199.4829
855.13	144.35683
855.531	174.39121
855.933	134.30066
856.334	194.45792
856.736	156.33098
857.137	173.38041
857.538	156.37394
857.939	157.3721
858.34	131.2987
858.741	126.3128
859.142	139.31335
859.542	154.38899
859.943	164.38381
860.343	115.27319
860.744	195.44462
861.144	154.35786
861.544	124.28701
861.945	79.19293
862.345	164.37522
862.745	114.27191
863.145	96.2138
863.544	139.3344
863.944	134.29868
864.344	65.15281
864.743	167.38922
865.143	173.42359
865.542	48.10531
865.941	135.31798
866.34	102.22896
866.74	113.29087
867.139	160.36592
867.537	80.19315
867.936	113.25953
868.335	94.22816
868.734	74.1821
869.132	52.11423
869.531	88.20029
869.929	122.26404
870.327	89.20342
870.726	107.25115
871.124	83.18313
871.522	77.18749
871.92	136.31753
872.318	70.1626
872.715	89.20694
873.113	70.16235
873.511	87.20644
873.908	52.12886
874.306	78.18761
874.703	90.21286
875.1	33.08038
875.497	24.05531
875.894	43.10361
876.291	84.19751
876.688	60.14934
877.085	49.11204
877.482	100.23861
877.878	83.19368
878.275	69.16895
878.671	61.1251
879.068	137.312
879.464	61.14128
879.86	90.2026
880.256	22.05159
880.652	69.16851
881.048	62.14573
881.444	19.04297
881.84	90.21845
882.236	85.20418
882.631	98.23061
883.027	73.1682
883.422	30.07372
883.817	46.11245
884.213	39.09677
884.608	105.25107
885.003	26.05994
885.398	39.09432
885.793	40.0964
886.188	31.0743
886.582	58.14173
886.977	46.10402
887.371	59.14237
887.766	28.06778
888.16	7.01664
888.554	70.16447
888.949	84.20159
889.343	82.1901
889.737	34.08881
890.131	43.10404
890.525	93.22924
890.918	49.11864
891.312	84.18933
891.706	74.18619
892.099	47.11487
892.492	96.19398
892.886	77.17961
893.279	18.04433
893.672	50.12363
894.065	46.11111
894.458	32.07688
894.851	43.10058
895.244	59.1449
895.637	119.27254
896.029	97.2275
896.422	29.06743
896.814	49.11676
897.206	56.12983
897.599	101.23744
897.991	61.1424
898.383	78.17624
898.775	109.23555
899.167	80.18075
899.559	36.08712
899.951	39.08742
900.342	18.04389
900.734	43.10552
901.125	63.15797
901.517	43.10184
901.908	-4.00915
902.299	16.03799
902.69	100.22631
903.082	86.19859
903.473	31.07279
903.863	34.0833
904.254	114.25358
904.645	60.14119
905.036	39.09293
905.426	68.14585
905.817	37.08681
906.207	-25.0573
906.597	63.14249
906.987	55.13607
907.378	102.24757
907.768	59.15102
908.158	35.08199
908.547	63.15905
908.937	5.0123
909.327	48.11168
909.717	37.08905
910.106	68.15533
910.495	19.04531
910.885	55.13442
911.274	22.05308
911.663	78.18769
912.052	24.05645
912.441	66.1626
912.83	19.04166
913.219	66.16546
913.608	62.14624
913.997	19.04661
914.385	109.24683
914.774	15.03522
915.162	96.22026
915.55	45.10368
915.939	46.11286
916.327	2.0048
916.715	101.24987
917.103	38.08834
917.491	46.10901
917.878	65.15263
918.266	34.08487
918.654	92.22673
919.041	61.15559
919.429	44.09962
919.816	48.11699
920.203	88.20563
920.591	94.22275
920.978	52.12222
921.365	65.16492
921.752	1.00227
922.139	102.20875
922.525	66.15234
922.912	40.09343
923.299	24.05775
923.685	9.02259
924.072	5.01083
924.458	42.10072
924.844	85.20099
925.231	3.00668
925.617	48.11908
926.003	101.24537
926.389	47.1141
926.774	21.05129
927.16	13.03118
927.546	93.23101
927.931	33.07885
928.317	38.08323
928.702	65.14605
929.088	128.29286
929.473	75.1846
929.858	56.1325
930.243	50.11651
930.628	67.15788
931.013	34.08141
931.398	25.05421
931.783	53.13299
932.167	71.16802
932.552	49.11766
932.937	30.07134
933.321	85.20581
933.705	4.00967
934.09	27.06444
934.474	68.15245
934.858	51.12788
935.242	19.04225
935.626	57.14122
936.009	24.06265
936.393	87.215
936.777	42.1045
937.16	65.16416
937.544	36.07998
937.927	42.10343
938.311	99.22783
938.694	73.18627
939.077	53.12158
939.46	17.03936
939.843	73.14002
940.226	19.04694
940.609	67.14863
940.991	15.03674
941.374	42.09945
941.757	15.03562
942.139	42.09071
942.522	40.09005
942.904	58.13356
943.286	37.09033
943.668	57.14385
944.05	75.1768
944.432	9.02141
944.814	53.12387
945.196	41.09703
945.578	49.11385
945.959	19.04239
946.341	46.10618
946.722	36.08058
947.104	34.0782
947.485	53.11801
947.866	44.1078
948.247	55.13487
948.628	16.03689
949.009	54.13313
949.39	40.09515
949.771	6.01312
950.152	55.1297
950.532	49.11945
950.913	46.10626
951.293	32.0847
951.674	23.05365
952.054	49.11918
952.434	63.15024
952.814	40.09016
953.194	23.05749
953.574	84.1962
953.954	42.09455
954.334	16.03898
954.714	45.106
955.093	64.15055
955.473	63.153
955.853	14.03519
956.232	16.0426
956.611	4.00914
956.99	38.09251
957.37	14.03431
957.749	13.0294
958.128	52.12688
958.506	32.08049
958.885	30.07279
959.264	88.20861
959.643	85.18487
960.021	53.12717
960.4	57.12297
960.778	58.13462
961.156	2.00484
961.535	26.05757
961.913	98.21871
962.291	67.16746
962.669	33.08119
963.047	57.14076
963.424	80.19846
963.802	87.20453
964.18	43.10286
964.557	57.1245
964.935	45.10203
965.312	51.12889
965.69	32.07644
966.067	59.13578
966.444	-7.01639
966.821	33.08233
967.198	7.0162
967.575	62.14476
967.952	80.17861
968.329	88.20539
968.705	79.16142
969.082	49.12296
969.458	46.10757
969.835	20.04695
970.211	28.07032
970.587	70.16722
970.963	14.03446
971.339	34.08634
971.715	45.10834
972.091	50.11803
972.467	-13.03101
972.843	41.09924
973.219	54.12266
973.594	2.00509
973.97	-22.04938
974.345	33.07634
974.721	-6.01384
975.096	87.20229
975.471	52.11744
975.846	24.05507
976.221	30.07372
976.596	105.24318
976.971	68.16195
977.346	51.11238
977.72	7.0172
978.095	5.01254
978.469	31.07074
978.844	68.16257
979.218	66.1538
979.593	15.03446
979.967	8.01845
980.341	49.10843
980.715	11.02692
981.089	50.12013
981.463	18.03976
981.837	41.09763
982.21	-6.0131
982.584	70.16228
982.957	36.08725
983.331	42.09354
983.704	69.16442
984.078	47.11101
984.451	31.07293
984.824	45.10604
985.197	14.03226
985.57	0
985.943	44.10225
986.316	16.03725
986.688	44.10152
987.061	34.07679
987.434	59.15012
987.806	27.06201
988.179	0
988.551	33.08032
988.923	4.00947
989.295	71.1686
989.667	71.16463
990.039	59.14237
990.411	3.00654
990.783	38.08245
991.155	33.07667
991.527	61.14061
991.898	64.15365
992.27	-1.00242
992.641	30.07202
993.012	-8.01769
993.384	23.05249
993.755	46.11366
994.126	61.14167
994.497	30.07095
994.868	58.12526
995.239	71.16359
995.61	32.07776
995.98	-26.06133
996.351	35.08414
996.722	32.07215
997.092	1.0023
997.462	68.15352
997.833	39.0877
998.203	-9.02079
998.573	48.11537
998.943	67.15067
999.313	60.13838
999.683	16.03718
1000.053	-54.11812
1000.423	11.02559
1000.792	10.02483
1001.162	7.01653
1001.531	66.15598
1001.901	10.02397
1002.27	30.06268
1002.639	-33.08164
1003.009	37.08416
1003.378	33.08161
1003.747	45.10099
1004.116	11.02533
1004.485	32.07339
1004.853	7.01692
1005.222	-10.02401
1005.591	68.1532
1005.959	2.00437
1006.328	31.06711
1006.696	55.12627
1007.064	24.05764
1007.433	3.0072
1007.801	-11.02569
1008.169	-5.01211
1008.537	72.15076
1008.905	49.11001
1009.273	4.00948
1009.64	9.02103
1010.008	49.11146
1010.375	21.04812
1010.743	14.03
1011.11	70.16125
1011.478	70.1669
1011.845	35.07835
1012.212	45.09854
1012.579	35.08279
1012.946	17.03843
1013.313	33.07458
1013.68	16.03427
1014.047	4.0092
1014.414	-22.0503
1014.78	49.11744
1015.147	14.03219
1015.513	6.01396
1015.88	42.10252
1016.246	3.00706
1016.612	66.14211
1016.978	51.12064
1017.344	25.05969
1017.71	64.14784
1018.076	35.07813
1018.442	81.20003
1018.808	25.06092
1019.174	-2.00483
1019.539	21.0442
1019.905	62.14031
1020.27	24.05694
1020.636	34.07701
1021.001	67.15351
1021.366	42.09722
1021.731	47.11811
1022.096	50.1225
1022.461	13.02973
1022.826	59.13507
1023.191	27.06858
1023.556	19.04252
1023.92	38.08876
1024.285	1.00233
1024.649	40.09339
1025.014	41.09624
1025.378	59.14323
1025.742	4.00952
1026.107	57.12207
1026.471	68.14975
1026.835	30.07158
1027.199	30.06958
1027.562	11.0243
1027.926	25.05841
1028.29	56.13613
1028.654	17.03735
1029.017	61.14385
1029.381	13.03005
1029.744	64.15662
1030.107	77.17302
1030.471	68.15615
1030.834	14.03001
1031.197	79.18064
1031.56	24.05403
1031.923	28.0701
1032.286	37.08314
1032.648	10.02268
1033.011	57.12666
1033.374	21.0468
1033.736	5.01279
1034.099	47.10989
1034.461	66.16116
1034.823	62.14856
1035.185	9.02168
1035.548	41.09624
1035.91	25.0574
1036.272	65.14143
1036.634	95.22037
1036.995	13.02913
1037.357	46.10791
1037.719	46.1074
1038.08	48.11
1038.442	46.10419
1038.803	10.02272
1039.165	21.05087
1039.526	58.13404
1039.887	4.00922
1040.248	53.12751
1040.609	38.08907
1040.97	18.04223
1041.331	61.1492
1041.692	64.14519
1042.053	22.04763
1042.413	19.04218
1042.774	46.10745
1043.134	43.09646
1043.495	50.12054
1043.855	72.16851
1044.215	-8.01912
1044.576	36.08323
1044.936	37.08047
1045.296	28.06725
1045.656	21.04902
1046.016	44.101
1046.375	40.09303
1046.735	75.16451
1047.095	83.18428
1047.454	58.11456
1047.814	54.1242
1048.173	21.04742
1048.533	16.03518
1048.892	19.04413
1049.251	39.09329
1049.61	-3.00716
1049.969	57.1276
1050.328	80.16343
1050.687	39.09033
1051.046	15.03503
1051.405	17.04035
1051.763	5.01121
1052.122	39.09329
1052.48	41.0968
1052.839	75.1708
1053.197	-2.00454
1053.555	28.05954
1053.914	18.04224
1054.272	-18.04117
1054.63	19.04489
1054.988	16.03698
1055.345	8.01622
1055.703	68.15627
1056.061	91.22629
1056.419	49.12424
1056.776	-40.09266
1057.134	-27.05935
1057.491	31.07478
1057.848	21.05004
1058.206	-8.01785
1058.563	49.10226
1058.92	47.1027
1059.277	51.12046
1059.634	27.05992
1059.991	102.23178
1060.348	24.05219
1060.704	96.22229
1061.061	35.07606
1061.418	44.10241
1061.774	31.07362
1062.131	47.12186
1062.487	40.08879
1062.843	52.12413
1063.199	21.05039
1063.555	61.13594
1063.911	17.04116
1064.267	63.12154
1064.623	43.1014
1064.979	-44.09738
1065.335	12.02732
1065.691	7.0159
1066.046	46.09576
1066.402	15.03243
1066.757	51.12362
1067.112	50.11683
1067.468	48.11
1067.823	-18.04097
1068.178	36.08283
1068.533	53.12275
1068.888	35.07961
1069.243	24.05705
1069.598	2.00466
1069.952	38.08372
1070.307	51.12172
1070.662	110.25016
1071.016	27.05882
1071.371	63.13696
1071.725	18.04095
1072.079	43.09927
1072.434	37.08664
1072.788	13.02933
1073.142	70.16447
1073.496	-13.02974
1073.85	53.11674
1074.203	52.12079
1074.557	47.1222
1074.911	90.20169
1075.265	77.16946
1075.618	74.1723
1075.971	34.07735
1076.325	54.13289
1076.678	36.07875
1077.031	-18.03841
1077.385	57.11837
1077.738	14.0302
1078.091	56.12244
1078.444	32.07006
1078.796	50.11835
1079.149	45.10764
1079.502	44.10023
1079.855	34.07601
1080.207	55.12905
1080.56	53.13266
1080.912	75.17336
1081.264	52.12027
1081.617	77.17947
1081.969	-8.01972
1082.321	31.07239
1082.673	36.07994
1083.025	-24.05478
1083.377	305.64723
1083.728	54.11922
1084.08	2.00479
1084.432	16.03696
1084.783	7.01543
1085.135	43.10408
1085.486	28.06177
1085.838	94.22077
1086.189	46.10799
1086.54	5.01145
1086.891	67.16564
1087.242	69.16335
1087.593	24.0552
1087.944	82.17732
1088.295	66.14174
1088.646	108.25295
1088.996	37.0861
1089.347	19.04458
1089.698	28.06432
1090.048	21.05237
1090.398	38.08351
1090.749	1.00228
1091.099	39.09567
1091.449	56.13424
1091.799	26.06268
1092.149	28.06676
1092.499	24.05634
1092.849	57.13926
1093.199	53.12601
1093.548	109.25064
1093.898	9.02166
1094.248	4.00985
1094.597	26.06502
1094.947	46.11876
1095.296	57.13557
1095.645	23.05755
1095.994	33.076
1096.343	52.12607
1096.692	35.09047
1097.041	30.08012
1097.39	40.09577
1097.739	5.0126
1098.088	60.15356
1098.437	58.14906
1098.785	18.04668
1099.134	-1.00254
1099.482	24.06439
1099.83	27.06868
1100.179	72.18401
1100.527	26.06605
1100.875	23.05943
1101.223	61.15718
1101.571	-27.07283
1101.919	10.02599
1102.267	36.09946
1102.615	4.01285
1102.962	1.00321
1103.31	2.00642
1103.658	-8.02567
