Data from N3 R1 sample 9_Subt2__0__15-10-12-075.txt Node

Date: Wed Sep 17 15:10:12 PDT 2025
User: uwsun
Spectrometer: HDX01956
Trigger mode: 0
Integration Time (sec): 5.000000E-1
Scans to average: 1
Nonlinearity correction enabled: true
Boxcar width: 0
Storing dark spectrum: false
XAxis mode: Wavelengths
Number of Pixels in Spectrum: 2068
>>>>>Begin Spectral Data<<<<<
194.03	22.06366
194.578	42.13589
195.127	35.11175
195.676	41.13128
196.225	66.17433
196.773	39.10834
197.321	72.19935
197.87	161.41022
198.418	164.42073
198.966	126.3327
199.513	157.39819
200.061	145.36828
200.609	143.37688
201.156	92.20379
201.704	139.35004
202.251	148.39275
202.798	159.41069
203.345	157.38812
203.892	185.4642
204.438	174.4104
204.985	132.3146
205.532	102.26987
206.078	142.34685
206.624	198.49261
207.17	216.50034
207.716	158.38708
208.262	212.4148
208.808	172.43057
209.354	167.41193
209.899	150.37699
210.445	179.44542
210.99	158.38521
211.535	176.41302
212.08	140.32559
212.625	165.41044
213.17	142.36213
213.715	168.38298
214.259	185.42913
214.804	115.28325
215.348	228.51933
215.892	187.45089
216.436	147.33518
216.98	148.32455
217.524	191.45303
218.068	211.52599
218.612	187.47191
219.155	216.50351
219.698	190.44761
220.242	137.33756
220.785	218.50437
221.328	151.37151
221.871	198.49869
222.414	127.31385
222.956	112.26847
223.499	119.26563
224.041	122.27868
224.583	106.22421
225.126	140.30598
225.668	152.36699
226.21	96.24413
226.751	134.29819
227.293	180.40187
227.835	140.34184
228.376	146.32987
228.918	145.35872
229.459	116.28945
230	171.40684
230.541	160.36474
231.082	180.43327
231.622	125.28202
232.163	114.27483
232.704	214.5264
233.244	141.34806
233.784	131.31611
234.324	218.48148
234.864	119.2686
235.404	122.28653
235.944	141.33005
236.484	160.3959
237.023	128.30074
237.563	169.38907
238.102	146.34316
238.641	135.33753
239.18	132.30904
239.719	159.39451
240.258	124.27811
240.797	162.38358
241.335	166.39927
241.874	203.38862
242.412	181.43477
242.95	149.35818
243.488	108.24272
244.026	193.44272
244.564	168.34242
245.102	213.47407
245.64	123.29287
246.177	134.29645
246.715	186.44091
247.252	109.24753
247.789	163.29921
248.326	164.39192
248.863	187.40618
249.4	147.33125
249.936	213.43819
250.473	179.41866
251.009	137.31238
251.546	215.47157
252.082	102.22094
252.618	168.37229
253.154	152.36352
253.69	161.3579
254.226	166.39396
254.761	171.37981
255.297	122.2663
255.832	147.34786
256.367	184.42673
256.903	190.417
257.438	168.38978
257.972	181.39801
258.507	136.31079
259.042	166.35788
259.576	185.40492
260.111	117.26861
260.645	159.3408
261.179	211.48575
261.713	171.37933
262.247	168.37958
262.781	172.35919
263.315	123.2977
263.849	129.32229
264.382	189.42798
264.915	196.45743
265.449	137.33321
265.982	191.42775
266.515	186.45059
267.048	146.30827
267.58	132.28397
268.113	144.31019
268.646	131.31945
269.178	130.29001
269.71	231.50026
270.243	244.5524
270.775	184.46691
271.307	126.29881
271.838	206.47794
272.37	165.40055
272.902	171.38328
273.433	166.36541
273.965	155.37388
274.496	164.40267
275.027	221.5401
275.558	200.48122
276.089	198.48794
276.62	109.27489
277.15	158.38536
277.681	148.31675
278.211	194.46608
278.741	182.39995
279.272	196.44247
279.802	167.41148
280.332	190.44308
280.861	166.3932
281.391	161.36339
281.921	159.37699
282.45	186.45516
282.98	213.54576
283.509	214.47896
284.038	201.45348
284.567	218.49876
285.096	205.48998
285.625	177.39395
286.153	178.42163
286.682	210.47505
287.21	153.36192
287.739	210.48799
288.267	178.42943
288.795	198.50972
289.323	220.50779
289.851	200.46438
290.378	183.40325
290.906	167.40586
291.433	196.48212
291.961	228.51135
292.488	158.38923
293.015	168.39409
293.542	250.62918
294.069	228.55503
294.596	209.5024
295.122	248.58196
295.649	173.3753
296.175	173.41255
296.702	257.61401
297.228	189.44949
297.754	229.50545
298.28	236.53277
298.806	171.40903
299.332	241.5286
299.857	202.45341
300.383	223.55086
300.908	238.57416
301.433	241.57931
301.958	216.48722
302.483	177.43467
303.008	281.68031
303.533	218.55298
304.058	206.4732
304.582	259.59767
305.107	165.42648
305.631	250.55399
306.155	238.54386
306.679	206.4785
307.203	259.58743
307.727	225.52439
308.251	202.49229
308.775	276.65499
309.298	228.54067
309.822	208.51522
310.345	275.6409
310.868	274.64447
311.391	223.54052
311.914	261.63926
312.437	298.66062
312.96	288.65969
313.482	197.45787
314.005	221.54271
314.527	204.52334
315.049	277.68372
315.571	269.5915
316.093	291.70081
316.615	234.55147
317.137	263.5603
317.659	322.75351
318.18	209.49151
318.702	319.7232
319.223	254.50663
319.744	252.55633
320.265	245.58624
320.786	306.74264
321.307	278.66963
321.828	291.63852
322.348	306.69866
322.869	329.75766
323.389	330.62427
323.909	295.65493
324.43	312.7221
324.95	311.69015
325.47	313.7532
325.989	336.76961
326.509	379.81196
327.029	324.71646
327.548	319.69995
328.067	381.88578
328.587	371.89375
329.106	333.7239
329.625	352.88263
330.144	383.85238
330.662	410.9168
331.181	394.88829
331.7	370.8243
332.218	361.75235
332.736	399.89129
333.255	351.79702
333.773	366.8299
334.291	385.92325
334.808	435.9283
335.326	391.83875
335.844	456.01131
336.361	503.21441
336.879	441.98386
337.396	470.07781
337.913	467.01447
338.43	468.99286
338.947	462.03993
339.464	413.8477
339.981	486.07976
340.497	480.10825
341.014	451.0385
341.53	443.94537
342.046	516.20518
342.562	526.22136
343.078	469.03869
343.594	489.08936
344.11	497.11498
344.626	510.20511
345.141	521.10893
345.657	498.05322
346.172	526.18231
346.687	513.0966
347.202	577.21287
347.717	575.26379
348.232	567.30657
348.747	570.21366
349.261	539.09652
349.776	588.28618
350.29	594.37076
350.805	587.33604
351.319	554.19078
351.833	570.2105
352.347	586.27316
352.861	601.29333
353.374	566.1858
353.888	594.337
354.401	584.22033
354.915	592.22778
355.428	659.49343
355.941	623.32293
356.454	620.25444
356.967	573.23089
357.48	608.25821
357.993	651.45557
358.505	702.53389
359.018	678.5026
359.53	663.46903
360.042	700.40298
360.554	748.6331
361.066	676.48636
361.578	685.35864
362.09	686.47047
362.602	714.42053
363.113	764.59346
363.625	740.49214
364.136	698.36996
364.647	751.58329
365.158	698.45824
365.669	791.66405
366.18	808.66669
366.691	757.46114
367.201	731.56399
367.712	789.58779
368.222	841.68325
368.733	768.46788
369.243	847.63904
369.753	902.78013
370.263	886.84977
370.773	769.6581
371.282	889.83187
371.792	918.81766
372.301	876.83049
372.811	895.04128
373.32	965.75058
373.829	898.81775
374.338	969.80683
374.847	944.84834
375.356	966.92527
375.865	1086.88959
376.373	1072.00036
376.882	1150.38587
377.39	1181.29805
377.898	1142.29066
378.407	1274.25626
378.915	1320.20962
379.423	1356.4182
379.93	1392.45986
380.438	1423.59591
380.946	1516.5962
381.453	1601.78982
381.96	1649.82029
382.468	1708.81805
382.975	1846.10012
383.482	1906.78366
383.989	1958.4078
384.495	2066.0522
385.002	2125.64504
385.509	2247.24994
386.015	2431.61868
386.521	2498.10673
387.028	2623.11929
387.534	2672.82539
388.04	2751.45082
388.546	2751.98159
389.051	2958.95966
389.557	3233.20205
390.063	3349.02579
390.568	3566.35767
391.073	3626.83459
391.578	3805.38435
392.084	4007.82151
392.589	4163.42532
393.093	4348.98671
393.598	4786.46479
394.103	5245.4453
394.607	5776.25473
395.112	6089.26908
395.616	6563.04329
396.12	7007.67353
396.624	7847.13784
397.128	8515.83662
397.632	9463.40433
398.136	10341.85678
398.639	10980.15536
399.143	12101.19006
399.646	13793.93033
400.15	15265.30613
400.653	16847.76385
401.156	19046.90392
401.659	21961.04937
402.162	26851.14618
402.664	35803.47433
403.167	50404.30454
403.67	61788.84936
404.172	63919.58413
404.674	63858.43483
405.176	63738.15102
405.678	63977.72923
406.18	64011.81569
406.682	63863.44694
407.184	63926.60148
407.686	63841.39382
408.187	64025.8516
408.688	63892.51763
409.19	63833.37461
409.691	51763.86099
410.192	43591.80877
410.693	37701.6637
411.194	34191.8218
411.694	32469.00073
412.195	29823.26017
412.696	27050.43244
413.196	25131.52006
413.696	24153.34867
414.196	24267.17157
414.696	23696.86297
415.196	22760.98789
415.696	20760.02102
416.196	16945.39412
416.695	13253.94712
417.195	11247.2021
417.694	10649.28332
418.194	9953.78743
418.693	9318.07192
419.192	8993.47784
419.691	8731.03051
420.19	8575.90127
420.688	8289.65236
421.187	7999.81192
421.685	7560.90875
422.184	6790.83659
422.682	5864.56555
423.18	5128.26262
423.678	4444.60021
424.176	4155.73656
424.674	3872.70293
425.172	3762.09412
425.669	3533.44799
426.167	3319.1404
426.664	3083.04594
427.161	2843.13093
427.659	2557.38425
428.156	2390.70963
428.652	2243.46034
429.149	2202.24783
429.646	2137.8312
430.143	2008.07303
430.639	1883.93728
431.135	1737.03366
431.632	1689.64776
432.128	1606.74989
432.624	1519.91845
433.12	1455.42455
433.616	1434.2838
434.111	1369.45334
434.607	1284.37256
435.103	1232.95653
435.598	1252.96135
436.093	1146.11575
436.588	1150.03581
437.083	1005.83623
437.578	1062.98888
438.073	1057.17185
438.568	955.96885
439.062	958.67678
439.557	822.64404
440.051	862.63276
440.546	811.57376
441.04	850.74087
441.534	793.73395
442.028	807.67393
442.522	738.54735
443.015	700.30541
443.509	723.5422
444.002	733.5703
444.496	696.31527
444.989	693.48262
445.482	705.53818
445.975	695.40995
446.468	678.28432
446.961	704.32977
447.454	628.24976
447.947	666.40729
448.439	683.48133
448.931	661.33966
449.424	692.5597
449.916	674.45528
450.408	608.2408
450.9	560.23155
451.392	560.2917
451.884	598.22864
452.375	573.28205
452.867	537.09146
453.358	539.11794
453.849	584.11296
454.341	553.12557
454.832	533.03897
455.323	601.34588
455.814	528.09484
456.304	482.02199
456.795	507.05427
457.285	553.09388
457.776	552.13348
458.266	485.05498
458.756	464.00815
459.247	451.99785
459.737	532.16989
460.226	508.05377
460.716	462.01699
461.206	439.97333
461.695	411.94796
462.185	432.95164
462.674	435.92025
463.163	419.87244
463.653	450.88049
464.142	434.97605
464.63	398.90097
465.119	368.80354
465.608	434.94201
466.096	414.8323
466.585	328.70863
467.073	386.85139
467.561	401.89723
468.05	397.85162
468.538	340.78471
469.026	320.71913
469.513	363.71648
470.001	382.82033
470.489	381.84793
470.976	374.81906
471.463	339.79779
471.951	325.76515
472.438	301.67213
472.925	369.81476
473.412	286.66194
473.899	343.74088
474.385	296.69024
474.872	305.67543
475.359	343.7962
475.845	262.51894
476.331	299.60374
476.817	265.61784
477.303	344.75305
477.789	239.54779
478.275	245.5849
478.761	211.48478
479.247	299.63311
479.732	263.62931
480.218	263.66178
480.703	212.50545
481.188	276.56997
481.673	271.59564
482.158	251.52055
482.643	242.59548
483.128	279.62147
483.612	308.69727
484.097	219.5102
484.581	187.42086
485.066	238.56177
485.55	221.47226
486.034	234.48844
486.518	272.62329
487.002	181.42832
487.486	213.50013
487.969	169.4007
488.453	171.41496
488.936	164.36085
489.42	204.43735
489.903	131.32028
490.386	124.25274
490.869	224.47379
491.352	147.34652
491.835	166.33157
492.318	154.33885
492.8	148.3007
493.283	173.43081
493.765	160.38353
494.247	163.37076
494.73	152.32967
495.212	104.24359
495.694	152.35112
496.175	177.4148
496.657	187.43068
497.139	159.26635
497.62	135.31922
498.102	150.36598
498.583	75.18289
499.064	100.22087
499.545	126.28283
500.026	155.34356
500.507	104.2368
500.988	173.42202
501.469	101.24877
501.949	160.3863
502.43	137.32458
502.91	203.41762
503.39	105.2571
503.87	139.32294
504.35	144.33039
504.83	122.26302
505.31	95.22673
505.79	107.24988
506.269	88.20037
506.749	111.25054
507.228	111.2582
507.707	131.28782
508.187	157.36736
508.666	129.31469
509.145	107.24742
509.623	70.16325
510.102	139.33033
510.581	153.36178
511.059	99.24672
511.538	116.29499
512.016	142.33428
512.494	124.29361
512.972	95.22551
513.45	98.22656
513.928	89.21476
514.406	82.19985
514.884	146.3697
515.361	125.29489
515.839	99.2261
516.316	146.3485
516.793	105.26214
517.27	47.11307
517.747	107.27158
518.224	93.21257
518.701	88.19322
519.178	97.24059
519.654	113.26441
520.131	58.14341
520.607	98.23715
521.083	62.14026
521.56	125.29042
522.036	100.21578
522.512	124.30198
522.987	129.30633
523.463	87.20485
523.939	143.34897
524.414	124.27982
524.89	159.37174
525.365	122.27193
525.84	76.1819
526.315	102.24478
526.79	95.21267
527.265	52.12031
527.74	36.08761
528.215	54.12593
528.689	86.1874
529.164	83.17706
529.638	49.1241
530.112	50.11766
530.587	64.13691
531.061	123.29377
531.534	73.17522
532.008	103.24817
532.482	129.29224
532.956	84.21286
533.429	142.34181
533.903	106.23
534.376	98.21491
534.849	76.17403
535.322	94.22008
535.795	44.1064
536.268	80.19272
536.741	35.08337
537.213	55.12647
537.686	80.19476
538.158	147.32854
538.631	90.21648
539.103	47.10647
539.575	76.15603
540.047	78.16946
540.519	137.32219
540.991	44.10748
541.463	54.12989
541.934	61.1378
542.406	75.17961
542.877	47.10639
543.348	76.18287
543.82	91.21975
544.291	87.20205
544.762	102.24086
545.233	75.18941
545.703	64.14248
546.174	141.32189
546.645	72.17384
547.115	97.23256
547.585	67.154
548.056	146.35356
548.526	110.25895
548.996	83.19763
549.466	115.27666
549.935	101.23975
550.405	53.11694
550.875	122.28664
551.344	91.21585
551.814	109.24783
552.283	84.18304
552.752	120.27864
553.221	146.31787
553.69	147.32759
554.159	143.35105
554.628	123.27638
555.096	123.30964
555.565	138.30122
556.033	159.37291
556.502	112.26796
556.97	101.22368
557.438	90.21047
557.906	71.1675
558.374	103.23751
558.842	76.18183
559.31	112.24892
559.777	116.28102
560.245	71.16287
560.712	69.15809
561.18	126.27608
561.647	77.17067
562.114	85.19436
562.581	94.23004
563.048	99.22555
563.514	88.2199
563.981	60.13778
564.448	125.2796
564.914	73.16941
565.381	103.234
565.847	65.1515
566.313	91.21017
566.779	83.18642
567.245	34.07926
567.711	110.26106
568.176	50.11274
568.642	90.22539
569.108	93.22729
569.573	93.21411
570.038	82.17132
570.504	96.21593
570.969	53.13146
571.434	138.3025
571.899	94.22163
572.363	137.31011
572.828	147.33288
573.293	109.24793
573.757	148.33834
574.222	109.24261
574.686	116.26455
575.15	179.42178
575.614	139.32397
576.078	99.23101
576.542	144.32349
577.006	121.27088
577.469	136.32984
577.933	150.3367
578.396	82.19386
578.86	123.28645
579.323	207.48567
579.786	174.36997
580.249	214.4904
580.712	175.41652
581.175	124.3021
581.637	101.22909
582.1	161.34464
582.563	117.24656
583.025	164.39162
583.487	148.30042
583.95	123.26114
584.412	202.41322
584.874	177.42258
585.336	143.33434
585.797	204.43206
586.259	134.30954
586.721	190.43523
587.182	171.38628
587.643	199.44071
588.105	149.34645
588.566	175.35742
589.027	227.53924
589.488	177.39787
589.949	249.58374
590.41	256.48736
590.87	244.53957
591.331	305.63508
591.791	261.58186
592.252	261.58547
592.712	263.60642
593.172	283.61678
593.632	356.74605
594.092	323.68303
594.552	340.69582
595.011	338.73273
595.471	373.79462
595.931	418.8779
596.39	413.92598
596.849	449.9673
597.308	426.83905
597.768	501.18952
598.227	515.12889
598.685	546.12315
599.144	612.28797
599.603	568.19524
600.062	631.16806
600.52	710.3942
600.978	681.4142
601.437	717.41492
601.895	791.43431
602.353	827.52788
602.811	914.70619
603.269	897.7872
603.727	948.88762
604.184	1013.86762
604.642	1048.09603
605.099	1119.06934
605.557	1137.19764
606.014	1296.06597
606.471	1297.51238
606.928	1368.22853
607.385	1439.68952
607.842	1489.44393
608.299	1578.5933
608.755	1557.7
609.212	1642.48747
609.668	1694.56873
610.125	1747.86023
610.581	1854.83289
611.037	1862.65759
611.493	1883.83358
611.949	1911.04038
612.405	1997.36829
612.861	1997.84274
613.316	2088.07986
613.772	2102.88282
614.227	2159.13667
614.683	2132.56416
615.138	2196.03383
615.593	2172.97385
616.048	2165.90493
616.503	2169.18573
616.958	2169.34405
617.412	2188.08906
617.867	2193.8171
618.321	2155.46094
618.776	2134.72148
619.23	2087.97003
619.684	2100.75993
620.138	2021.82811
620.592	2065.1171
621.046	2103.01853
621.5	1982.02557
621.954	1902.61904
622.407	1947.64414
622.861	1913.01463
623.314	1885.70015
623.768	1918.89983
624.221	1742.12384
624.674	1794.71923
625.127	1760.71715
625.58	1751.57623
626.033	1755.48144
626.485	1605.68943
626.938	1596.66487
627.39	1676.66994
627.843	1583.53533
628.295	1551.50596
628.747	1574.64777
629.199	1526.43982
629.651	1474.41314
630.103	1529.46736
630.555	1406.09251
631.006	1394.37344
631.458	1373.38802
631.909	1355.21762
632.361	1308.25359
632.812	1419.38602
633.263	1291.06435
633.714	1345.04845
634.165	1355.42444
634.616	1312.32983
635.067	1345.15739
635.518	1350.38285
635.968	1332.84236
636.419	1297.0869
636.869	1355.38493
637.319	1347.3144
637.769	1358.23178
638.219	1375.39527
638.669	1326.36206
639.119	1280.32536
639.569	1395.47091
640.019	1421.37911
640.468	1417.28142
640.918	1454.49731
641.367	1454.31198
641.816	1517.34697
642.265	1590.57882
642.714	1606.52998
643.163	1647.59597
643.612	1658.82906
644.061	1588.28328
644.51	1648.56731
644.958	1721.48879
645.406	1663.73344
645.855	1715.84128
646.303	1793.70893
646.751	1784.71021
647.199	1792.63351
647.647	1829.75599
648.095	1844.6916
648.543	1866.27113
648.99	1918.96279
649.438	1910.79129
649.885	1896.11189
650.333	1947.15404
650.78	1925.99343
651.227	1887.02022
651.674	1899.73227
652.121	1921.05821
652.568	1996.10567
653.015	1866.04875
653.461	1877.88605
653.908	1846.71903
654.354	1828.85446
654.801	1797.76941
655.247	1819.47623
655.693	1706.12041
656.139	1768.81493
656.585	1784.83112
657.031	1678.68219
657.477	1744.46486
657.922	1648.53049
658.368	1696.86988
658.813	1625.51148
659.259	1709.82971
659.704	1687.72321
660.149	1580.52267
660.594	1579.62558
661.039	1529.43709
661.484	1573.61127
661.929	1507.49955
662.373	1546.79802
662.818	1501.69234
663.262	1541.65534
663.707	1490.78583
664.151	1510.65024
664.595	1510.62283
665.039	1515.72032
665.483	1490.78447
665.927	1488.49271
666.371	1429.44311
666.814	1497.5438
667.258	1477.57525
667.701	1439.14533
668.145	1489.70053
668.588	1461.65353
669.031	1439.44986
669.474	1481.56075
669.917	1533.30754
670.36	1506.7308
670.803	1525.63313
671.245	1481.0574
671.688	1526.6577
672.13	1505.38768
672.573	1527.79614
673.015	1530.63003
673.457	1524.2782
673.899	1596.70667
674.341	1557.65206
674.783	1573.64963
675.225	1536.71006
675.666	1625.78191
676.108	1543.2705
676.549	1589.55931
676.991	1570.34076
677.432	1581.03766
677.873	1567.46866
678.314	1606.65272
678.755	1660.84299
679.196	1564.4702
679.637	1586.65234
680.078	1584.5633
680.518	1565.48374
680.959	1581.6275
681.399	1541.73082
681.839	1631.74804
682.28	1596.80637
682.72	1648.54079
683.16	1601.8261
683.6	1683.5496
684.039	1689.21929
684.479	1593.77724
684.919	1685.67914
685.358	1642.85502
685.798	1687.08931
686.237	1676.71808
686.676	1655.50371
687.115	1780.75794
687.554	1717.76903
687.993	1803.5283
688.432	1763.61759
688.871	1864.70812
689.309	1781.83028
689.748	1863.33537
690.186	1832.76138
690.625	1871.81027
691.063	1822.83685
691.501	1866.02705
691.939	1995.21317
692.377	1924.98074
692.815	2064.11829
693.253	1895.87712
693.69	2012.59596
694.128	1974.0219
694.565	2025.9403
695.003	2058.32977
695.44	2150.00972
695.877	2104.95526
696.314	2111.4727
696.751	2230.83093
697.188	2183.92224
697.625	2196.75811
698.061	2249.10426
698.498	2243.03364
698.934	2303.11536
699.371	2360.06037
699.807	2385.08078
700.243	2341.18055
700.679	2333.78164
701.115	2470.04109
701.551	2483.02122
701.987	2460.70766
702.422	2558.18925
702.858	2498.17017
703.294	2637.98373
703.729	2613.302
704.164	2603.19228
704.599	2713.84673
705.035	2755.8698
705.47	2757.31587
705.904	2735.03902
706.339	2856.99222
706.774	2871.10814
707.209	3014.06969
707.643	2895.23532
708.078	2982.33689
708.512	3081.54129
708.946	3047.16399
709.38	3172.17559
709.814	3171.8707
710.248	3239.35965
710.682	3356.21821
711.116	3332.31936
711.549	3301.64721
711.983	3407.94121
712.416	3530.08997
712.85	3452.39885
713.283	3521.05011
713.716	3613.36113
714.149	3686.85778
714.582	3643.68559
715.015	3706.25228
715.448	3794.43362
715.881	3832.31315
716.313	4024.77443
716.746	3961.90114
717.178	3946.02064
717.61	4134.37682
718.043	4114.13864
718.475	4232.954
718.907	4213.17781
719.339	4285.43881
719.77	4399.77225
720.202	4408.10552
720.634	4475.92053
721.065	4560.55098
721.497	4640.80113
721.928	4607.80141
722.359	4729.71569
722.79	4872.49825
723.221	4874.77242
723.652	4879.96549
724.083	5017.95867
724.514	5103.06077
724.945	5132.17634
725.375	5226.12169
725.806	5261.49033
726.236	5294.77707
726.666	5508.02177
727.096	5521.29049
727.526	5626.67945
727.956	5821.67272
728.386	5740.19587
728.816	5713.57607
729.246	5843.21479
729.675	5954.05999
730.105	5937.08417
730.534	6103.68113
730.964	6146.1492
731.393	6267.97065
731.822	6365.27314
732.251	6320.23064
732.68	6500.5365
733.109	6549.95789
733.537	6614.89391
733.966	6731.02032
734.395	6866.52282
734.823	6839.27656
735.251	6821.74255
735.68	6906.90153
736.108	6907.99332
736.536	6882.58454
736.964	7151.56912
737.392	7067.99562
737.82	7100.71478
738.247	7180.7187
738.675	7190.64273
739.102	7273.00967
739.53	7138.2111
739.957	7141.254
740.384	7305.80265
740.811	7278.98589
741.238	7365.94083
741.665	7331.70393
742.092	7061.49575
742.519	7138.96841
742.945	7149.84305
743.372	7292.99782
743.798	7182.16226
744.225	7159.67146
744.651	7223.01244
745.077	7167.98597
745.503	6999.76163
745.929	7214.83015
746.355	7023.80759
746.781	6984.86882
747.207	6855.67591
747.632	6788.97012
748.058	6847.0654
748.483	6902.47916
748.908	6799.97939
749.334	6732.91686
749.759	6717.69883
750.184	6660.7781
750.609	6730.85874
751.033	6550.55912
751.458	6651.29487
751.883	6492.92202
752.307	6460.63936
752.732	6325.28904
753.156	6359.96282
753.58	6327.66471
754.005	6149.16803
754.429	6158.77494
754.853	6104.14798
755.277	6011.83124
755.7	5931.18143
756.124	5925.20141
756.548	5751.88569
756.971	5774.11625
757.394	5771.48631
757.818	5772.57997
758.241	5659.50931
758.664	5508.5277
759.087	5510.69758
759.51	5467.34248
759.933	5487.20548
760.356	5364.80631
760.778	5276.42812
761.201	5236.30215
761.623	5120.24381
762.046	5064.13951
762.468	5058.32816
762.89	4968.52374
763.312	4982.56651
763.734	4838.52641
764.156	4830.71575
764.578	4773.12772
765	4671.69456
765.421	4556.15571
765.843	4400.43477
766.264	4400.60384
766.686	4299.01788
767.107	4180.9071
767.528	4263.36026
767.949	4081.31123
768.37	4132.12166
768.791	3878.94808
769.212	3866.36255
769.632	3853.82325
770.053	3759.66776
770.473	3703.05506
770.894	3637.2167
771.314	3595.93318
771.734	3470.90492
772.154	3439.54688
772.575	3396.84419
772.994	3367.74598
773.414	3349.05405
773.834	3267.39464
774.254	3210.26129
774.673	3138.3073
775.093	3108.42741
775.512	2963.37071
775.931	2932.54393
776.351	2875.43358
776.77	2821.32982
777.189	2667.10367
777.607	2682.54216
778.026	2624.37536
778.445	2660.5118
778.864	2556.44508
779.282	2494.07414
779.701	2497.37218
780.119	2442.42455
780.537	2275.23597
780.955	2305.32995
781.373	2260.18754
781.791	2228.77504
782.209	2239.71978
782.627	2178.50167
783.045	2098.70659
783.462	2112.28355
783.88	1996.28155
784.297	1929.08143
784.715	1980.24786
785.132	1899.84795
785.549	1865.99369
785.966	1863.02629
786.383	1799.90107
786.8	1799.62725
787.217	1715.69511
787.633	1650.84812
788.05	1641.50716
788.466	1597.47346
788.883	1621.90276
789.299	1542.50032
789.715	1524.58928
790.131	1485.6149
790.547	1454.58451
790.963	1422.52737
791.379	1432.61696
791.795	1375.16868
792.21	1391.27443
792.626	1288.20256
793.041	1255.30445
793.457	1264.30428
793.872	1147.00795
794.287	1229.2307
794.702	1156.12474
795.117	1159.22112
795.532	1150.24446
795.947	1051.92722
796.362	1051.88962
796.776	1120.93155
797.191	1035.99485
797.605	992.85937
798.02	903.7717
798.434	999.71173
798.848	1017.01381
799.262	941.88016
799.676	947.8468
800.09	882.76338
800.504	897.74586
800.918	771.45123
801.331	755.62998
801.745	810.50126
802.158	789.62419
802.572	763.53963
802.985	711.42735
803.398	734.45427
803.811	655.41331
804.224	672.40324
804.637	650.32484
805.05	617.20589
805.462	672.39394
805.875	572.30841
806.288	524.1175
806.7	559.21365
807.112	584.14857
807.525	524.11363
807.937	531.15669
808.349	508.11423
808.761	540.16861
809.173	497.06739
809.584	506.09445
809.996	446.97423
810.408	452.06209
810.819	411.86758
811.231	470.13313
811.642	458.01786
812.053	473.02578
812.464	385.82161
812.875	427.99112
813.286	435.01909
813.697	377.76962
814.108	377.82859
814.519	423.84471
814.929	341.79406
815.34	330.7221
815.75	348.81817
816.16	301.68073
816.571	304.72753
816.981	326.69104
817.391	262.57889
817.801	278.64241
818.211	312.67782
818.62	300.66755
819.03	265.59933
819.44	199.48072
819.849	215.50167
820.259	215.51014
820.668	237.54604
821.077	240.56187
821.486	215.47614
821.895	216.49061
822.304	270.66534
822.713	208.4567
823.122	182.42693
823.531	114.25295
823.939	216.49438
824.348	189.42815
824.756	197.46058
825.164	197.46311
825.573	198.46736
825.981	186.43085
826.389	186.43887
826.797	215.51447
827.205	190.41121
827.612	144.33463
828.02	77.17216
828.428	163.39243
828.835	143.36166
829.243	145.3238
829.65	154.36591
830.057	153.34872
830.464	151.3529
830.871	144.32761
831.278	106.24447
831.685	111.2334
832.092	108.24929
832.499	122.25353
832.905	106.25457
833.312	102.21632
833.718	171.40512
834.124	153.32979
834.531	109.25944
834.937	164.39999
835.343	143.32303
835.749	76.16695
836.155	128.31997
836.561	101.23762
836.966	110.25501
837.372	57.13915
837.777	93.22272
838.183	145.30072
838.588	118.28113
838.993	127.29367
839.399	125.29191
839.804	73.17121
840.209	115.28325
840.613	68.14415
841.018	87.20994
841.423	37.09204
841.828	102.24813
842.232	61.14257
842.637	132.29824
843.041	70.17378
843.445	64.15318
843.849	81.19317
844.253	127.28466
844.657	49.12003
845.061	144.31352
845.465	90.20782
845.869	77.17089
846.272	83.19467
846.676	21.04821
847.079	83.20444
847.483	81.19302
847.886	73.1684
848.289	68.17774
848.692	45.10924
849.095	87.19853
849.498	62.14879
849.901	59.12832
850.304	81.18469
850.707	48.11768
851.109	54.13087
851.512	57.1352
851.914	44.10804
852.316	107.26161
852.718	71.18148
853.121	36.08528
853.523	13.02917
853.925	57.14529
854.326	46.11186
854.728	79.19602
855.13	30.07589
855.531	23.05331
855.933	65.14791
856.334	60.1453
856.736	89.19159
857.137	66.14839
857.538	32.07851
857.939	70.16869
858.34	50.11587
858.741	57.14329
859.142	31.07143
859.542	36.09284
859.943	61.14564
860.343	42.10118
860.744	55.12895
861.144	125.29214
861.544	44.10346
861.945	21.05184
862.345	61.14245
862.745	77.18496
863.145	0
863.544	44.10776
863.944	51.11563
864.344	10.02376
864.743	52.12394
865.143	72.17959
865.542	-12.02666
865.941	46.11022
866.34	70.15816
866.74	44.11462
867.139	70.16299
867.537	-9.02209
867.936	83.19177
868.335	60.14656
868.734	54.13338
869.132	-2.00444
869.531	62.14185
869.929	66.14455
870.327	41.09462
870.726	50.11867
871.124	38.08463
871.522	46.11266
871.92	50.11871
872.318	60.13965
872.715	60.14031
873.113	38.08869
873.511	38.09102
873.908	17.0424
874.306	48.11611
874.703	21.05033
875.1	42.10213
875.497	93.21137
875.894	94.2243
876.291	49.116
876.688	22.05514
877.085	72.16387
877.482	39.09415
877.878	64.1499
878.275	19.04695
878.671	37.07629
879.068	66.15246
879.464	88.20272
879.86	31.07063
880.256	58.13505
880.652	30.0738
881.048	60.14108
881.444	-2.00454
881.84	62.15128
882.236	22.05348
882.631	33.07864
883.027	53.1226
883.422	7.01727
883.817	53.12939
884.213	30.07456
884.608	87.20875
885.003	-16.0372
885.398	32.0775
885.793	8.0194
886.188	-8.01932
886.582	28.0688
886.977	49.11073
887.371	12.02921
887.766	47.11337
888.16	-11.02623
888.554	34.08044
888.949	88.21102
889.343	59.1374
889.737	0
890.131	35.08481
890.525	88.21711
890.918	27.06565
891.312	7.01603
891.706	36.0912
892.099	35.08573
892.492	88.17814
892.886	10.02363
893.279	40.09811
893.672	40.09909
894.065	55.13262
894.458	5.01207
894.851	72.16745
895.244	-14.03485
895.637	59.13675
896.029	58.13707
896.422	2.00468
896.814	4.00961
897.206	73.16867
897.599	54.12811
897.991	70.16312
898.383	36.08204
898.775	124.26711
899.167	70.15848
899.559	24.05821
899.951	58.1295
900.342	1.00245
900.734	79.19258
901.125	4.01014
901.517	78.18348
901.908	34.07717
902.299	11.02614
902.69	51.11657
903.082	66.15301
903.473	78.18147
903.863	7.01724
904.254	78.1748
904.645	57.13421
905.036	72.17048
905.426	23.04981
905.817	22.05177
906.207	-16.03661
906.597	57.12908
906.987	4.00999
907.378	57.13952
907.768	1.00259
908.158	13.03059
908.547	46.11649
908.937	12.02948
909.327	39.0909
909.717	47.1129
910.106	25.0576
910.495	38.09029
910.885	120.28973
911.274	41.09856
911.663	46.11136
912.052	29.06815
912.441	51.12599
912.83	-4.00881
913.219	33.08322
913.608	38.09005
913.997	22.05394
914.385	79.17999
914.774	58.13505
915.162	59.13637
915.55	68.15596
915.939	42.10313
916.327	-6.01443
916.715	69.17171
917.103	52.12055
917.491	46.10901
917.878	63.14799
918.266	14.03507
918.654	68.16832
919.041	48.12272
919.429	27.06134
919.816	6.01474
920.203	44.1037
920.591	50.11949
920.978	66.15471
921.365	48.12216
921.752	-2.00454
922.139	81.16656
922.525	51.11807
922.912	94.21723
923.299	60.14339
923.685	10.0251
924.072	-55.12069
924.458	71.16932
924.844	36.08593
925.231	19.04217
925.617	31.07714
926.003	33.08119
926.389	34.08274
926.774	16.03911
927.16	43.10255
927.546	59.14746
927.931	38.09071
928.317	22.04835
928.702	38.08586
929.088	63.14603
929.473	43.10646
929.858	70.16517
930.243	54.12574
930.628	54.12757
931.013	37.08854
931.398	-27.0592
931.783	9.02276
932.167	83.19596
932.552	21.05069
932.937	28.06661
933.321	71.17236
933.705	28.06735
934.09	3.00719
934.474	22.04979
934.858	58.14525
935.242	8.01783
935.626	18.04492
936.009	48.12478
936.393	107.26345
936.777	34.08472
937.16	36.09139
937.544	-15.03368
937.927	27.06668
938.311	85.19616
938.694	53.13571
939.077	4.00927
939.46	11.0255
939.843	57.10975
940.226	5.01238
940.609	112.24613
940.991	5.01227
941.374	29.06884
941.757	47.11092
942.139	56.12058
942.522	45.1012
942.904	45.10389
943.286	50.12177
943.668	97.24305
944.05	14.03339
944.432	-27.06466
944.814	37.08675
945.196	4.00953
945.578	43.10002
945.959	-14.03145
946.341	22.05102
946.722	24.05385
947.104	69.15758
947.485	38.08488
947.866	51.12479
948.247	43.10568
948.628	17.03919
949.009	13.03229
949.39	-9.02161
949.771	-10.02194
950.152	28.06638
950.532	58.14115
950.913	86.19708
951.293	43.1136
951.674	69.15949
952.054	72.17436
952.434	60.14317
952.814	-12.02733
953.194	24.05997
953.574	37.08722
953.954	-13.02959
954.334	71.1712
954.714	2.00475
955.093	51.12027
955.473	40.09756
955.853	31.07768
956.232	42.11135
956.611	0
956.99	14.03424
957.37	6.01473
957.749	43.09666
958.128	26.06375
958.506	11.02777
958.885	26.06313
959.264	72.17121
959.643	75.16347
960.021	85.2027
960.4	-12.02627
960.778	16.03745
961.156	-5.01212
961.535	27.05977
961.913	57.12829
962.291	35.08798
962.669	1.00247
963.047	38.09417
963.424	43.10739
963.802	4.00956
964.18	9.02167
964.557	75.16319
964.935	94.211
965.312	1.00255
965.69	17.04073
966.067	31.07174
966.444	-21.04931
966.821	25.06246
967.198	8.01851
967.575	5.0118
967.952	100.22234
968.329	64.15008
968.705	48.09877
969.082	98.24374
969.458	41.09597
969.835	37.08658
970.211	68.16956
970.587	72.17193
970.963	27.06631
971.339	8.02041
971.715	44.10595
972.091	66.15531
972.467	16.03796
972.843	75.18036
973.219	27.06166
973.594	-26.06652
973.97	75.16499
974.345	31.07174
974.721	-19.04395
975.096	32.07521
975.471	68.15308
975.846	40.09148
976.221	36.08836
976.596	71.16555
976.971	103.24365
977.346	43.09491
977.72	4.00983
978.095	39.09719
978.469	32.07301
978.844	59.14129
979.218	79.18362
979.593	54.1231
979.967	1.00231
980.341	52.11499
980.715	55.13352
981.089	7.01696
981.463	52.11403
981.837	49.1165
982.21	-24.05259
982.584	12.02814
982.957	18.04377
983.331	37.08249
983.704	103.24384
984.078	32.0758
984.451	49.11488
984.824	34.08029
985.197	4.00924
985.57	18.04287
985.943	29.06759
986.316	50.11564
986.688	69.15841
987.061	57.12813
987.434	46.11731
987.806	-15.03474
988.179	30.06767
988.551	50.12131
988.923	36.08472
989.295	59.14043
989.667	37.08637
990.039	71.17094
990.411	-14.03065
990.783	24.05223
991.155	32.07436
991.527	49.11322
991.898	48.11559
992.27	65.15566
992.641	27.06486
993.012	22.04835
993.384	3.00687
993.755	55.13567
994.126	50.11638
994.497	36.08504
994.868	27.0587
995.239	35.08122
995.61	55.13307
995.98	-2.0047
996.351	11.02656
996.722	70.15661
997.092	32.07325
997.462	8.01828
997.833	48.10774
998.203	2.00461
998.573	61.14625
998.943	65.14623
999.313	42.09722
999.683	28.06491
1000.053	41.08788
1000.423	45.10397
1000.792	-14.03491
1001.162	-11.02607
1001.531	57.13494
1001.901	17.0407
1002.27	-11.02319
1002.639	35.08551
1003.009	56.12689
1003.378	33.08161
1003.747	18.04062
1004.116	20.04598
1004.485	71.16156
1004.853	-15.0364
1005.222	-1.0024
1005.591	37.08389
1005.959	41.08875
1006.328	15.03258
1006.696	-21.04895
1007.064	-2.00483
1007.433	12.02873
1007.801	28.06489
1008.169	13.03138
1008.537	47.09896
1008.905	33.07433
1009.273	35.08241
1009.64	93.21368
1010.008	18.0412
1010.375	38.08677
1010.743	36.07678
1011.11	95.21775
1011.478	59.14097
1011.845	13.02923
1012.212	58.12666
1012.579	52.1226
1012.946	11.0249
1013.313	78.17465
1013.68	41.08735
1014.047	12.02756
1014.414	-25.05719
1014.78	44.10555
1015.147	35.08013
1015.513	75.17212
1015.88	60.14596
1016.246	30.07024
1016.612	53.11444
1016.978	83.19512
1017.344	52.12351
1017.71	64.14784
1018.076	1.00225
1018.442	55.13647
1018.808	36.08754
1019.174	-30.07284
1019.539	0
1019.905	7.01602
1020.27	-4.00954
1020.636	33.07476
1021.001	25.05776
1021.366	75.17246
1021.731	85.21214
1022.096	-27.06709
1022.461	29.0661
1022.826	107.2426
1023.191	30.07616
1023.556	1.00225
1023.92	10.02349
1024.285	29.06722
1024.649	15.03519
1025.014	9.02126
1025.378	26.06351
1025.742	22.05215
1026.107	94.1997
1026.471	53.11708
1026.835	55.13061
1027.199	5.01165
1027.562	26.05726
1027.926	62.14379
1028.29	28.06842
1028.654	29.06356
1029.017	83.1949
1029.381	14.03235
1029.744	-7.01736
1030.107	42.09505
1030.471	79.181
1030.834	-3.00646
1031.197	17.03936
1031.56	28.06298
1031.923	31.07756
1032.286	58.12976
1032.648	22.04977
1033.011	70.15512
1033.374	20.04458
1033.736	-14.03593
1034.099	3.00707
1034.461	33.08107
1034.823	26.06273
1035.185	39.09343
1035.548	54.12643
1035.91	36.08247
1036.272	65.14143
1036.634	63.14707
1036.995	11.02466
1037.357	28.06592
1037.719	22.05161
1038.08	40.09181
1038.442	15.03419
1038.803	17.03857
1039.165	-11.0268
1039.526	2.00467
1039.887	18.04138
1040.248	31.07489
1040.609	-17.04028
1040.97	14.03287
1041.331	49.12011
1041.692	56.12725
1042.053	32.06914
1042.413	47.10374
1042.774	36.08425
1043.134	63.14075
1043.495	31.075
1043.855	80.18693
1044.215	13.03094
1044.576	16.03714
1044.936	16.03495
1045.296	56.13378
1045.656	2.00469
1046.016	65.14857
1046.375	27.06295
1046.735	32.07083
1047.095	39.08738
1047.454	10.01997
1047.814	41.09454
1048.173	22.04967
1048.533	61.13284
1048.892	6.01397
1049.251	29.0695
1049.61	19.04515
1049.969	2.00453
1050.328	26.05377
1050.687	17.03954
1051.046	6.01404
1051.405	23.05453
1051.763	56.1242
1052.122	15.03605
1052.48	20.04741
1052.839	99.22437
1053.197	24.05414
1053.555	31.06587
1053.914	2.00471
1054.272	-10.02283
1054.63	48.11278
1054.988	6.01389
1055.345	-16.03261
1055.703	84.19242
1056.061	78.19442
1056.419	102.25618
1056.776	17.03893
1057.134	-58.12832
1057.491	31.07478
1057.848	37.0879
1058.206	-8.01785
1058.563	7.01474
1058.92	33.07232
1059.277	32.07586
1059.634	9.02005
1059.991	71.16235
1060.348	16.03485
1060.704	90.20865
1061.061	23.05011
1061.418	24.05608
1061.774	11.02622
1062.131	43.11157
1062.487	9.02011
1062.843	31.0743
1063.199	30.07186
1063.555	67.14913
1063.911	6.01456
1064.267	70.13482
1064.623	18.04265
1064.979	-31.06843
1065.335	7.01595
1065.691	42.0947
1066.046	30.06268
1066.402	-6.01303
1066.757	5.01222
1067.112	38.089
1067.468	61.13943
1067.823	-36.08224
1068.178	42.09652
1068.533	34.07904
1068.888	28.06378
1069.243	72.16956
1069.598	15.03484
1069.952	51.11205
1070.307	25.05996
1070.662	57.13102
1071.016	19.04146
1071.371	68.14767
1071.725	44.09958
1072.079	21.04869
1072.434	18.04231
1072.788	7.01581
1073.142	49.1156
1073.496	3.00684
1073.85	6.01335
1074.203	57.13228
1074.557	31.08082
1074.911	70.15751
1075.265	40.08872
1075.618	88.20434
1075.971	55.1246
1076.325	40.09869
1076.678	3.00661
1077.031	-49.10526
1077.385	43.08958
1077.738	43.09217
1078.091	43.09428
1078.444	26.05699
1078.796	64.15107
1079.149	86.20411
1079.502	14.03208
1079.855	58.12901
1080.207	12.02839
1080.56	34.08539
1080.912	20.04673
1081.264	82.18852
1081.617	42.09856
1081.969	32.07831
1082.321	41.09556
1082.673	50.11071
1083.025	-6.01365
1083.377	29.06524
1083.728	51.11267
1084.08	-38.09178
1084.432	17.03926
1084.783	-2.00442
1085.135	56.13521
1085.486	13.02877
1085.838	56.1325
1086.189	74.17278
1086.54	25.057
1086.891	89.21913
1087.242	84.19828
1087.593	3.00693
1087.944	74.16029
1088.295	74.15865
1088.646	76.17912
1088.996	27.06295
1089.347	35.08186
1089.698	52.11888
1090.048	11.02748
1090.398	50.1096
1090.749	17.0387
1091.099	30.07372
1091.449	22.05308
1091.799	56.13424
1092.149	27.06439
1092.499	41.09594
1092.849	42.1029
1093.199	87.20548
1093.548	44.10249
1093.898	17.04085
1094.248	13.03196
1094.597	59.14666
1094.947	37.09567
1095.296	36.08597
1095.645	60.14912
1095.994	75.17129
1096.343	53.12847
1096.692	62.15951
1097.041	50.13309
1097.39	43.1029
1097.739	36.09019
1098.088	43.11038
1098.437	32.08261
1098.785	23.05959
1099.134	25.06312
1099.482	53.14152
1099.83	45.1141
1100.179	69.17643
1100.527	35.08877
1100.875	26.06715
1101.223	73.18771
1101.571	-20.05389
1101.919	22.05705
1102.267	8.0222
1102.615	-8.02573
1102.962	-3.00963
1103.31	6.01926
1103.658	1.00321
