Data from N3 R1 sample 10_Subt2__0__15-14-13-070.txt Node

Date: Wed Sep 17 15:14:13 PDT 2025
User: uwsun
Spectrometer: HDX01956
Trigger mode: 0
Integration Time (sec): 5.000000E-1
Scans to average: 1
Nonlinearity correction enabled: true
Boxcar width: 0
Storing dark spectrum: false
XAxis mode: Wavelengths
Number of Pixels in Spectrum: 2068
>>>>>Begin Spectral Data<<<<<
194.03	121.34506
194.578	132.42258
195.127	129.40718
195.676	124.39307
196.225	146.38044
196.773	156.42538
197.321	241.64939
197.87	310.76894
198.418	337.83818
198.966	357.90562
199.513	345.84557
200.061	334.81968
200.609	342.87081
201.156	329.69267
201.704	278.68253
202.251	348.89232
202.798	312.78433
203.345	333.79646
203.892	331.80856
204.438	305.701
204.985	330.75648
205.532	316.80576
206.078	304.72003
206.624	392.94056
207.17	402.89669
207.716	336.7958
208.262	321.61186
208.808	356.86135
209.354	385.91129
209.899	329.80009
210.445	370.88847
210.99	389.90723
211.535	351.79541
212.08	357.79452
212.625	312.7552
213.17	389.94842
213.715	387.84306
214.259	457.0007
214.804	340.80248
215.348	346.76925
215.892	359.83728
216.436	343.75102
216.98	348.7309
217.524	373.85348
218.068	354.85941
218.612	385.93692
219.155	341.77526
219.698	316.72614
220.242	305.72811
220.785	381.85284
221.328	294.70414
221.871	383.9324
222.414	309.73794
222.956	306.70625
223.499	267.57772
224.041	283.62541
224.583	261.5333
225.126	298.62948
225.668	326.76108
226.21	310.75826
226.751	347.73796
227.293	301.65518
227.835	325.76604
228.376	263.58
228.918	326.77957
229.459	325.78
230	335.77179
230.541	304.6728
231.082	358.83249
231.622	270.59107
232.163	254.59604
232.704	355.85036
233.244	304.72781
233.784	303.70726
234.324	376.80293
234.864	275.60088
235.404	338.76019
235.944	257.58786
236.484	311.74811
237.023	301.68323
237.563	320.71441
238.102	321.72862
238.641	307.74352
239.18	308.69614
239.719	341.81777
240.258	322.69269
240.797	319.73229
241.335	307.71856
241.874	348.64287
242.412	369.8545
242.95	336.77887
243.488	277.60089
244.026	360.79804
244.564	361.70349
245.102	358.77277
245.64	265.61371
246.177	287.61462
246.715	357.8182
247.252	318.69144
247.789	309.5464
248.326	330.76345
248.863	332.69883
249.4	337.72979
249.936	403.79356
250.473	355.80153
251.009	286.63244
251.546	400.84306
252.082	288.59902
252.618	339.7244
253.154	314.7276
253.69	290.62735
254.226	330.7583
254.761	324.69669
255.297	338.70395
255.832	361.81873
256.367	365.81603
256.903	421.87894
257.438	331.74308
257.972	384.80828
258.507	336.73678
259.042	394.80779
259.576	390.81657
260.111	350.76586
260.645	371.75875
261.179	316.71218
261.713	347.74149
262.247	311.68211
262.781	379.75508
263.315	294.68854
263.849	309.74668
264.382	325.71552
264.915	368.82969
265.449	324.76027
265.982	354.76611
266.515	386.8997
267.048	369.74098
267.58	312.64517
268.113	331.68431
268.646	319.75044
269.178	368.7804
269.71	395.82539
270.243	403.88274
270.775	380.93045
271.307	342.77706
271.838	405.90245
272.37	325.76515
272.902	371.79723
273.433	401.83905
273.965	399.91773
274.496	309.73822
275.027	395.93387
275.558	370.8614
276.089	400.9488
276.62	360.86676
277.15	404.93979
277.681	348.71252
278.211	394.91039
278.741	437.9087
279.272	381.82752
279.802	335.79971
280.332	389.87147
280.861	404.91269
281.391	389.83698
281.921	351.80122
282.45	380.89616
282.98	363.90545
283.509	426.91165
284.038	402.8696
284.567	396.87345
285.096	394.9075
285.625	343.73707
286.153	456.0197
286.682	403.87567
287.21	372.84247
287.739	367.82625
288.267	412.9497
288.795	395.98166
289.323	435.96085
289.851	432.95682
290.378	424.88697
290.906	390.90795
291.433	413.9749
291.961	445.95334
292.488	384.90629
293.015	443.98301
293.542	486.16867
294.069	418.98115
294.596	386.89651
295.122	475.06292
295.649	417.85746
296.175	395.90163
296.702	505.14686
297.228	434.98324
297.754	452.95097
298.28	440.95178
298.806	395.90417
299.332	428.90168
299.857	462.98142
300.383	440.04106
300.908	434.00584
301.433	476.09072
301.958	492.04505
302.483	434.01258
303.008	493.1435
303.533	422.02908
304.058	410.90318
304.582	450.99875
305.107	426.04849
305.631	472.99741
306.155	473.02753
306.679	475.04238
307.203	484.04544
307.727	485.07017
308.251	506.1605
308.775	522.17762
309.298	483.08662
309.822	495.15901
310.345	542.19441
310.868	548.21773
311.391	536.22007
311.914	508.18462
312.437	517.09181
312.96	512.11783
313.482	499.08825
314.005	473.10482
314.527	486.18234
315.049	589.36756
315.571	588.20426
316.093	598.3537
316.615	533.18068
317.137	550.09683
317.659	570.26669
318.18	527.16009
318.702	569.22228
319.223	520.97319
319.744	536.11097
320.265	560.25679
320.786	583.33868
321.307	590.33449
321.828	629.27994
322.348	560.21092
322.869	569.24535
323.389	960.53839
323.909	691.40565
324.43	636.3749
324.95	662.35972
325.47	667.49444
325.989	638.37041
326.509	688.37381
327.029	681.39157
327.548	632.29335
328.067	676.47765
328.587	760.69283
329.106	670.35019
329.625	700.64177
330.144	695.44459
330.662	757.56942
331.181	772.60375
331.7	706.4613
332.218	732.39828
332.736	771.58781
333.255	819.68072
333.773	769.59858
334.291	842.83998
334.808	783.54319
335.326	795.55513
335.844	876.77479
336.361	817.85615
336.879	854.74041
337.396	843.78983
337.913	909.79103
338.43	893.71749
338.947	881.81456
339.464	860.5862
339.981	853.75213
340.497	893.89357
341.014	923.92663
341.53	925.76635
342.046	1011.13107
342.562	929.98617
343.078	979.93994
343.594	970.94755
344.11	1059.10201
344.626	969.08513
345.141	1045.97379
345.657	1090.00905
346.172	1019.059
346.687	1009.92795
347.202	1095.04089
347.717	1058.08981
348.232	1098.26175
348.747	1085.05307
349.261	1108.9665
349.776	1154.22369
350.29	1114.30395
350.805	1120.27423
351.319	1194.21559
351.833	1163.1531
352.347	1131.17356
352.861	1181.22656
353.374	1196.1602
353.888	1232.41161
354.401	1159.11594
354.915	1244.20859
355.428	1277.53087
355.941	1211.24446
356.454	1251.1703
356.967	1186.21374
357.48	1245.21321
357.993	1308.52954
358.505	1297.47913
359.018	1340.56214
359.53	1391.61732
360.042	1345.29994
360.554	1378.60979
361.066	1309.49733
361.578	1353.27194
362.09	1373.51063
362.602	1388.33547
363.113	1416.53084
363.625	1307.29649
364.136	1427.32855
364.647	1444.58636
365.158	1508.59335
365.669	1443.60493
366.18	1508.62891
366.691	1433.32677
367.201	1492.67273
367.712	1522.55556
368.222	1533.58595
368.733	1534.40173
369.243	1578.53221
369.753	1565.61767
370.263	1612.83174
370.773	1649.89338
371.282	1702.87858
371.792	1723.78499
372.301	1714.92841
372.811	1755.31462
373.32	1839.62337
373.829	1773.88731
374.338	1865.73347
374.847	1910.91295
375.356	1935.01364
375.865	2078.71764
376.373	2167.00115
376.882	2265.57078
377.39	2275.32719
377.898	2285.42412
378.407	2440.09756
378.915	2562.94788
379.423	2536.23776
379.93	2827.28598
380.438	2778.46212
380.946	2933.29316
381.453	3057.47653
381.96	3153.44236
382.468	3390.31082
382.975	3662.51956
383.482	3778.87884
383.989	3770.84097
384.495	3933.08552
385.002	4144.3176
385.509	4398.01795
386.015	4602.91474
386.521	4892.40168
387.028	5004.32065
387.534	5121.86518
388.04	5526.44268
388.546	5481.86858
389.051	5680.75206
389.557	6252.8397
390.063	6841.60357
390.568	7024.95467
391.073	7026.52947
391.578	7424.1013
392.084	7640.85127
392.589	7841.80598
393.093	8409.67098
393.598	9248.92373
394.103	9948.62091
394.607	11052.41271
395.112	12077.21479
395.616	12650.68157
396.12	13560.70985
396.624	15132.94498
397.128	16366.31684
397.632	18063.07765
398.136	19630.50966
398.639	20898.78812
399.143	23273.65717
399.646	26253.79714
400.15	29120.96763
400.653	32194.18232
401.156	36358.51197
401.659	42427.806
402.162	51355.83374
402.664	60523.55564
403.167	63889.54461
403.67	63769.22307
404.172	63919.58413
404.674	63858.43483
405.176	63738.15102
405.678	63977.72923
406.18	64011.81569
406.682	63863.44694
407.184	63926.60148
407.686	63841.39382
408.187	64025.8516
408.688	63892.51763
409.19	63833.37461
409.691	63977.72923
410.192	63945.6488
410.693	63713.09355
411.194	63684.16628
411.694	61410.09772
412.195	57023.2562
412.696	51577.11664
413.196	47593.17267
413.696	46396.01451
414.196	46976.60532
414.696	46018.88703
415.196	43980.18219
415.696	39805.97095
416.196	32620.74812
416.695	25377.06632
417.195	21356.81549
417.694	20429.29471
418.194	19235.2828
418.693	17810.60728
419.192	17404.88331
419.691	17080.30106
420.19	16618.20381
420.688	16116.24931
421.187	15376.89372
421.685	14443.81077
422.184	13289.30879
422.682	11314.08688
423.18	9726.04485
423.678	8476.61577
424.176	7908.02206
424.674	7511.66675
425.172	7253.81908
425.669	6740.04269
426.167	6253.79139
426.664	5753.83215
427.161	5236.17967
427.659	4879.77263
428.156	4650.02204
428.652	4359.36292
429.149	4185.1556
429.646	3991.66499
430.143	3821.22017
430.639	3651.20131
431.135	3374.63829
431.632	3149.09399
432.128	2950.39946
432.624	2815.83245
433.12	2847.10087
433.616	2695.88781
434.111	2489.25881
434.607	2449.2861
435.103	2424.63968
435.598	2409.60946
436.093	2245.06554
436.588	2154.87206
437.083	2028.79123
437.578	1961.88879
438.073	1856.14374
438.568	1873.08295
439.062	1754.45299
439.557	1690.71672
440.051	1632.52606
440.546	1550.48968
441.04	1563.69348
441.534	1514.81015
442.028	1564.70442
442.522	1409.52148
443.015	1413.18084
443.509	1473.63653
444.002	1400.57104
444.496	1391.19161
444.989	1311.4328
445.482	1352.54805
445.975	1350.33493
446.468	1291.08652
446.961	1321.12578
447.454	1241.12235
447.947	1248.30355
448.439	1226.35264
448.931	1271.22137
449.424	1178.39109
449.916	1274.39948
450.408	1156.06866
450.9	1142.20575
451.392	1144.33143
451.884	1168.09449
452.375	1081.16563
452.867	1085.93401
453.358	1095.99303
453.849	1043.77022
454.341	1062.9148
454.832	1044.79242
455.323	1100.21032
455.814	990.84378
456.304	1037.93578
456.795	954.7889
457.285	946.7017
457.776	981.82203
458.266	987.92037
458.756	905.78397
459.247	948.87801
459.737	922.86298
460.226	979.82011
460.716	894.79151
461.206	867.74894
461.695	822.73802
462.185	844.69666
462.674	811.57301
463.163	844.59005
463.653	845.49828
464.142	838.72631
464.63	763.59665
465.119	838.64594
465.608	804.60577
466.096	730.35945
466.585	698.38671
467.073	676.3985
467.561	728.51696
468.05	755.49281
468.538	697.49182
469.026	656.3704
469.513	729.31428
470.001	675.35623
470.489	654.37104
470.976	736.48678
471.463	632.39998
471.951	645.4214
472.438	648.3411
472.925	631.3149
473.412	597.29407
473.899	602.22631
474.385	601.31493
474.872	572.19416
475.359	559.2399
475.845	530.98407
476.331	532.01515
476.817	577.26023
477.303	535.12198
477.789	468.02117
478.275	489.11047
478.761	437.95841
479.247	481.97791
479.732	503.146
480.218	500.20193
480.703	431.98417
481.188	498.97718
481.673	464.97837
482.158	432.85968
482.643	455.07309
483.128	474.01112
483.612	492.07001
484.097	398.89437
484.581	382.82528
485.066	437.99144
485.55	454.92112
486.034	383.77299
486.518	439.97212
487.002	352.80528
487.486	357.81458
487.969	369.84094
488.453	287.68122
488.936	332.70468
489.42	372.76855
489.903	328.77236
490.386	276.54309
490.869	404.82081
491.352	349.79023
491.835	332.63759
492.318	290.61983
492.8	341.6623
493.283	298.72512
493.765	287.67123
494.247	298.65925
494.73	311.65161
495.212	271.61389
495.694	314.70188
496.175	281.64508
496.657	338.7549
497.139	297.47879
497.62	282.64776
498.102	284.67553
498.583	211.50143
499.064	226.48598
499.545	341.73151
500.026	285.61455
500.507	241.53349
500.988	286.68289
501.469	195.47195
501.949	263.62258
502.43	264.61006
502.91	310.62236
503.39	267.634
503.87	270.61101
504.35	238.53575
504.83	254.53207
505.31	244.56564
505.79	188.43203
506.269	167.37416
506.749	232.51068
507.228	201.45922
507.707	204.44132
508.187	246.56553
508.666	218.52294
509.145	229.51665
509.623	269.60267
510.102	198.46519
510.581	250.58001
511.059	225.54783
511.538	218.54433
512.016	241.55636
512.494	200.46659
512.972	216.50074
513.45	179.40715
513.928	223.52443
514.406	244.5766
514.884	240.59752
515.361	198.46047
515.839	192.43026
516.316	220.51768
516.793	210.51427
517.27	212.49399
517.747	223.55429
518.224	168.37818
518.701	164.35433
519.178	195.47497
519.654	188.43341
520.131	194.46767
520.607	170.40579
521.083	165.36542
521.56	167.38477
522.036	181.38377
522.512	243.57857
522.987	196.45941
523.463	166.38483
523.939	223.53605
524.414	181.40369
524.89	194.45045
525.365	215.46998
525.84	198.46283
526.315	192.45285
526.79	203.44432
527.265	186.41887
527.74	129.30846
528.215	144.32986
528.689	149.32034
529.164	148.31126
529.638	155.38514
530.112	125.28984
530.587	164.34324
531.061	162.38403
531.534	143.33866
532.008	201.47527
532.482	173.3884
532.956	165.41208
533.429	217.51489
533.903	158.33903
534.376	151.32743
534.849	114.25904
535.322	166.38316
535.795	123.29299
536.268	198.46628
536.741	146.34035
537.213	178.39922
537.686	191.4553
538.158	162.36094
538.631	168.39809
539.103	175.38611
539.575	149.30086
540.047	211.44542
540.519	164.38366
540.991	188.44686
541.463	126.29892
541.934	155.34341
542.406	198.46301
542.877	184.40486
543.348	205.48116
543.82	177.42047
544.291	164.37507
544.762	150.35091
545.233	218.53643
545.703	139.30463
546.174	205.46194
546.645	185.4371
547.115	207.48586
547.585	192.43026
548.056	268.63404
548.526	237.54408
548.996	250.5761
549.466	238.55915
549.935	289.66105
550.405	229.4866
550.875	283.64394
551.344	246.56598
551.814	290.63512
552.283	274.57295
552.752	286.6422
553.221	271.57433
553.69	400.84455
554.159	345.81506
554.628	372.79301
555.096	316.76776
555.565	294.62049
556.033	357.80473
556.502	278.64394
556.97	309.65457
557.438	280.63028
557.906	304.68458
558.374	283.62907
558.842	270.62194
559.31	366.77039
559.777	331.76926
560.245	297.65031
560.712	291.63691
561.18	342.71513
561.647	324.6811
562.114	370.79731
562.581	356.82849
563.048	375.80652
563.514	474.09871
563.981	385.82624
564.448	453.94448
564.914	387.84198
565.381	424.90031
565.847	416.90218
566.313	479.01849
566.779	452.938
567.245	443.94905
567.711	456.00754
568.176	464.95732
568.642	502.16051
569.108	491.10826
569.573	497.0495
570.038	570.06045
570.504	562.14106
570.969	529.19465
571.434	568.13017
571.899	584.24297
572.363	628.27703
572.828	684.37718
573.293	675.35685
573.757	657.3455
574.222	655.29057
574.686	717.43412
575.15	711.49888
575.614	724.48991
576.078	687.41463
576.542	733.44519
577.006	705.38599
577.469	691.49743
577.933	722.4278
578.396	652.36805
578.86	713.46429
579.323	706.49191
579.786	662.2564
580.249	695.43626
580.712	697.48925
581.175	618.36326
581.637	654.31428
582.1	685.29855
582.563	654.21404
583.025	690.47842
583.487	708.25257
583.95	705.30533
584.412	596.10892
584.874	677.45833
585.336	629.32756
585.797	672.27604
586.259	632.31261
586.721	632.3167
587.182	630.28751
587.643	647.2969
588.105	666.38763
588.566	658.19541
589.027	707.52106
589.488	710.41911
589.949	729.5456
590.41	728.22662
590.87	725.4401
591.331	753.41034
591.791	760.51709
592.252	796.58684
592.712	789.62564
593.172	815.57402
593.632	859.59898
594.092	772.47055
594.552	840.52374
595.011	884.6916
595.471	917.7215
595.931	952.76325
596.39	934.86745
596.849	1046.96367
597.308	983.68333
597.768	1044.21843
598.227	1150.18536
598.685	1144.03979
599.144	1224.23223
599.603	1184.15687
600.062	1267.98214
600.52	1345.25232
600.978	1426.47615
601.437	1420.3485
601.895	1506.24831
602.353	1526.33985
602.811	1673.55365
603.269	1673.74551
603.727	1793.88647
604.184	1846.71903
604.642	1898.07109
605.099	2056.95286
605.557	2079.14779
606.014	2130.63783
606.471	2188.37293
606.928	2324.84212
607.385	2372.46342
607.842	2445.02233
608.299	2592.15307
608.755	2698.37288
609.212	2734.92276
609.668	2750.9838
610.125	2830.35873
610.581	2966.19711
611.037	3090.92102
611.493	3049.16384
611.949	3210.42722
612.405	3224.37701
612.861	3150.06164
613.316	3228.30983
613.772	3282.01537
614.227	3385.30657
614.683	3344.54346
615.138	3417.13119
615.593	3412.06454
616.048	3495.94955
616.503	3453.35307
616.958	3452.57696
617.412	3423.21121
617.867	3472.81877
618.321	3493.33981
618.776	3298.77006
619.23	3340.13598
619.684	3346.83012
620.138	3362.97874
620.592	3330.36677
621.046	3377.18501
621.5	3271.32167
621.954	3207.80682
622.407	3165.81565
622.861	3162.39093
623.314	3212.94169
623.768	3260.20019
624.221	3079.22591
624.674	3104.08257
625.127	3080.122
625.58	3114.90763
626.033	3096.75882
626.485	3017.29979
626.938	3065.2706
627.39	3088.15555
627.843	3088.06732
628.295	3050.07136
628.747	3200.26515
629.199	3255.96288
629.651	3250.00684
630.103	3269.00547
630.555	3341.48783
631.006	3407.05541
631.458	3418.13094
631.909	3489.79264
632.361	3611.94105
632.812	3618.96271
633.263	3808.4766
633.714	3857.3013
634.165	4057.02869
634.616	4145.88386
635.067	4226.35649
635.518	4355.79831
635.968	4541.50432
636.419	4593.10413
636.869	4761.56706
637.319	5012.2783
637.769	5211.94747
638.219	5351.20736
638.669	5534.16673
639.119	5708.12709
639.569	6026.00844
640.019	6372.64929
640.468	6506.44661
640.918	6634.76613
641.367	6935.43751
641.816	7193.45887
642.265	7494.80032
642.714	7786.88942
643.163	8063.14531
643.612	8128.42989
644.061	8508.4965
644.51	8759.99952
644.958	9028.43964
645.406	9197.83945
645.855	9520.53536
646.303	9547.5975
646.751	9908.55686
647.199	10075.09463
647.647	10198.43451
648.095	10245.63386
648.543	10337.3363
648.99	10644.88145
649.438	10704.2444
649.885	10852.53298
650.333	11023.50674
650.78	11059.491
651.227	10980.10789
651.674	10944.27301
652.121	10968.04811
652.568	10832.52009
653.015	10879.66886
653.461	10939.06652
653.908	10749.45073
654.354	10655.95499
654.801	10573.70138
655.247	10391.30331
655.693	10304.57448
656.139	10165.27716
656.585	9960.66797
657.031	10012.83975
657.477	9933.73086
657.922	9555.62515
658.368	9575.66648
658.813	9418.29106
659.259	9279.01629
659.704	9264.96648
660.149	8989.40063
660.594	8831.17531
661.039	8705.90073
661.484	8552.76371
661.929	8428.56791
662.373	8202.58985
662.818	8129.4618
663.262	8051.30274
663.707	7967.48272
664.151	7723.11793
664.595	7717.07663
665.039	7656.17841
665.483	7583.29451
665.927	7508.82374
666.371	7383.79204
666.814	7326.81915
667.258	7339.90563
667.701	7115.24445
668.145	7096.05558
668.588	7084.02809
669.031	7032.70553
669.474	6957.81536
669.917	6894.31451
670.36	6911.0742
670.803	6901.86003
671.245	6621.96998
671.688	6651.92195
672.13	6719.47199
672.573	6674.18101
673.015	6577.87408
673.457	6567.26601
673.899	6561.89512
674.341	6535.87124
674.783	6295.89434
675.225	6409.05305
675.666	6424.01087
676.108	6295.25782
676.549	6206.72309
676.991	6296.34083
677.432	6178.85157
677.873	6020.6509
678.314	6139.88923
678.755	5922.24052
679.196	5940.68775
679.637	5941.99999
680.078	5836.87365
680.518	5626.84568
680.959	5718.05919
681.399	5661.38499
681.839	5649.23721
682.28	5534.48665
682.72	5361.94941
683.16	5322.63218
683.6	5322.93326
684.039	5236.37147
684.479	5266.5781
684.919	5268.2057
685.358	5058.75333
685.798	5184.07194
686.237	4958.47008
686.676	4982.07442
687.115	5041.33482
687.554	5069.43682
687.993	4955.94034
688.432	4949.15268
688.871	4903.21589
689.309	4938.52591
689.748	4927.57115
690.186	4870.36749
690.625	4821.43324
691.063	4858.52392
691.501	4805.83867
691.939	4850.96638
692.377	4761.7007
692.815	4798.75489
693.253	4746.56374
693.69	4715.99835
694.128	4829.67429
694.565	4785.50639
695.003	4741.14825
695.44	4891.44916
695.877	4735.48781
696.314	4628.79759
696.751	4784.18363
697.188	4759.36384
697.625	4734.12176
698.061	4771.59096
698.498	4756.49641
698.934	4676.62669
699.371	4766.46443
699.807	4778.47517
700.243	4782.64114
700.679	4687.12044
701.115	4747.40246
701.551	4839.31841
701.987	4756.942
702.422	4835.52811
702.858	4783.55167
703.294	4918.18735
703.729	4845.65925
704.164	4842.51528
704.599	4889.01986
705.035	4859.06486
705.47	4855.63862
705.904	4862.27938
706.339	4967.1568
706.774	4978.29461
707.209	5023.22866
707.643	5096.38611
708.078	4993.56924
708.512	5095.76297
708.946	5219.23546
709.38	5116.32194
709.814	5191.92743
710.248	5376.40319
710.682	5356.27487
711.116	5297.41654
711.549	5221.83369
711.983	5319.99975
712.416	5392.16226
712.85	5368.49451
713.283	5437.09247
713.716	5470.44236
714.149	5434.94835
714.582	5454.74115
715.015	5533.32268
715.448	5670.47648
715.881	5626.36812
716.313	5648.90499
716.746	5694.98186
717.178	5645.11999
717.61	5845.46853
718.043	5865.21063
718.475	5818.10474
718.907	5920.27063
719.339	5851.61808
719.77	5957.95147
720.202	6074.22871
720.634	6088.08027
721.065	6051.78954
721.497	6091.05094
721.928	6194.99703
722.359	6173.98757
722.79	6208.8504
723.221	6347.05957
723.652	6429.21409
724.083	6388.4012
724.514	6383.53144
724.945	6448.634
725.375	6481.62571
725.806	6498.96326
726.236	6425.2576
726.666	6519.66201
727.096	6661.8819
727.526	6775.25373
727.956	6766.46744
728.386	6796.88102
728.816	6776.20229
729.246	6890.93393
729.675	6709.85327
730.105	6793.86125
730.534	6918.5689
730.964	6795.99254
731.393	6908.86487
731.822	6906.16478
732.251	7072.11097
732.68	7048.54165
733.109	6984.91931
733.537	6987.87133
733.966	7091.00921
734.395	7099.55341
734.823	7118.3328
735.251	7114.76133
735.68	7072.90768
736.108	7146.00222
736.536	7000.59497
736.964	7113.56052
737.392	7031.99381
737.82	7154.72423
738.247	6981.68909
738.675	7024.61126
739.102	6961.98008
739.53	6993.20974
739.957	6892.26083
740.384	6920.74318
740.811	6858.95514
741.238	6829.88162
741.665	6946.62502
742.092	6629.46847
742.519	6606.98946
742.945	6773.82775
743.372	6626.99125
743.798	6599.20434
744.225	6523.65889
744.651	6465.05761
745.077	6403.05194
745.503	6268.84841
745.929	6379.8636
746.355	6230.91121
746.781	6099.0311
747.207	6112.80616
747.632	6029.16906
748.058	6030.28163
748.483	5988.61465
748.908	5965.20732
749.334	5915.15087
749.759	5743.97617
750.184	5647.10748
750.609	5715.17584
751.033	5611.8583
751.458	5598.56277
751.883	5508.30907
752.307	5418.03079
752.732	5440.69608
753.156	5293.43367
753.58	5256.11398
754.005	5222.62094
754.429	5088.27626
754.853	5005.70416
755.277	4995.3345
755.7	4902.72324
756.124	4784.80804
756.548	4736.4261
756.971	4744.67149
757.394	4621.11791
757.818	4643.20155
758.241	4455.17192
758.664	4357.16134
759.087	4427.28899
759.51	4330.96933
759.933	4311.85311
760.356	4243.41175
760.778	4151.04008
761.201	4114.91301
761.623	3957.86654
762.046	3939.74418
762.468	4021.88535
762.89	3873.08753
763.312	3906.12213
763.734	3804.04775
764.156	3704.25571
764.578	3696.68055
765	3596.18849
765.421	3486.57581
765.843	3417.76481
766.264	3425.01949
766.686	3341.36225
767.107	3254.22673
767.528	3228.66124
767.949	3180.55035
768.37	3199.40273
768.791	3064.16508
769.212	2951.52089
769.632	2929.05563
770.053	2908.74575
770.473	2867.20394
770.894	2699.30515
771.314	2725.0607
771.734	2645.99555
772.154	2666.5314
772.575	2619.92314
772.994	2566.82744
773.414	2493.06549
773.834	2480.32818
774.254	2438.19879
774.673	2422.22468
775.093	2326.28326
775.512	2329.23615
775.931	2212.32111
776.351	2330.29311
776.77	2175.13572
777.189	2190.96882
777.607	2093.27853
778.026	2070.13848
778.445	2023.21029
778.864	1968.14018
779.282	1918.8218
779.701	1872.02351
780.119	1899.10243
780.537	1834.95567
780.955	1808.99923
781.373	1781.87811
781.791	1788.55489
782.209	1679.43162
782.627	1623.00693
783.045	1592.39523
783.462	1622.87146
783.88	1590.90113
784.297	1558.74484
784.715	1533.81972
785.132	1464.47477
785.549	1500.65031
785.966	1430.59896
786.383	1442.55389
786.8	1430.31864
787.217	1392.38645
787.633	1308.45892
788.05	1221.09243
788.466	1239.11553
788.883	1263.46605
789.299	1183.10797
789.715	1216.23428
790.131	1162.21569
790.547	1133.17845
790.963	1147.18123
791.379	1100.17597
791.795	1088.85631
792.21	1100.9432
792.626	983.81762
793.041	997.94903
793.457	983.91891
793.872	1000.81835
794.287	931.81727
794.702	912.77888
795.117	933.88565
795.532	885.83586
795.947	891.69886
796.362	800.52988
796.776	873.6034
797.191	861.72809
797.605	785.54569
798.02	739.50547
798.434	742.35791
798.848	805.67349
799.262	705.48492
799.676	754.53711
800.09	698.45438
800.504	636.31388
800.918	636.23633
801.331	578.29458
801.745	638.23257
802.158	548.18847
802.572	638.32391
802.985	567.17559
803.398	584.19714
803.811	493.1001
804.224	577.22991
804.637	584.20793
805.05	527.05161
805.462	519.1128
805.875	529.22035
806.288	484.04098
806.7	421.94236
807.112	483.97392
807.525	415.90442
807.937	446.9907
808.349	411.9215
808.761	432.95801
809.173	471.01709
809.584	408.90254
809.996	384.84982
810.408	396.94257
810.819	394.8348
811.231	386.94724
811.642	421.94469
812.053	414.91085
812.464	386.82357
812.875	375.8794
813.286	373.88631
813.697	335.6904
814.108	302.67423
814.519	411.82303
814.929	351.81573
815.34	224.50114
815.75	282.67154
816.16	281.6381
816.571	282.67772
816.981	259.55705
817.391	237.52639
817.801	232.54102
818.211	272.59596
818.62	284.63404
819.03	230.52388
819.44	168.40822
819.849	200.46805
820.259	191.4553
820.668	230.53065
821.077	216.50807
821.486	147.33017
821.895	207.47102
822.304	177.44365
822.713	235.51305
823.122	173.40654
823.531	135.29823
823.939	183.42163
824.348	205.46289
824.756	197.46058
825.164	233.54388
825.573	158.37584
825.981	121.2839
826.389	142.33792
826.797	185.44522
827.205	163.35481
827.612	154.35716
828.02	112.24861
828.428	114.27701
828.835	151.38134
829.243	152.33894
829.65	152.3613
830.057	123.28204
830.464	171.39807
830.871	188.4239
831.278	89.20596
831.685	151.3147
832.092	98.22665
832.499	147.30378
832.905	144.34333
833.312	89.18928
833.718	149.35451
834.124	144.31099
834.531	98.23375
834.937	146.35728
835.343	85.19428
835.749	118.25691
836.155	122.3053
836.561	140.32687
836.966	111.25728
837.372	84.20404
837.777	94.22507
838.183	91.19101
838.588	107.25546
838.993	170.38973
839.399	112.26222
839.804	79.18507
840.209	136.33368
840.613	106.22283
841.018	93.22416
841.423	71.17552
841.828	155.37331
842.232	77.17939
842.637	108.24521
843.041	111.2735
843.445	80.19089
843.849	86.20489
844.253	126.28248
844.657	57.13941
845.061	160.34717
845.465	42.09791
845.869	84.18615
846.272	96.22458
846.676	42.09602
847.079	90.22139
847.483	93.2211
847.886	64.1479
848.289	64.1674
848.692	104.24968
849.095	62.1422
849.498	77.18426
849.901	60.13047
850.304	70.15997
850.707	77.18777
851.109	91.21901
851.512	75.17728
851.914	51.12506
852.316	100.24481
852.718	83.21171
853.121	57.13447
853.523	44.09812
853.925	85.21559
854.326	70.16946
854.728	71.17643
855.13	89.22276
855.531	69.15847
855.933	51.11638
856.334	64.15487
856.736	116.24826
857.137	63.14173
857.538	78.18975
857.939	98.23491
858.34	79.18202
858.741	63.1582
859.142	32.07372
859.542	82.20979
859.943	69.16449
860.343	37.08922
860.744	106.24603
861.144	90.21179
861.544	69.16145
861.945	76.18571
862.345	85.19756
862.745	75.18023
863.145	29.06548
863.544	72.17541
863.944	112.25078
864.344	14.03324
864.743	106.25002
865.143	76.18943
865.542	6.01328
865.941	57.1363
866.34	63.14255
866.74	67.17384
867.139	102.236
867.537	51.12381
867.936	103.23703
868.335	44.1078
868.734	44.10888
869.132	8.01774
869.531	50.11468
869.929	51.11205
870.327	42.09691
870.726	50.11867
871.124	64.14177
871.522	59.14414
871.92	57.13515
872.318	25.05859
872.715	41.09624
873.113	16.0375
873.511	-6.01449
873.908	58.14357
874.306	54.13048
874.703	9.02162
875.1	36.08764
875.497	22.05072
875.894	86.20552
876.291	108.25276
876.688	32.08005
877.085	27.06201
877.482	58.13951
877.878	93.21659
878.275	36.08869
878.671	2.00416
879.068	94.21593
879.464	32.07454
879.86	37.0842
880.256	46.10736
880.652	47.11525
881.048	44.10378
881.444	33.07442
881.84	29.07119
882.236	85.20418
882.631	64.1516
883.027	49.11344
883.422	24.05904
883.817	-5.01234
884.213	48.1189
884.608	63.15185
885.003	13.03005
885.398	21.05096
885.793	28.06763
886.188	31.0743
886.582	65.15863
886.977	44.09954
887.371	10.02435
887.766	76.18232
888.16	8.01901
888.554	38.08984
888.949	88.21102
889.343	66.15349
889.737	26.06801
890.131	2.00488
890.525	41.10203
890.918	27.06565
891.312	85.19154
891.706	8.02037
892.099	57.13905
892.492	64.13027
892.886	10.02363
893.279	33.08104
893.672	69.17002
894.065	63.15168
894.458	24.05775
894.851	83.19261
895.244	48.11812
895.637	57.13217
896.029	65.1534
896.422	13.03032
896.814	39.09311
897.206	75.17322
897.599	98.23052
897.991	57.13317
898.383	5.01147
898.775	106.22922
899.167	42.09563
899.559	18.04371
899.951	72.16029
900.342	41.09953
900.734	49.12011
901.125	29.07316
901.517	28.0665
901.908	42.09517
902.299	4.00952
902.69	44.10071
903.082	58.13468
903.473	43.10073
903.863	44.1076
904.254	97.21652
904.645	19.04507
905.036	45.10711
905.426	93.19839
905.817	0
906.207	-45.10356
906.597	52.11787
906.987	2.005
907.378	61.1492
907.768	59.15102
908.158	29.06802
908.547	40.1014
908.937	37.09046
909.327	71.16444
909.717	36.08666
910.106	27.06219
910.495	22.05243
910.885	57.13926
911.274	28.06748
911.663	17.04138
912.052	36.08448
912.441	63.15529
912.83	30.06562
913.219	26.06565
913.608	57.13458
913.997	20.04905
914.385	74.16877
914.774	52.12122
915.162	78.17961
915.55	75.17177
915.939	24.05913
916.327	44.10479
916.715	63.15695
917.103	85.19577
917.491	48.1137
917.878	22.05209
918.266	15.03757
918.654	50.12418
919.041	56.14297
919.429	15.03416
919.816	13.03189
920.203	76.17801
920.591	30.07197
920.978	42.09891
921.365	60.15237
921.752	4.00907
922.139	66.13618
922.525	54.12494
922.912	47.10963
923.299	19.04576
923.685	3.00754
924.072	-35.07648
924.458	54.1292
924.844	19.0455
925.231	-34.07629
925.617	18.0449
926.003	54.13235
926.389	0
926.774	-9.0221
927.16	53.12615
927.546	50.12517
927.931	29.06934
928.317	-3.00663
928.702	48.10823
929.088	90.20749
929.473	12.02988
929.858	49.11609
930.243	40.09339
930.628	69.16253
931.013	28.06712
931.398	28.06068
931.783	13.03286
932.167	89.20988
932.552	32.07709
932.937	77.18144
933.321	60.14596
933.705	-17.04124
934.09	22.05256
934.474	75.1679
934.858	50.1254
935.242	20.04447
935.626	31.07717
936.009	45.11704
936.393	99.24412
936.777	52.12914
937.16	56.14166
937.544	42.09319
937.927	23.05684
938.311	103.23685
938.694	76.19382
939.077	34.07829
939.46	17.03936
939.843	66.12681
940.226	11.02721
940.609	82.18134
940.991	42.10236
941.374	48.11352
941.757	-7.01669
942.139	52.11206
942.522	35.07887
942.904	61.14038
943.286	12.02943
943.668	64.16132
944.05	14.03339
944.432	34.08048
944.814	29.0681
945.196	-15.03588
945.578	54.12534
945.959	24.0535
946.341	43.09931
946.722	42.09389
947.104	63.14406
947.485	36.08044
947.866	64.15621
948.247	42.10324
948.628	-18.04178
949.009	6.01492
949.39	42.09987
949.771	10.02185
950.152	35.08286
950.532	59.14355
950.913	38.08792
951.293	27.07152
951.674	50.11601
952.054	66.16001
952.434	53.12664
952.814	22.04977
953.194	5.01254
953.574	52.12222
953.954	-5.01136
954.334	29.07048
954.714	38.08963
955.093	43.10156
955.473	83.20081
955.853	30.07518
956.232	51.13501
956.611	6.01371
956.99	43.10459
957.37	-6.01476
957.749	28.06314
958.128	71.17262
958.506	47.11789
958.885	-4.00977
959.264	70.16652
959.643	78.1699
960.021	44.10575
960.4	18.03916
960.778	26.06073
961.156	19.04585
961.535	1.00223
961.913	50.1127
962.291	52.13032
962.669	10.02471
963.047	49.12118
963.424	46.11482
963.802	19.04526
964.18	54.1289
964.557	46.10071
964.935	82.18452
965.312	21.05336
965.69	48.11432
966.067	9.02092
966.444	-11.02578
966.821	26.06495
967.198	25.05765
967.575	66.15398
967.952	27.06094
968.329	62.14544
968.705	87.17745
969.082	58.1453
969.458	29.06804
969.835	35.08193
970.211	60.14983
970.587	19.04583
970.963	43.10529
971.339	30.07624
971.715	83.19839
972.091	8.01904
972.467	30.07098
972.843	61.14709
973.219	41.09337
973.594	3.00764
973.97	-17.03812
974.345	24.05562
974.721	54.1231
975.096	90.20914
975.471	39.08832
975.846	31.07103
976.221	12.02958
976.596	78.18162
976.971	76.18072
977.346	59.12979
977.72	42.10252
978.095	49.12189
978.469	35.07981
978.844	71.16964
979.218	43.10066
979.593	16.03676
979.967	28.06432
980.341	82.1802
980.715	64.15511
981.089	37.08912
981.463	27.05952
981.837	72.17042
982.21	27.05852
982.584	22.05149
982.957	13.03164
983.331	-20.04511
983.704	89.21127
984.078	14.03328
984.451	39.09161
984.824	25.05914
985.197	8.01846
985.57	39.09251
985.943	17.03972
986.316	58.13393
986.688	58.13345
987.061	91.20313
987.434	69.17526
987.806	14.03224
988.179	-7.01591
988.551	56.13572
988.923	55.12895
989.295	51.12158
989.667	36.08405
990.039	75.18043
990.411	20.04347
990.783	43.0932
991.155	29.06743
991.527	48.11093
991.898	59.14178
992.27	27.06513
992.641	35.08395
993.012	33.07235
993.384	19.04339
993.755	64.15761
994.126	50.11638
994.497	3.00713
994.868	24.05221
995.239	45.10422
995.61	13.0317
995.98	28.06535
996.351	20.04822
996.722	29.06543
997.092	35.08006
997.462	24.05467
997.833	25.05638
998.203	13.02991
998.573	15.03628
998.943	47.10613
999.313	84.19281
999.683	-3.007
1000.053	-26.05654
1000.423	20.04644
1000.792	5.01242
1001.162	11.02596
1001.531	71.16763
1001.901	39.09297
1002.27	28.05852
1002.639	24.05876
1003.009	35.07964
1003.378	22.05452
1003.747	58.12982
1004.116	10.02304
1004.485	34.07795
1004.853	-8.01939
1005.222	39.09276
1005.591	42.09513
1005.959	16.03482
1006.328	39.08428
1006.696	20.04624
1007.064	-22.0533
1007.433	37.08817
1007.801	4.00931
1008.169	1.00242
1008.537	62.13011
1008.905	52.11668
1009.273	57.13364
1009.64	29.06748
1010.008	65.14737
1010.375	9.02067
1010.743	59.12521
1011.11	73.16806
1011.478	59.14097
1011.845	11.02475
1012.212	54.11802
1012.579	43.10156
1012.946	50.11228
1013.313	75.16804
1013.68	32.06831
1014.047	20.04585
1014.414	29.06562
1014.78	26.06259
1015.147	74.16808
1015.513	37.08556
1015.88	39.09525
1016.246	16.03756
1016.612	41.08875
1016.978	94.22051
1017.344	38.0905
1017.71	68.15696
1018.076	27.06037
1018.442	62.15364
1018.808	63.15243
1019.174	-10.02419
1019.539	7.01478
1019.905	16.03655
1020.27	9.02141
1020.636	49.11064
1021.001	65.14899
1021.366	25.05806
1021.731	85.21214
1022.096	37.09087
1022.461	30.06836
1022.826	97.22037
1023.191	32.08121
1023.556	29.06476
1023.92	14.03285
1024.285	11.02559
1024.649	1.00235
1025.014	24.05652
1025.378	18.04403
1025.742	5.01189
1026.107	69.14739
1026.471	15.0334
1026.835	23.05495
1027.199	-15.0351
1027.562	-19.04224
1027.926	41.09548
1028.29	4.00982
1028.654	60.13063
1029.017	88.20643
1029.381	29.06682
1029.744	11.02718
1030.107	55.12414
1030.471	59.13572
1030.834	-13.02803
1031.197	63.14452
1031.56	60.13407
1031.923	12.03013
1032.286	59.13197
1032.648	-8.01821
1033.011	82.18126
1033.374	21.0468
1033.736	13.03321
1034.099	33.07737
1034.461	46.11274
1034.823	30.07232
1035.185	19.04569
1035.548	51.11948
1035.91	35.08019
1036.272	40.0875
1036.634	85.19756
1036.995	27.06032
1037.357	33.07761
1037.719	48.11203
1038.08	70.15971
1038.442	30.06817
1038.803	-13.02968
1039.165	15.03637
1039.526	73.1682
1039.887	21.04825
1040.248	57.13703
1040.609	24.05641
1040.97	29.06788
1041.331	62.15161
1041.692	53.12051
1042.053	38.082
1042.413	69.1516
1042.774	47.10976
1043.134	-16.03633
1043.495	42.10141
1043.855	62.14539
1044.215	11.02619
1044.576	9.02092
1044.936	89.19143
1045.296	69.16442
1045.656	6.01405
1046.016	88.20021
1046.375	20.0467
1046.735	47.1037
1047.095	26.05841
1047.454	10.01997
1047.814	22.05092
1048.173	22.04967
1048.533	40.0875
1048.892	4.00932
1049.251	43.10278
1049.61	23.05462
1049.969	24.05409
1050.328	37.07632
1050.687	0
1051.046	37.08603
1051.405	21.04981
1051.763	82.18088
1052.122	-4.00965
1052.48	7.01664
1052.839	111.25095
1053.197	21.0474
1053.555	9.01922
1053.914	98.22638
1054.272	3.00683
1054.63	20.04725
1054.988	63.14423
1055.345	-11.02239
1055.703	49.11304
1056.061	63.15746
1056.419	29.07379
1056.776	8.01836
1057.134	17.03702
1057.491	74.17705
1057.848	52.12318
1058.206	11.02444
1058.563	6.01264
1058.92	39.08536
1059.277	81.1902
1059.634	28.06213
1059.991	42.0966
1060.348	69.1486
1060.704	90.20865
1061.061	36.07821
1061.418	1.00235
1061.774	47.11127
1062.131	35.09094
1062.487	-7.01569
1062.843	18.04325
1063.199	24.05755
1063.555	47.10504
1063.911	-11.02677
1064.267	93.17812
1064.623	35.08267
1064.979	-31.06843
1065.335	59.13306
1065.691	-19.04338
1066.046	6.0126
1066.402	7.01516
1066.757	73.17622
1067.112	55.12839
1067.468	15.0346
1067.823	-13.02956
1068.178	2.00463
1068.533	75.17294
1068.888	34.07735
1069.243	3.00716
1069.598	48.11075
1069.952	72.15749
1070.307	20.04802
1070.662	120.27235
1071.016	89.19134
1071.371	23.05043
1071.725	55.12419
1072.079	48.11071
1072.434	15.03528
1072.788	-15.03404
1073.142	110.25643
1073.496	25.05675
1073.85	52.11456
1074.203	55.12768
1074.557	59.15308
1074.911	60.13529
1075.265	37.08211
1075.618	65.15162
1075.971	39.08864
1076.325	45.11092
1076.678	-7.01545
1077.031	-9.01917
1077.385	25.05229
1077.738	48.10277
1078.091	37.08123
1078.444	9.0198
1078.796	49.116
1079.149	49.11712
1079.502	53.12051
1079.855	32.07156
1080.207	39.09179
1080.56	46.11528
1080.912	73.1688
1081.264	62.14311
1081.617	65.15185
1081.969	35.08561
1082.321	52.12094
1082.673	55.12165
1083.025	22.04975
1083.377	260.55716
1083.728	13.02895
1084.08	-25.06024
1084.432	25.05765
1084.783	2.00441
1085.135	38.09206
1085.486	-3.00666
1085.838	54.12781
1086.189	80.18657
1086.54	29.06607
1086.891	63.15586
1087.242	85.2006
1087.593	28.06435
1087.944	108.23224
1088.295	54.11627
1088.646	105.24607
1088.996	48.11146
1089.347	12.02819
1089.698	57.13018
1090.048	41.10188
1090.398	33.0726
1090.749	-21.04817
1091.099	42.10297
1091.449	50.11999
1091.799	65.15554
1092.149	40.09515
1092.499	50.11679
1092.849	8.01972
1093.199	12.02875
1093.548	45.1048
1093.898	17.04085
1094.248	-41.10181
1094.597	-3.00754
1094.947	30.07767
1095.296	57.13557
1095.645	49.12203
1095.994	25.05767
1096.343	59.14286
1096.692	47.12123
1097.041	32.08543
1097.39	54.12895
1097.739	-24.06078
1098.088	-3.00776
1098.437	49.12613
1098.785	15.03892
1099.134	-9.02286
1099.482	41.1097
1099.83	37.09394
1100.179	83.21171
1100.527	-21.05379
1100.875	-3.00779
1101.223	32.08287
1101.571	-24.06471
1101.919	53.13671
1102.267	13.03604
1102.615	-4.01286
1102.962	0
1103.31	7.02247
1103.658	-2.00641
