Data from N3 R6 sample 9_Subt2__1__15-25-38-030.txt Node

Date: Fri Sep 19 15:25:38 PDT 2025
User: uwsun
Spectrometer: HDX01956
Trigger mode: 0
Integration Time (sec): 5.000000E-1
Scans to average: 1
Nonlinearity correction enabled: true
Boxcar width: 0
Storing dark spectrum: false
XAxis mode: Wavelengths
Number of Pixels in Spectrum: 2068
>>>>>Begin Spectral Data<<<<<
194.03	58.16701
194.578	66.21305
195.127	54.17222
195.676	63.20051
196.225	-1.00264
196.773	74.20437
197.321	90.24785
197.87	149.37629
198.418	179.45415
198.966	208.53453
199.513	212.52609
200.061	142.35419
200.609	124.32245
201.156	91.19421
201.704	100.24844
202.251	165.42869
202.798	154.39439
203.345	191.45983
203.892	144.35592
204.438	139.32601
204.985	130.30508
205.532	179.47112
206.078	177.42435
206.624	146.35529
207.17	169.3816
207.716	118.27994
208.262	166.31602
208.808	207.5008
209.354	172.40867
209.899	138.34022
210.445	161.39611
210.99	148.35138
211.535	210.47601
212.08	157.35509
212.625	150.36735
213.17	172.42356
213.715	149.32861
214.259	171.39006
214.804	148.3553
215.348	142.31704
215.892	138.326
216.436	189.42624
216.98	124.26573
217.524	124.28781
218.068	173.4239
218.612	139.33933
219.155	130.29923
219.698	118.27291
220.242	106.25892
220.785	175.39725
221.328	153.37254
221.871	129.31937
222.414	150.35846
222.956	131.31072
223.499	152.3315
224.041	159.35286
224.583	189.38794
225.126	210.45119
225.668	182.42893
226.21	136.33393
226.751	84.17814
227.293	116.25588
227.835	106.25264
228.376	145.32086
228.918	123.30307
229.459	166.40683
230	167.38431
230.541	165.3645
231.082	126.29857
231.622	135.30247
232.163	147.35028
232.704	129.3114
233.244	120.29093
233.784	155.36467
234.324	144.31165
234.864	134.29348
235.404	143.32632
235.944	90.20699
236.484	152.36366
237.023	154.35433
237.563	172.3829
238.102	161.36754
238.641	185.45566
239.18	126.28956
239.719	171.41931
240.258	160.3445
240.797	165.38426
241.335	104.24549
241.874	139.26017
242.412	110.25724
242.95	183.42634
243.488	129.28652
244.026	117.26419
244.564	153.30241
245.102	147.31998
245.64	131.30604
246.177	164.3516
246.715	126.29072
247.252	127.27997
247.789	168.28336
248.326	86.20088
248.863	122.25828
249.4	156.34685
249.936	113.22492
250.473	151.34235
251.009	172.38417
251.546	132.28373
252.082	147.3144
252.618	167.36197
253.154	147.34288
253.69	156.33806
254.226	160.36798
254.761	147.3144
255.297	146.31057
255.832	113.25953
256.367	168.37958
256.903	129.27268
257.438	106.24018
257.972	134.28641
258.507	168.37679
259.042	86.17848
259.576	109.2299
260.111	127.28372
260.645	148.31058
261.179	81.18432
261.713	138.29509
262.247	202.45136
262.781	131.2684
263.315	144.3432
263.849	125.30516
264.382	155.34169
264.915	210.47485
265.449	122.29211
265.982	148.32099
266.515	176.41479
267.048	144.29644
267.58	98.20493
268.113	181.37857
268.646	186.4472
269.178	165.3558
269.71	132.27749
270.243	171.37538
270.775	190.46719
271.307	116.26796
271.838	196.44247
272.37	181.43179
272.902	198.43438
273.433	181.37655
273.965	209.49457
274.496	128.30647
275.027	156.37323
275.558	200.4653
276.089	196.475
276.62	136.33516
277.15	172.40867
277.681	147.30173
278.211	189.44188
278.741	207.441
279.272	168.37058
279.802	194.4682
280.332	180.41
280.861	148.34555
281.391	162.35301
281.921	183.4181
282.45	201.48976
282.98	177.44891
283.509	191.41134
284.038	117.25501
284.567	168.37043
285.096	183.42752
285.625	204.45056
286.153	144.32655
286.682	223.48231
287.21	212.48854
287.739	187.42173
288.267	234.54439
288.795	199.50363
289.323	209.47577
289.851	178.39954
290.378	185.39979
290.906	211.49466
291.433	220.52713
291.961	181.39148
292.488	230.54878
293.015	226.51394
293.542	185.45129
294.069	228.5365
294.596	208.49401
295.122	214.4904
295.649	245.51787
296.175	187.43033
296.702	195.44964
297.228	162.37452
297.754	236.50245
298.28	182.39642
298.806	215.4995
299.332	193.40993
299.857	201.43306
300.383	186.45025
300.908	229.53833
301.433	226.52952
301.958	168.36748
302.483	247.59846
303.008	190.44918
303.533	204.50273
304.058	247.55133
304.582	194.44278
305.107	268.67327
305.631	208.44958
306.155	241.5415
306.679	235.52672
307.203	255.56448
307.727	294.66341
308.251	231.54514
308.775	208.47378
309.298	244.56407
309.822	242.58403
310.345	274.61576
310.868	245.55861
311.391	261.61019
311.914	278.66456
312.437	242.51971
312.96	272.61127
313.482	282.63634
314.005	242.58227
314.527	273.68718
315.049	259.62045
315.571	289.62264
316.093	338.79281
316.615	280.64703
317.137	234.48041
317.659	254.58041
318.18	319.72643
318.702	304.66831
319.223	269.52046
319.744	316.66925
320.265	290.6704
320.786	336.78442
321.307	306.72533
321.828	342.73033
322.348	290.65092
322.869	297.65169
323.389	492.81607
323.909	367.7849
324.43	323.72602
324.95	343.73929
325.47	341.79343
325.989	403.89911
326.509	328.68099
327.029	351.73964
327.548	345.73051
328.067	341.77244
328.587	421.97527
329.106	379.79688
329.625	363.87944
330.144	359.7648
330.662	414.88713
331.181	420.90969
331.7	426.91717
332.218	435.87149
332.736	357.77408
333.255	445.95004
333.773	457.99467
334.291	409.93621
334.808	385.78809
335.326	440.91269
335.844	469.00844
336.361	402.94839
336.879	436.93426
337.396	460.00326
337.913	484.00344
338.43	479.99159
338.947	524.1291
339.464	481.93201
339.981	477.03843
340.497	533.19244
341.014	490.07739
341.53	539.1035
342.046	562.24527
342.562	515.16488
343.078	504.07012
343.594	526.14311
344.11	557.18362
344.626	593.34699
345.141	618.25381
345.657	531.06451
346.172	616.30776
346.687	583.19535
347.202	570.13837
347.717	591.2598
348.232	669.47864
348.747	635.2822
349.261	681.31799
349.776	618.27379
350.29	615.36144
350.805	693.48262
351.319	627.2915
351.833	653.30774
352.347	577.18676
352.861	705.42571
353.374	703.38335
353.888	662.3915
354.401	719.4202
354.915	689.34876
355.428	750.62159
355.941	703.4262
356.454	686.32863
356.967	735.50342
357.48	681.35195
357.993	746.58339
358.505	767.63542
359.018	730.52517
359.53	754.5538
360.042	716.33597
360.554	779.60214
361.066	754.57258
361.578	795.46938
362.09	813.6414
362.602	815.50267
363.113	774.4965
363.625	782.5055
364.136	870.57188
364.647	839.64133
365.158	875.70217
365.669	915.85008
366.18	783.5244
366.691	887.60633
367.201	902.77098
367.712	858.59198
368.222	965.82243
368.733	927.6517
369.243	931.64433
369.753	963.78853
370.263	948.82911
370.773	962.95805
371.282	955.84571
371.792	906.69456
372.301	1024.00181
372.811	1008.15111
373.32	1072.75762
373.829	1120.09225
374.338	1111.91242
374.847	1169.04236
375.356	1251.27764
375.865	1260.96373
376.373	1330.21078
376.882	1365.58572
377.39	1418.50216
377.898	1365.53334
378.407	1467.28469
378.915	1561.24741
379.423	1625.62951
379.93	1629.4581
380.438	1723.84845
380.946	1840.75893
381.453	1892.89012
381.96	2015.92195
382.468	2217.03963
382.975	2300.22955
383.482	2351.812
383.989	2336.46862
384.495	2502.96481
385.002	2639.52489
385.509	2701.02301
386.015	2992.29763
386.521	3103.73838
387.028	3283.78638
387.534	3273.49188
388.04	3382.97878
388.546	3514.53534
389.051	3805.33881
389.557	4049.56546
390.063	4292.43508
390.568	4246.58571
391.073	4539.06842
391.578	4705.37424
392.084	4793.75513
392.589	5160.48305
393.093	5656.61685
393.598	6094.23723
394.103	6552.39251
394.607	7154.38927
395.112	7830.87644
395.616	8162.10259
396.12	8869.10158
396.624	9815.44289
397.128	10656.35449
397.632	11803.20171
398.136	12734.18547
398.639	13921.18116
399.143	15858.4398
399.646	17882.33578
400.15	19810.33339
400.653	22270.55273
401.156	25251.84708
401.659	29262.31985
402.162	37021.35003
402.664	53459.15134
403.167	61198.42659
403.67	61009.11914
404.172	55487.84425
404.674	37291.05854
405.176	4428.40989
405.678	533.47942
406.18	0
406.682	0
407.184	6962.89417
407.686	50953.82939
408.187	59237.6763
408.688	61091.12691
409.19	61923.45898
409.691	53378.15292
410.192	45461.9498
410.693	40324.18224
411.194	37789.67812
411.694	35389.19588
412.195	32211.54396
412.696	29835.13341
413.196	28607.90951
413.696	28974.78705
414.196	28977.97961
414.696	27724.93769
415.196	25507.66086
415.696	21419.06461
416.196	16409.52608
416.695	13815.81243
417.195	12789.36539
417.694	12157.76948
418.194	11229.9073
418.693	10720.896
419.192	10493.76153
419.691	10307.05835
420.19	9932.77249
420.688	9779.24444
421.187	9030.51845
421.685	8389.30138
422.184	7557.48782
422.682	6454.94016
423.18	5596.46632
423.678	5090.67972
424.176	4656.94942
424.674	4394.84506
425.172	4223.36909
425.669	3936.89816
426.167	3626.59288
426.664	3323.62646
427.161	3060.70109
427.659	2909.16692
428.156	2763.4089
428.652	2556.31216
429.149	2481.07517
429.646	2333.54956
430.143	2221.95165
430.639	2059.81432
431.135	1924.91757
431.632	1824.53667
432.128	1769.73201
432.624	1663.8384
433.12	1635.43524
433.616	1610.24849
434.111	1593.55579
434.607	1462.4277
435.103	1402.94647
435.598	1341.88167
436.093	1336.1966
436.588	1239.01429
437.083	1151.9186
437.578	1120.90804
438.073	994.93813
438.568	954.84422
439.062	1018.64375
439.557	970.76813
440.051	913.63424
440.546	851.56683
441.04	844.60872
441.534	879.82259
442.028	882.70077
442.522	840.64677
443.015	831.45128
443.509	841.68791
444.002	772.57313
444.496	715.26006
444.989	782.5957
445.482	747.54729
445.975	738.39683
446.468	695.23623
446.961	706.22893
447.454	703.29773
447.947	736.47863
448.439	701.4532
448.931	626.19952
449.424	640.35583
449.916	652.32531
450.408	662.28391
450.9	614.27518
451.392	605.32759
451.884	575.11304
452.375	561.20042
452.867	593.13589
453.358	534.03426
453.849	527.95926
454.341	564.09301
454.832	574.05414
455.323	503.07983
455.814	510.01126
456.304	546.07925
456.795	491.96822
457.285	530.00153
457.776	511.98636
458.266	548.1379
458.756	498.03207
459.247	436.91732
459.737	505.06596
460.226	487.95672
460.716	464.98438
461.206	427.89977
461.695	488.08421
462.185	461.96628
462.674	412.83057
463.163	428.82673
463.653	468.85767
464.142	389.8359
464.63	437.94751
465.119	414.86222
465.608	389.79628
466.096	451.86302
466.585	343.70212
467.073	357.7612
467.561	397.8707
468.05	371.76425
468.538	417.92841
469.026	396.85589
469.513	345.6509
470.001	338.69016
470.489	344.73587
470.976	305.64045
471.463	328.7531
471.951	347.78826
472.438	374.79277
472.925	214.46037
473.412	303.67268
473.899	313.65638
474.385	303.68107
474.872	259.55394
475.359	277.62289
475.845	255.4825
476.331	244.48058
476.817	264.58623
477.303	239.51271
477.789	255.56613
478.275	234.54203
478.761	220.49036
479.247	256.52226
479.732	254.59208
480.218	235.57067
480.703	255.59593
481.188	196.38749
481.673	200.42878
482.158	211.42077
482.643	227.53799
483.128	133.2852
483.612	179.3898
484.097	201.45885
484.581	144.30992
485.066	152.34679
485.55	129.26479
486.034	205.41717
486.518	163.36159
487.002	139.3232
487.486	171.39383
487.969	125.29477
488.453	170.40672
488.936	121.25723
489.42	187.38696
489.903	186.44108
490.386	137.27803
490.869	117.23636
491.352	154.35291
491.835	111.21373
492.318	160.34228
492.8	95.18442
493.283	179.43323
493.765	119.28074
494.247	119.26091
494.73	107.22449
495.212	99.2271
495.694	104.23191
496.175	64.14661
496.657	164.37175
497.139	17.02711
497.62	87.19949
498.102	106.25303
498.583	66.15706
499.064	77.16704
499.545	97.2107
500.026	41.08853
500.507	54.11922
500.988	70.16556
501.469	39.09397
501.949	79.18529
502.43	38.08712
502.91	68.1338
503.39	98.2342
503.87	77.17451
504.35	75.16735
504.83	66.13887
505.31	42.09899
505.79	49.11326
506.269	42.09397
506.749	22.04859
507.228	50.11329
507.707	65.138
508.187	75.17011
508.666	15.03562
509.145	32.07236
509.623	61.13752
510.102	76.17598
510.581	66.15149
511.059	42.10313
511.538	31.07754
512.016	97.22332
512.494	29.06759
512.972	75.17294
513.45	37.0842
513.928	25.05902
514.406	66.157
514.884	118.29455
515.361	18.04239
515.839	21.04624
516.316	8.01861
516.793	23.0564
517.27	52.12241
517.747	61.15174
518.224	52.11528
518.701	64.13751
519.178	68.16604
519.654	-8.01815
520.131	-43.10361
520.607	59.14113
521.083	29.06465
521.56	-1.00229
522.036	73.15431
522.512	8.0192
522.987	56.13019
523.463	46.10631
523.939	39.09258
524.414	32.07091
524.89	2.00459
525.365	37.08201
525.84	34.08069
526.315	-43.10125
526.79	-8.01746
527.265	-51.11304
527.74	16.03789
528.215	32.07345
528.689	49.10634
529.164	-33.06875
529.638	37.09264
530.112	80.18392
530.587	39.08164
531.061	-15.03568
531.534	-1.00235
532.008	29.06812
532.482	-12.02632
532.956	49.12322
533.429	-15.0346
533.903	64.13454
534.376	-19.04094
534.849	39.08796
535.322	5.01151
535.795	-24.05753
536.268	-11.02609
536.741	-7.01641
537.213	4.00905
537.686	-41.0977
538.158	21.04587
538.631	-8.01885
539.103	-12.02632
539.575	0
540.047	32.06786
540.519	-8.01851
540.991	17.04007
541.463	29.06857
541.934	22.04908
542.406	24.05584
542.877	-5.01099
543.348	-3.00689
543.82	37.0877
544.291	19.04232
544.762	7.01616
545.233	57.14004
545.703	21.04538
546.174	41.09288
546.645	58.13691
547.115	40.09383
547.585	87.19476
548.056	57.13588
548.526	27.06204
548.996	49.11403
549.466	21.04954
549.935	33.07737
550.405	15.03244
550.875	-14.03239
551.344	73.17061
551.814	-35.07784
552.283	17.03564
552.752	33.07449
553.221	25.05282
553.69	84.18009
554.159	109.26153
554.628	12.02615
555.096	24.0593
555.565	15.03247
556.033	31.07051
556.502	55.12844
556.97	-24.0519
557.438	-12.02786
557.906	22.05072
558.374	-2.00448
558.842	40.09295
559.31	-54.11832
559.777	14.03323
560.245	-3.00679
560.712	-9.01999
561.18	-43.0932
561.647	-13.02827
562.114	-5.01115
562.581	50.1199
563.048	-30.06687
563.514	-16.03876
563.981	15.03322
564.448	47.10231
564.914	35.07861
565.381	-23.05047
565.847	34.07673
566.313	36.08081
566.779	56.12322
567.245	67.15129
567.711	31.07276
568.176	100.22105
568.642	52.12759
569.108	58.13824
569.573	47.10548
570.038	106.21399
570.504	130.28135
570.969	66.15941
571.434	113.23928
571.899	119.27243
572.363	136.29346
572.828	106.22961
573.293	161.35001
573.757	170.3717
574.222	142.30562
574.686	139.29884
575.15	139.31655
575.614	169.36521
576.078	180.39789
576.542	209.44836
577.006	180.38607
577.469	230.52769
577.933	92.19613
578.396	218.49214
578.86	205.44983
579.323	191.42934
579.786	215.43014
580.249	166.35911
580.712	212.4823
581.175	236.54536
581.637	234.50729
582.1	189.38531
582.563	163.31809
583.025	176.40397
583.487	133.25202
583.95	137.28032
584.412	165.32199
584.874	132.30444
585.336	209.46613
585.797	91.18738
586.259	123.27058
586.721	140.31283
587.182	158.34239
587.643	139.29832
588.105	121.27422
588.566	144.28562
589.027	127.29553
589.488	61.13318
589.949	138.31383
590.41	145.26952
590.87	55.1182
591.331	82.16592
591.791	86.1874
592.252	87.19083
592.712	149.33823
593.172	97.20836
593.632	16.03291
594.092	78.16614
594.552	58.1187
595.011	62.13825
595.471	94.20022
595.931	75.15951
596.39	112.25666
596.849	43.0963
597.308	75.1545
597.768	79.19351
598.227	89.20547
598.685	87.18704
599.144	102.22688
599.603	52.1185
600.062	49.09799
600.52	72.15436
600.978	102.23262
601.437	39.08562
601.895	55.11167
602.353	86.17928
602.811	47.1
603.269	55.12586
603.727	60.13822
604.184	54.11712
604.642	8.01896
605.099	35.07793
605.557	47.1089
606.014	44.09074
606.471	124.29837
606.928	140.29561
607.385	112.2652
607.842	136.29874
608.299	135.29661
608.755	112.25636
609.212	121.25678
609.668	66.14156
610.125	146.33001
610.581	80.17699
611.037	115.2466
611.493	101.22461
611.949	58.13436
612.405	123.23478
612.861	94.20605
613.316	149.33837
613.772	92.20133
614.227	95.21373
614.683	113.22848
615.138	157.35089
615.593	12.0267
616.048	79.16933
616.503	119.27648
616.958	107.25527
617.412	92.2071
617.867	128.2711
618.321	50.09621
618.776	61.12843
619.23	91.2054
619.684	86.18207
620.138	43.09328
620.592	27.06283
621.046	75.16638
621.5	100.22972
621.954	106.22313
622.407	100.20929
622.861	1.00231
623.314	78.16881
623.768	83.18443
624.221	102.19049
624.674	15.03285
625.127	37.08304
625.58	14.02985
626.033	46.09504
626.485	17.03904
626.938	22.04991
627.39	41.09133
627.843	42.09191
628.295	53.11704
628.747	65.14713
629.199	71.15508
629.651	5.01099
630.103	94.20518
630.555	10.02009
631.006	15.03375
631.458	-71.16104
631.909	26.05654
632.361	-13.02891
632.812	44.09755
633.263	47.09508
633.714	5.01008
634.165	-18.04127
634.616	-44.10091
635.067	-24.05043
635.518	-41.09322
635.968	16.03033
636.419	4.0082
636.869	-5.01133
637.319	10.02216
637.769	-15.03258
638.219	-32.0726
638.669	-31.07208
639.119	-36.08468
639.569	30.07016
640.019	-8.01771
640.468	-61.1303
640.918	5.01153
641.367	-21.04563
641.816	26.05581
642.265	-21.04693
642.714	-5.01124
643.163	-45.09887
643.612	12.02818
644.061	-56.11424
644.51	22.04839
644.958	-21.04466
645.406	-20.04666
645.855	-4.00943
646.303	2.00447
646.751	-12.02664
647.199	-31.06705
647.647	-23.05202
648.095	-30.06634
648.543	-14.02705
648.99	28.06466
649.438	-19.04329
649.885	15.03611
650.333	-3.00545
650.78	6.01426
651.227	-26.06199
651.674	13.02862
652.121	-78.18355
652.568	-33.07815
653.015	-52.12579
653.461	-18.04155
653.908	-24.05407
654.354	-31.0708
654.801	-64.14755
655.247	8.01676
655.693	-10.02539
656.139	12.02767
656.585	-6.01397
657.031	-21.04815
657.477	-6.01263
657.922	6.01346
658.368	-76.18301
658.813	-77.17089
659.259	-20.04688
659.704	-19.04338
660.149	13.0292
660.594	-8.01844
661.039	-13.02892
661.484	15.03456
661.929	-13.02935
662.373	0
662.818	-19.04632
663.262	-7.01628
663.707	-56.13842
664.151	3.00719
664.595	8.01873
665.039	-9.02163
665.483	29.07206
665.927	-12.02719
666.371	9.02037
666.814	0
667.258	-27.06313
667.701	-14.02861
668.145	-7.01681
668.588	12.02862
669.031	8.01841
669.474	-45.10575
669.917	-9.01912
670.36	-24.05766
670.803	-14.03266
671.245	1.00201
671.688	-27.0638
672.13	-47.10244
672.573	-8.01987
673.015	9.0208
673.457	-3.00637
673.899	-7.01634
674.341	-38.08935
674.783	-21.04937
675.225	-23.05502
675.666	-26.06133
676.108	-54.11512
676.549	-8.01825
676.991	-35.0746
677.432	-46.08766
677.873	-50.11237
678.314	-50.11638
678.755	25.05909
679.196	-17.03807
679.637	-64.15166
680.078	17.03812
680.518	-72.16095
680.959	-26.06047
681.399	-55.13247
681.839	-7.01649
682.28	26.06235
682.72	-44.09759
683.16	-17.04135
683.6	18.03932
684.039	-54.10861
684.479	-67.1618
684.919	-53.12104
685.358	-14.03432
685.798	-46.11735
686.237	4.0093
686.676	-16.03577
687.115	-45.10298
687.554	-36.0831
687.993	-33.06945
688.432	-25.05601
688.871	-41.09046
689.309	62.14544
689.748	19.03785
690.186	-31.07103
690.625	12.02763
691.063	-1.00235
691.501	-48.1162
691.939	-16.03884
692.377	-14.03325
692.815	-45.10649
693.253	-22.05064
693.69	-60.1283
694.128	-12.02859
694.565	8.01847
695.003	2.00494
695.44	-51.11643
695.877	-3.00686
696.314	-31.06412
696.751	-14.03056
697.188	28.06215
697.625	0
698.061	-57.13395
698.498	-30.07038
698.934	-35.08116
699.371	-33.07613
699.807	-35.08074
700.243	7.01649
700.679	12.02607
701.115	-11.02478
701.551	-8.01834
701.987	-28.06008
702.422	-59.13654
702.858	-50.11509
703.294	-23.0499
703.729	6.01427
704.164	15.03508
704.599	-36.07701
705.035	-12.02604
705.47	-13.03111
705.904	-61.13802
706.339	-16.03531
706.774	-37.08355
707.209	-73.16403
707.643	-26.06059
708.078	-33.07779
708.512	-12.02973
708.946	-12.02757
709.38	-70.16074
709.814	-29.06353
710.248	-47.10993
710.682	1.00232
711.116	-12.02805
711.549	-47.1176
711.983	-87.19509
712.416	-60.13612
712.85	11.02664
713.283	-27.06181
713.716	-37.08962
714.149	-68.15577
714.582	-37.08047
715.015	-35.08433
715.448	-39.094
715.881	-57.11763
716.313	-26.05934
716.746	-1.00228
717.178	-42.0976
717.61	0
718.043	-64.15394
718.475	-17.03956
718.907	-52.12574
719.339	-56.12332
719.77	1.00232
720.202	-13.03169
720.634	-8.01896
721.065	-13.02957
721.497	22.05185
721.928	-42.10091
722.359	-54.129
722.79	-12.0277
723.221	-71.17236
723.652	-25.06169
724.083	-52.11288
724.514	-76.16603
724.945	-8.0181
725.375	-15.03368
725.806	-79.18854
726.236	-8.0197
726.666	-18.04059
727.096	-26.06106
727.526	-31.07661
727.956	-58.12757
728.386	1.00232
728.816	-21.05159
729.246	-34.08069
729.675	7.01673
730.105	-34.08026
730.534	15.03346
730.964	-41.09894
731.393	-22.05143
731.822	-12.02969
732.251	-21.05182
732.68	-62.13728
733.109	-8.01901
733.537	-78.1829
733.966	-23.05477
734.395	-12.02626
734.823	-41.08777
735.251	-35.08141
735.68	10.02381
736.108	-31.07526
736.536	13.02915
736.964	-66.14723
737.392	-54.12969
737.82	-23.05263
738.247	-57.13044
738.675	-41.09269
739.102	13.03151
739.53	-15.03719
739.957	-45.11153
740.384	-7.01628
740.811	10.02442
741.238	-24.05584
741.665	4.00899
742.092	-15.03383
742.519	-22.05312
742.945	-4.00916
743.372	-1.00238
743.798	-36.08934
744.225	-15.03402
744.651	-19.04559
745.077	-28.0672
745.503	-22.05102
745.929	-3.00683
746.355	-8.01863
746.781	-17.04034
747.207	-11.02509
747.632	-19.04489
748.058	-55.13126
748.483	-15.03251
748.908	-7.01667
749.334	-26.0613
749.759	-50.11302
750.184	-27.06166
750.609	-19.04444
751.033	-64.14254
751.458	56.11881
751.883	-15.03533
752.307	39.08835
752.732	-7.01706
753.156	-38.09033
753.58	-7.01575
754.005	-1.00245
754.429	-110.24752
754.853	-3.00715
755.277	47.10583
755.7	-12.02845
756.124	8.01926
756.548	-9.02055
756.971	-26.06056
757.394	-51.12724
757.818	-33.08278
758.241	-45.10965
758.664	45.10937
759.087	8.01734
759.51	25.05921
759.933	5.01159
760.356	-6.01475
760.778	75.17735
761.201	-54.1241
761.623	-58.13302
762.046	-62.13762
762.468	-28.06406
762.89	29.06794
763.312	-23.05335
763.734	-23.05337
764.156	13.03076
764.578	-42.09129
765	-13.03036
765.421	45.11121
765.843	12.03036
766.264	-29.06645
766.686	7.01698
767.107	38.08862
767.528	9.02214
767.949	-26.0637
768.37	-30.07043
768.791	18.04108
769.212	22.0538
769.632	-59.13235
770.053	13.033
770.473	-1.00233
770.894	-20.04736
771.314	-33.07436
771.734	-58.12912
772.154	-13.03216
772.575	11.02405
772.994	-44.09621
773.414	-48.10805
773.834	6.01446
774.254	-22.05133
774.673	16.0368
775.093	17.04048
775.512	-27.06454
775.931	18.04415
776.351	-33.07831
776.77	1.00235
777.189	-39.08817
777.607	1.00246
778.026	-3.00722
778.445	13.03162
778.864	-29.07125
779.282	-46.10533
779.701	-15.03635
780.119	-40.09694
780.537	-40.09603
780.955	-16.03888
781.373	-2.00472
781.791	20.04275
782.209	42.09144
782.627	-4.01022
783.045	-11.02406
783.462	-27.06594
783.88	-10.02507
784.297	-13.03141
784.715	28.06992
785.132	-51.11877
785.549	2.00486
785.966	-86.20936
786.383	-10.02373
786.8	15.033
787.217	-56.1273
787.633	-71.17243
788.05	-53.11704
788.466	-5.01108
788.883	-28.06961
789.299	-45.10294
789.715	3.00701
790.131	-66.15773
790.547	-116.27689
790.963	-33.07876
791.379	-45.11015
791.795	-12.02587
792.21	-13.02875
792.626	-52.11816
793.041	-56.13224
793.457	-15.03524
793.872	-37.08341
794.287	10.02333
794.702	-12.02804
795.117	-36.08531
795.532	19.04602
795.947	-53.12085
796.362	-19.04266
796.776	-32.06878
797.191	-17.03953
797.605	-19.04359
798.02	-42.0991
798.434	-69.14508
798.848	-42.09864
799.262	37.08861
799.676	-33.07613
800.09	-32.07495
800.504	-35.08113
800.918	-54.11917
801.331	-21.05245
801.745	-49.10689
802.158	-38.09102
802.572	-55.12713
802.985	-50.11403
803.398	17.03829
803.811	1.00243
804.224	-20.04732
804.637	-118.26813
805.05	-6.01313
805.462	-25.05836
805.875	-7.01779
806.288	-27.0631
806.7	-37.08925
807.112	3.00656
807.525	17.04
807.937	-47.11191
808.349	-59.14167
808.761	-58.13489
809.173	-61.14016
809.584	-3.007
809.996	-56.13275
810.408	-16.03991
810.819	-11.02464
811.231	21.0533
811.642	55.12895
812.053	25.05733
812.464	17.03862
812.875	-18.04426
813.286	-39.09624
813.697	-47.10148
814.108	-63.14603
814.519	-22.04576
814.929	10.02395
815.34	-48.11115
815.75	-16.03892
816.16	-51.11962
816.571	-1.00249
816.981	-78.17364
817.391	-33.07564
817.801	6.0144
818.211	42.09435
818.62	6.01363
819.03	-58.13457
819.44	-25.06235
819.849	-6.01449
820.259	-35.08634
820.668	11.02604
821.077	-44.10535
821.486	-29.06551
821.895	-37.08542
822.304	-24.06131
822.713	-32.07159
823.122	2.00478
823.531	7.01577
823.939	-24.0559
824.348	25.05756
824.756	1.00237
825.164	4.00947
825.573	-49.11824
825.981	12.02822
826.389	-4.00941
826.797	-19.04555
827.205	-61.13352
827.612	-52.12184
828.02	-16.03605
828.428	11.0265
828.835	-25.06354
829.243	-3.00672
829.65	-30.07167
830.057	-6.01399
830.464	2.00468
830.871	-14.03158
831.278	-44.10047
831.685	-36.07465
832.092	43.09959
832.499	-49.10053
832.905	-5.01212
833.312	-41.08769
833.718	-33.07806
834.124	-8.01726
834.531	-27.06459
834.937	-63.15415
835.343	8.01825
835.749	-44.09637
836.155	-41.10303
836.561	-75.17377
836.966	0
837.372	-29.07027
837.777	-66.157
838.183	-57.11658
838.588	-14.03333
838.993	-26.05934
839.399	-49.11403
839.804	-16.03761
840.209	-2.00491
840.613	-28.05943
841.018	-92.22255
841.423	-61.14886
841.828	-28.0676
842.232	-73.17014
842.637	-37.08133
843.041	11.02735
843.445	-72.172
843.849	-34.08041
844.253	-33.07357
844.657	-26.06327
845.061	14.02977
845.465	25.05831
845.869	-34.07431
846.272	-15.0347
846.676	6.01375
847.079	-15.03678
847.483	-36.08541
847.886	-12.02707
848.289	2.00521
848.692	-48.11624
849.095	-56.12663
849.498	-53.12571
849.901	-48.10304
850.304	-55.12409
850.707	-4.00967
851.109	-44.10415
851.512	-19.04482
851.914	13.03184
852.316	18.04333
852.718	-26.06535
853.121	-48.11256
853.523	-62.13757
853.925	-39.09818
854.326	13.03126
854.728	-23.05663
855.13	-37.09258
855.531	15.03442
855.933	-46.10461
856.334	-31.07435
856.736	-69.1454
857.137	-36.07935
857.538	-20.04802
857.939	-14.03319
858.34	-40.09203
858.741	-9.02245
859.142	-7.01595
859.542	22.05666
859.943	13.03087
860.343	-30.0715
860.744	-7.01625
861.144	-37.08593
861.544	-28.06517
861.945	-30.07254
862.345	-73.16766
862.745	-63.1503
863.145	-19.04189
863.544	28.06781
863.944	-7.0155
864.344	-8.01854
864.743	15.03513
865.143	6.01466
865.542	-56.12281
865.941	17.04018
866.34	-9.02039
866.74	-37.09567
867.139	-16.03659
867.537	-41.09927
867.936	-12.02747
868.335	21.05108
868.734	-7.01727
869.132	-22.04869
869.531	12.02721
869.929	-21.04569
870.327	-47.1073
870.726	-9.02117
871.124	9.01949
871.522	-71.1723
871.92	30.06938
872.318	21.04848
872.715	43.09919
873.113	-21.04873
873.511	30.07062
873.908	-9.02224
874.306	-2.00474
874.703	-17.04034
875.1	1.00241
875.497	-48.10872
875.894	-16.03802
876.291	12.02804
876.688	-60.14868
877.085	-31.07006
877.482	-34.08041
877.878	-50.11523
878.275	-43.10415
878.671	-89.18219
879.068	-20.04556
879.464	-3.00687
879.86	-2.00453
880.256	-42.09725
880.652	-50.12177
881.048	-1.00231
881.444	-55.12247
881.84	-35.08452
882.236	6.01433
882.631	-12.02799
883.027	-34.0767
883.422	-38.09286
883.817	-6.01455
884.213	-17.04175
884.608	-31.07333
885.003	-3.00686
885.398	-37.08847
885.793	-17.04035
886.188	-21.05043
886.582	-67.16168
886.977	2.00445
887.371	-29.06985
887.766	-50.12036
888.16	-18.04277
888.554	-21.0486
888.949	-50.11803
889.343	-65.14935
889.737	2.0052
890.131	-12.02879
890.525	-6.01454
890.918	-4.00966
891.312	-48.10677
891.706	11.02776
892.099	2.00481
892.492	-17.0342
892.886	-32.07386
893.279	-3.00727
893.672	-7.01704
894.065	-25.05928
894.458	-25.05973
894.851	-71.16346
895.244	-32.07834
895.637	11.025
896.029	-65.15203
896.422	-64.14861
896.814	-33.0784
897.206	-24.05489
897.599	-32.0733
897.991	-35.08077
898.383	-25.05553
898.775	-11.02315
899.167	-53.11904
899.559	9.02142
899.951	-14.03097
900.342	-44.10491
900.734	-41.09972
901.125	-19.04716
901.517	14.03261
901.908	-20.04475
902.299	0
902.69	-35.07835
903.082	3.00683
903.473	-27.06211
903.863	5.01227
904.254	-20.04347
904.645	-26.06044
905.036	33.07637
905.426	-66.13832
905.817	-24.05586
906.207	-43.09805
906.597	-37.08235
906.987	-43.10521
907.378	-52.12512
907.768	-22.05605
908.158	-6.01387
908.547	-40.09959
908.937	-38.09279
909.327	-17.03883
909.717	-2.00476
910.106	-28.06375
910.495	19.04503
910.885	-60.14295
911.274	24.05689
911.663	22.0533
912.052	-25.05792
912.441	-22.05394
912.83	-52.11221
913.219	-13.03203
913.608	-20.04637
913.997	-64.15394
914.385	-64.1436
914.774	-32.07354
915.162	-43.0967
915.55	-12.02742
915.939	18.04321
916.327	-31.07356
916.715	-28.0689
917.103	33.07537
917.491	-37.08563
917.878	-58.1335
918.266	-20.04942
918.654	-11.02712
919.041	-31.07773
919.429	-61.1378
919.816	-36.08656
920.203	-28.0645
920.591	-12.02794
920.978	-29.06711
921.365	-23.05746
921.752	-26.05896
922.139	9.01826
922.525	-44.10039
922.912	-36.08296
923.299	-34.081
923.685	-68.17128
924.072	-60.12913
924.458	10.02341
924.844	-36.08472
925.231	-37.08068
925.617	3.00738
926.003	-1.00243
926.389	6.0145
926.774	27.06493
927.16	-17.03979
927.546	-21.05142
927.931	-17.04023
928.317	-60.12808
928.702	-25.05521
929.088	-23.05168
929.473	-17.04127
929.858	-28.06568
930.243	-49.11281
930.628	-16.03668
931.013	15.03559
931.398	-48.10295
931.783	-4.01004
932.167	-34.07842
932.552	-41.09642
932.937	-70.16331
933.321	-51.12181
933.705	6.01451
934.09	-47.11148
934.474	2.00445
934.858	-28.06987
935.242	0
935.626	-56.13689
936.009	-34.0868
936.393	23.0559
936.777	-8.01969
937.16	-62.15308
937.544	-10.02201
937.927	-34.08277
938.311	-13.02968
938.694	-6.01513
939.077	-87.19765
939.46	12.02783
939.843	-58.11079
940.226	-39.0951
940.609	-12.02567
940.991	-73.17881
941.374	-32.07377
941.757	-6.01394
942.139	10.02068
942.522	-35.07687
942.904	-28.06393
943.286	-45.10814
943.668	-20.0494
944.05	-59.1387
944.432	-33.07782
944.814	-41.095
945.196	-20.04692
945.578	-34.07776
945.959	17.03734
946.341	-65.14887
946.722	9.01987
947.104	-57.12829
947.485	-31.06777
947.866	3.00724
948.247	-12.0288
948.628	-61.14066
949.009	-58.14326
949.39	-67.15616
949.771	-10.0216
950.152	4.00932
950.532	24.05755
950.913	-60.13601
951.293	-4.01046
951.674	-56.12777
952.054	-28.06627
952.434	-56.13152
952.814	-64.14201
953.194	11.02743
953.574	-50.11532
953.954	-1.00223
954.334	-2.00475
954.714	-63.1473
955.093	-37.08508
955.473	-57.1352
955.853	-14.03473
956.232	-15.03951
956.611	-22.04869
956.99	16.03818
957.37	-32.07782
957.749	-79.1778
958.128	-13.0315
958.506	-20.05007
958.885	-23.05491
959.264	-79.18608
959.643	-2.00426
960.021	-39.09222
960.4	11.02361
960.778	-21.04792
961.156	-17.04046
961.535	-47.10079
961.913	-69.14969
962.291	-6.01487
962.669	-44.107
963.047	-76.18398
963.424	-38.09317
963.802	-59.13686
964.18	-3.00713
964.557	-52.111
964.935	-48.10717
965.312	-5.0125
965.69	-17.04009
966.067	-25.0571
966.444	-16.03725
966.821	-32.07825
967.198	-59.13382
967.575	-28.06442
967.952	4.00883
968.329	-7.01598
968.705	-72.14234
969.082	-12.02954
969.458	-8.01838
969.835	10.02282
970.211	-25.06133
970.587	-6.01413
970.963	-36.08797
971.339	16.04008
971.715	-70.1644
972.091	-37.08624
972.467	-51.11901
972.843	-29.06847
973.219	-3.00665
973.594	-55.13866
973.97	-39.08637
974.345	-63.14336
974.721	-19.0431
975.096	-64.14596
975.471	40.08861
975.846	-9.02055
976.221	-25.06062
976.596	-96.22088
976.971	-3.00699
977.346	-67.14553
977.72	-24.05808
978.095	-54.1344
978.469	-18.04059
978.844	5.01183
979.218	-40.09192
979.593	19.04268
979.967	-43.10022
980.341	-23.0493
980.715	-64.15347
981.089	-58.13712
981.463	-30.06568
981.837	8.01858
982.21	-48.10433
982.584	-30.06814
982.957	1.00238
983.331	14.03093
983.704	4.00934
984.078	-34.07904
984.451	-71.16476
984.824	-22.05125
985.197	-5.01139
985.57	-33.07785
985.943	-31.07088
986.316	20.04602
986.688	-22.04979
987.061	-11.02389
987.434	-39.09762
987.806	-28.06378
988.179	-36.07961
988.551	-12.02862
988.923	-46.10736
989.295	-6.01412
989.667	-21.04852
990.039	-22.05187
990.411	1.00217
990.783	5.01067
991.155	-21.04856
991.527	-32.07283
991.898	-56.13229
992.27	-52.12303
992.641	-7.0165
993.012	34.075
993.384	-23.05179
993.755	-44.1066
994.126	20.04515
994.497	-22.05108
994.868	-13.02808
995.239	-5.01149
995.61	-36.086
995.98	30.06905
996.351	10.02357
996.722	-1.00219
997.092	-21.0475
997.462	-30.06706
997.833	23.05056
998.203	-46.10504
998.573	-54.12959
998.943	-22.0479
999.313	8.01811
999.683	-46.10355
1000.053	-1.00216
1000.423	-14.03211
1000.792	-14.03466
1001.162	-14.03283
1001.531	14.0327
1001.901	-13.0305
1002.27	34.07066
1002.639	-15.03662
1003.009	14.03167
1003.378	1.00243
1003.747	-21.04647
1004.116	-59.13529
1004.485	-9.02039
1004.853	-30.07243
1005.222	29.06966
1005.591	-23.05094
1005.959	-13.02785
1006.328	-80.16996
1006.696	-49.11331
1007.064	-33.07915
1007.433	11.02608
1007.801	-11.02525
1008.169	-39.09308
1008.537	44.09001
1008.905	8.01752
1009.273	-17.03967
1009.64	-42.09567
1010.008	-13.02905
1010.375	18.04082
1010.743	-16.03368
1011.11	17.03776
1011.478	-28.06556
1011.845	-47.10261
1012.212	-71.15034
1012.579	17.03936
1012.946	-64.14212
1013.313	-39.08734
1013.68	-42.08783
1014.047	-7.01597
1014.414	-26.05858
1014.78	2.00475
1015.147	-36.08101
1015.513	23.0528
1015.88	-37.08881
1016.246	7.01632
1016.612	41.08568
1016.978	-3.0069
1017.344	-31.07367
1017.71	-34.07663
1018.076	2.0044
1018.442	-22.05362
1018.808	2.00473
1019.174	-51.12134
1019.539	-54.11332
1019.905	-3.00669
1020.27	-9.02124
1020.636	3.00673
1021.001	-63.14226
1021.366	13.02991
1021.731	-8.01965
1022.096	-34.08268
1022.461	-85.18935
1022.826	-48.10832
1023.191	-25.06282
1023.556	-62.13556
1023.92	-51.11774
1024.285	-12.02748
1024.649	1.00231
1025.014	-20.04681
1025.378	45.10744
1025.742	-21.04935
1026.107	-28.05847
1026.471	-22.04702
1026.835	-43.10018
1027.199	-53.12217
1027.562	7.0153
1027.926	-15.03446
1028.29	-11.02651
1028.654	-56.12021
1029.017	9.02089
1029.381	-26.05901
1029.744	-10.02442
1030.107	-87.19219
1030.471	-38.08565
1030.834	-89.18846
1031.197	-36.08054
1031.56	17.03793
1031.923	-7.01718
1032.286	14.0304
1032.648	-56.12601
1033.011	-23.04973
1033.374	-24.05214
1033.736	-32.08054
1034.099	-28.06504
1034.461	7.0169
1034.823	-64.15154
1035.185	-102.24338
1035.548	-58.13398
1035.91	-10.02274
1036.272	-10.02129
1036.634	-63.14464
1036.995	17.03771
1037.357	14.03208
1037.719	-1.00228
1038.08	-75.16596
1038.442	2.00456
1038.803	-40.09012
1039.165	-48.11594
1039.526	-16.0365
1039.887	-4.00907
1040.248	-23.05502
1040.609	-30.0701
1040.97	-19.04381
1041.331	-78.18605
1041.692	-21.04661
1042.053	-51.10804
1042.413	-38.08224
1042.774	-10.02277
1043.134	-23.05083
1043.495	-57.13572
1043.855	-14.03206
1044.215	-42.09876
1044.576	-27.06154
1044.936	31.06622
1045.296	-37.08719
1045.656	-40.09306
1046.016	-41.09228
1046.375	7.01611
1046.735	-61.13261
1047.095	-23.05073
1047.454	-19.03713
1047.814	-39.08796
1048.173	-40.08838
1048.533	13.02791
1048.892	-77.17819
1049.251	-10.02375
1049.61	-41.09466
1049.969	7.01557
1050.328	-105.21211
1050.687	-39.08972
1051.046	8.01847
1051.405	-45.10492
1051.763	-12.026
1052.122	-14.03348
1052.48	-23.05295
1052.839	-53.11836
1053.197	-46.10258
1053.555	-55.1133
1053.914	-25.05751
1054.272	-11.02491
1054.63	-71.16463
1054.988	-52.11677
1055.345	-57.11319
1055.703	-53.11963
1056.061	-59.14575
1056.419	-39.09716
1056.776	-5.01134
1057.134	-79.17306
1057.491	-8.01888
1057.848	-43.10105
1058.206	-24.05296
1058.563	-7.01452
1058.92	-19.04048
1059.277	-89.20621
1059.634	-87.19026
1059.991	12.02704
1060.348	-8.01706
1060.704	-42.09505
1061.061	-84.18056
1061.418	-35.08103
1061.774	4.00946
1062.131	-40.10398
1062.487	-15.03261
1062.843	-3.00705
1063.199	-34.08091
1063.555	1.00219
1063.911	-21.0501
1064.267	-25.0467
1064.623	-5.01159
1064.979	-50.10868
1065.335	-8.0176
1065.691	25.05654
1066.046	-11.0222
1066.402	-73.15681
1066.757	-26.06247
1067.112	-68.15708
1067.468	-43.09797
1067.823	-15.03408
1068.178	26.0592
1068.533	-18.04075
1068.888	0
1069.243	-34.0801
1069.598	-88.20094
1069.952	30.06387
1070.307	-17.0406
1070.662	5.01117
1071.016	-40.08516
1071.371	-53.11301
1071.725	-73.1612
1072.079	-43.09765
1072.434	-51.11751
1072.788	21.04709
1073.142	39.09054
1073.496	-41.09205
1073.85	-37.08051
1074.203	-20.04554
1074.557	-2.00511
1074.911	-10.0221
1075.265	-62.13441
1075.618	38.08698
1075.971	-63.14133
1076.325	-7.01689
1076.678	-44.09482
1077.031	-47.09974
1077.385	29.05931
1077.738	-4.00844
1078.091	-38.0827
1078.444	10.02127
1078.796	3.00699
1079.149	-59.13789
1079.502	-44.0986
1079.855	-34.07516
1080.207	-42.09787
1080.56	-38.09375
1080.912	-67.15265
1081.264	-21.04763
1081.617	-33.07643
1081.969	16.03889
1082.321	-33.0764
1082.673	-23.04998
1083.025	-13.02867
1083.377	-56.11014
1083.728	-67.14467
1084.08	7.0166
1084.432	-83.18635
1084.783	54.11827
1085.135	-19.0459
1085.486	-70.15331
1085.838	-31.07239
1086.189	-25.0573
1086.54	-14.03141
1086.891	-10.02436
1087.242	-64.14708
1087.593	-33.07518
1087.944	-35.07395
1088.295	-23.04821
1088.646	-19.04355
1088.996	-74.16965
1089.347	-65.1509
1089.698	-36.08131
1090.048	-17.04166
1090.398	-20.04377
1090.749	-24.05431
1091.099	1.00241
1091.449	-48.11291
1091.799	-30.07112
1092.149	-12.02837
1092.499	11.0253
1092.849	-19.04599
1093.199	-55.13061
1093.548	-36.08247
1093.898	-33.07873
1094.248	-18.04395
1094.597	-9.0222
1094.947	-12.03053
1095.296	-51.11919
1095.645	-55.13647
1095.994	-36.08227
1096.343	-12.02898
1096.692	-2.00507
1097.041	-41.10792
1097.39	-34.08072
1097.739	15.03712
1098.088	-44.11182
1098.437	-27.06831
1098.785	-36.09268
1099.134	-51.1282
1099.482	-39.10244
1099.83	-32.08005
1100.179	-27.06848
1100.527	-27.06814
1100.875	-27.06836
1101.223	4.01022
1101.571	-10.02672
1101.919	-32.08098
1102.267	8.02194
1102.615	6.01928
1102.962	5.01604
1103.31	4.01285
1103.658	-6.01925
