Data from N3 R6 sample 4_Subt2__0__15-28-10-527.txt Node

Date: Fri Sep 19 15:28:10 PDT 2025
User: uwsun
Spectrometer: HDX01956
Trigger mode: 0
Integration Time (sec): 5.000000E-1
Scans to average: 1
Nonlinearity correction enabled: true
Boxcar width: 0
Storing dark spectrum: false
XAxis mode: Wavelengths
Number of Pixels in Spectrum: 2068
>>>>>Begin Spectral Data<<<<<
194.03	-5.01453
194.578	14.04546
195.127	11.03526
195.676	-1.00321
196.225	-18.04772
196.773	25.06958
197.321	10.02789
197.87	-10.02597
198.418	5.01308
198.966	31.08212
199.513	33.08456
200.061	-20.05135
200.609	-4.01063
201.156	-65.14341
201.704	-40.1019
202.251	18.04794
202.798	-13.03426
203.345	4.00997
203.892	17.043
204.438	20.048
204.985	6.01442
205.532	32.08631
206.078	-16.03977
206.624	38.09434
207.17	40.0927
207.716	-39.09532
208.262	47.09207
208.808	4.01005
209.354	-34.08398
209.899	2.00505
210.445	-8.02029
210.99	12.02924
211.535	9.02123
212.08	14.03259
212.625	-4.01008
213.17	-23.05867
213.715	-26.05944
214.259	15.03529
214.804	13.03201
215.348	-9.02072
215.892	-1.00243
216.436	30.06985
216.98	1.0022
217.524	-18.04295
218.068	-10.02533
218.612	5.01251
219.155	-3.00709
219.698	-40.09541
220.242	11.02734
220.785	48.11176
221.328	35.0871
221.871	61.1529
222.414	-13.03203
222.956	-10.02436
223.499	-33.07479
224.041	3.00687
224.583	50.10585
225.126	56.12431
225.668	-1.00244
226.21	-15.03786
226.751	-43.09372
227.293	-30.0682
227.835	0
228.376	22.04993
228.918	35.08764
229.459	23.05786
230	-18.04295
230.541	9.02053
231.082	-25.06096
231.622	19.04359
232.163	50.12136
232.704	-8.01981
233.244	-11.02732
233.784	-10.02428
234.324	28.0621
234.864	-20.04523
235.404	13.03044
235.944	-23.05409
236.484	-17.04198
237.023	-29.06916
237.563	-17.03933
238.102	-9.02125
238.641	36.0911
239.18	7.01647
239.719	42.10545
240.258	-28.06272
240.797	43.10255
241.335	-45.10929
241.874	-14.0272
242.412	18.04285
242.95	14.0337
243.488	-25.0573
244.026	11.02538
244.564	49.09921
245.102	22.04916
245.64	24.05725
246.177	-36.08051
246.715	-16.03796
247.252	27.06077
247.789	-2.00353
248.326	-45.10781
248.863	-6.01306
249.4	55.12485
249.936	-36.07414
250.473	1.00234
251.009	-7.01621
251.546	30.0659
252.082	73.15863
252.618	15.03357
253.154	-6.01442
253.69	-3.00672
254.226	7.01659
254.761	14.0308
255.297	-9.01979
255.832	-7.01646
256.367	5.01167
256.903	-9.0196
257.438	-16.03715
257.972	-46.10215
258.507	5.01159
259.042	-51.10908
259.576	3.00647
260.111	-21.04835
260.645	41.08807
261.179	-20.04644
261.713	-4.00882
262.247	58.13345
262.781	-26.05516
263.315	32.0779
263.849	-61.15406
264.382	-29.06639
264.915	5.01178
265.449	-48.11864
265.982	6.01341
266.515	-9.02197
267.048	-26.05557
267.58	-76.16505
268.113	-10.0218
268.646	25.06194
269.178	-12.02686
269.71	-4.00866
270.243	-4.0091
270.775	19.04819
271.307	-24.05698
271.838	25.05841
272.37	9.02218
272.902	27.06137
273.433	-10.02169
273.965	31.07588
274.496	3.00735
275.027	-15.03706
275.558	-21.05098
276.089	15.03759
276.62	-36.09152
277.15	-7.0172
277.681	-52.11153
278.211	-41.10017
278.741	4.0089
279.272	3.00685
279.802	31.07712
280.332	-20.04739
280.861	4.0096
281.391	-43.09777
281.921	-31.07387
282.45	23.0579
282.98	39.10133
283.509	13.02907
284.038	-11.02463
284.567	-24.05504
285.096	-23.0559
285.625	6.0138
286.153	-41.09646
286.682	-9.02043
287.21	-16.03854
287.739	-22.05173
288.267	6.01459
288.795	13.03399
289.323	11.02604
289.851	-12.02799
290.378	-3.00674
290.906	-31.0761
291.433	9.02243
291.961	-26.05872
292.488	30.07432
293.015	30.07093
293.542	16.04026
294.069	6.01473
294.596	-27.06702
295.122	-4.00957
295.649	35.07738
296.175	-12.02871
296.702	-8.01919
297.228	-24.05753
297.754	-15.03368
298.28	4.00904
298.806	32.07703
299.332	-46.10279
299.857	-33.07467
300.383	-17.04272
300.908	13.03184
301.433	53.12838
301.958	-35.07984
302.483	49.12313
303.008	-40.09876
303.533	-30.0771
304.058	-48.11366
304.582	-1.00237
305.107	22.0577
305.631	-6.01356
306.155	17.03995
306.679	-14.03298
307.203	10.02327
307.727	17.04053
308.251	-12.02965
308.775	-67.16106
309.298	-3.00727
309.822	-11.02781
310.345	48.11287
310.868	-22.05286
311.391	8.01963
311.914	1.00252
312.437	-18.04082
312.96	9.02131
313.482	16.03806
314.005	34.08502
314.527	19.04999
315.049	14.0351
315.571	53.11997
316.093	44.10912
316.615	21.05102
317.137	7.01511
317.659	-2.00481
318.18	22.0531
318.702	41.09511
319.223	-3.00618
319.744	35.07868
320.265	2.00489
320.786	30.07423
321.307	82.20276
321.828	43.09777
322.348	47.11075
322.869	-41.09635
323.389	238.42249
323.909	21.04827
324.43	26.06199
324.95	9.02079
325.47	31.07653
325.989	54.12915
326.509	-29.065
327.029	12.02717
327.548	27.06114
328.067	24.05786
328.587	29.07238
329.106	30.06792
329.625	-4.01036
330.144	-11.02531
330.662	38.08803
331.181	22.05169
331.7	-15.03535
332.218	49.10693
332.736	-1.00233
333.255	-2.00468
333.773	47.11118
334.291	12.02965
334.808	15.03328
335.326	33.07467
335.844	17.04017
336.361	21.05319
336.879	31.07222
337.396	27.06439
337.913	35.07997
338.43	46.10444
338.947	19.04543
339.464	12.02586
339.981	31.07398
340.497	67.16448
341.014	11.02665
341.53	22.05038
342.046	59.14457
342.562	53.13131
343.078	46.10757
343.594	62.14822
344.11	75.17632
344.626	24.06084
345.141	60.13739
345.657	39.0872
346.172	69.16411
346.687	37.08532
347.202	111.24562
347.717	65.15453
348.232	57.14215
348.747	97.22028
349.261	112.24654
349.776	72.16679
350.29	51.12627
350.805	39.09528
351.319	94.21706
351.833	74.16822
352.347	29.06709
352.861	111.25524
353.374	78.17624
353.888	75.17817
354.401	44.10075
354.915	43.09714
355.428	89.2197
355.941	68.15808
356.454	103.22754
356.967	92.21573
357.48	28.06412
357.993	77.18735
358.505	84.20572
359.018	57.13692
359.53	74.1759
360.042	5.01099
360.554	46.11027
361.066	50.12063
361.578	141.30353
362.09	85.20037
362.602	53.1165
363.113	30.06839
363.625	127.28325
364.136	138.29624
364.647	87.20061
365.158	114.26209
365.669	139.3311
366.18	6.01385
366.691	84.18343
367.201	61.14357
367.712	80.17736
368.222	155.35099
368.733	141.30262
369.243	60.13019
369.753	81.18357
370.263	76.17738
370.773	116.28155
371.282	115.26708
371.792	96.21567
372.301	133.3151
372.811	123.31285
373.32	123.25544
373.829	179.41258
374.338	85.1866
374.847	112.25047
375.356	135.31551
375.865	164.33792
376.373	183.40088
376.882	203.49353
377.39	162.37972
377.898	178.42797
378.407	165.35535
378.915	183.378
379.423	233.52567
379.93	176.38221
380.438	207.48605
380.946	237.52814
381.453	252.57306
381.96	266.59632
382.468	302.67395
382.975	281.64998
383.482	290.61097
383.989	317.75994
384.495	319.68491
385.002	374.71895
385.509	343.73707
386.015	453.81909
386.521	360.73308
387.028	435.8852
387.534	485.92135
388.04	438.92558
388.546	441.86717
389.051	501.95778
389.557	540.08484
390.063	585.16216
390.568	566.15286
391.073	614.16457
391.578	589.20114
392.084	580.07588
392.589	726.28049
393.093	744.40272
393.598	821.45261
394.103	924.67561
394.607	940.6719
395.112	996.81563
395.616	1089.87542
396.12	1158.83419
396.624	1268.96257
397.128	1436.17098
397.632	1636.19912
398.136	1708.22616
398.639	1859.37995
399.143	2154.64656
399.646	2373.3795
400.15	2568.25662
400.653	2968.07306
401.156	3257.59438
401.659	3746.524
402.162	4893.47002
402.664	7012.43758
403.167	12023.62458
403.67	31749.62072
404.172	51892.27683
404.674	37291.05854
405.176	4428.40989
405.678	533.47942
406.18	0
406.682	0
407.184	6962.89417
407.686	28840.02185
408.187	17792.16768
408.688	11488.64987
409.19	8819.31429
409.691	7297.5258
410.192	6138.60873
410.693	5513.45711
411.194	4985.84825
411.694	4799.23355
412.195	4376.85488
412.696	4085.89401
413.196	3777.62103
413.696	3901.28181
414.196	3974.727
414.696	3827.42706
415.196	3469.42637
415.696	2997.57996
416.196	2250.10907
416.695	1870.25373
417.195	1750.31402
417.694	1574.7204
418.194	1494.78388
418.693	1420.99186
419.192	1467.16135
419.691	1418.12195
420.19	1380.10903
420.688	1343.18085
421.187	1274.63013
421.685	1203.90205
422.184	1060.77646
422.682	829.38101
423.18	772.39801
423.678	633.17819
424.176	631.18087
424.674	597.07474
425.172	537.06019
425.669	499.05834
426.167	502.99107
426.664	435.86101
427.161	395.79099
427.659	364.79851
428.156	375.70299
428.652	302.69453
429.149	325.71342
429.646	220.44371
430.143	296.64853
430.639	279.60471
431.135	169.39124
431.632	233.49143
432.128	240.53804
432.624	167.39977
433.12	199.42654
433.616	199.40496
434.111	199.4464
434.607	161.36369
435.103	176.34191
435.598	174.33609
436.093	126.27736
436.588	122.2611
437.083	130.27786
437.578	117.25349
438.073	82.19454
438.568	110.25572
439.062	78.15971
439.557	78.17444
440.051	70.15267
440.546	103.22544
441.04	9.02065
441.534	93.2267
442.028	101.23141
442.522	77.17826
443.015	63.13247
443.509	82.19349
444.002	81.19109
444.496	25.05208
444.989	100.23578
445.482	61.14581
445.975	38.08432
446.468	24.05019
446.961	49.10026
447.454	12.02602
447.947	77.17833
448.439	91.21451
448.931	25.05493
449.424	21.05054
449.916	30.06969
450.408	72.15949
450.9	5.0118
451.392	18.04441
451.884	0
452.375	-15.03613
452.867	35.07619
453.358	-20.04393
453.849	56.11414
454.341	-10.02207
454.832	15.03147
455.323	50.11798
455.814	-65.14641
456.304	6.01338
456.795	16.03507
457.285	-48.10371
457.776	-30.06543
458.266	48.11093
458.756	-34.07895
459.247	17.03906
459.737	16.03745
460.226	16.03492
460.716	37.0858
461.206	-21.0486
461.695	-5.01226
462.185	-19.04404
462.674	14.0308
463.163	-7.01493
463.653	14.0286
464.142	-24.05615
464.63	21.04956
465.119	8.01816
465.608	-10.02232
466.096	3.00636
466.585	-38.08449
467.073	-39.09029
467.561	42.09899
468.05	-9.02012
468.538	53.12688
469.026	23.05367
469.513	-32.06597
470.001	-36.07975
470.489	2.00459
470.976	-25.05631
471.463	26.0633
471.951	48.11563
472.438	-18.04142
472.925	-42.09532
473.412	-28.06643
473.899	27.0602
474.385	6.01431
474.872	-41.09337
475.359	-5.01189
475.845	-33.06685
476.331	-55.11595
476.817	-39.09204
477.303	-16.03621
477.789	-5.0117
478.275	-8.01942
478.761	-2.00466
479.247	13.02799
479.732	4.00978
480.218	-3.00761
480.703	47.11431
481.188	-16.03321
481.673	-18.0404
482.158	1.00209
482.643	-17.04218
483.128	-66.1476
483.612	-42.09575
484.097	1.00237
484.581	-62.13934
485.066	-53.12591
485.55	-16.03392
486.034	7.01489
486.518	-10.02298
487.002	-55.13277
487.486	-36.08633
487.969	-22.05336
488.453	10.02465
488.936	-35.07693
489.42	-15.03244
489.903	16.03918
490.386	42.08709
490.869	-58.12187
491.352	-25.05935
491.835	-77.15498
492.318	-20.04445
492.8	-46.09231
493.283	6.01499
493.765	6.01446
494.247	-72.1642
494.73	-70.1526
495.212	-52.12289
495.694	-53.12202
496.175	-69.16228
496.657	19.04434
497.139	-160.2681
497.62	-14.03275
498.102	20.04853
498.583	-44.10692
499.064	-23.05096
499.545	-19.04229
500.026	-42.0923
500.507	-57.12876
500.988	-13.03124
501.469	-70.17213
501.949	-81.1959
502.43	-56.1308
502.91	-42.08479
503.39	-29.07098
503.87	-1.0023
504.35	-54.1237
504.83	3.0064
505.31	-29.06929
505.79	-33.07752
506.269	-38.08642
506.749	-31.06923
507.228	11.02512
507.707	8.0172
508.187	-24.05553
508.666	-45.1081
509.145	-22.0503
509.623	-10.02287
510.102	-6.01412
510.581	24.05555
511.059	32.07872
511.538	26.06509
512.016	14.03277
512.494	-6.01408
512.972	71.16385
513.45	63.14261
513.928	26.06137
514.406	86.20379
514.884	105.26271
515.361	108.24988
515.839	32.07029
516.316	56.129
516.793	77.18693
517.27	109.25375
517.747	87.21539
518.224	66.14589
518.701	138.29177
519.178	167.40023
519.654	41.09209
520.131	75.17666
520.607	107.2536
521.083	104.22826
521.56	86.19376
522.036	83.17506
522.512	99.23346
522.987	84.1942
523.463	80.18363
523.939	89.20923
524.414	71.15606
524.89	83.18742
525.365	73.16059
525.84	62.14635
526.315	36.08346
526.79	56.12058
527.265	48.1042
527.74	16.03789
528.215	50.11435
528.689	80.17248
529.164	-28.05827
529.638	46.11499
530.112	54.12479
530.587	0
531.061	-1.00237
531.534	11.02577
532.008	38.08911
532.482	-96.21425
532.956	34.08573
533.429	-65.15144
533.903	20.04245
534.376	-34.07349
534.849	3.00682
535.322	-24.05557
535.795	-45.1083
536.268	0
536.741	2.00468
537.213	-5.01133
537.686	-63.15076
538.158	-23.0507
538.631	-50.1188
539.103	-73.16214
539.575	-26.05285
540.047	17.03617
540.519	-77.1806
540.991	-47.11217
541.463	-44.10551
541.934	-73.16605
542.406	-41.09661
542.877	-55.12216
543.348	-115.27014
543.82	-37.08895
544.291	-46.10385
544.762	-42.09791
545.233	-23.05734
545.703	-52.11413
546.174	-37.08515
546.645	-19.04552
547.115	-43.10251
547.585	14.03181
548.056	-34.08246
548.526	-74.17346
548.996	-74.17637
549.466	-51.122
549.935	1.00236
550.405	-44.09637
550.875	-83.19467
551.344	-43.10278
551.814	-59.13186
552.283	-57.12144
552.752	-45.10319
553.221	-63.13568
553.69	-66.14608
554.159	-14.03438
554.628	-70.15519
555.096	-73.18357
555.565	-100.22179
556.033	-22.05058
556.502	-41.09755
556.97	-23.04973
557.438	-28.06522
557.906	20.04613
558.374	-7.01568
558.842	16.03736
559.31	14.03024
559.777	13.03086
560.245	15.03383
560.712	12.02654
561.18	-10.02152
561.647	45.09666
562.114	-27.06049
562.581	64.15306
563.048	14.03092
563.514	67.15978
563.981	34.075
564.448	73.15803
564.914	95.21074
565.381	62.13361
565.847	104.23133
566.313	132.29044
566.779	143.30889
567.245	112.25058
567.711	191.43427
568.176	199.43078
568.642	177.42419
569.108	210.48586
569.573	172.37607
570.038	299.57685
570.504	303.63148
570.969	255.59383
571.434	360.72107
571.899	355.77401
572.363	312.64778
572.828	385.78417
573.293	383.79323
573.757	427.88276
574.222	493.98084
574.686	420.84825
575.15	459.97738
575.614	491.98778
576.078	486.00356
576.542	517.03353
577.006	553.08877
577.469	560.1975
577.933	538.03407
578.396	608.26101
578.86	567.1473
579.323	595.22439
579.786	563.03415
580.249	565.11609
580.712	527.12026
581.175	561.21024
581.637	591.18175
582.1	560.04387
582.563	470.85048
583.025	507.08422
583.487	479.83123
583.95	464.87909
584.412	494.88891
584.874	429.93057
585.336	521.08487
585.797	460.86853
586.259	394.81728
586.721	432.9069
587.182	388.79945
587.643	414.83575
588.105	443.93799
588.566	398.74261
589.027	368.81544
589.488	335.68885
589.949	327.71509
590.41	322.57222
590.87	310.62954
591.331	270.52277
591.791	272.56927
592.252	227.48319
592.712	313.68679
593.172	264.54665
593.632	202.39804
594.092	277.56445
594.552	186.36962
595.011	207.44771
595.471	233.48128
595.931	178.37007
596.39	195.43941
596.849	185.40218
597.308	154.3116
597.768	169.40703
598.227	208.4688
598.685	124.26447
599.144	145.31965
599.603	213.46955
600.062	52.10391
600.52	159.33447
600.978	178.39971
601.437	155.33194
601.895	151.29986
602.353	168.34382
602.811	113.23697
603.269	134.30177
603.727	165.37211
604.184	91.19581
604.642	148.3412
605.099	113.24754
605.557	105.24048
606.014	162.32523
606.471	132.31714
606.928	214.44451
607.385	136.32053
607.842	183.398
608.299	159.34757
608.755	140.31864
609.212	177.37102
609.668	173.36248
610.125	183.41051
610.581	139.30373
611.037	179.37853
611.493	124.27445
611.949	171.38722
612.405	189.35499
612.861	146.31652
613.316	193.43437
613.772	204.43584
614.227	186.41063
614.683	165.32965
615.138	172.38322
615.593	137.29695
616.048	186.38946
616.503	215.49002
616.958	213.49779
617.412	147.32718
617.867	203.42289
618.321	142.26717
618.776	168.34538
619.23	195.43077
619.684	147.30705
620.138	117.24981
620.592	167.37786
621.046	178.38639
621.5	138.31459
621.954	129.27017
622.407	161.33241
622.861	93.21103
623.314	197.4155
623.768	152.3329
624.221	151.27858
624.674	71.15363
625.127	106.23451
625.58	63.13288
626.033	66.13575
626.485	100.22585
626.938	95.21232
627.39	114.2501
627.843	49.10707
628.295	118.25702
628.747	141.31422
629.199	105.22769
629.651	93.20063
630.103	118.25626
630.555	64.12694
631.006	94.20805
631.458	-3.00671
631.909	74.15927
632.361	50.10974
632.812	74.16303
633.263	61.123
633.714	0
634.165	45.10186
634.616	26.05879
635.067	-27.05677
635.518	19.04268
635.968	34.06416
636.419	29.0591
636.869	55.12313
637.319	40.08809
637.769	20.04312
638.219	12.02698
638.669	76.17298
639.119	55.12708
639.569	63.14637
640.019	29.06369
640.468	-51.1087
640.918	56.12777
641.367	52.11124
641.816	74.15721
642.265	24.05314
642.714	21.04695
643.163	-9.01962
643.612	40.09343
644.061	5.01006
644.51	17.03743
644.958	-15.03186
645.406	-26.06073
645.855	10.02352
646.303	61.13459
646.751	23.05068
647.199	-49.10639
647.647	34.07601
648.095	12.0263
648.543	-31.06015
648.99	14.03242
649.438	74.16542
649.885	37.08871
650.333	-13.02369
650.78	83.19436
651.227	17.0402
651.674	18.03959
652.121	-18.04186
652.568	20.04688
653.015	-14.03362
653.461	15.0344
653.908	31.06906
654.354	-5.01136
654.801	-8.01824
655.247	46.09555
655.693	46.11561
656.139	16.03686
656.585	17.0394
657.031	-13.02976
657.477	13.02725
657.922	17.03804
658.368	7.01659
658.813	-8.0175
659.259	-9.02105
659.704	39.08799
660.149	-26.05887
660.594	6.01379
661.039	31.06834
661.484	35.08032
661.929	21.04709
662.373	61.14992
662.818	34.08206
663.262	-22.05133
663.707	-57.14091
664.151	95.22377
664.595	15.03507
665.039	-28.06753
665.483	17.04234
665.927	-11.02492
666.371	-23.0524
666.814	-8.01847
667.258	-8.01863
667.701	4.00814
668.145	6.01438
668.588	33.0784
669.031	28.06419
669.474	13.0302
669.917	7.01482
670.36	-1.00239
670.803	13.03017
671.245	-6.0121
671.688	-30.07093
672.13	-16.03464
672.573	11.02722
673.015	-17.0395
673.457	26.05485
673.899	9.02094
674.341	21.04881
674.783	34.07907
675.225	10.02377
675.666	-7.01645
676.108	54.11242
676.549	-16.03655
676.991	-12.02545
677.432	-31.05886
677.873	-70.15797
678.314	-6.01384
678.755	32.07554
679.196	36.07975
679.637	16.03733
680.078	-1.00225
680.518	-15.03314
680.959	-10.02318
681.399	-27.06468
681.839	10.02348
682.28	25.05996
682.72	-49.10879
683.16	8.01937
683.6	30.06537
684.039	-23.04593
684.479	-11.02628
684.919	-36.08194
685.358	-26.06389
685.798	14.03534
686.237	-7.01631
686.676	32.07083
687.115	1.00227
687.554	-31.07148
687.993	-46.09709
688.432	52.11466
688.871	1.00219
689.309	90.20997
689.748	30.05962
690.186	-57.13128
690.625	45.10294
691.063	24.05606
691.501	41.09759
691.939	-24.05834
692.377	7.01656
692.815	47.10924
693.253	-34.07845
693.69	5.01054
694.128	31.07325
694.565	22.05064
695.003	3.00741
695.44	-50.11412
695.877	6.01369
696.314	23.047
696.751	27.05842
697.188	33.07318
697.625	-12.02624
698.061	6.01393
698.498	24.05571
698.934	-37.08583
699.371	-11.02526
699.807	14.03198
700.243	57.13296
700.679	19.04122
701.115	14.03137
701.551	34.07729
701.987	-3.0064
702.422	-12.02751
702.858	-32.07339
703.294	13.02799
703.729	36.08514
704.164	61.14139
704.599	-17.03622
705.035	12.0259
705.47	11.0262
705.904	1.00223
706.339	-11.02425
706.774	-11.02471
707.209	-14.03108
707.643	-16.03721
708.078	5.0117
708.512	35.08595
708.946	-37.08542
709.38	-41.0936
709.814	-15.03276
710.248	-35.08167
710.682	14.03234
711.116	-2.00467
711.549	-29.07232
711.983	-64.14283
712.416	-30.06764
712.85	36.08679
713.283	24.05438
713.716	25.05985
714.149	56.12508
714.582	2.00431
715.015	-4.00958
715.448	-17.04081
715.881	-55.11345
716.313	29.06546
716.746	37.08379
717.178	-39.09058
717.61	-25.06156
718.043	-30.07169
718.475	-37.08644
718.907	-21.05048
719.339	-41.09001
719.77	22.05076
720.202	-13.03169
720.634	23.05418
721.065	-24.05471
721.497	7.01655
721.928	-17.04065
722.359	-10.02369
722.79	-57.13275
723.221	-37.08925
723.652	-36.08902
724.083	-38.08224
724.514	-64.13946
724.945	-1.00226
725.375	-4.00896
725.806	-106.25428
726.236	25.06119
726.666	-43.09745
727.096	-49.1156
727.526	-35.08656
727.956	-60.13202
728.386	-42.09822
728.816	-43.10607
729.246	3.00707
729.675	-13.03119
730.105	-8.01879
730.534	-30.06753
730.964	-37.08922
731.393	-47.11041
731.822	4.00987
732.251	-38.09406
732.68	-57.12608
733.109	-17.04046
733.537	-24.05568
733.966	-48.11484
734.395	0
734.823	-14.02979
735.251	-17.0394
735.68	-3.00716
736.108	-43.10462
736.536	-5.01125
736.964	-47.10444
737.392	-42.10064
737.82	-48.1104
738.247	-47.10734
738.675	-30.06767
739.102	-6.0146
739.53	-39.09712
739.957	-45.11153
740.384	-17.03962
740.811	14.03416
741.238	-65.15245
741.665	-16.03611
742.092	-18.04062
742.519	-13.03133
742.945	-30.06905
743.372	8.01904
743.798	-18.04452
744.225	-57.13039
744.651	-61.14753
745.077	-37.08895
745.503	0
745.929	-34.07795
746.355	-21.04902
746.781	-41.09774
747.207	-40.09178
747.632	-19.04489
748.058	-29.06887
748.483	-56.12244
748.908	-6.01428
749.334	-21.04947
749.759	-42.09478
750.184	-32.07316
750.609	-30.07032
751.033	-26.05745
751.458	7.01501
751.883	-10.02353
752.307	-14.03206
752.732	-26.06358
753.156	6.01414
753.58	-4.009
754.005	5.01226
754.429	-62.13814
754.853	-9.02149
755.277	8.01816
755.7	-27.06419
756.124	-5.01207
756.548	-9.02055
756.971	-2.00464
757.394	7.01728
757.818	27.06699
758.241	-41.09983
758.664	24.05856
759.087	9.01951
759.51	-9.02145
759.933	-20.04659
760.356	-45.11141
760.778	48.1141
761.201	-55.12642
761.623	-43.09832
762.046	-18.03959
762.468	-10.0228
762.89	-5.01179
763.312	-19.04404
763.734	18.04143
764.156	11.02604
764.578	-4.00862
765	29.06717
765.421	6.01493
765.843	30.07564
766.264	3.00683
766.686	45.10838
767.107	10.02345
767.528	12.02951
767.949	-51.12553
768.37	-38.08935
768.791	-34.07842
769.212	-5.01229
769.632	-53.11875
770.053	-25.06388
770.473	8.01861
770.894	-34.08072
771.314	-23.05172
771.734	-6.01321
772.154	-12.02968
772.575	-14.03077
772.994	-48.10504
773.414	-47.10578
773.834	2.00482
774.254	-4.0093
774.673	-23.05331
775.093	-39.09386
775.512	-57.13703
775.931	23.05636
776.351	-56.13347
776.77	-30.07095
777.189	-8.01797
777.607	-7.01725
778.026	7.01681
778.445	-45.11064
778.864	-11.02693
779.282	-50.11458
779.701	-26.06313
780.119	-68.16567
780.537	-60.14459
780.955	-34.0829
781.373	-49.11667
781.791	-12.02583
782.209	53.11512
782.627	-33.08471
783.045	-41.09023
783.462	-38.09299
783.88	-22.05527
784.297	-43.10447
784.715	32.07985
785.132	-20.04629
785.549	-24.05856
785.966	-26.06259
786.383	3.0071
786.8	-19.0421
787.217	-56.1273
787.633	-31.07472
788.05	-35.077
788.466	-29.06457
788.883	14.03454
789.299	-87.20069
789.715	26.06044
790.131	-84.20143
790.547	-65.15364
790.963	-15.03568
791.379	-8.01945
791.795	4.00859
792.21	-20.0443
792.626	-63.14348
793.041	-36.08468
793.457	-30.07068
793.872	-54.12216
794.287	-9.02108
794.702	-22.05151
795.117	-60.14284
795.532	-33.08071
795.947	-50.11394
796.362	-7.01568
796.776	-58.12537
797.191	-48.11229
797.605	47.10639
798.02	50.11587
798.434	-24.04996
798.848	-50.11761
799.262	15.03607
799.676	-39.09007
800.09	-35.08203
800.504	-21.04854
800.918	-39.0858
801.331	-10.02493
801.745	-42.09148
802.158	-49.11761
802.572	-14.0321
802.985	-41.09334
803.398	-18.04084
803.811	-10.02439
804.224	-40.09501
804.637	-63.14156
805.05	-5.01094
805.462	-26.06071
805.875	20.05059
806.288	4.00929
806.7	-13.03122
807.112	-46.10164
807.525	-30.07123
807.937	-29.06881
808.349	-22.05246
808.761	-58.13489
809.173	-57.13086
809.584	-46.1082
809.996	-45.10645
810.408	-73.18397
810.819	-29.06519
811.231	-14.03575
811.642	8.01893
812.053	0
812.464	-5.01141
812.875	-31.07641
813.286	-56.13862
813.697	-34.07321
814.108	-69.16012
814.519	3.00621
814.929	-33.07969
815.34	-19.04374
815.75	-16.03892
816.16	-117.27794
816.571	-19.04742
816.981	-52.11514
817.391	-22.05032
817.801	-52.12617
818.211	-13.02953
818.62	-14.03193
819.03	-42.09714
819.44	-30.07489
819.849	-26.06301
820.259	47.11419
820.668	-19.04524
821.077	-27.06444
821.486	-92.21049
821.895	-45.10406
822.304	3.00763
822.713	-17.03792
823.122	-6.01437
823.531	-22.04985
823.939	-34.07935
824.348	2.00463
824.756	-16.03802
825.164	-29.06911
825.573	-18.04318
825.981	20.04695
826.389	-63.14989
826.797	-2.00478
827.205	-69.15128
827.612	-42.09822
828.02	-24.05416
828.428	-67.16381
828.835	-5.01266
829.243	-10.02244
829.65	-24.05727
830.057	8.01861
830.464	-15.03524
830.871	-12.02706
831.278	-74.16999
831.685	-46.09559
832.092	1.00234
832.499	-60.12341
832.905	-17.0413
833.312	-29.06186
833.718	-14.033
834.124	-30.06504
834.531	11.02612
834.937	-15.03637
835.343	-32.0736
835.749	-35.07651
836.155	-58.14619
836.561	-120.28051
836.966	-29.06722
837.372	-44.10692
837.777	-85.20294
838.183	-70.14358
838.588	28.06612
838.993	-96.22221
839.399	-47.10933
839.804	-3.00703
840.209	29.07075
840.613	21.0441
841.018	-67.16131
841.423	-107.26336
841.828	-40.0968
842.232	-73.17014
842.637	-74.16392
843.041	-4.00997
843.445	-12.02834
843.849	-78.18605
844.253	-31.06908
844.657	-1.00242
845.061	20.04247
845.465	8.01872
845.869	-36.07871
846.272	-45.10472
846.676	17.03887
847.079	-28.06883
847.483	-15.03544
847.886	-65.14821
848.289	13.0338
848.692	-12.02886
849.095	-26.05843
849.498	-47.11135
849.901	-22.04696
850.304	-43.09678
850.707	-21.05092
851.109	-61.14486
851.512	-24.05667
851.914	-17.04187
852.316	-17.04119
852.718	-48.12112
853.121	-1.00232
853.523	-27.05947
853.925	-58.14651
854.326	-19.04597
854.728	2.0049
855.13	2.00497
855.531	9.02068
855.933	-17.03843
856.334	-25.05989
856.736	-63.13259
857.137	-34.07491
857.538	-49.11829
857.939	-16.03794
858.34	31.07031
858.741	-3.00748
859.142	-28.06406
859.542	26.06691
859.943	-7.01669
860.343	-54.1293
860.744	19.04388
861.144	-5.01154
861.544	-2.00463
861.945	-51.12381
862.345	-43.09817
862.745	-18.04257
863.145	-9.0198
863.544	-3.00731
863.944	-41.09145
864.344	-27.06281
864.743	16.03746
865.143	-26.06389
865.542	-59.12947
865.941	25.059
866.34	26.05848
866.74	10.02565
867.139	-34.07804
867.537	-48.11637
867.936	-17.03895
868.335	10.02437
868.734	-7.01727
869.132	-5.01103
869.531	20.04528
869.929	22.04743
870.327	-56.12808
870.726	-29.0685
871.124	3.00651
871.522	-53.12818
871.92	6.01394
872.318	-15.03488
872.715	-10.02331
873.113	-22.05106
873.511	1.00237
873.908	15.03691
874.306	17.04015
874.703	-48.11458
875.1	-47.11427
875.497	-46.10415
875.894	-30.07147
876.291	24.05595
876.688	-70.17378
877.085	11.02465
877.482	-62.14743
877.878	2.00456
878.275	-55.13352
878.671	-32.06466
879.068	-30.06847
879.464	-34.07835
879.86	1.00226
880.256	-69.16063
880.652	-41.09968
881.048	-13.0301
881.444	-24.0531
881.84	-34.08209
882.236	-10.02395
882.631	-22.05141
883.027	-53.12002
883.422	-38.09286
883.817	-36.08777
884.213	-5.01225
884.608	-6.01412
885.003	-19.04359
885.398	-50.11986
885.793	-40.09537
886.188	5.01195
886.582	-58.13972
886.977	7.01555
887.371	-56.13557
887.766	16.03803
888.16	3.0071
888.554	-26.06023
888.949	-33.07764
889.343	-41.09375
889.737	-9.02344
890.131	19.04531
890.525	-44.1074
890.918	9.02168
891.312	-98.22025
891.706	1.00253
892.099	-28.06766
892.492	22.04386
892.886	-55.12753
893.279	-7.01699
893.672	-7.01704
894.065	9.0212
894.458	-17.04056
894.851	-51.11695
895.244	-37.09066
895.637	10.02273
896.029	-26.06035
896.422	-42.0971
896.814	-13.03076
897.206	-5.01139
897.599	-88.20385
897.991	-9.02066
898.383	-22.04883
898.775	-17.03582
899.167	-42.09412
899.559	-2.00477
899.951	-35.07777
900.342	-82.19694
900.734	7.01687
901.125	5.01236
901.517	0
901.908	-16.03577
902.299	-14.03262
902.69	-19.04239
903.082	24.05445
903.473	0
903.863	13.03184
904.254	-34.07412
904.645	9.02078
905.036	8.01861
905.426	-41.08545
905.817	-36.08399
906.207	-56.12802
906.597	-17.03768
906.987	-53.12992
907.378	-48.11541
907.768	-23.05861
908.158	-24.05568
908.547	-11.02724
908.937	-30.07314
909.327	-17.03883
909.717	-14.03339
910.106	-43.09821
910.495	34.08035
910.885	-48.1141
911.274	17.04035
911.663	63.15145
912.052	25.05735
912.441	23.05592
912.83	-5.01068
913.219	-61.15163
913.608	-3.00693
913.997	-34.08132
914.385	-29.0646
914.774	-37.08512
915.162	-7.01563
915.55	-30.06881
915.939	-39.09464
916.327	-3.00708
916.715	-6.01471
917.103	29.06628
917.491	-34.07864
917.878	-69.15917
918.266	-24.05934
918.654	1.00246
919.041	-38.0954
919.429	18.04001
919.816	-22.05276
920.203	-11.02525
920.591	-48.11256
920.978	-18.04156
921.365	-36.09016
921.752	-40.09097
922.139	24.04852
922.525	-37.0843
922.912	-19.04364
923.299	-41.09781
923.685	-16.03992
924.072	-48.10304
924.458	-31.07316
924.844	-62.14664
925.231	-45.09829
925.617	17.04173
926.003	-18.0438
926.389	-32.07787
926.774	5.01207
927.16	23.05342
927.546	-28.06865
927.931	-39.09269
928.317	-94.20214
928.702	-25.05521
929.088	-12.0269
929.473	-44.10736
929.858	2.00466
930.243	-13.02971
930.628	-50.11541
931.013	0
931.398	0
931.783	-3.00753
932.167	-36.08306
932.552	-64.15119
932.937	-31.07177
933.321	-83.19945
933.705	32.077
934.09	-44.10431
934.474	-57.12829
934.858	12.02973
935.242	45.09862
935.626	-40.09749
936.009	-59.15129
936.393	-1.00244
936.777	-21.05182
937.16	-99.24609
937.544	-24.05299
937.927	-48.11716
938.311	-8.01825
938.694	4.01007
939.077	-66.1493
939.46	30.06933
939.843	-26.04928
940.226	-44.1074
940.609	-101.22023
940.991	-17.04121
941.374	-67.15554
941.757	-37.08651
942.139	-43.08998
942.522	-13.02842
942.904	16.03621
943.286	-29.06948
943.668	-24.05932
944.05	-38.08897
944.432	24.05597
944.814	-13.02995
945.196	-29.06815
945.578	-45.10315
945.959	-12.02652
946.341	-25.0568
946.722	33.07247
947.104	-29.0649
947.485	-43.09424
947.866	18.0433
948.247	-30.07224
948.628	-35.08029
949.009	-21.05152
949.39	-73.17034
949.771	-17.03677
950.152	-1.00233
950.532	18.04321
950.913	-55.12455
951.293	-7.01832
951.674	-41.09326
952.054	-10.02359
952.434	-54.12678
952.814	-90.20077
953.194	15.03738
953.574	-49.11299
953.954	-14.03134
954.334	-30.07158
954.714	-1.00231
955.093	10.02278
955.473	-49.11605
955.853	19.04685
956.232	-5.01315
956.611	-35.07768
956.99	-45.10863
957.37	-5.0121
957.749	-26.05788
958.128	5.01207
958.506	13.03235
958.885	-30.07172
959.264	-23.05359
959.643	18.03819
960.021	-21.04948
960.4	29.062
960.778	-46.1055
961.156	-30.07158
961.535	-61.1312
961.913	-84.18281
962.291	10.02471
962.669	-56.13648
963.047	-66.15947
963.424	20.04851
963.802	-41.09477
964.18	-8.01902
964.557	-67.14349
964.935	-21.04662
965.312	-5.0125
965.69	-40.09475
966.067	-27.06169
966.444	-18.04193
966.821	-38.09303
967.198	-46.10406
967.575	-26.0598
967.952	8.01765
968.329	-55.12678
968.705	-51.10033
969.082	-13.03201
969.458	-4.00918
969.835	-65.15054
970.211	-42.10336
970.587	-35.08289
970.963	-21.05117
971.339	-8.02013
971.715	-41.09575
972.091	-18.0418
972.467	-80.18774
972.843	-36.08511
973.219	-41.09156
973.594	-45.11324
973.97	5.01097
974.345	-48.1089
974.721	12.02705
975.096	-39.0885
975.471	33.07321
975.846	8.0182
976.221	-19.04602
976.596	-9.02035
976.971	-2.00466
977.346	-27.05815
977.72	-39.09464
978.095	-14.03459
978.469	22.0492
978.844	24.05659
979.218	-36.08267
979.593	-8.01807
979.967	23.05291
980.341	-8.01709
980.715	-61.1462
981.089	-32.07527
981.463	32.06914
981.837	-7.01631
982.21	-7.01508
982.584	-70.16029
982.957	-4.00955
983.331	-11.02443
983.704	16.03728
984.078	1.00231
984.451	-43.09923
984.824	-16.03723
985.197	-16.03653
985.57	-71.16873
985.943	-20.04563
986.316	38.08712
986.688	31.0694
987.061	3.0065
987.434	-31.07748
987.806	-8.01815
988.179	-45.0997
988.551	-9.02145
988.923	0
989.295	-26.06142
989.667	-19.04388
990.039	-37.08749
990.411	33.07125
990.783	14.02981
991.155	-7.01614
991.527	-6.01358
991.898	-76.18023
992.27	-26.06121
992.641	-13.03068
993.012	57.12513
993.384	-31.06991
993.755	-49.11882
994.126	12.02714
994.497	-30.06977
994.868	-2.00431
995.239	5.01147
995.61	-44.10527
995.98	-21.04883
996.351	-8.01892
996.722	3.00657
997.092	-64.14602
997.462	-10.02226
997.833	10.02204
998.203	-12.02721
998.573	-44.10539
998.943	-19.04134
999.313	-21.04783
999.683	-96.21832
1000.053	2.00432
1000.423	-18.04132
1000.792	-10.02474
1001.162	-57.13478
1001.531	18.04201
1001.901	-25.0588
1002.27	38.0789
1002.639	-13.03173
1003.009	-15.03413
1003.378	-48.11777
1003.747	-76.1701
1004.116	12.02712
1004.485	-29.06596
1004.853	0
1005.222	-1.00242
1005.591	-37.08218
1005.959	-2.00427
1006.328	-77.16348
1006.696	-4.00917
1007.064	-20.04785
1007.433	29.06852
1007.801	-5.01147
1008.169	-56.13408
1008.537	40.0819
1008.905	-50.11085
1009.273	-15.03499
1009.64	-59.13486
1010.008	-49.11033
1010.375	30.06787
1010.743	-10.02102
1011.11	10.02224
1011.478	-22.05145
1011.845	-65.14245
1012.212	-5.01043
1012.579	14.03243
1012.946	-46.10177
1013.313	-12.02673
1013.68	-36.07518
1014.047	-14.03198
1014.414	-19.04275
1014.78	23.05437
1015.147	-27.06064
1015.513	12.02761
1015.88	-26.06228
1016.246	31.07191
1016.612	-26.05514
1016.978	-70.16312
1017.344	-3.00709
1017.71	-34.07663
1018.076	26.05687
1018.442	-10.02432
1018.808	-4.00948
1019.174	-46.10934
1019.539	-58.12182
1019.905	-8.01786
1020.27	16.03758
1020.636	-6.01348
1021.001	-30.06729
1021.366	12.02761
1021.731	-13.03196
1022.096	-43.10474
1022.461	-31.06828
1022.826	19.04229
1023.191	-42.10586
1023.556	-63.13778
1023.92	-48.11075
1024.285	-37.08515
1024.649	-11.02547
1025.014	7.0163
1025.378	-19.04592
1025.742	-19.04463
1026.107	-38.07953
1026.471	-46.09883
1026.835	-80.18774
1027.199	-3.00685
1027.562	11.02403
1027.926	5.01144
1028.29	-36.08718
1028.654	-42.08989
1029.017	-34.0796
1029.381	-31.07043
1029.744	-10.02442
1030.107	-24.05232
1030.471	-35.07884
1030.834	-99.21009
1031.197	-49.10992
1031.56	37.08222
1031.923	-27.06653
1032.286	-48.10562
1032.648	-19.04243
1033.011	-45.09775
1033.374	-23.04996
1033.736	-45.11353
1034.099	6.01384
1034.461	-14.03394
1034.823	-71.16834
1035.185	-72.17081
1035.548	-18.04125
1035.91	-4.00909
1036.272	-18.03839
1036.634	-22.05009
1036.995	-19.04246
1037.357	-8.01841
1037.719	-17.03895
1038.08	-49.10784
1038.442	26.05894
1038.803	-62.14031
1039.165	-17.04082
1039.526	-18.04108
1039.887	-8.01815
1040.248	-2.00476
1040.609	-8.01861
1040.97	-50.11601
1041.331	-70.16671
1041.692	-29.06447
1042.053	-56.11876
1042.413	-53.11507
1042.774	-29.06628
1043.134	-52.11562
1043.495	-35.08299
1043.855	-30.06892
1044.215	-11.02571
1044.576	-23.05238
1044.936	9.01932
1045.296	-9.02109
1045.656	-24.05566
1046.016	-51.11502
1046.375	25.05733
1046.735	-2.00429
1047.095	-44.09747
1047.454	12.02328
1047.814	-57.12902
1048.173	-35.07726
1048.533	-27.05847
1048.892	-42.09652
1049.251	41.09642
1049.61	-80.18613
1049.969	2.00445
1050.328	-83.16682
1050.687	-35.08045
1051.046	14.03229
1051.405	-50.1167
1051.763	-22.04778
1052.122	12.02856
1052.48	-62.14385
1052.839	-42.09358
1053.197	-25.05551
1053.555	-73.15099
1053.914	-18.04135
1054.272	-40.09111
1054.63	-108.25226
1054.988	-36.08058
1055.345	-60.11923
1055.703	-42.09459
1056.061	-4.00978
1056.419	-42.10469
1056.776	19.04287
1057.134	-59.1287
1057.491	-8.01888
1057.848	-54.12717
1058.206	-1.0022
1058.563	-2.00414
1058.92	-7.01487
1059.277	-40.09178
1059.634	-113.24848
1059.991	-8.0181
1060.348	-11.02348
1060.704	-43.09733
1061.061	-27.05732
1061.418	-7.01612
1061.774	36.08458
1062.131	42.10764
1062.487	-42.09183
1062.843	-42.09945
1063.199	30.07051
1063.555	-5.01094
1063.911	-51.12237
1064.267	-57.10732
1064.623	-13.03018
1064.979	-45.0977
1065.335	-47.10422
1065.691	18.04077
1066.046	-20.04045
1066.402	-47.10039
1066.757	26.06185
1067.112	-17.03887
1067.468	-10.02263
1067.823	1.00226
1068.178	45.10207
1068.533	-30.06809
1068.888	-63.14109
1069.243	-19.04463
1069.598	-68.15464
1069.952	0
1070.307	12.0285
1070.662	-52.11754
1071.016	-16.03389
1071.371	-77.16505
1071.725	-39.08551
1072.079	-36.08164
1072.434	-51.11751
1072.788	-33.07482
1073.142	40.09284
1073.496	-23.05145
1073.85	-3.00648
1074.203	-9.02045
1074.557	10.02552
1074.911	-20.04428
1075.265	-29.06243
1075.618	3.00692
1075.971	-56.12544
1076.325	-33.07999
1076.678	-24.0515
1077.031	-46.0976
1077.385	-28.05801
1077.738	-15.03173
1078.091	0
1078.444	-46.09905
1078.796	10.02326
1079.149	-41.09548
1079.502	-55.12353
1079.855	-4.00879
1080.207	-3.00694
1080.56	-44.10868
1080.912	-34.07695
1081.264	-18.0408
1081.617	-27.06246
1081.969	1.00244
1082.321	-15.0346
1082.673	-8.01733
1083.025	-33.07308
1083.377	-294.61068
1083.728	-59.12717
1084.08	-5.01188
1084.432	-109.24603
1084.783	18.03972
1085.135	3.00722
1085.486	-25.05423
1085.838	-4.00929
1086.189	-39.08964
1086.54	-26.05848
1086.891	4.00972
1087.242	-52.11921
1087.593	-28.06373
1087.944	-5.01049
1088.295	-51.10757
1088.646	-2.00457
1088.996	-15.03398
1089.347	-57.13212
1089.698	-22.04955
1090.048	-21.0515
1090.398	-14.0306
1090.749	-17.03842
1091.099	1.00241
1091.449	-42.09868
1091.799	-3.00707
1092.149	12.02824
1092.499	-14.03237
1092.849	-57.13895
1093.199	-16.03771
1093.548	-1.00227
1093.898	-23.05477
1094.248	-12.02927
1094.597	-10.02467
1094.947	-43.10999
1095.296	-73.17135
1095.645	6.01472
1095.994	41.09224
1096.343	9.02165
1096.692	16.04042
1097.041	-19.04982
1097.39	-24.05687
1097.739	11.02724
1098.088	-21.05315
1098.437	-35.08868
1098.785	-52.13425
1099.134	-60.15107
1099.482	-46.12097
1099.83	-33.08257
1100.179	21.05281
1100.527	-31.07829
1100.875	-74.18892
1101.223	-20.05129
1101.571	-9.02404
1101.919	-46.11669
1102.267	-4.01099
1102.615	7.02249
1102.962	-6.01927
1103.31	0
1103.658	-12.03852
