Data from N3 R6 sample 7_Subt2__3__15-23-27-033.txt Node

Date: Fri Sep 19 15:23:27 PDT 2025
User: uwsun
Spectrometer: HDX01956
Trigger mode: 0
Integration Time (sec): 5.000000E-1
Scans to average: 1
Nonlinearity correction enabled: true
Boxcar width: 0
Storing dark spectrum: false
XAxis mode: Wavelengths
Number of Pixels in Spectrum: 2068
>>>>>Begin Spectral Data<<<<<
194.03	-1.0029
194.578	7.02275
195.127	-2.00642
195.676	-13.04175
196.225	-28.07436
196.773	13.03625
197.321	33.0917
197.87	29.0748
198.418	82.21162
198.966	73.19201
199.513	77.19578
200.061	22.05607
200.609	45.1186
201.156	-26.0569
201.704	50.12535
202.251	33.08768
202.798	58.15103
203.345	30.07442
203.892	6.0152
204.438	75.1781
204.985	4.00962
205.532	83.22199
206.078	27.06658
206.624	7.01748
207.17	80.18392
207.716	24.05797
208.262	25.04923
208.808	52.12947
209.354	27.06594
209.899	43.10786
210.445	19.04797
210.99	2.00488
211.535	57.13322
212.08	14.03259
212.625	10.02512
213.17	19.04811
213.715	14.03175
214.259	48.11221
214.804	16.03937
215.348	50.11375
215.892	0
216.436	60.13888
216.98	17.03727
217.524	-8.01905
218.068	48.12034
218.612	-11.0276
219.155	29.0681
219.698	13.03069
220.242	51.12585
220.785	-19.04482
221.328	54.13391
221.871	82.20476
222.414	27.06604
222.956	32.07735
223.499	43.09595
224.041	22.05021
224.583	17.03625
225.126	97.21348
225.668	20.04862
226.21	32.08008
226.751	-21.04556
227.293	28.0629
227.835	21.05087
228.376	-11.02513
228.918	78.19378
229.459	79.19673
230	33.07797
230.541	10.02281
231.082	38.09158
231.622	19.04359
232.163	42.1021
232.704	32.07866
233.244	15.03708
233.784	7.01694
234.324	17.03779
234.864	-8.01805
235.404	5.01173
235.944	24.05593
236.484	11.02702
237.023	4.00948
237.563	19.04364
238.102	37.08658
238.641	56.1412
239.18	23.05394
239.719	51.12784
240.258	14.03109
240.797	22.05268
241.335	22.05276
241.874	37.071
242.412	35.08305
242.95	53.12664
243.488	21.04769
244.026	3.00693
244.564	70.14105
245.102	61.13521
245.64	27.06436
246.177	7.01552
246.715	10.02361
247.252	6.01356
247.789	-66.11844
248.326	2.00475
248.863	-8.01742
249.4	67.15172
249.936	18.03662
250.473	5.01167
251.009	56.12808
251.546	18.03964
252.082	37.08102
252.618	32.07136
253.154	20.04781
253.69	19.04238
254.226	50.11752
254.761	40.08753
255.297	75.16201
255.832	-2.0047
256.367	28.06507
256.903	22.04759
257.438	3.00694
257.972	9.01976
258.507	58.13302
259.042	-29.06173
259.576	1.00216
260.111	15.03429
260.645	33.07101
261.179	13.02999
261.713	14.03074
262.247	77.17649
262.781	72.14949
263.315	10.02445
263.849	24.05969
264.382	34.07685
264.915	56.1306
265.449	6.01468
265.982	37.08215
266.515	34.08234
267.048	62.12999
267.58	-12.0257
268.113	26.05625
268.646	47.11598
269.178	38.08418
269.71	-19.04127
270.243	55.12369
270.775	46.11611
271.307	25.0588
271.838	35.08161
272.37	30.07363
272.902	53.11982
273.433	-4.00866
273.965	55.13402
274.496	25.06103
275.027	31.07593
275.558	34.08169
276.089	78.19322
276.62	12.03025
277.15	6.01471
277.681	15.03171
278.211	45.10818
278.741	80.17514
279.272	31.07034
279.802	41.10181
280.332	43.10066
280.861	54.12841
281.391	10.02249
281.921	31.07299
282.45	94.23362
282.98	70.18091
283.509	-12.02697
284.038	14.03118
284.567	25.05677
285.096	76.18128
285.625	88.19907
286.153	0
286.682	23.05187
287.21	55.13071
287.739	15.03502
288.267	71.17049
288.795	29.07561
289.323	51.1198
289.851	35.08087
290.378	24.05365
290.906	67.16149
291.433	71.17495
291.961	37.08249
292.488	61.15025
293.015	99.23092
293.542	53.13247
294.069	65.1578
294.596	39.09564
295.122	82.19289
295.649	70.15364
296.175	13.03095
296.702	71.16776
297.228	14.03332
297.754	16.03569
298.28	7.01581
298.806	47.11281
299.332	28.06161
299.857	34.07588
300.383	49.12167
300.908	76.18398
301.433	84.20228
301.958	0
302.483	105.26119
303.008	62.1502
303.533	33.08388
304.058	52.12074
304.582	62.14527
305.107	70.18209
305.631	109.24059
306.155	111.25606
306.679	50.11633
307.203	53.12226
307.727	89.20923
308.251	60.14629
308.775	74.17312
309.298	87.20739
309.822	78.19407
310.345	82.19153
310.868	66.15592
311.391	79.19128
311.914	69.17152
312.437	30.06737
312.96	66.15458
313.482	98.22944
314.005	71.17636
314.527	87.22628
315.049	94.23226
315.571	132.29398
316.093	116.28387
316.615	92.22053
317.137	37.07934
317.659	12.02875
318.18	100.23779
318.702	124.28291
319.223	69.1399
319.744	101.22396
320.265	111.26572
320.786	97.23707
321.307	136.33294
321.828	163.36159
322.348	113.26285
322.869	67.15413
323.389	321.55756
323.909	100.22622
324.43	139.32422
324.95	136.30615
325.47	129.31269
325.989	168.39302
326.509	91.19893
327.029	64.14336
327.548	112.24923
328.067	122.28865
328.587	153.37323
329.106	124.27536
329.625	77.19654
330.144	126.28201
330.662	142.32214
331.181	142.3258
331.7	140.31993
332.218	180.3819
332.736	129.29331
333.255	129.29426
333.773	152.35224
334.291	135.326
334.808	118.25615
335.326	152.33557
335.844	204.46448
336.361	178.43817
336.879	173.39175
337.396	180.41663
337.913	198.43749
338.43	182.4018
338.947	170.39473
339.464	175.36391
339.981	191.44182
340.497	204.48805
341.014	138.32638
341.53	197.43519
342.046	204.48638
342.562	228.54672
343.078	207.46874
343.594	242.55856
344.11	219.50034
344.626	257.62432
345.141	270.59207
345.657	212.45705
346.172	192.44581
346.687	241.53305
347.202	249.53509
347.717	269.61432
348.232	286.68342
348.747	226.49977
349.261	265.56456
349.776	224.5032
350.29	234.55982
350.805	257.60226
351.319	259.57836
351.833	279.60781
352.347	237.52552
352.861	310.68436
353.374	254.55323
353.888	271.61938
354.401	312.6758
354.915	308.65802
355.428	309.73173
355.941	317.70054
356.454	267.56956
356.967	315.70629
357.48	316.68154
357.993	340.78627
358.505	325.76009
359.018	317.72362
359.53	274.62611
360.042	262.54446
360.554	302.68842
361.066	302.69369
361.578	327.67574
362.09	340.76156
362.602	344.70975
363.113	300.64648
363.625	363.76996
364.136	340.69803
364.647	323.70962
365.158	361.78876
365.669	418.942
366.18	333.71835
366.691	384.78516
367.201	360.79771
367.712	365.76102
368.222	434.92676
368.733	388.7883
369.243	439.87544
369.753	392.83201
370.263	345.76241
370.773	389.89545
371.282	406.88838
371.792	434.90708
372.301	431.96196
372.811	441.05568
373.32	439.84737
373.829	486.04932
374.338	490.98372
374.847	471.97503
375.356	523.1267
375.865	525.99396
376.373	574.15168
376.882	561.26959
377.39	609.2999
377.898	628.37783
378.407	569.11717
378.915	624.15997
379.423	726.47058
379.93	704.3551
380.438	769.60425
380.946	826.61396
381.453	854.70261
381.96	888.73364
382.468	994.89879
382.975	1019.00653
383.482	1017.80037
383.989	1071.1918
384.495	1126.99751
385.002	1208.86259
385.509	1208.11244
386.015	1401.93701
386.521	1393.17849
387.028	1481.30669
387.534	1512.17129
388.04	1500.43979
388.546	1651.34523
389.051	1697.33391
389.557	1925.67748
390.063	1998.71417
390.568	1966.77445
391.073	2100.61378
391.578	2142.89082
392.084	2207.5359
392.589	2454.5293
393.093	2659.83989
393.598	2863.64086
394.103	3039.84911
394.607	3256.73373
395.112	3622.81483
395.616	3790.57742
396.12	4122.10117
396.624	4525.91516
397.128	4886.82749
397.632	5341.34308
398.136	5915.08607
398.639	6485.08945
399.143	7539.51834
399.646	8230.00532
400.15	9035.4682
400.653	10300.456
401.156	11600.37759
401.659	13471.3838
402.162	17366.2182
402.664	25353.59173
403.167	46274.59513
403.67	58865.16487
404.172	55487.84425
404.674	37291.05854
405.176	4428.40989
405.678	533.47942
406.18	0
406.682	0
407.184	6962.89417
407.686	50953.82939
408.187	57050.04467
408.688	37692.99439
409.19	28799.52237
409.691	23971.94953
410.192	20374.16789
410.693	18221.41856
411.194	17050.56698
411.694	16125.29811
412.195	14775.56668
412.696	13750.15215
413.196	13351.15767
413.696	13506.13082
414.196	13432.10418
414.696	12864.67885
415.196	11833.94301
415.696	9619.393
416.196	7436.03222
416.695	6269.93006
417.195	5897.19236
417.694	5608.48697
418.194	5124.85359
418.693	4984.4252
419.192	4874.75816
419.691	4788.81195
420.19	4473.03723
420.688	4525.25117
421.187	4162.3562
421.685	3908.26091
422.184	3409.55714
422.682	2851.39993
423.18	2553.68962
423.678	2304.62266
424.176	2134.59204
424.674	1979.3698
425.172	1910.6036
425.669	1781.74602
426.167	1575.3434
426.664	1484.22969
427.161	1405.16586
427.659	1308.29885
428.156	1238.83576
428.652	1128.16105
429.149	1090.00506
429.646	972.62316
430.143	1056.94174
430.639	938.74589
431.135	811.63511
431.632	792.46419
432.128	772.53893
432.624	700.5018
433.12	784.46671
433.616	673.22055
434.111	723.4448
434.607	629.28285
435.103	635.09777
435.598	597.03522
436.093	582.15646
436.588	594.13973
437.083	521.01746
437.578	502.99805
438.073	439.96928
438.568	443.96175
439.062	392.74557
439.557	385.80628
440.051	411.83141
440.546	399.8186
441.04	342.73191
441.534	377.86991
442.028	376.81371
442.522	365.79649
443.015	338.6676
443.509	356.79509
444.002	318.71551
444.496	288.56484
444.989	374.83459
445.482	281.64327
445.975	292.61356
446.468	266.52637
446.961	242.47349
447.454	264.54151
447.947	325.71552
448.439	301.68046
448.931	298.61705
449.424	224.51825
449.916	268.59313
450.408	335.70127
450.9	213.48252
451.392	245.57908
451.884	207.43659
452.375	217.49957
452.867	215.45008
453.358	146.30949
453.849	249.48523
454.341	287.59388
454.832	213.42732
455.323	224.51063
455.814	196.41784
456.304	179.38483
456.795	172.36461
457.285	192.39347
457.776	149.31261
458.266	223.49736
458.756	129.28986
459.247	176.39148
459.737	189.42728
460.226	182.38327
460.716	209.46806
461.206	156.34829
461.695	223.52361
462.185	210.46458
462.674	158.33713
463.163	97.20225
463.653	178.35009
464.142	176.39554
464.63	174.39842
465.119	167.36691
465.608	164.35281
466.096	154.31589
466.585	99.21385
467.073	139.3104
467.561	231.52435
468.05	114.24841
468.538	181.42268
469.026	180.40702
469.513	120.23891
470.001	113.24252
470.489	146.3257
470.976	137.29834
471.463	149.35437
471.951	124.2944
472.438	119.26629
472.925	32.07153
473.412	104.24044
473.899	120.26238
474.385	105.24559
474.872	20.04499
475.359	94.2193
475.845	121.23647
476.331	106.21556
476.817	95.21836
477.303	86.19058
477.789	100.22917
478.275	89.21208
478.761	104.23737
479.247	85.18015
479.732	126.30111
480.218	106.26363
480.703	92.22188
481.188	34.06977
481.673	48.10628
482.158	47.0973
482.643	63.15403
483.128	24.05268
483.612	-25.0568
484.097	74.17325
484.581	27.05957
485.066	90.2079
485.55	55.11478
486.034	105.21854
486.518	79.17831
487.002	45.10657
487.486	10.02377
487.969	48.11489
488.453	29.07125
488.936	50.10794
489.42	66.14028
489.903	28.06842
490.386	86.17656
490.869	15.03101
491.352	33.07746
491.835	6.01185
492.318	23.05066
492.8	-23.04591
493.283	38.09441
493.765	52.12427
494.247	17.03807
494.73	26.05553
495.212	47.10894
495.694	26.05891
496.175	-7.01626
496.657	55.12743
497.139	-59.09613
497.62	-6.01401
498.102	3.0073
498.583	-25.06053
499.064	69.14994
499.545	-1.00222
500.026	21.04554
500.507	-26.05836
500.988	28.06676
501.469	-24.05852
501.949	-25.05983
502.43	15.03455
502.91	-17.03412
503.39	-3.00731
503.87	22.05042
504.35	-28.06381
504.83	16.03404
505.31	6.01424
505.79	-9.02104
506.269	-14.03168
506.749	-14.03115
507.228	7.016
507.707	25.05354
508.187	-22.05088
508.666	-37.08874
509.145	-39.08946
509.623	-14.03204
510.102	-25.05905
510.581	-11.02564
511.059	13.03209
511.538	-19.04795
512.016	34.07926
512.494	-56.1327
512.972	14.03268
513.45	-14.03219
513.928	-11.02615
514.406	-9.02172
514.884	23.0584
515.361	26.06114
515.839	-6.01329
516.316	-56.13188
516.793	-22.0544
517.27	13.03084
517.747	-12.03025
518.224	-14.03146
518.701	-23.05034
519.178	27.06643
519.654	-97.22403
520.131	-79.19164
520.607	-17.04125
521.083	-37.08362
521.56	-28.06455
522.036	11.02357
522.512	-17.04099
522.987	-26.06142
523.463	-15.03508
523.939	2.00478
524.414	-36.08091
524.89	-58.13473
525.365	7.01561
525.84	26.0618
526.315	-49.11551
526.79	-41.09012
527.265	-52.11528
527.74	-49.11748
528.215	-48.11194
528.689	-9.01977
529.164	-44.09189
529.638	-12.03031
530.112	-15.03514
530.587	12.02527
531.061	-22.05239
531.534	-42.09941
532.008	-18.04267
532.482	-86.19153
532.956	-18.04581
533.429	-90.21071
533.903	-6.01281
534.376	-71.15468
534.849	-43.0986
535.322	-6.01384
535.795	-18.0431
536.268	-17.04037
536.741	-50.11821
537.213	-28.06375
537.686	-112.27052
538.158	-50.11085
538.631	-55.13081
539.103	-26.05719
539.575	-23.04672
540.047	-40.08616
540.519	-41.09548
540.991	-72.17266
541.463	-69.16625
541.934	-37.08355
542.406	-46.1085
542.877	-41.0908
543.348	-115.27014
543.82	-27.06478
544.291	-52.11754
544.762	-32.07445
545.233	-13.03235
545.703	-50.10969
546.174	-41.09443
546.645	-16.03831
547.115	0
547.585	1.00228
548.056	-22.05324
548.526	-16.03708
548.996	-51.12102
549.466	-46.10993
549.935	-33.07837
550.405	8.01733
550.875	-65.15191
551.344	-11.02613
551.814	-83.18642
552.283	-25.05289
552.752	-38.08701
553.221	-61.13132
553.69	-22.04825
554.159	12.02932
554.628	-18.03947
555.096	-17.04232
555.565	-29.06337
556.033	-39.08997
556.502	-7.01655
556.97	-19.04104
557.438	-17.03951
557.906	-8.01855
558.374	-14.03141
558.842	-6.01407
559.31	-25.05444
559.777	-16.03819
560.245	-1.00226
560.712	-78.17573
561.18	-11.02368
561.647	-18.03919
562.114	-33.07403
562.581	50.1199
563.048	9.0199
563.514	12.02892
563.981	-25.05583
564.448	33.07205
564.914	3.00678
565.381	1.00218
565.847	68.15239
566.313	15.03382
566.779	108.23504
567.245	71.16019
567.711	84.19512
568.176	176.38286
568.642	155.37303
569.108	91.21551
569.573	92.20456
570.038	127.25514
570.504	144.31072
570.969	196.46175
571.434	213.44115
571.899	276.61186
572.363	242.5103
572.828	242.50895
573.293	234.5008
573.757	322.68136
574.222	349.71764
574.686	311.64383
575.15	352.76698
575.614	331.69044
576.078	337.72043
576.542	387.79828
577.006	413.84119
577.469	416.9187
577.933	386.77028
578.396	478.01967
578.86	391.82428
579.323	452.96143
579.786	457.86308
580.249	435.88681
580.712	439.95266
581.175	473.03929
581.637	474.97487
582.1	436.83895
582.563	441.8039
583.025	453.98178
583.487	336.60517
583.95	419.80255
584.412	400.73709
584.874	360.79239
585.336	377.81152
585.797	381.73329
586.259	320.67476
586.721	357.76186
587.182	316.66164
587.643	322.66376
588.105	338.73211
588.566	284.54488
589.027	308.69103
589.488	230.48414
589.949	278.61424
590.41	299.53451
590.87	208.43224
591.331	247.48087
591.791	233.49186
592.252	183.39326
592.712	216.48364
593.172	178.37568
593.632	146.29148
594.092	165.3448
594.552	137.27536
595.011	180.39156
595.471	151.31764
595.931	179.37206
596.39	117.26785
596.849	148.32428
597.308	139.28222
597.768	135.32724
598.227	124.28428
598.685	86.18493
599.144	122.27024
599.603	105.23671
600.062	74.14712
600.52	102.21726
600.978	105.23932
601.437	42.09214
601.895	31.06329
602.353	39.08215
602.811	95.20002
603.269	89.20228
603.727	55.12683
604.184	69.14918
604.642	68.15927
605.099	106.23255
605.557	59.13637
606.014	48.0989
606.471	122.29367
606.928	161.33838
607.385	102.24199
607.842	80.1778
608.299	59.1317
608.755	92.21142
609.212	48.10349
609.668	165.34633
610.125	92.21024
610.581	127.27821
611.037	73.15796
611.493	70.15668
611.949	89.2049
612.405	112.21436
612.861	120.2616
613.316	124.28302
613.772	135.29274
614.227	79.17831
614.683	77.15698
615.138	148.33139
615.593	47.10383
616.048	31.06714
616.503	65.15263
616.958	99.23654
617.412	64.1449
617.867	72.15436
618.321	69.13216
618.776	119.24735
619.23	89.20097
619.684	83.17583
620.138	63.13609
620.592	64.14784
621.046	53.11811
621.5	87.20037
621.954	91.19219
622.407	101.21134
622.861	30.06894
623.314	64.13893
623.768	82.18225
624.221	33.06268
624.674	-10.02201
625.127	44.0986
625.58	17.03622
626.033	23.04776
626.485	16.03676
626.938	8.0182
627.39	-7.01575
627.843	9.01983
628.295	38.08418
628.747	47.10678
629.199	97.2107
629.651	4.00879
630.103	35.07735
630.555	7.01407
631.006	-9.02035
631.458	-27.06069
631.909	20.04354
632.361	-59.13246
632.812	10.02233
633.263	-21.04314
633.714	-61.12481
634.165	-40.09211
634.616	-16.03649
635.067	-12.02515
635.518	-58.13233
635.968	-14.02673
636.419	-36.07444
636.869	-33.07522
637.319	-21.04684
637.769	-17.03694
638.219	-50.11385
638.669	21.04833
639.119	24.05579
639.569	9.02113
640.019	-30.0667
640.468	-98.21101
640.918	8.01843
641.367	20.04308
641.816	-34.07393
642.265	-43.09654
642.714	-29.06551
643.163	-59.13001
643.612	-18.04252
644.061	-64.1308
644.51	-8.01771
644.958	-55.11784
645.406	-16.0373
645.855	-47.11178
646.303	16.03563
646.751	2.00443
647.199	-49.10639
647.647	-5.01127
648.095	-54.12002
648.543	-22.0426
648.99	-42.09833
649.438	-22.05015
649.885	16.03851
650.333	-61.11254
650.78	15.03559
651.227	-30.07158
651.674	-44.09803
652.121	-71.16685
652.568	-15.0354
653.015	-70.1699
653.461	-49.1138
653.908	1.00224
654.354	-68.15646
654.801	-58.13356
655.247	-22.04639
655.693	-11.02793
656.139	-66.15452
656.585	-11.02564
657.031	-34.07817
657.477	-7.01474
657.922	-20.0451
658.368	-45.10773
658.813	-108.24123
659.259	-34.07992
659.704	-10.02279
660.149	-15.03388
660.594	-21.04854
661.039	-52.11663
661.484	-2.00462
661.929	-18.04069
662.373	0
662.818	-32.07819
663.262	-58.13627
663.707	-22.05404
664.151	-8.01922
664.595	-53.12557
665.039	-14.03367
665.483	8.01996
665.927	-48.10956
666.371	-16.0364
666.814	-27.06258
667.258	-16.03733
667.701	-9.01837
668.145	-6.01441
668.588	-10.02395
669.031	15.03448
669.474	-2.00466
669.917	-38.08126
670.36	-72.17456
670.803	-34.07963
671.245	-43.08742
671.688	-30.07093
672.13	-40.08705
672.573	15.0371
673.015	-40.09336
673.457	1.00212
673.899	-24.05621
674.341	-7.01636
674.783	-3.00703
675.225	-27.06464
675.666	-47.11131
676.108	-28.05936
676.549	-38.08719
676.991	-65.13944
677.432	-46.08766
677.873	-27.06039
678.314	-61.14229
678.755	-9.02141
679.196	-51.11502
679.637	-39.09197
680.078	3.00675
680.518	-89.19965
680.959	-55.12864
681.399	-29.0695
681.839	-26.06147
682.28	4.00963
682.72	-59.13127
683.16	-27.06579
683.6	11.02407
684.039	-95.19288
684.479	-2.00477
684.919	-14.03172
685.358	-33.08119
685.798	-68.17415
686.237	-29.06786
686.676	-20.04475
687.115	16.03617
687.554	-59.13681
687.993	-48.10135
688.432	51.11248
688.871	1.00219
689.309	49.11524
689.748	-70.14235
690.186	-29.06642
690.625	26.0597
691.063	20.04675
691.501	-14.03367
691.939	-31.07546
692.377	-10.02373
692.815	1.00235
693.253	-61.1415
693.69	-30.06373
694.128	21.04972
694.565	-18.04176
695.003	16.03943
695.44	-51.11643
695.877	-39.08982
696.314	-5.01028
696.751	-32.07012
697.188	-4.00894
697.625	-16.03501
698.061	-77.18165
698.498	-35.08219
698.934	-64.14925
699.371	-35.08077
699.807	-10.02295
700.243	24.05634
700.679	4.00871
701.115	-17.03834
701.551	7.016
701.987	-3.0064
702.422	-15.03441
702.858	-31.07108
703.294	-54.11792
703.729	-7.01669
704.164	38.08848
704.599	-14.02981
705.035	-55.12043
705.47	1.00239
705.904	-42.09466
706.339	-28.06195
706.774	-47.10634
707.209	-38.08477
707.643	-49.1147
708.078	-74.17583
708.512	-13.03221
708.946	-95.22185
709.38	-25.05689
709.814	-57.1256
710.248	-68.15971
710.682	8.0185
711.116	-14.03274
711.549	-47.1176
711.983	-39.08659
712.416	-68.15452
712.85	7.01697
713.283	-35.08026
713.716	-27.06528
714.149	-43.09801
714.582	28.06006
715.015	-18.04323
715.448	-48.11589
715.881	-45.09262
716.313	-9.02047
716.746	-12.02744
717.178	-47.10933
717.61	-39.09627
718.043	-34.08132
718.475	-25.05827
718.907	-50.12086
719.339	-19.04152
719.77	-13.0302
720.202	-52.12768
720.634	2.00473
721.065	-48.10996
721.497	-45.10744
721.928	-30.07191
722.359	-63.15076
722.79	-25.05785
723.221	-53.12823
723.652	-32.07907
724.083	-27.0583
724.514	8.01717
724.945	-70.16035
725.375	-43.0971
725.806	-103.24695
726.236	-38.0941
726.666	-45.10203
727.096	-48.11322
727.526	-73.18179
727.956	-35.07661
728.386	-74.17414
728.816	-40.09862
729.246	-72.17213
729.675	-13.03119
730.105	-47.11122
730.534	-29.06527
730.964	-43.1038
731.393	-20.04673
731.822	-21.05205
732.251	-7.01723
732.68	-68.15075
733.109	-33.07879
733.537	-26.06035
733.966	-74.17793
734.395	-70.15506
734.823	-1.00212
735.251	-71.16633
735.68	5.01191
736.108	-35.08503
736.536	-33.0747
736.964	-33.07311
737.392	-53.12726
737.82	-15.03427
738.247	-19.04315
738.675	-54.12241
739.102	-25.06103
739.53	-41.10214
739.957	-51.12654
740.384	-8.01861
740.811	-20.04911
741.238	-77.18102
741.665	-27.06107
742.092	-60.13656
742.519	-30.07254
742.945	-32.07369
743.372	-29.0695
743.798	-24.05943
744.225	-21.04769
744.651	-36.08666
745.077	-19.04552
745.503	-54.12603
745.929	-12.02739
746.355	-39.09136
746.781	-27.06419
747.207	39.08806
747.632	-66.15736
748.058	-74.17725
748.483	-27.05867
748.908	-74.17847
749.334	-29.06842
749.759	-18.04042
750.184	-77.17763
750.609	-20.04679
751.033	-90.20152
751.458	44.0936
751.883	-44.10423
752.307	-34.07817
752.732	1.00243
753.156	-24.05689
753.58	-4.009
754.005	12.02939
754.429	-82.18346
754.853	-36.08639
755.277	-10.02278
755.7	-17.04034
756.124	8.01926
756.548	-9.02055
756.971	2.00463
757.394	-32.07956
757.818	-8.01998
758.241	-32.07779
758.664	-5.01227
759.087	21.0454
759.51	-39.09351
759.933	-13.03024
760.356	-32.07904
760.778	48.1141
761.201	-64.14737
761.623	-78.17961
762.046	-64.14212
762.468	25.05659
762.89	-14.03307
763.312	-29.06735
763.734	-18.04173
764.156	-40.09563
764.578	-62.13533
765	-9.021
765.421	1.00249
765.843	-17.04323
766.264	-32.07336
766.686	4.00971
767.107	25.05845
767.528	-37.09181
767.949	-34.08342
768.37	-58.13691
768.791	-22.05062
769.212	8.01961
769.632	-28.06241
770.053	-27.06902
770.473	6.01397
770.894	-31.07356
771.314	-62.14054
771.734	-38.08425
772.154	-13.03216
772.575	-31.06837
772.994	-41.08959
773.414	-69.156
773.834	-16.03872
774.254	-45.10546
774.673	-30.06963
775.093	-16.03834
775.512	-12.0286
775.931	25.06124
776.351	-37.08786
776.77	-20.04721
777.189	-82.18701
777.607	-6.01479
778.026	-6.01444
778.445	-18.04403
778.864	-10.02448
779.282	-51.1169
779.701	-56.13674
780.119	-57.13858
780.537	-41.09845
780.955	12.02901
781.373	-24.05687
781.791	1.00215
782.209	22.0481
782.627	-18.04608
783.045	19.04129
783.462	-47.11521
783.88	-46.11607
784.297	-25.06053
784.715	10.02505
785.132	-51.11877
785.549	13.0315
785.966	-21.0505
786.383	-29.06908
786.8	12.02642
787.217	-51.11582
787.633	-39.09415
788.05	-65.14389
788.466	-7.01552
788.883	19.04683
789.299	-65.14929
789.715	35.08122
790.131	-22.05213
790.547	-110.26227
790.963	-14.03329
791.379	-16.03895
791.795	-44.09551
792.21	-46.10245
792.626	7.01572
793.041	-45.10604
793.457	-19.04467
793.872	-6.01344
794.287	51.11802
794.702	-12.02804
795.117	-90.21549
795.532	6.01457
795.947	-37.08409
796.362	3.0067
796.776	-58.12537
797.191	-48.11229
797.605	-14.03208
798.02	-38.0896
798.434	-19.03951
798.848	-45.10575
799.262	-16.0387
799.676	-27.06221
800.09	-7.01632
800.504	-31.0718
800.918	-36.07915
801.331	-17.04243
801.745	-66.14449
802.158	-36.0862
802.572	8.01826
802.985	-61.13943
803.398	-43.09805
803.811	12.02915
804.224	-33.07828
804.637	-82.18497
805.05	-32.07041
805.462	-27.06305
805.875	2.00508
806.288	-4.00931
806.7	-54.13068
807.112	-8.01754
807.525	-28.06645
807.937	-62.14805
808.349	-41.09811
808.761	-79.18449
809.173	-44.10075
809.584	-4.00933
809.996	-62.14715
810.408	-33.08257
810.819	-55.12429
811.231	16.04065
811.642	-4.00949
812.053	-12.02772
812.464	-29.0665
812.875	-46.1137
813.286	-51.12613
813.697	-38.08189
814.108	-45.10393
814.519	-36.07511
814.929	-91.22216
815.34	-59.13692
815.75	-19.04625
816.16	-63.14811
816.571	-35.0876
816.981	-64.14206
817.391	-45.10339
817.801	-18.04339
818.211	-13.02953
818.62	-21.04796
819.03	-74.17224
819.44	-31.0774
819.849	-24.05814
820.259	2.0049
820.668	-26.06199
821.077	-25.05964
821.486	-77.17564
821.895	-38.08775
822.304	-9.02293
822.713	-17.03792
823.122	-43.10372
823.531	-3.00677
823.939	-28.06527
824.348	0
824.756	-27.06429
825.164	-42.10033
825.573	-60.14509
825.981	12.02822
826.389	-48.11388
826.797	-37.08901
827.205	-39.08497
827.612	-72.16936
828.02	-43.09741
828.428	-25.06065
828.835	-39.09937
829.243	-49.11083
829.65	-30.07167
830.057	30.06947
830.464	16.03736
830.871	-32.07245
831.278	-70.16067
831.685	-55.11453
832.092	-19.04455
832.499	-17.03463
832.905	1.00242
833.312	-33.07046
833.718	-40.09475
834.124	-9.01942
834.531	-38.09109
834.937	-59.14425
835.343	-3.00686
835.749	-33.07211
836.155	-21.05258
836.561	-99.23047
836.966	-31.07188
837.372	-8.01931
837.777	-42.09945
838.183	-50.1021
838.588	7.0166
838.993	-47.10773
839.399	-82.19206
839.804	-31.07308
840.209	-1.00245
840.613	-17.036
841.018	-57.13697
841.423	-71.17359
841.828	-54.13102
842.232	-16.03687
842.637	-71.15718
843.041	9.02239
843.445	-67.1599
843.849	-54.12821
844.253	-43.09606
844.657	-56.13704
845.061	-57.12307
845.465	2.00469
845.869	-38.08312
846.272	-54.12588
846.676	7.01604
847.079	-1.00245
847.483	21.04927
847.886	-30.06792
848.289	17.04417
848.692	-11.02645
849.095	-66.14955
849.498	-10.02352
849.901	-38.0814
850.304	-34.07638
850.707	-1.00242
851.109	-41.09699
851.512	-1.00235
851.914	6.01472
852.316	0
852.718	-68.1722
853.121	-37.08658
853.523	-10.02195
853.925	-32.08046
854.326	-11.02657
854.728	-7.01718
855.13	-60.15075
855.531	-15.03463
855.933	-12.0271
856.334	-39.09368
856.736	-62.13045
857.137	-9.01972
857.538	-31.07458
857.939	30.07051
858.34	-24.05504
858.741	-6.01496
859.142	1.00227
859.542	13.03353
859.943	34.08041
860.343	-42.10033
860.744	38.08743
861.144	-16.03701
861.544	-3.00695
861.945	-57.13853
862.345	-73.16766
862.745	-60.14306
863.145	-29.06406
863.544	46.11102
863.944	-23.05111
864.344	-26.06047
864.743	5.01173
865.143	-31.07624
865.542	-13.02825
865.941	11.02603
866.34	38.08526
866.74	-31.08007
867.139	-14.03201
867.537	-6.01443
867.936	1.00228
868.335	-43.10584
868.734	16.0393
869.132	-9.01987
869.531	-11.02506
869.929	5.01082
870.327	-41.09349
870.726	-2.0047
871.124	-47.103
871.522	-63.15266
871.92	-34.07963
872.318	-14.03255
872.715	-10.02331
873.113	-17.03942
873.511	-18.04277
873.908	-1.00247
874.306	-6.01423
874.703	-7.01658
875.1	-53.129
875.497	-67.15234
875.894	19.04484
876.291	32.07448
876.688	-19.04673
877.085	-22.04963
877.482	-19.04481
877.878	-19.04352
878.275	-29.07006
878.671	-92.18846
879.068	-35.07997
879.464	-17.03904
879.86	-8.01813
880.256	-32.07395
880.652	-29.07035
881.048	-52.12132
881.444	-60.13374
881.84	-41.09912
882.236	-4.00957
882.631	-10.02331
883.027	-43.09718
883.422	-34.08302
883.817	15.03622
884.213	-29.07138
884.608	-9.0212
885.003	-34.07823
885.398	-31.07404
885.793	-9.02133
886.188	-26.06249
886.582	-53.12755
886.977	8.01777
887.371	-16.03844
887.766	-20.04787
888.16	7.01655
888.554	-28.06489
888.949	-59.13951
889.343	-24.05469
889.737	-22.05743
890.131	2.00479
890.525	-18.04372
890.918	-27.06547
891.312	-63.14057
891.706	6.01516
892.099	25.0598
892.492	18.03592
892.886	-39.09015
893.279	-31.07557
893.672	-45.11031
894.065	-39.09272
894.458	-47.11277
894.851	-38.08691
895.244	-46.11291
895.637	-25.05723
896.029	-4.00924
896.422	-18.04142
896.814	-28.06645
897.206	-27.06179
897.599	-74.17094
897.991	-21.04833
898.383	-23.05107
898.775	1.0021
899.167	-24.05358
899.559	0
899.951	4.00882
900.342	-77.18475
900.734	-11.0266
901.125	-28.06961
901.517	2.00467
901.908	25.05541
902.299	-2.00465
902.69	-6.01335
903.082	2.00456
903.473	-24.05518
903.863	5.01227
904.254	-50.10937
904.645	-50.11679
905.036	-25.05852
905.426	-79.16604
905.817	-94.2218
906.207	-52.11878
906.597	-26.05774
906.987	-57.13983
907.378	-39.09361
907.768	2.00507
908.158	-9.02082
908.547	9.02221
908.937	11.02661
909.327	-38.08715
909.717	-16.03818
910.106	17.03836
910.495	35.0827
910.885	-58.13813
911.274	18.04272
911.663	12.02913
912.052	-6.01385
912.441	43.10415
912.83	1.00213
913.219	-43.10654
913.608	-20.04637
913.997	-67.16125
914.385	-47.10509
914.774	-29.06661
915.162	-36.08084
915.55	19.04315
915.939	-19.04594
916.327	3.00707
916.715	-30.07385
917.103	-1.0023
917.491	-33.07631
917.878	-57.13118
918.266	-33.08173
918.654	-2.00492
919.041	-84.21264
919.429	-6.0134
919.816	-34.08172
920.203	0
920.591	-82.19356
920.978	-13.02999
921.365	-65.16363
921.752	-18.04075
922.139	-5.01017
922.525	-83.19086
922.912	-34.07832
923.299	-26.06185
923.685	-37.09268
924.072	-1.00212
924.458	-18.04237
924.844	-65.15382
925.231	-43.09388
925.617	-6.01479
926.003	-25.06092
926.389	3.00725
926.774	18.04336
927.16	4.00932
927.546	-35.08592
927.931	-34.08072
928.317	-86.18462
928.702	-28.06187
929.088	-24.05394
929.473	-32.0779
929.858	3.00699
930.243	-23.05268
930.628	-36.08286
931.013	26.06156
931.398	-50.10729
931.783	-21.05285
932.167	-50.11569
932.552	-53.12494
932.937	-87.20365
933.321	-33.07855
933.705	21.05064
934.09	-28.06617
934.474	-9.02006
934.858	-19.04733
935.242	2.00442
935.626	-50.12209
936.009	-52.13318
936.393	29.0704
936.777	6.01473
937.16	-39.09588
937.544	-11.02422
937.927	-53.12949
938.311	-7.01596
938.694	17.04269
939.077	-43.09682
939.46	4.00929
939.843	1.00188
940.226	-42.10248
940.609	-60.12969
940.991	-45.10965
941.374	-57.13207
941.757	-2.00464
942.139	-83.17521
942.522	-44.09682
942.904	18.04072
943.286	-40.09603
943.668	-28.06926
944.05	-40.09369
944.432	-48.11352
944.814	-43.09967
945.196	-14.0328
945.578	-26.05937
945.959	-49.10911
946.341	18.04054
946.722	-4.00885
947.104	-29.0649
947.485	-28.06117
947.866	18.0433
948.247	-27.06498
948.628	-18.04115
949.009	-20.04905
949.39	-60.13965
949.771	-31.06725
950.152	-40.09402
950.532	-12.02897
950.913	-44.09942
951.293	-27.0709
951.674	-16.03621
952.054	3.00706
952.434	-45.10546
952.814	-56.12405
953.194	30.07456
953.574	-40.09207
953.954	-1.00223
954.334	13.03076
954.714	-13.0301
955.093	-53.12226
955.473	-64.15201
955.853	-14.03473
956.232	-18.04743
956.611	-23.05092
956.99	-33.07948
957.37	-10.02422
957.749	-48.10735
958.128	5.01207
958.506	1.00249
958.885	-51.12242
959.264	-6.01393
959.643	27.05717
960.021	-62.14726
960.4	12.02575
960.778	-25.0571
961.156	-48.11493
961.535	-75.1618
961.913	-83.18059
962.291	-10.0248
962.669	-24.05814
963.047	-46.11073
963.424	-9.02195
963.802	-57.13217
964.18	-9.02141
964.557	-22.04666
964.935	-32.07121
965.312	-10.02503
965.69	-9.02119
966.067	-6.01365
966.444	4.00928
966.821	-46.11278
967.198	-48.10863
967.575	-21.04825
967.952	13.02865
968.329	-32.07342
968.705	-2.00389
969.082	-36.08902
969.458	-42.09714
969.835	-51.11779
970.211	-46.11328
970.587	-23.05434
970.963	-54.1324
971.339	-31.07832
971.715	-75.17632
972.091	-52.12156
972.467	-69.16158
972.843	-25.05898
973.219	-28.06236
973.594	-46.11578
973.97	-19.0419
974.345	-48.1089
974.721	-23.05221
975.096	-59.13442
975.471	28.06218
975.846	3.00683
976.221	-24.05819
976.596	-47.10708
976.971	7.01629
977.346	-36.07768
977.72	-55.13387
978.095	-45.11182
978.469	-7.01575
978.844	13.03072
979.218	-65.15012
979.593	-39.08864
979.967	-6.01388
980.341	-65.14059
980.715	-18.04279
981.089	-95.2262
981.463	8.01737
981.837	-21.04906
982.21	-10.02156
982.584	-31.07043
982.957	-23.0551
983.331	-28.06241
983.704	-13.03047
984.078	-49.11425
984.451	-72.16712
984.824	17.03929
985.197	-19.04341
985.57	-18.04234
985.943	-76.17535
986.316	15.03455
986.688	-39.08857
987.061	-43.09404
987.434	-58.14567
987.806	-38.08673
988.179	-63.14011
988.551	-62.1493
988.923	-82.19274
989.295	-12.02827
989.667	2.0046
990.039	-11.02588
990.411	22.04761
990.783	-13.02784
991.155	-26.06018
991.527	-64.14661
991.898	-72.17062
992.27	-85.20239
992.641	-38.09012
993.012	37.08157
993.384	-48.10863
993.755	-52.12617
994.126	41.09216
994.497	-47.10967
994.868	-19.0411
995.239	1.0023
995.61	-29.06918
995.98	-40.09336
996.351	-27.06409
996.722	-32.07065
997.092	-53.12065
997.462	-63.14179
997.833	-66.14778
998.203	-6.01359
998.573	-20.04769
998.943	-55.12059
999.313	25.05641
999.683	-94.21368
1000.053	9.01942
1000.423	-20.04593
1000.792	-32.07947
1001.162	-13.03048
1001.531	-22.05175
1001.901	-48.11339
1002.27	-3.00629
1002.639	-6.01462
1003.009	22.04969
1003.378	-21.05127
1003.747	-50.11131
1004.116	-52.11907
1004.485	-15.03402
1004.853	-16.03853
1005.222	7.01689
1005.591	-41.09114
1005.959	-42.09055
1006.328	-59.12477
1006.696	-36.08303
1007.064	5.01191
1007.433	31.07322
1007.801	-20.046
1008.169	-19.04517
1008.537	-2.00413
1008.905	-27.05957
1009.273	-21.04904
1009.64	-14.03171
1010.008	-45.10124
1010.375	1.00228
1010.743	-12.02524
1011.11	-25.05601
1011.478	4.00931
1011.845	-72.15803
1012.212	-82.17405
1012.579	0
1012.946	-85.18958
1013.313	-13.02896
1013.68	-27.05627
1014.047	3.00683
1014.414	-21.04726
1014.78	19.04495
1015.147	-80.18164
1015.513	24.05509
1015.88	-51.12274
1016.246	31.07191
1016.612	-37.07866
1016.978	-55.12779
1017.344	-3.00709
1017.71	-53.11992
1018.076	-44.09767
1018.442	-55.13487
1018.808	-23.05468
1019.174	-33.07824
1019.539	-40.08368
1019.905	-5.01116
1020.27	1.00236
1020.636	-25.05638
1021.001	-29.06503
1021.366	-26.06028
1021.731	-22.05418
1022.096	-14.03392
1022.461	-51.11281
1022.826	1.00223
1023.191	9.02248
1023.556	-33.07171
1023.92	-28.06435
1024.285	-9.0206
1024.649	-51.11901
1025.014	5.01164
1025.378	34.08135
1025.742	-33.07773
1026.107	-39.08164
1026.471	-28.05993
1026.835	-59.13789
1027.199	14.03184
1027.562	-12.02634
1027.926	-20.046
1028.29	-24.05799
1028.654	-50.1072
1029.017	9.02089
1029.381	-19.04306
1029.744	-32.07846
1030.107	-22.04794
1030.471	-41.09247
1030.834	-34.07113
1031.197	-20.0446
1031.56	35.0778
1031.923	-27.06653
1032.286	12.02607
1032.648	-42.09424
1033.011	-20.04321
1033.374	-47.10261
1033.736	-20.05023
1034.099	-9.02083
1034.461	-4.00968
1034.823	-41.09665
1035.185	-72.17081
1035.548	-35.08048
1035.91	45.1012
1036.272	5.01061
1036.634	-49.11218
1036.995	14.03108
1037.357	-13.02995
1037.719	-33.07585
1038.08	-37.08123
1038.442	-5.01141
1038.803	-48.10832
1039.165	-36.08676
1039.526	0
1039.887	27.06082
1040.248	18.04272
1040.609	-44.1031
1040.97	-35.08096
1041.331	-56.13301
1041.692	-39.08688
1042.053	7.01464
1042.413	-87.19026
1042.774	-51.11709
1043.134	-44.09767
1043.495	-57.13572
1043.855	7.01596
1044.215	-42.09876
1044.576	-49.11218
1044.936	-4.00861
1045.296	-7.0164
1045.656	-48.11185
1046.016	-48.10819
1046.375	8.01841
1046.735	-9.01935
1047.095	-17.03745
1047.454	-4.00779
1047.814	-70.15887
1048.173	-20.04401
1048.533	-55.11982
1048.892	-36.08263
1049.251	-21.04998
1049.61	-33.07607
1049.969	-38.08533
1050.328	-26.05157
1050.687	-12.02746
1051.046	4.00924
1051.405	-45.10492
1051.763	-19.04124
1052.122	-21.05029
1052.48	-27.06221
1052.839	-52.1161
1053.197	-68.15232
1053.555	-66.1363
1053.914	4.00915
1054.272	-54.12335
1054.63	-52.12012
1054.988	-33.07382
1055.345	-66.13134
1055.703	-33.07418
1056.061	-25.06137
1056.419	-10.02478
1056.776	-15.03408
1057.134	-31.06722
1057.491	-57.13578
1057.848	-36.08448
1058.206	-25.05518
1058.563	23.04738
1058.92	5.0106
1059.277	-71.16392
1059.634	-60.13047
1059.991	19.04275
1060.348	-30.06429
1060.704	-101.23132
1061.061	-37.07873
1061.418	-34.0787
1061.774	25.05886
1062.131	29.07449
1062.487	-53.11615
1062.843	-36.08514
1063.199	21.04945
1063.555	-46.10156
1063.911	-69.16612
1064.267	-39.07311
1064.623	-16.03717
1064.979	-83.18167
1065.335	-49.1087
1065.691	12.02721
1066.046	-67.13696
1066.402	-92.19843
1066.757	0
1067.112	-49.11276
1067.468	-4.00904
1067.823	-11.02497
1068.178	-16.03674
1068.533	-59.13469
1068.888	-82.18437
1069.243	-45.10624
1069.598	-105.24057
1069.952	19.04055
1070.307	-7.01669
1070.662	-52.11754
1071.016	-38.08087
1071.371	-56.11949
1071.725	-115.25617
1072.079	-44.09994
1072.434	-78.18069
1072.788	-4.00902
1073.142	0
1073.496	-21.04695
1073.85	-81.17789
1074.203	-30.06845
1074.557	-25.0642
1074.911	-4.00883
1075.265	-82.17853
1075.618	-8.01848
1075.971	-43.09606
1076.325	-19.04594
1076.678	-42.09047
1077.031	-39.08262
1077.385	-19.03928
1077.738	6.01264
1078.091	-23.0499
1078.444	-45.09687
1078.796	8.01861
1079.149	-77.1806
1079.502	-72.16228
1079.855	-7.01539
1080.207	0
1080.56	-90.22417
1080.912	-70.15958
1081.264	-23.05219
1081.617	-42.09745
1081.969	-3.00732
1082.321	-20.04618
1082.673	-38.08284
1083.025	-40.08872
1083.377	-305.63508
1083.728	-53.11409
1084.08	-18.04288
1084.432	-89.20006
1084.783	28.06166
1085.135	15.036
1085.486	-29.06297
1085.838	-65.15281
1086.189	-17.0389
1086.54	0
1086.891	3.00729
1087.242	-62.14243
1087.593	-50.11431
1087.944	-58.12316
1088.295	-34.07144
1088.646	-33.07585
1088.996	-81.18596
1089.347	-50.11573
1089.698	-28.06314
1090.048	-64.15819
1090.398	6.01306
1090.749	-27.06114
1091.099	-18.04349
1091.449	-34.07976
1091.799	-60.14306
1092.149	-28.0664
1092.499	-31.07191
1092.849	-55.13402
1093.199	-34.08041
1093.548	-18.04108
1093.898	-19.04521
1094.248	-24.05867
1094.597	-22.0544
1094.947	-47.12031
1095.296	-81.19042
1095.645	-67.16661
1095.994	3.0068
1096.343	-19.04595
1096.692	2.00506
1097.041	-42.11057
1097.39	-47.11187
1097.739	-4.00993
1098.088	-12.03032
1098.437	-33.08358
1098.785	-10.02563
1099.134	-75.18935
1099.482	-4.01044
1099.83	-23.05744
1100.179	18.04529
1100.527	-36.091
1100.875	-44.11174
1101.223	-7.01791
1101.571	-39.10469
1101.919	-44.11158
1102.267	10.02742
1102.615	2.00643
1102.962	-4.01285
1103.31	0
1103.658	-2.00641
