Data from N3 R6 sample 8_Subt2__4__15-24-51-531.txt Node

Date: Fri Sep 19 15:24:51 PDT 2025
User: uwsun
Spectrometer: HDX01956
Trigger mode: 0
Integration Time (sec): 5.000000E-1
Scans to average: 1
Nonlinearity correction enabled: true
Boxcar width: 0
Storing dark spectrum: false
XAxis mode: Wavelengths
Number of Pixels in Spectrum: 2068
>>>>>Begin Spectral Data<<<<<
194.03	-13.03782
194.578	-3.00976
195.127	5.01604
195.676	-9.02889
196.225	-27.07169
196.773	-10.02798
197.321	13.03624
197.87	-5.01297
198.418	19.04957
198.966	-8.02133
199.513	46.1176
200.061	-39.10046
200.609	-18.04794
201.156	-35.07674
201.704	-12.03042
202.251	-2.00534
202.798	28.07329
203.345	8.01993
203.892	11.02785
204.438	18.04321
204.985	13.0312
205.532	38.10239
206.078	20.04938
206.624	-34.08552
207.17	18.0419
207.716	-56.1373
208.262	-22.0438
208.808	-17.04286
209.354	-14.03445
209.899	-10.02532
210.445	14.03538
210.99	-54.13318
211.535	38.08914
212.08	-24.05628
212.625	-1.00252
213.17	11.02789
213.715	-36.08247
214.259	19.04467
214.804	-43.10697
215.348	2.00459
215.892	53.12726
216.436	24.05595
216.98	-22.04863
217.524	-18.04295
218.068	22.05541
218.612	-35.0882
219.155	18.04236
219.698	-27.06424
220.242	12.02982
220.785	-4.00941
221.328	13.03248
221.871	19.04799
222.414	-20.04934
222.956	-29.0709
223.499	-12.02708
224.041	2.00458
224.583	32.06801
225.126	34.07582
225.668	-23.05636
226.21	19.04766
226.751	-78.17127
227.293	-23.05221
227.835	-21.05127
228.376	35.07923
228.918	10.02515
229.459	46.11524
230	-29.06934
230.541	-47.10842
231.082	48.11546
231.622	-6.01383
232.163	19.04639
232.704	-20.04963
233.244	-19.04726
233.784	-23.05598
234.324	32.07091
234.864	-47.10686
235.404	-43.1018
235.944	-32.07539
236.484	-8.01972
237.023	-4.00949
237.563	-16.03701
238.102	40.09354
238.641	1.00255
239.18	4.00942
239.719	45.11292
240.258	35.07738
240.797	30.07172
241.335	-47.11419
241.874	1.00194
242.412	-46.11085
242.95	1.00241
243.488	-6.0137
244.026	-2.00463
244.564	-34.07015
245.102	39.08684
245.64	-9.0216
246.177	-27.06027
246.715	-24.05703
247.252	-11.02495
247.789	-65.11661
248.326	-53.12717
248.863	-18.03927
249.4	38.08656
249.936	-19.03898
250.473	-25.0587
251.009	-14.03247
251.546	-5.01106
252.082	60.13075
252.618	3.00673
253.154	8.01917
253.69	29.06455
254.226	-7.01664
254.761	-30.06662
255.297	-25.05516
255.832	-11.02589
256.367	-11.02576
256.903	-8.01742
257.438	-17.03948
257.972	-6.01321
258.507	81.18492
259.042	-73.15688
259.576	19.04087
260.111	7.01603
260.645	0
261.179	4.00924
261.713	-14.03092
262.247	40.09237
262.781	54.11257
263.315	-3.00735
263.849	-4.01
264.382	3.00682
264.915	29.06799
265.449	-38.09375
265.982	-32.07207
266.515	3.00731
267.048	55.11549
267.58	-30.06451
268.113	7.01521
268.646	-7.01744
269.178	-18.04034
269.71	2.00432
270.243	35.07903
270.775	17.04313
271.307	-36.08567
271.838	1.00235
272.37	16.03937
272.902	18.04098
273.433	-11.02386
273.965	25.06126
274.496	-28.06903
275.027	-5.01233
275.558	-19.04611
276.089	25.06253
276.62	-39.0992
277.15	-13.03199
277.681	-80.17262
278.211	-18.04379
278.741	6.01334
279.272	24.05454
279.802	22.05482
280.332	17.04
280.861	13.03116
281.391	-16.03618
281.921	4.00947
282.45	42.10537
282.98	23.05992
283.509	-7.01572
284.038	-66.14943
284.567	-9.02058
285.096	18.04341
285.625	43.09817
286.153	-71.16802
286.682	-19.04322
287.21	7.01679
287.739	-5.01172
288.267	-9.02194
288.795	14.03659
289.323	37.08715
289.851	-14.03266
290.378	-21.04738
290.906	8.0195
291.433	18.04478
291.961	-31.07009
292.488	-23.05753
293.015	12.02847
293.542	5.01261
294.069	10.02453
294.596	-12.0297
295.122	18.04287
295.649	47.10366
296.175	19.04519
296.702	-12.02881
297.228	-29.06958
297.754	-26.05851
298.28	54.12081
298.806	-14.03399
299.332	-57.12766
299.857	5.01123
300.383	38.09455
300.908	18.04405
301.433	32.07782
301.958	-42.09594
302.483	48.12064
303.008	25.06099
303.533	4.01022
304.058	1.00235
304.582	-26.06197
305.107	32.08379
305.631	-38.08645
306.155	43.10054
306.679	53.12324
307.203	53.12226
307.727	50.11844
308.251	14.03443
308.775	-6.01426
309.298	26.0627
309.822	41.1027
310.345	-9.0214
310.868	-7.01677
311.391	30.07331
311.914	5.01257
312.437	13.02929
312.96	77.17996
313.482	14.03332
314.005	-19.04797
314.527	47.12308
315.049	13.0326
315.571	61.13785
316.093	50.12386
316.615	29.07035
317.137	32.06869
317.659	26.06213
318.18	20.04829
318.702	5.01168
319.223	34.06949
319.744	13.02935
320.265	42.10187
320.786	29.07177
321.307	48.11943
321.828	79.17831
322.348	59.1387
322.869	-27.06328
323.389	236.41915
323.909	35.08022
324.43	10.02392
324.95	48.11
325.47	74.18123
325.989	73.17395
326.509	-14.03128
327.029	43.09674
327.548	-5.0114
328.067	32.07703
328.587	43.10704
329.106	22.04989
329.625	12.03098
330.144	4.00918
330.662	65.14977
331.181	71.16522
331.7	58.13473
332.218	97.20953
332.736	-7.01635
333.255	43.09979
333.773	56.13224
334.291	31.07633
334.808	28.06195
335.326	28.06342
335.844	50.11738
336.361	94.23498
336.879	16.03739
337.396	15.03585
337.913	34.0777
338.43	91.20473
338.947	18.04305
339.464	12.02586
339.981	56.13301
340.497	97.2368
341.014	65.1559
341.53	99.22318
342.046	72.176
342.562	102.25045
343.078	61.14223
343.594	111.26288
344.11	92.21556
344.626	104.25988
345.141	111.25156
345.657	56.12477
346.172	71.1688
346.687	88.20086
347.202	53.1187
347.717	100.23614
348.232	91.22554
348.747	78.17782
349.261	186.40307
349.776	66.15307
350.29	87.21397
350.805	62.15082
351.319	139.31809
351.833	107.24161
352.347	44.10148
352.861	91.21009
353.374	116.26006
353.888	89.21086
354.401	130.29252
354.915	108.24073
355.428	119.29213
355.941	119.27385
356.454	138.30263
356.967	120.27985
357.48	129.28938
357.993	96.23275
358.505	101.24657
359.018	87.20779
359.53	128.30109
360.042	73.15809
360.554	112.26509
361.066	91.21784
361.578	160.34302
362.09	153.35589
362.602	135.29161
363.113	97.21814
363.625	139.30925
364.136	116.2502
364.647	104.239
365.158	147.33572
365.669	180.42537
366.18	78.17746
366.691	133.28742
367.201	119.27692
367.712	139.30437
368.222	182.40986
368.733	178.37897
369.243	128.27371
369.753	124.27857
370.263	166.38056
370.773	173.4154
371.282	172.39495
371.792	98.22007
372.301	176.4135
372.811	166.419
373.32	168.34538
373.829	195.44803
374.338	149.32268
374.847	169.37349
375.356	213.49016
375.865	174.35772
376.373	233.50502
376.882	244.58864
377.39	258.59335
377.898	244.57928
378.407	205.43769
378.915	222.45454
379.423	281.62774
379.93	281.59656
380.438	345.78816
380.946	325.71101
381.453	303.68191
381.96	337.74442
382.468	405.8845
382.975	394.89083
383.482	409.83911
383.989	431.00852
384.495	447.93321
385.002	490.91567
385.509	444.93332
386.015	570.99999
386.521	565.09521
387.028	652.25966
387.534	615.12988
388.04	609.23693
388.546	652.21694
389.051	687.25295
389.557	694.34543
390.063	780.48006
390.568	786.52191
391.073	838.50393
391.578	782.5257
392.084	864.49125
392.589	1025.66953
393.093	992.75827
393.598	1137.84969
394.103	1208.03432
394.607	1249.04649
395.112	1472.36735
395.616	1545.34649
396.12	1592.21877
396.624	1771.35548
397.128	2006.54653
397.632	2073.41249
398.136	2309.44938
398.639	2585.5684
399.143	2915.73327
399.646	3380.22142
400.15	3738.90616
400.653	4195.52134
401.156	4617.86997
401.659	5381.66644
402.162	6920.38339
402.664	10086.80044
403.167	18103.51329
403.67	51487.18801
404.172	54209.47332
404.674	37291.05854
405.176	4428.40989
405.678	533.47942
406.18	0
406.682	0
407.184	6962.89417
407.686	35500.11342
408.187	22652.77485
408.688	14624.51414
409.19	11554.80746
409.691	9553.64207
410.192	8091.8359
410.693	7308.51844
411.194	7013.2185
411.694	6480.02606
412.195	5977.24213
412.696	5397.25607
413.196	5376.87444
413.696	5350.52992
414.196	5367.0631
414.696	5128.72292
415.196	4684.76069
415.696	3812.19574
416.196	2949.04323
416.695	2567.39887
417.195	2316.53094
417.694	2188.87247
418.194	2012.9847
418.693	1941.29807
419.192	2067.52282
419.691	1929.46689
420.19	1847.45232
420.688	1793.55978
421.187	1694.87239
421.685	1589.24327
422.184	1354.09084
422.682	1175.77597
423.18	1006.71503
423.678	938.61591
424.176	818.46119
424.674	824.39864
425.172	740.39243
425.669	666.3618
426.167	652.2404
426.664	552.06104
427.161	544.05015
427.659	530.12004
428.156	479.87496
428.652	465.03238
429.149	416.89564
429.646	349.68302
430.143	367.79203
430.639	283.61286
431.135	299.67428
431.632	288.60009
432.128	394.85521
432.624	214.50767
433.12	312.6524
433.616	308.6112
434.111	295.64866
434.607	230.51222
435.103	174.33819
435.598	220.42025
436.093	181.39382
436.588	236.49262
437.083	212.44507
437.578	183.39089
438.073	136.31928
438.568	149.34371
439.062	134.27088
439.557	110.24437
440.051	126.27153
440.546	144.31245
441.04	85.19201
441.534	129.31234
442.028	108.2471
442.522	82.18965
443.015	113.23498
443.509	154.35829
444.002	154.35815
444.496	15.03132
444.989	117.27495
445.482	53.12688
445.975	73.16079
446.468	47.09778
446.961	36.07388
447.454	38.08193
447.947	134.30683
448.439	137.32006
448.931	55.12008
449.424	16.03854
449.916	22.05119
450.408	94.20727
450.9	51.11933
451.392	50.12263
451.884	50.10909
452.375	-4.00961
452.867	60.12991
453.358	-6.01314
453.849	50.10205
454.341	76.1647
454.832	31.06481
455.323	-27.06466
455.814	16.03544
456.304	9.02006
456.795	21.04598
457.285	58.12247
457.776	11.02378
458.266	54.12464
458.756	12.02761
459.247	25.05735
459.737	21.0491
460.226	64.13828
460.716	23.05348
461.206	-25.0579
461.695	53.12857
462.185	54.12335
462.674	35.07667
463.163	8.01701
463.653	34.06914
464.142	8.0186
464.63	15.03544
465.119	12.02722
465.608	9.02001
466.096	62.12982
466.585	32.07012
467.073	-14.03225
467.561	51.11999
468.05	21.04666
468.538	64.15289
469.026	16.03739
469.513	-44.09095
470.001	35.07638
470.489	-9.02072
470.976	0
471.463	62.14992
471.951	26.06289
472.438	17.03884
472.925	-44.0999
473.412	-25.05928
473.899	-16.03599
474.385	21.04993
474.872	-17.03853
475.359	24.05676
475.845	8.01605
476.331	-15.03135
476.817	-27.06357
477.303	5.01127
477.789	-31.07291
478.275	-8.01942
478.761	15.03485
479.247	-11.0238
479.732	-16.03927
480.218	6.01519
480.703	49.11913
481.188	-31.06455
481.673	-23.05168
482.158	-61.12934
482.643	-8.01982
483.128	-38.08449
483.612	-40.09115
484.097	30.07084
484.581	-32.07148
485.066	29.0678
485.55	-21.04457
486.034	36.07608
486.518	-48.11115
487.002	-16.03834
487.486	-33.07909
487.969	-19.04606
488.453	-29.07201
488.936	-11.02406
489.42	14.03009
489.903	7.01717
490.386	12.02505
490.869	-69.14534
491.352	-35.08324
491.835	-29.05772
492.318	-46.10279
492.8	-61.12283
493.283	-28.0704
493.765	-43.10462
494.247	-33.07467
494.73	-41.08883
495.212	-26.06114
495.694	-22.05034
496.175	-43.10062
496.657	72.16626
497.139	-96.15804
497.62	-22.05155
498.102	23.05577
498.583	-59.14377
499.064	16.03516
499.545	-13.0289
500.026	13.02824
500.507	-56.12648
500.988	-27.06505
501.469	-44.10768
501.949	-18.04302
502.43	-52.12136
502.91	-57.11546
503.39	6.01459
503.87	8.01838
504.35	-42.09598
504.83	-13.02783
505.31	7.01661
505.79	-2.00467
506.269	-30.06811
506.749	-7.01555
507.228	17.03878
507.707	43.09173
508.187	16.03673
508.666	-12.02864
509.145	21.04759
509.623	19.0432
510.102	116.26647
510.581	55.12652
511.059	87.21184
511.538	132.32411
512.016	130.29731
512.494	111.25453
512.972	188.42372
513.45	180.39772
513.928	186.42538
514.406	232.5342
514.884	263.63914
515.361	285.63615
515.839	244.51203
516.316	270.59532
516.793	302.70201
517.27	308.68876
517.747	320.75821
518.224	320.66972
518.701	362.72776
519.178	390.8947
519.654	273.58388
520.131	312.70086
520.607	343.7757
521.083	340.70906
521.56	325.69629
522.036	351.69669
522.512	372.83047
522.987	310.68436
523.463	284.62513
523.939	250.5692
524.414	257.54276
524.89	239.52244
525.365	268.56537
525.84	230.52515
526.315	153.34646
526.79	169.35504
527.265	147.31236
527.74	112.26027
528.215	178.39659
528.689	188.39591
529.164	68.13847
529.638	149.36551
530.112	129.29366
530.587	167.33969
531.061	101.23485
531.534	51.11854
532.008	79.18376
532.482	-9.01972
532.956	71.17784
533.429	-1.0023
533.903	83.17375
534.376	42.08931
534.849	96.21398
535.322	48.10956
535.795	52.12284
536.268	12.02834
536.741	13.03036
537.213	58.12976
537.686	-11.02606
538.158	-17.03743
538.631	-9.02122
539.103	-13.02851
539.575	25.05022
540.047	-45.09704
540.519	27.06204
540.991	2.00473
541.463	-3.00714
541.934	-20.045
542.406	-21.04929
542.877	-14.03083
543.348	-50.11596
543.82	-1.00239
544.291	-40.09019
544.762	2.00462
545.233	4.00992
545.703	-57.12524
546.174	-22.05048
546.645	1.00239
547.115	-25.05939
547.585	52.11725
548.056	3.00723
548.526	0
548.996	-33.07803
549.466	-15.03563
549.935	5.01179
550.405	21.04536
550.875	-44.10241
551.344	-16.03805
551.814	-84.18871
552.283	-43.09133
552.752	-27.06169
553.221	-50.10738
553.69	-9.01968
554.159	40.09723
554.628	-39.0859
555.096	-2.00497
555.565	-54.11862
556.033	-4.00916
556.502	2.00472
556.97	-15.03237
557.438	33.07594
557.906	12.02772
558.374	24.05343
558.842	13.03037
559.31	5.01082
559.777	-21.05018
560.245	26.05851
560.712	0
561.18	21.0449
561.647	32.06893
562.114	54.11897
562.581	93.22119
563.048	47.10309
563.514	108.25553
563.981	78.17047
564.448	128.27383
564.914	141.30979
565.381	62.13361
565.847	129.28545
566.313	159.34787
566.779	222.47142
567.245	191.42035
567.711	215.48645
568.176	255.54538
568.642	217.51608
569.108	277.63233
569.573	240.51719
570.038	266.51725
570.504	332.68745
570.969	312.71838
571.434	389.77392
571.899	373.81015
572.363	364.74696
572.828	440.88497
573.293	458.93263
573.757	545.09515
574.222	581.13058
574.686	506.00004
575.15	548.14246
575.614	578.13781
576.078	620.24241
576.542	629.22532
577.006	657.26236
577.469	649.36145
577.933	595.12819
578.396	715.44794
578.86	601.20677
579.323	680.37288
579.786	692.23057
580.249	724.37763
580.712	625.30065
581.175	621.32269
581.637	715.38918
582.1	643.17432
582.563	520.929
583.025	644.33697
583.487	581.98112
583.95	624.13466
584.412	556.98463
584.874	611.27204
585.336	566.16698
585.797	564.03625
586.259	501.0126
586.721	504.0394
587.182	465.9415
587.643	528.03628
588.105	475.9987
588.566	441.81409
589.027	452.984
589.488	362.73984
589.949	410.88083
590.41	350.61746
590.87	338.68202
591.331	334.63679
591.791	313.64913
592.252	323.67316
592.712	353.76802
593.172	329.67133
593.632	266.51626
594.092	292.59299
594.552	298.57671
595.011	250.53573
595.471	281.57417
595.931	217.44722
596.39	209.4696
596.849	188.40844
597.308	200.40041
597.768	188.45115
598.227	234.52459
598.685	121.25824
599.144	175.38336
599.603	209.46112
600.062	117.23028
600.52	140.29574
600.978	171.38454
601.437	166.35466
601.895	121.24197
602.353	128.26434
602.811	120.25126
603.269	123.27762
603.727	154.34809
604.184	135.28774
604.642	126.29176
605.099	143.31128
605.557	111.25391
606.014	118.23931
606.471	130.31245
606.928	198.41275
607.385	117.27677
607.842	183.398
608.299	167.36444
608.755	99.22719
609.212	130.27534
609.668	136.28729
610.125	160.36062
610.581	121.2654
611.037	133.28409
611.493	100.22244
611.949	83.19131
612.405	132.25141
612.861	116.25309
613.316	148.33616
613.772	147.31794
614.227	157.34871
614.683	100.2028
615.138	136.30527
615.593	111.24193
616.048	90.19245
616.503	146.3374
616.958	109.25994
617.412	151.33581
617.867	132.27933
618.321	93.17709
618.776	136.28161
619.23	118.26487
619.684	97.20486
620.138	89.19118
620.592	53.1227
621.046	97.2142
621.5	66.15265
621.954	104.21902
622.407	77.16198
622.861	44.10083
623.314	72.15603
623.768	65.14497
624.221	54.10205
624.674	3.00659
625.127	47.10526
625.58	21.0447
626.033	88.1801
626.485	88.19923
626.938	31.0702
627.39	91.20061
627.843	59.12865
628.295	50.11048
628.747	74.1672
629.199	91.19792
629.651	36.07861
630.103	57.12539
630.555	15.03009
631.006	38.08509
631.458	-4.00895
631.909	4.00874
632.361	-13.02891
632.812	44.09755
633.263	4.00817
633.714	-16.0324
634.165	6.01369
634.616	-21.04794
635.067	-19.03988
635.518	-4.00903
635.968	1.0019
636.419	-55.11422
636.869	14.03161
637.319	-29.06479
637.769	-13.02823
638.219	-29.06575
638.669	6.01385
639.119	-6.01403
639.569	33.07713
640.019	-25.05553
640.468	-70.14981
640.918	1.00231
641.367	13.02805
641.816	38.08136
642.265	6.01334
642.714	-1.00225
643.163	-36.07895
643.612	-12.02832
644.061	-38.07721
644.51	-14.03102
644.958	4.00846
645.406	24.05551
645.855	-32.07589
646.303	35.07764
646.751	-5.01108
647.199	-56.12177
647.647	-1.00225
648.095	-53.11777
648.543	-2.00385
648.99	-13.03026
649.438	33.07439
649.885	37.08871
650.333	-37.06785
650.78	55.1295
651.227	-11.02615
651.674	34.07453
652.121	-88.20748
652.568	9.02114
653.015	-33.07954
653.461	-4.00921
653.908	-27.06087
654.354	-10.02274
654.801	-38.08715
655.247	10.02094
655.693	-11.02793
656.139	-28.06507
656.585	-6.01397
657.031	-27.06199
657.477	-22.04647
657.922	17.03804
658.368	-23.05483
658.813	-61.13493
659.259	-9.02105
659.704	-2.00455
660.149	-27.06114
660.594	-3.00691
661.039	-29.06473
661.484	-30.06974
661.929	25.05601
662.373	11.02728
662.818	-18.04387
663.262	-24.05601
663.707	-44.10852
664.151	5.01198
664.595	-38.08977
665.039	8.01916
665.483	17.04234
665.927	-15.03401
666.371	3.0068
666.814	-9.02079
667.258	-16.03733
667.701	-11.02247
668.145	-16.0385
668.588	2.00478
669.031	-3.00692
669.474	-10.02334
669.917	24.05063
670.36	-39.09397
670.803	19.04404
671.245	-23.04655
671.688	10.02346
672.13	-66.14443
672.573	31.07644
673.015	-42.09806
673.457	25.05275
673.899	37.08563
674.341	-41.09646
674.783	-18.04229
675.225	-12.02864
675.666	-29.06844
676.108	-8.01688
676.549	-15.03426
676.991	-34.07245
677.432	-50.09537
677.873	-29.0649
678.314	-45.10463
678.755	-6.01427
679.196	-47.10591
679.637	-22.05171
680.078	-1.00225
680.518	-62.13831
680.959	2.00463
681.399	-62.14953
681.839	33.07713
682.28	-22.05324
682.72	-74.16515
683.16	-1.00242
683.6	5.01095
684.039	25.04937
684.479	18.04277
684.919	-62.14185
685.358	-17.0417
685.798	-32.08144
686.237	1.00233
686.676	-15.03352
687.115	26.05865
687.554	23.05246
687.993	-48.10135
688.432	33.07305
688.871	-21.04614
689.309	68.15933
689.748	8.01598
690.186	-19.04343
690.625	47.10747
691.063	16.03743
691.501	-13.03126
691.939	25.06021
692.377	-7.0166
692.815	-5.01174
693.253	-25.05758
693.69	-53.11316
694.128	35.08263
694.565	-22.05108
695.003	-4.00989
695.44	4.00903
695.877	-2.00457
696.314	20.04089
696.751	15.03254
697.188	-5.01117
697.625	27.05855
698.061	-10.02328
698.498	22.05108
698.934	-38.08817
699.371	49.11119
699.807	-6.01376
700.243	32.07501
700.679	-3.00654
701.115	3.00674
701.551	30.06825
701.987	-16.03424
702.422	-31.07134
702.858	-38.08726
703.294	18.03871
703.729	55.1296
704.164	35.08154
704.599	4.00848
705.035	5.01081
705.47	31.07356
705.904	15.03341
706.339	-25.05527
706.774	-15.03372
707.209	-23.05115
707.643	16.03698
708.078	-25.05884
708.512	31.07619
708.946	18.0411
709.38	-35.07981
709.814	8.01739
710.248	-12.02788
710.682	24.05533
711.116	44.10172
711.549	-19.0473
711.983	-25.05534
712.416	-51.11549
712.85	68.16294
713.283	-19.04343
713.716	31.07413
714.149	-6.01357
714.582	31.06645
715.015	65.15364
715.448	-22.05286
715.881	-1.00204
716.313	23.05198
716.746	41.09277
717.178	-38.08824
717.61	23.05613
718.043	5.01187
718.475	6.0139
718.907	38.09033
719.339	-44.09665
719.77	56.12833
720.202	-18.04392
720.634	33.07758
721.065	-25.057
721.497	24.05654
721.928	-1.00238
722.359	4.00945
722.79	-50.11628
723.221	-27.06501
723.652	8.01962
724.083	-50.10849
724.514	-83.18159
724.945	-28.0636
725.375	-4.00896
725.806	-88.21038
726.236	0
726.666	-30.06781
727.096	-13.03045
727.526	-5.0123
727.956	-64.14094
728.386	-54.12658
728.816	-6.0147
729.246	44.10285
729.675	-39.09404
730.105	4.00937
730.534	26.05786
730.964	19.04533
731.393	-16.03736
731.822	-3.00741
732.251	3.00737
732.68	-44.09706
733.109	3.00711
733.537	-68.15914
733.966	-8.01899
734.395	-33.07254
734.823	-17.0362
735.251	-15.03475
735.68	5.01191
736.108	-33.08014
736.536	-2.0045
736.964	23.05036
737.392	-27.06451
737.82	2.00455
738.247	-26.05913
738.675	-26.0586
739.102	-7.01703
739.53	29.07133
739.957	-38.09406
740.384	-9.02094
740.811	-1.00245
741.238	-48.11221
741.665	-8.01802
742.092	-44.09982
742.519	-14.03375
742.945	-8.01833
743.372	-1.00238
743.798	-22.05446
744.225	-34.07742
744.651	-59.14264
745.077	-10.02392
745.503	-45.10484
745.929	-47.10803
746.355	-36.08429
746.781	-21.04987
747.207	-24.05489
747.632	-19.04489
748.058	-40.09519
748.483	-54.11802
748.908	-55.13217
749.334	5.01172
749.759	-30.06753
750.184	-35.08006
750.609	-42.09868
751.033	-26.05745
751.458	-8.01721
751.883	-2.0047
752.307	-2.00457
752.732	-9.02194
753.156	-44.10471
753.58	36.08031
754.005	8.01961
754.429	-90.20169
754.853	-8.0191
755.277	-25.05712
755.7	-33.07855
756.124	-13.03143
756.548	-70.16177
756.971	-36.08402
757.394	-11.02724
757.818	0
758.241	-54.13181
758.664	21.05127
759.087	-33.07217
759.51	-31.07421
759.933	-46.1077
760.356	-24.05919
760.778	34.08104
761.201	-64.14737
761.623	-81.18663
762.046	-58.12864
762.468	-30.06867
762.89	-14.03307
763.312	-5.01156
763.734	-17.0394
764.156	-29.06918
764.578	-45.09787
765	-34.07973
765.421	-8.01996
765.843	-8.02031
766.264	-16.03656
766.686	16.03875
767.107	20.04681
767.528	-12.02964
767.949	-32.07849
768.37	-63.14886
768.791	-45.10401
769.212	-12.02953
769.632	-67.15055
770.053	-17.04338
770.473	26.06028
770.894	-18.0426
771.314	-27.06077
771.734	-54.12012
772.154	-4.00988
772.575	-39.08616
772.994	-30.0654
773.414	-44.09897
773.834	0
774.254	-35.08186
774.673	-27.06263
775.093	-32.07691
775.512	-36.0862
775.931	26.06368
776.351	-28.06638
776.77	-7.01648
777.189	-20.04504
777.607	-26.06431
778.026	22.05268
778.445	-31.07602
778.864	-8.01958
779.282	-42.0961
779.701	-26.06313
780.119	-76.18544
780.537	-36.08636
780.955	-28.06819
781.373	-70.16735
781.791	-5.01075
782.209	22.0481
782.627	24.06099
783.045	-49.10802
783.462	-53.13006
783.88	-9.02256
784.297	-46.11182
784.715	-1.00251
785.132	-19.04397
785.549	-20.04876
785.966	-14.03362
786.383	6.0142
786.8	-3.00662
787.217	-85.19436
787.633	-20.04811
788.05	-44.09698
788.466	-19.04222
788.883	-33.08212
789.299	-11.02499
789.715	17.03959
790.131	-27.06404
790.547	-81.19205
790.963	-48.11489
791.379	-41.10028
791.795	-39.08457
792.21	-32.07106
792.626	-46.1044
793.041	-96.22845
793.457	-19.04467
793.872	-10.02242
794.287	-20.04694
794.702	-48.11295
795.117	-70.16697
795.532	-50.12268
795.947	-49.11164
796.362	-4.00895
796.776	-72.15609
797.191	-13.0302
797.605	-7.01602
798.02	4.00935
798.434	-12.02492
798.848	-70.1653
799.262	-1.00241
799.676	-17.03909
800.09	-58.13654
800.504	-38.08813
800.918	-71.15724
801.331	-43.10782
801.745	-76.16673
802.158	-63.15162
802.572	-4.00915
802.985	-40.09104
803.398	5.01129
803.811	5.01216
804.224	-19.04495
804.637	-103.23334
805.05	-7.01532
805.462	8.01855
805.875	15.03798
806.288	-22.05137
806.7	-41.09897
807.112	-28.06164
807.525	-1.00236
807.937	-21.04975
808.349	-63.15139
808.761	-63.14666
809.173	-73.16813
809.584	-48.11295
809.996	-21.04945
810.408	-47.11789
810.819	-44.09921
811.231	-25.06397
811.642	-30.0715
812.053	-24.05557
812.464	-47.10816
812.875	-36.08882
813.286	-56.13862
813.697	-3.00642
814.108	-72.16718
814.519	-64.13436
814.929	-61.14809
815.34	-35.08084
815.75	-48.11747
816.16	-90.21269
816.571	-30.07502
816.981	-44.09726
817.391	-50.115
817.801	4.0096
818.211	18.04064
818.62	-44.10095
819.03	-46.10647
819.44	-35.08745
819.849	-2.00483
820.259	10.02446
820.668	-21.05002
821.077	-71.17087
821.486	-75.17101
821.895	-61.1415
822.304	-34.08702
822.713	22.04867
823.122	3.00717
823.531	0
823.939	-3.00696
824.348	25.05756
824.756	-43.1027
825.164	-26.06192
825.573	-54.13043
825.981	-10.02361
826.389	-27.0638
826.797	-20.04796
827.205	-38.08277
827.612	-59.13843
828.02	-36.08144
828.428	-65.15886
828.835	-24.06099
829.243	-22.04948
829.65	-51.12232
830.057	-8.01866
830.464	-20.04703
830.871	15.03364
831.278	-20.04545
831.685	-51.1061
832.092	39.0904
832.499	-41.08397
832.905	-13.03156
833.312	-28.05972
833.718	-19.04482
834.124	37.07907
834.531	-48.11528
834.937	-57.13931
835.343	-12.02749
835.749	-35.07651
836.155	-26.06516
836.561	-99.23047
836.966	3.00691
837.372	-24.0581
837.777	-66.157
838.183	-42.08561
838.588	-9.02141
838.993	-37.08464
839.399	-101.23744
839.804	-70.16626
840.209	-37.09137
840.613	7.01474
841.018	-52.12484
841.423	-74.18103
841.828	-51.12367
842.232	-44.10197
842.637	-89.19776
843.041	-8.01996
843.445	-77.18412
843.849	-68.16188
844.253	-38.08481
844.657	-19.04618
845.061	-62.13401
845.465	-11.02584
845.869	-48.10522
846.272	-76.17794
846.676	6.01375
847.079	3.00733
847.483	28.06561
847.886	-25.05654
848.289	-3.00782
848.692	-20.04818
849.095	-77.17486
849.498	-54.12811
849.901	-16.03411
850.304	-7.01564
850.707	-23.05579
851.109	-29.06844
851.512	-22.05193
851.914	14.03429
852.316	-4.00967
852.718	-10.02506
853.121	1.00232
853.523	-47.10396
853.925	-26.0653
854.326	34.08144
854.728	-55.13622
855.13	-18.04488
855.531	8.01838
855.933	9.02024
856.334	-48.1155
856.736	-62.13045
857.137	-34.07491
857.538	-33.07942
857.939	-9.02131
858.34	6.01368
858.741	-11.02745
859.142	-8.01823
859.542	34.08738
859.943	-33.07906
860.343	-38.09071
860.744	-2.00464
861.144	-14.03237
861.544	-36.08392
861.945	-58.14099
862.345	-53.12124
862.745	-40.09501
863.145	-52.11543
863.544	29.07022
863.944	2.00442
864.344	-23.05346
864.743	-8.01882
865.143	-11.02695
865.542	-15.03261
865.941	-12.02852
866.34	29.06519
866.74	-17.04381
867.139	-66.15246
867.537	-10.02407
867.936	-20.04585
868.335	12.02924
868.734	16.0393
869.132	5.011
869.531	-28.06401
869.929	-44.09621
870.327	-18.04085
870.726	12.02812
871.124	-36.07871
871.522	-50.12086
871.92	-22.05141
872.318	-4.00928
872.715	-26.0608
873.113	-19.04407
873.511	-5.01185
873.908	12.02954
874.306	8.01893
874.703	-22.05225
875.1	-57.13884
875.497	-52.11787
875.894	4.00947
876.291	5.0117
876.688	-32.07889
877.085	-24.05416
877.482	-27.06377
877.878	-33.07579
878.275	-52.12617
878.671	-57.11583
879.068	-3.00681
879.464	0
879.86	1.00226
880.256	-54.12534
880.652	-44.10704
881.048	-44.10249
881.444	-53.11797
881.84	-47.11376
882.236	-31.07455
882.631	11.02554
883.027	-39.08806
883.422	-46.11257
883.817	23.05546
884.213	-31.07633
884.608	-12.02828
885.003	-8.01831
885.398	-40.0957
885.793	-53.12668
886.188	-4.00957
886.582	-34.08153
886.977	-12.02677
887.371	-26.06259
887.766	-8.0191
888.16	4.00946
888.554	-42.0976
888.949	-36.08475
889.343	-23.0524
889.737	16.04149
890.131	-17.04082
890.525	-10.02425
890.918	-6.01449
891.312	-41.09107
891.706	36.09045
892.099	18.04312
892.492	-15.03016
892.886	-66.15337
893.279	28.0675
893.672	-8.01948
894.065	-17.04025
894.458	-27.06454
894.851	-46.10537
895.244	-37.09066
895.637	28.06342
896.029	-9.02082
896.422	-40.09244
896.814	-44.10475
897.206	-35.08022
897.599	-30.06869
897.991	-14.03217
898.383	-49.10938
898.775	-28.05915
899.167	-4.00889
899.559	-12.02868
899.951	8.01762
900.342	-63.15076
900.734	-11.0266
901.125	-28.06961
901.517	32.07427
901.908	-32.07177
902.299	-25.05838
902.69	4.00888
903.082	-20.04578
903.473	1.00229
903.863	44.10716
904.254	-36.07851
904.645	-19.04411
905.036	-10.02334
905.426	-80.16818
905.817	4.00926
906.207	-61.1396
906.597	-20.04436
906.987	-35.08551
907.378	-42.10087
907.768	-44.11253
908.158	-28.06502
908.547	-51.12724
908.937	-40.09771
909.327	-18.04112
909.717	-34.08141
910.106	-13.02951
910.495	-4.00952
910.885	-47.1117
911.274	-5.01192
911.663	25.06053
912.052	-36.08359
912.441	-21.05148
912.83	-18.03856
913.219	-32.07912
913.608	5.01153
913.997	-80.19301
914.385	-3.00665
914.774	-47.10834
915.162	-50.1126
915.55	19.04315
915.939	-38.0922
916.327	-27.06402
916.715	-16.03929
917.103	-4.0092
917.491	7.01606
917.878	-62.14282
918.266	3.00738
918.654	25.06124
919.041	-46.11566
919.429	-7.01564
919.816	-21.05035
920.203	-15.03446
920.591	-86.20316
920.978	-18.04156
921.365	-21.05245
921.752	11.02476
922.139	25.05053
922.525	-57.13039
922.912	-12.02752
923.299	-52.12432
923.685	-21.05245
924.072	-32.06846
924.458	-47.11127
924.844	-38.08946
925.231	-70.1537
925.617	-17.042
926.003	-21.05113
926.389	14.03378
926.774	-42.10232
927.16	22.0511
927.546	-44.1082
927.931	-47.11187
928.317	-57.1216
928.702	-30.06632
929.088	9.02009
929.473	-22.05346
929.858	9.02096
930.243	-23.05268
930.628	-41.09447
931.013	22.05213
931.398	16.03384
931.783	19.04747
932.167	-62.14379
932.552	-38.08932
932.937	-63.14678
933.321	-60.14355
933.705	10.02416
934.09	-44.10431
934.474	-40.08971
934.858	19.04701
935.242	-51.11403
935.626	-51.12455
936.009	-41.1048
936.393	7.01706
936.777	-10.02463
937.16	-82.2032
937.544	-44.09755
937.927	-3.00726
938.311	-21.04802
938.694	-22.05563
939.077	-83.18841
939.46	24.05553
939.843	-39.07415
940.226	-51.12465
940.609	-18.03856
940.991	-22.05338
941.374	-35.08074
941.757	-23.05363
942.139	-23.04791
942.522	-60.13246
942.904	-3.00682
943.286	-82.19843
943.668	-36.08918
944.05	18.04168
944.432	-29.06834
944.814	-39.09033
945.196	-54.12752
945.578	-15.03417
945.959	-43.09563
946.341	-83.19078
946.722	-26.05781
947.104	-86.19471
947.485	-48.10531
947.866	15.0361
948.247	-78.18953
948.628	-67.15468
949.009	-20.04905
949.39	-75.17508
949.771	-29.06288
950.152	15.03488
950.532	9.02164
950.913	-23.05174
951.293	-27.0709
951.674	-65.14857
952.054	-44.10447
952.434	-43.10073
952.814	-100.22354
953.194	-4.01
953.574	-30.06892
953.954	-17.03807
954.334	-4.0095
954.714	-17.03939
955.093	-33.07582
955.473	-65.15442
955.853	-14.03473
956.232	2.00525
956.611	-73.16329
956.99	-32.07706
957.37	0
957.749	-68.1527
958.128	-17.04122
958.506	-26.06516
958.885	-65.15643
959.264	-52.12184
959.643	-17.03634
960.021	-21.04948
960.4	8.01718
960.778	-45.10319
961.156	-50.11976
961.535	-88.19037
961.913	-57.12334
962.291	1.00247
962.669	-55.13402
963.047	-57.13749
963.424	20.04851
963.802	-66.15331
964.18	0
964.557	-39.08302
964.935	-14.03104
965.312	-43.10825
965.69	-16.03772
966.067	-54.12405
966.444	-49.11483
966.821	-59.145
967.198	-48.10863
967.575	-45.10389
967.952	2.00442
968.329	-8.01827
968.705	-43.08443
969.082	38.09268
969.458	-15.03451
969.835	-32.07363
970.211	-2.00489
970.587	-30.07098
970.963	-30.07323
971.339	-30.07578
971.715	-23.05352
972.091	-44.10269
972.467	-70.16395
972.843	-18.04241
973.219	-19.04224
973.594	-33.08287
973.97	-31.06854
974.345	-21.04738
974.721	-44.10031
975.096	-55.12521
975.471	-12.02687
975.846	1.00228
976.221	-55.13412
976.596	-49.11168
976.971	16.03717
977.346	-40.08639
977.72	-35.08487
978.095	1.00246
978.469	2.00449
978.844	4.00947
979.218	-33.07573
979.593	1.00225
979.967	-11.02548
980.341	-61.13182
980.715	-47.11234
981.089	-79.18753
981.463	-5.01089
981.837	-8.01864
982.21	-8.01724
982.584	-47.10712
982.957	-37.08888
983.331	12.02653
983.704	-10.02342
984.078	-33.0767
984.451	-42.09691
984.824	-11.02557
985.197	-12.02738
985.57	-54.12791
985.943	-68.15665
986.316	-2.00462
986.688	-11.02484
987.061	-6.01302
987.434	-20.04989
987.806	-32.07295
988.179	-51.11314
988.551	-31.07421
988.923	-35.08151
989.295	-18.04246
989.667	-12.02768
990.039	-20.04714
990.411	17.03683
990.783	-19.04074
991.155	-8.01845
991.527	-52.11883
991.898	-29.06815
992.27	-57.13499
992.641	16.03755
993.012	-2.00445
993.384	-34.07673
993.755	-36.08708
994.126	-37.0845
994.497	-79.1855
994.868	-1.00215
995.239	-3.00689
995.61	-36.086
995.98	-22.05116
996.351	-47.112
996.722	-69.15351
997.092	-7.01579
997.462	-34.07607
997.833	-28.0622
998.203	-58.13276
998.573	-42.10056
998.943	-53.11615
999.313	-16.0364
999.683	-79.17904
1000.053	22.04733
1000.423	-3.00687
1000.792	6.0148
1001.162	-3.00702
1001.531	-2.00469
1001.901	-55.13011
1002.27	1.00209
1002.639	10.0243
1003.009	36.08107
1003.378	-44.10788
1003.747	-55.12257
1004.116	-27.06151
1004.485	-3.00679
1004.853	-39.09432
1005.222	5.01207
1005.591	-43.09563
1005.959	-30.06451
1006.328	-66.13979
1006.696	-38.08768
1007.064	-21.05025
1007.433	-6.01427
1007.801	-43.09935
1008.169	-69.16562
1008.537	19.03909
1008.905	-17.03743
1009.273	28.06476
1009.64	-9.02036
1010.008	-20.04476
1010.375	37.08358
1010.743	-8.01681
1011.11	-30.06729
1011.478	-27.0632
1011.845	-66.14467
1012.212	-63.13317
1012.579	-26.06071
1012.946	-57.12639
1013.313	13.0288
1013.68	-27.05627
1014.047	11.025
1014.414	-30.06764
1014.78	17.04023
1015.147	-32.07195
1015.513	14.0322
1015.88	-39.09365
1016.246	-5.01168
1016.612	4.00843
1016.978	-79.18442
1017.344	41.09609
1017.71	-33.07436
1018.076	-6.01321
1018.442	-17.04139
1018.808	-25.05946
1019.174	-44.10455
1019.539	-31.06472
1019.905	-13.02905
1020.27	-43.10215
1020.636	20.04469
1021.001	-39.08763
1021.366	-14.03238
1021.731	-1.00245
1022.096	-19.04607
1022.461	-87.19388
1022.826	37.08205
1023.191	-52.1313
1023.556	-80.17558
1023.92	-57.13175
1024.285	-38.08747
1024.649	-5.01156
1025.014	-7.01634
1025.378	-33.07996
1025.742	-41.09673
1026.107	-53.11129
1026.471	-46.09883
1026.835	-59.13789
1027.199	-61.14083
1027.562	-28.06166
1027.926	-14.03216
1028.29	-19.04587
1028.654	-52.11153
1029.017	2.00465
1029.381	-22.04989
1029.744	-55.13542
1030.107	-57.12513
1030.471	-38.08565
1030.834	-24.0501
1031.197	-60.1349
1031.56	24.05347
1031.923	-69.17133
1032.286	11.0239
1032.648	-37.08293
1033.011	-33.0715
1033.374	-42.0916
1033.736	-75.19023
1034.099	-39.09079
1034.461	-43.10482
1034.823	-78.18519
1035.185	-88.20942
1035.548	-10.02288
1035.91	28.06319
1036.272	8.01697
1036.634	-43.09832
1036.995	15.03329
1037.357	-66.15368
1037.719	-46.10601
1038.08	-82.18172
1038.442	6.01366
1038.803	-29.06519
1039.165	1.00239
1039.526	7.0159
1039.887	2.00453
1040.248	-12.02864
1040.609	13.03012
1040.97	-8.01841
1041.331	-94.2249
1041.692	-18.03992
1042.053	-39.0824
1042.413	-33.07134
1042.774	-37.08471
1043.134	1.0022
1043.495	-28.0663
1043.855	7.01596
1044.215	-12.02805
1044.576	-28.06383
1044.936	44.09372
1045.296	-4.00937
1045.656	-33.07667
1046.016	-19.04257
1046.375	-11.02541
1046.735	-16.03445
1047.095	18.03936
1047.454	45.08661
1047.814	-34.0766
1048.173	-58.12864
1048.533	8.0172
1048.892	-6.01369
1049.251	-35.08353
1049.61	-73.16961
1049.969	40.08838
1050.328	-92.1853
1050.687	-17.03893
1051.046	22.05066
1051.405	-36.08379
1051.763	-48.10482
1052.122	12.02856
1052.48	-48.11106
1052.839	-19.04213
1053.197	-17.03768
1053.555	-89.18475
1053.914	-26.05982
1054.272	-18.04082
1054.63	-55.12713
1054.988	-55.12358
1055.345	-83.16582
1055.703	-58.13105
1056.061	-15.03676
1056.419	-3.00742
1056.776	-21.04777
1057.134	-51.11106
1057.491	-45.10694
1057.848	-35.08212
1058.206	-49.1087
1058.563	8.01654
1058.92	-26.05548
1059.277	-29.06639
1059.634	-64.13928
1059.991	18.0405
1060.348	-4.00852
1060.704	-12.02699
1061.061	-42.08946
1061.418	-35.08103
1061.774	19.04479
1062.131	21.05402
1062.487	-105.23264
1062.843	1.00235
1063.199	15.03536
1063.555	-27.05937
1063.911	-37.08854
1064.267	-59.11114
1064.623	-25.05818
1064.979	-57.12408
1065.335	-32.07074
1065.691	21.04754
1066.046	-42.08537
1066.402	-48.10255
1066.757	-27.06488
1067.112	-27.06186
1067.468	-17.03853
1067.823	8.01809
1068.178	-12.02753
1068.533	-25.05668
1068.888	-40.08916
1069.243	-24.05643
1069.598	-93.21257
1069.952	-29.06254
1070.307	26.06159
1070.662	-53.11982
1071.016	-18.03814
1071.371	-36.07648
1071.725	-73.1612
1072.079	-35.07935
1072.434	-73.16894
1072.788	-1.00225
1073.142	18.04196
1073.496	-35.07848
1073.85	-51.1113
1074.203	-47.1076
1074.557	-43.11076
1074.911	-25.05541
1075.265	-82.17853
1075.618	-29.06727
1075.971	-33.07357
1076.325	-39.09464
1076.678	-51.11007
1077.031	-59.12553
1077.385	14.02873
1077.738	-13.02749
1078.091	-11.0238
1078.444	-18.03852
1078.796	-70.16536
1079.149	-16.03708
1079.502	-65.14629
1079.855	-13.02861
1080.207	29.06663
1080.56	-41.10121
1080.912	-59.1342
1081.264	-28.0636
1081.617	-17.03925
1081.969	15.03647
1082.321	-3.0069
1082.673	-14.03036
1083.025	-22.04861
1083.377	-281.58198
1083.728	-56.12063
1084.08	-27.06444
1084.432	-128.29003
1084.783	0
1085.135	17.04079
1085.486	-22.0477
1085.838	-48.11247
1086.189	-29.06653
1086.54	-26.05848
1086.891	-12.02925
1087.242	-70.16106
1087.593	-36.08207
1087.944	11.02301
1088.295	-76.16118
1088.646	-3.00685
1088.996	-59.13486
1089.347	-60.13915
1089.698	-45.10182
1090.048	-10.02447
1090.398	0
1090.749	-27.06114
1091.099	6.01443
1091.449	-49.11528
1091.799	-23.05445
1092.149	22.05167
1092.499	-36.08359
1092.849	-4.00965
1093.199	5.01174
1093.548	-34.07785
1093.898	6.01421
1094.248	-22.05376
1094.597	-15.03704
1094.947	-31.07913
1095.296	-51.11919
1095.645	-20.04931
1095.994	-11.02501
1096.343	11.02645
1096.692	4.01013
1097.041	-7.01832
1097.39	-5.0118
1097.739	-17.04232
1098.088	-25.06332
1098.437	-47.11934
1098.785	-5.0128
1099.134	-45.113
1099.482	-68.17949
1099.83	-50.12549
1100.179	4.01009
1100.527	-50.1267
1100.875	-45.1143
1101.223	9.02296
1101.571	-21.0562
1101.919	-37.09371
1102.267	24.06566
1102.615	5.01607
1102.962	0
1103.31	1.00321
1103.658	-2.00641
