Data from N3 R6 sample 9_Subt2__3__15-25-40-030.txt Node

Date: Fri Sep 19 15:25:40 PDT 2025
User: uwsun
Spectrometer: HDX01956
Trigger mode: 0
Integration Time (sec): 5.000000E-1
Scans to average: 1
Nonlinearity correction enabled: true
Boxcar width: 0
Storing dark spectrum: false
XAxis mode: Wavelengths
Number of Pixels in Spectrum: 2068
>>>>>Begin Spectral Data<<<<<
194.03	57.16415
194.578	76.24504
195.127	54.17222
195.676	48.15305
196.225	29.07628
196.773	94.25879
197.321	129.35306
197.87	179.44963
198.418	192.486
198.966	149.38686
199.513	191.4758
200.061	112.28088
200.609	173.44607
201.156	124.26274
201.704	137.33806
202.251	133.34745
202.798	162.41429
203.345	168.40623
203.892	161.39669
204.438	172.40079
204.985	169.39357
205.532	218.56996
206.078	192.459
206.624	186.44924
207.17	165.37287
207.716	131.31
208.262	145.27745
208.808	198.47984
209.354	168.39948
209.899	139.34262
210.445	187.45786
210.99	165.39046
211.535	146.33525
212.08	168.37911
212.625	155.37924
213.17	156.3853
213.715	166.36479
214.259	158.36135
214.804	139.33427
215.348	180.39872
215.892	165.38774
216.436	202.45434
216.98	139.29691
217.524	127.2946
218.068	176.43101
218.612	139.33933
219.155	137.3149
219.698	121.27968
220.242	181.43592
220.785	156.35548
221.328	142.34646
221.871	171.42009
222.414	133.31887
222.956	109.25964
223.499	150.32728
224.041	111.2488
224.583	176.36232
225.126	213.45733
225.668	146.3465
226.21	103.25445
226.751	91.19269
227.293	113.24942
227.835	109.25964
228.376	113.25172
228.918	180.43885
229.459	178.43526
230	150.34636
230.541	118.26324
231.082	130.30782
231.622	152.33936
232.163	196.46264
232.704	121.29253
233.244	137.33108
233.784	111.26339
234.324	156.33676
234.864	138.30199
235.404	126.28851
235.944	117.26764
236.484	97.23451
237.023	158.36324
237.563	127.28536
238.102	125.28743
238.641	180.44375
239.18	69.16038
239.719	178.43591
240.258	159.34242
240.797	182.42242
241.335	126.29615
241.874	174.32287
242.412	168.38839
242.95	178.4151
243.488	182.39978
244.026	127.28618
244.564	154.30431
245.102	169.36615
245.64	149.34686
246.177	112.24281
246.715	136.31316
247.252	100.2217
247.789	91.15671
248.326	114.26481
248.863	119.25209
249.4	195.43005
249.936	146.28837
250.473	165.37303
251.009	140.31477
251.546	146.31287
252.082	207.43698
252.618	199.42838
253.154	160.37225
253.69	160.34643
254.226	160.36798
254.761	90.19487
255.297	126.2692
255.832	144.32867
256.367	148.33575
256.903	137.28908
257.438	141.31721
257.972	151.32156
258.507	138.31142
259.042	95.19676
259.576	134.28107
260.111	155.34427
260.645	165.34495
261.179	101.2289
261.713	152.32404
262.247	182.40835
262.781	207.41682
263.315	183.43288
263.849	167.40449
264.382	128.28377
264.915	251.56281
265.449	135.32243
265.982	123.2682
266.515	210.49165
267.048	194.39487
267.58	144.29804
268.113	153.32199
268.646	152.36782
269.178	166.35788
269.71	153.32015
270.243	192.41962
270.775	193.47431
271.307	138.31739
271.838	165.37485
272.37	222.52543
272.902	205.44907
273.433	147.30814
273.965	236.55554
274.496	130.31114
275.027	166.39639
275.558	236.54515
276.089	184.44692
276.62	145.35675
277.15	159.37873
277.681	120.24781
278.211	155.36481
278.741	215.45725
279.272	221.48208
279.802	193.46588
280.332	180.41
280.861	177.4109
281.391	182.3949
281.921	164.37613
282.45	174.42612
282.98	206.51976
283.509	193.41547
284.038	113.2465
284.567	157.34697
285.096	195.45447
285.625	241.52815
286.153	178.40086
286.682	138.3039
287.21	138.32271
287.739	161.36502
288.267	193.45265
288.795	177.44971
289.323	215.48883
289.851	200.44689
290.378	194.41843
290.906	164.38802
291.433	201.48336
291.961	146.31814
292.488	174.41962
293.015	212.48347
293.542	201.48885
294.069	219.51623
294.596	218.51676
295.122	239.54493
295.649	284.59517
296.175	211.48323
296.702	182.42075
297.228	179.41242
297.754	208.44554
298.28	192.41731
298.806	211.4906
299.332	178.3793
299.857	212.45568
300.383	206.49679
300.908	212.50002
301.433	255.59406
301.958	172.37591
302.483	234.56835
303.008	208.49001
303.533	188.46466
304.058	224.50238
304.582	234.52976
305.107	223.56476
305.631	227.48865
306.155	281.62618
306.679	223.50106
307.203	238.52872
307.727	284.64216
308.251	218.51577
308.775	247.55817
309.298	242.55967
309.822	240.57943
310.345	277.62212
310.868	278.62962
311.391	261.61019
311.914	287.68489
312.437	212.45823
312.96	271.60915
313.482	277.6257
314.005	249.59831
314.527	255.64395
315.049	227.54711
315.571	323.69081
316.093	317.74661
316.615	295.67965
317.137	227.46678
317.659	295.66852
318.18	300.68579
318.702	289.63734
319.223	298.57257
319.744	316.66925
320.265	309.71161
320.786	284.66981
321.307	315.74536
321.828	358.76184
322.348	331.73667
322.869	309.6763
323.389	493.8175
323.909	347.74534
324.43	322.72392
324.95	341.73529
325.47	347.80644
325.989	383.85803
326.509	357.7364
327.029	359.75516
327.548	358.75588
328.067	385.86428
328.587	421.97527
329.106	379.79688
329.625	361.87492
330.144	367.78048
330.662	393.84595
331.181	428.92543
331.7	400.86601
332.218	407.82068
332.736	366.79207
333.255	417.89568
333.773	413.90731
334.291	443.00502
334.808	445.89853
335.326	481.9886
335.844	472.01425
336.361	480.11308
336.879	440.94202
337.396	456.99733
337.913	436.9153
338.43	559.1347
338.947	512.10603
339.464	491.94912
339.981	517.11613
340.497	544.21433
341.014	484.06551
341.53	568.15536
342.046	562.24527
342.562	538.2113
343.078	553.16184
343.594	585.25562
344.11	534.14034
344.626	564.28854
345.141	602.22575
345.657	586.16009
346.172	548.18039
346.687	609.24143
347.202	590.17293
347.717	601.27837
348.232	624.39199
348.747	657.32001
349.261	695.34064
349.776	632.29861
350.29	704.52984
350.805	632.36974
351.319	678.38074
351.833	638.28207
352.347	596.22067
352.861	647.32559
353.374	673.33356
353.888	642.35533
354.401	703.39374
354.915	705.37493
355.428	739.60154
355.941	761.52365
356.454	702.35449
356.967	703.44827
357.48	719.41489
357.993	704.50779
358.505	787.67085
359.018	791.6305
359.53	726.50542
360.042	731.35896
360.554	744.5421
361.066	700.47728
361.578	851.55117
362.09	746.52904
362.602	751.40659
363.113	766.48384
363.625	881.65623
364.136	829.51327
364.647	782.55023
365.158	890.72524
365.669	907.83724
366.18	765.49566
366.691	829.52319
367.201	841.67472
367.712	878.62108
368.222	946.79476
368.733	957.69212
369.243	860.54666
369.753	911.71357
370.263	940.81712
370.773	945.93082
371.282	995.90482
371.792	1023.85886
372.301	1023.00032
372.811	1064.2434
373.32	1063.74715
373.829	1134.1112
374.338	1145.9534
374.847	1227.1117
375.356	1224.24342
375.865	1235.93845
376.373	1304.18268
376.882	1349.5652
377.39	1353.42701
377.898	1425.60607
378.407	1437.25693
378.915	1500.19916
379.423	1653.65445
379.93	1633.4613
380.438	1764.88438
380.946	1821.74537
381.453	1948.92867
381.96	2012.92017
382.468	2235.04761
382.975	2293.22641
383.482	2308.80024
383.989	2352.47652
384.495	2489.96217
385.002	2661.5245
385.509	2731.02529
386.015	2936.30978
386.521	3049.7479
387.028	3211.80348
387.534	3352.46708
388.04	3395.97539
388.546	3533.52827
389.051	3741.36795
389.557	4145.51744
390.063	4275.44414
390.568	4353.52916
391.073	4490.09604
391.578	4682.38725
392.084	4876.70856
392.589	5175.47527
393.093	5673.6094
393.598	6170.21904
394.103	6567.39131
394.607	7221.41116
395.112	7674.76712
395.616	8200.14568
396.12	8868.09963
396.624	9804.40952
397.128	10568.00206
397.632	11667.43771
398.136	12625.42985
398.639	13926.22438
399.143	16117.28783
399.646	17871.19138
400.15	19490.83888
400.653	22351.73209
401.156	25225.49054
401.659	29282.54027
402.162	36983.04086
402.664	53265.31549
403.167	61151.57346
403.67	61009.11914
404.172	55487.84425
404.674	37291.05854
405.176	4428.40989
405.678	533.47942
406.18	0
406.682	0
407.184	6962.89417
407.686	50953.82939
408.187	59237.6763
408.688	61091.12691
409.19	61923.45898
409.691	53210.55212
410.192	45409.19113
410.693	40226.20833
411.194	37636.39598
411.694	35433.54834
412.195	31831.10598
412.696	29667.3844
413.196	28696.89324
413.696	29046.5796
414.196	28886.98505
414.696	27541.72923
415.196	25502.59313
415.696	21462.69922
416.196	16491.4944
416.695	13764.37507
417.195	12621.20087
417.694	12124.54912
418.194	11289.22209
418.693	10718.88735
419.192	10561.02486
419.691	10304.04744
420.19	10069.2117
420.688	9693.0041
421.187	9203.96126
421.685	8575.58504
422.184	7544.47948
422.682	6431.94086
423.18	5688.42714
423.678	5145.65025
424.176	4699.925
424.674	4434.82248
425.172	4255.35208
425.669	3936.89816
426.167	3661.57893
426.664	3382.60841
427.161	3022.70751
427.659	2923.16685
428.156	2650.41743
428.652	2544.30892
429.149	2444.06552
429.646	2280.53883
430.143	2157.92377
430.639	2026.79724
431.135	1941.92914
431.632	1817.53234
432.128	1727.69874
432.624	1707.88018
433.12	1710.49156
433.616	1625.25902
434.111	1563.52832
434.607	1506.47136
435.103	1447.98095
435.598	1361.89796
436.093	1298.15609
436.588	1217.99154
437.083	1177.94821
437.578	1107.89238
438.073	1018.97374
438.568	1050.98374
439.062	1035.66333
439.557	903.67356
440.051	958.69521
440.546	937.68848
441.04	853.62236
441.534	860.79069
442.028	832.6234
442.522	826.62462
443.015	807.41815
443.509	860.71855
444.002	821.65454
444.496	712.25574
444.989	805.63414
445.482	739.53343
445.975	711.35449
446.468	758.32663
446.961	704.22608
447.454	656.22502
447.947	686.39388
448.439	666.39131
448.931	640.22225
449.424	606.29321
449.916	627.28166
450.408	656.27407
450.9	634.31092
451.392	681.47072
451.884	570.10466
452.375	593.26024
452.867	608.16047
453.358	577.10625
453.849	578.037
454.341	566.09637
454.832	528.9823
455.323	566.19886
455.814	520.02872
456.304	555.09476
456.795	491.96822
457.285	552.03759
457.776	481.93513
458.266	500.04915
458.756	479.99868
459.247	477.99451
459.737	471.00145
460.226	492.9654
460.716	460.97674
461.206	397.84207
461.695	487.08221
462.185	397.84391
462.674	447.89387
463.163	406.78837
463.653	481.87861
464.142	368.79436
464.63	421.91594
465.119	454.93711
465.608	332.68838
466.096	369.72011
466.585	312.64315
467.073	337.72168
467.561	410.89675
468.05	327.68028
468.538	423.9406
469.026	406.87562
469.513	308.58636
470.001	336.68639
470.489	361.7694
470.976	325.67943
471.463	366.83394
471.951	309.70735
472.438	310.66631
472.925	309.65114
473.412	232.52267
473.899	298.62699
474.385	337.7522
474.872	263.56201
475.359	261.58884
475.845	261.49313
476.331	270.52853
476.817	219.49086
477.303	238.51068
477.789	254.56403
478.275	238.55086
478.761	201.44978
479.247	237.48558
479.732	251.58544
480.218	213.51939
480.703	243.56923
481.188	190.37616
481.673	229.48787
482.158	198.39604
482.643	188.44892
483.128	212.44684
483.612	163.35617
484.097	212.48289
484.581	186.3967
485.066	144.32907
485.55	138.28268
486.034	188.38406
486.518	208.45708
487.002	129.30054
487.486	131.30412
487.969	205.4759
488.453	180.42982
488.936	110.2344
489.42	190.3929
489.903	186.44108
490.386	159.32105
490.869	128.25792
491.352	141.32396
491.835	103.19871
492.318	131.282
492.8	112.21654
493.283	142.34608
493.765	154.36083
494.247	139.30347
494.73	77.16262
495.212	78.17968
495.694	99.22099
496.175	121.274
496.657	164.37175
497.139	40.06336
497.62	107.24437
498.102	87.20843
498.583	63.15001
499.064	121.26003
499.545	65.14215
500.026	85.1818
500.507	71.15619
500.988	101.23744
501.469	35.08439
501.949	55.1296
502.43	52.11888
502.91	21.04178
503.39	62.14919
503.87	80.1812
504.35	59.13208
504.83	76.15956
505.31	75.17563
505.79	40.09262
506.269	76.16884
506.749	18.03979
507.228	27.06146
507.707	69.14636
508.187	68.15446
508.666	35.08279
509.145	13.02951
509.623	22.04999
510.102	26.0608
510.581	38.08771
511.059	55.13472
511.538	24.0601
512.016	83.19162
512.494	2.00469
512.972	62.14334
513.45	42.09548
513.928	34.08013
514.406	56.13347
514.884	85.21344
515.361	95.22037
515.839	-9.01994
516.316	35.08096
516.793	27.06616
517.27	51.12008
517.747	71.1763
518.224	51.11309
518.701	59.1269
519.178	72.17568
519.654	-2.00453
520.131	-3.00717
520.607	66.15767
521.083	57.12634
521.56	-20.04604
522.036	59.1251
522.512	7.0168
522.987	52.12098
523.463	28.06494
523.939	34.08079
524.414	16.03558
524.89	7.01605
525.365	64.14106
525.84	68.16033
526.315	-3.00701
526.79	6.01306
527.265	24.05236
527.74	7.0166
528.215	50.11435
528.689	46.0999
529.164	23.04732
529.638	33.08269
530.112	26.06042
530.587	96.19843
531.061	77.17989
531.534	-3.00705
532.008	14.03298
532.482	-22.04835
532.956	31.07821
533.429	-16.03692
533.903	-12.02565
534.376	-7.01504
534.849	30.06778
535.322	31.071
535.795	-4.00955
536.268	30.0706
536.741	-26.06118
537.213	43.0965
537.686	-19.04508
538.158	24.05239
538.631	-41.09725
539.103	-15.03292
539.575	32.06418
540.047	13.02768
540.519	-32.07439
540.991	0
541.463	4.0095
541.934	30.06681
542.406	-9.02108
542.877	-8.0176
543.348	-65.1512
543.82	15.0357
544.291	-3.00671
544.762	-9.02084
545.233	71.17398
545.703	-17.03704
546.174	-3.00686
546.645	24.05703
547.115	3.00709
547.585	59.13284
548.056	52.12408
548.526	53.12114
548.996	33.07704
549.466	31.07299
549.935	36.08435
550.405	37.07965
550.875	21.04825
551.344	20.04723
551.814	21.04616
552.283	38.07929
552.752	38.08568
553.221	-2.00425
553.69	64.1378
554.159	101.2427
554.628	18.03917
555.096	52.12782
555.565	46.09892
556.033	30.06825
556.502	-14.03314
556.97	33.07049
557.438	9.02081
557.906	17.03923
558.374	25.05564
558.842	47.10907
559.31	-14.03042
559.777	61.14346
560.245	29.06522
560.712	-53.1188
561.18	-21.0453
561.647	33.07107
562.114	0
562.581	27.06503
563.048	-26.05791
563.514	34.08159
563.981	12.02659
564.448	33.07205
564.914	13.02933
565.381	11.02396
565.847	41.09239
566.313	11.02482
566.779	83.18159
567.245	54.12226
567.711	92.21337
568.176	85.18848
568.642	56.1373
569.108	48.11462
569.573	52.11658
570.038	115.23167
570.504	111.24121
570.969	76.18322
571.434	147.30896
571.899	112.25677
572.363	130.28087
572.828	131.28225
573.293	146.31841
573.757	163.35692
574.222	139.29935
574.686	139.29884
575.15	156.35405
575.614	167.36104
576.078	150.33365
576.542	201.43194
577.006	228.48394
577.469	205.4727
577.933	144.30352
578.396	196.44446
578.86	172.38004
579.323	201.45089
579.786	168.33977
580.249	184.39652
580.712	142.32763
581.175	201.46772
581.637	186.40737
582.1	197.40089
582.563	166.32371
583.025	144.33264
583.487	133.25202
583.95	146.29812
584.412	160.31261
584.874	158.36251
585.336	180.40387
585.797	120.24548
586.259	109.24049
586.721	76.17207
587.182	149.32351
587.643	133.28582
588.105	152.34231
588.566	101.20235
589.027	144.33397
589.488	87.1889
589.949	133.30277
590.41	136.25336
590.87	69.14783
591.331	81.16393
591.791	15.03318
592.252	35.07761
592.712	80.18414
593.172	104.22306
593.632	48.09801
594.092	75.15986
594.552	117.23625
595.011	66.14705
595.471	70.14988
595.931	78.16578
596.39	62.14351
596.849	35.07852
597.308	80.16462
597.768	21.05199
598.227	84.19412
598.685	6.01312
599.144	64.14348
599.603	49.11173
600.062	21.04227
600.52	71.15225
600.978	80.18326
601.437	68.14837
601.895	59.11968
602.353	68.14232
602.811	47.1
603.269	60.13717
603.727	50.11541
604.184	77.16619
604.642	71.1662
605.099	59.13072
605.557	35.08129
606.014	67.13746
606.471	64.15575
606.928	132.2792
607.385	148.34799
607.842	137.30088
608.299	92.20396
608.755	89.20465
609.212	132.27945
609.668	121.25644
610.125	113.25714
610.581	119.26113
611.037	120.25705
611.493	97.2159
611.949	73.1686
612.405	95.18257
612.861	122.26585
613.316	87.20005
613.772	130.2822
614.227	78.17609
614.683	83.16898
615.138	123.27683
615.593	73.16039
616.048	104.22171
616.503	105.24463
616.958	115.27393
617.412	78.17609
617.867	108.22974
618.321	63.12084
618.776	78.16361
619.23	141.315
619.684	68.14453
620.138	15.03273
620.592	20.04661
621.046	92.20337
621.5	84.19358
621.954	95.20046
622.407	112.23379
622.861	30.06894
623.314	73.15816
623.768	61.13617
624.221	94.1759
624.674	10.02192
625.127	115.25394
625.58	46.09738
626.033	29.06014
626.485	32.07327
626.938	51.11502
627.39	50.11117
627.843	15.03301
628.295	57.12576
628.747	70.15829
629.199	20.04415
629.651	12.02634
630.103	22.04875
630.555	-1.00201
631.006	40.08953
631.458	-12.02689
631.909	27.0587
632.361	-6.01332
632.812	8.01787
633.263	-26.05348
633.714	-43.08762
634.165	-32.07357
634.616	-9.0205
635.067	-24.05043
635.518	-18.04074
635.968	52.09769
636.419	-6.01232
636.869	4.00905
637.319	-6.01334
637.769	29.0624
638.219	-9.02032
638.669	15.03456
639.119	-10.0234
639.569	9.02113
640.019	-1.00221
640.468	-60.12813
640.918	-4.00924
641.367	-30.06532
641.816	45.09621
642.265	33.07293
642.714	13.02911
643.163	-44.09665
643.612	-41.09729
644.061	-52.10599
644.51	47.10283
644.958	-20.04253
645.406	-26.06073
645.855	-45.10699
646.303	21.04672
646.751	-2.00443
647.199	-46.09981
647.647	-8.01804
648.095	-14.03086
648.543	2.00385
648.99	3.00696
649.438	17.03845
649.885	28.06725
650.333	-54.09945
650.78	17.04032
651.227	-12.02854
651.674	-31.06888
652.121	-70.16447
652.568	-11.02594
653.015	-46.11115
653.461	25.05721
653.908	8.01791
654.354	-39.08921
654.801	-38.08715
655.247	2.0042
655.693	-3.00761
656.139	-58.13558
656.585	27.06246
657.031	-19.04355
657.477	19.03977
657.922	18.04027
658.368	-48.11497
658.813	-78.17314
659.259	17.03956
659.704	-26.05944
660.149	-24.05431
660.594	-18.04158
661.039	7.01551
661.484	32.07348
661.929	38.08491
662.373	8.01985
662.818	-4.00972
663.262	-57.1339
663.707	-31.07627
664.151	16.03827
664.595	-43.10168
665.039	-85.2072
665.483	30.07453
665.927	2.00452
666.371	-1.00227
666.814	-5.01154
667.258	-4.00931
667.701	-25.05122
668.145	17.04065
668.588	-21.05041
669.031	1.00231
669.474	-25.05852
669.917	-35.07479
670.36	-42.10125
670.803	-8.01864
671.245	-46.09359
671.688	-33.07806
672.13	-35.07609
672.573	24.05926
673.015	-59.13822
673.457	-10.02126
673.899	-32.07507
674.341	-49.11546
674.783	-52.12299
675.225	-17.04062
675.666	1.00235
676.108	29.06071
676.549	-57.13128
676.991	-53.11341
677.432	-55.10504
677.873	-41.09198
678.314	-51.11873
678.755	-5.01189
679.196	-36.08094
679.637	-53.12533
680.078	-41.09303
680.518	-55.12252
680.959	-16.03714
681.399	-45.10818
681.839	-15.03539
682.28	-59.14377
682.72	-46.10207
683.16	-33.0805
683.6	-16.03521
684.039	-33.06605
684.479	-16.03827
684.919	-23.05221
685.358	-34.08367
685.798	-49.12507
686.237	-30.07021
686.676	7.01557
687.115	-12.02728
687.554	-1.00229
687.993	-71.15067
688.432	7.01558
688.871	-66.14638
689.309	26.06142
689.748	8.01598
690.186	-46.10571
690.625	60.13684
691.063	-25.05896
691.501	51.12116
691.939	-20.04858
692.377	-55.13166
692.815	-13.03057
693.253	-48.11106
693.69	-53.11316
694.128	-12.02859
694.565	10.02307
695.003	-8.0198
695.44	-55.12566
695.877	-7.01602
696.314	-11.02265
696.751	-8.01744
697.188	-3.0067
697.625	-12.02624
698.061	-18.04198
698.498	-9.02103
698.934	-51.11863
699.371	-24.05527
699.807	-4.00917
700.243	8.01884
700.679	-3.00654
701.115	1.00225
701.551	15.03423
701.987	-6.01281
702.422	-51.11784
702.858	-67.15474
703.294	-45.09808
703.729	47.11092
704.164	-35.08267
704.599	-87.18817
705.035	-35.07632
705.47	22.05229
705.904	-31.06971
706.339	-22.04861
706.774	-63.14301
707.209	-49.10956
707.643	-16.03721
708.078	-43.10156
708.512	6.01481
708.946	-54.12509
709.38	-48.10973
709.814	-27.05912
710.248	-54.12648
710.682	-39.09104
711.116	-23.05388
711.549	-13.03233
711.983	-56.12477
712.416	-48.10863
712.85	12.02906
713.283	-42.09644
713.716	-26.06285
714.149	-30.0682
714.582	-19.04117
715.015	0
715.448	-37.08915
715.881	-14.02861
716.313	-2.00454
716.746	8.01822
717.178	-13.03004
717.61	-3.00736
718.043	-43.10302
718.475	-44.10294
718.907	12.02867
719.339	0
719.77	24.05535
720.202	-25.06108
720.634	2.00473
721.065	-34.07767
721.497	20.04716
721.928	-35.08398
722.359	-20.04747
722.79	-5.01153
723.221	-60.14536
723.652	-68.16912
724.083	-81.17692
724.514	-105.23079
724.945	-40.09108
725.375	-44.09937
725.806	-59.14027
726.236	-29.07169
726.666	-10.02251
727.096	-77.18264
727.526	-50.12399
727.956	-38.08323
728.386	-50.11711
728.816	-30.07383
729.246	-30.07115
729.675	11.02627
730.105	-14.03292
730.534	-37.08341
730.964	-70.16984
731.393	-34.07967
731.822	-25.06201
732.251	-12.02956
732.68	-108.24143
733.109	-47.11251
733.537	-30.06969
733.966	-56.13419
734.395	-40.08805
734.823	-24.05119
735.251	-64.14972
735.68	-32.0768
736.108	-50.12182
736.536	-34.07698
736.964	-31.06866
737.392	-31.07413
737.82	-21.04804
738.247	-30.06828
738.675	-65.14767
739.102	-8.01947
739.53	5.01235
739.957	-67.16673
740.384	0
740.811	-4.00979
741.238	-48.11221
741.665	23.05149
742.092	-38.0861
742.519	-41.09935
742.945	-56.12957
743.372	-11.02627
743.798	-7.01728
744.225	-42.09579
744.651	-46.11094
745.077	-20.04792
745.503	-31.07202
745.929	-50.115
746.355	2.00465
746.781	-37.08814
747.207	-7.01595
747.632	-17.04015
748.058	-65.15543
748.483	-81.17804
748.908	-7.01667
749.334	-16.03765
749.759	-52.11759
750.184	-11.02504
750.609	-24.05619
751.033	-39.08641
751.458	42.08938
751.883	-13.03061
752.307	4.00913
752.732	-43.10548
753.156	-5.01181
753.58	-4.009
754.005	24.05865
754.429	-70.15622
754.853	-24.05746
755.277	-18.04107
755.7	-26.0618
756.124	28.06717
756.548	-3.00684
756.971	23.05306
757.394	-7.01732
757.818	-14.035
758.241	-46.11211
758.664	46.11178
759.087	33.07116
759.51	19.04505
759.933	-18.04191
760.356	-22.05424
760.778	40.09523
761.201	-25.05712
761.623	-75.1726
762.046	-27.0595
762.468	-5.01139
762.89	11.02586
763.312	-20.04637
763.734	27.06204
764.156	24.05667
764.578	-21.04544
765	-15.03504
765.421	21.05213
765.843	-20.05088
766.264	11.025
766.686	25.06044
767.107	-6.01411
767.528	-19.04699
767.949	-10.02443
768.37	-46.10833
768.791	-11.02525
769.212	58.14088
769.632	-36.08038
770.053	7.01779
770.473	-5.01166
770.894	-29.06879
771.314	-21.04721
771.734	-39.08648
772.154	-15.03712
772.575	-25.05507
772.994	-34.07418
773.414	-62.13997
773.834	1.00241
774.254	-47.11019
774.673	-29.0673
775.093	-22.05278
775.512	11.0261
775.931	54.13156
776.351	-50.11903
776.77	38.08869
777.189	10.02238
777.607	-18.04446
778.026	7.01681
778.445	-1.00244
778.864	-25.06137
779.282	-32.07307
779.701	-5.01209
780.119	-38.09206
780.537	-76.1837
780.955	-11.0267
781.373	0
781.791	13.02783
782.209	39.08497
782.627	5.01275
783.045	3.00654
783.462	-53.13006
783.88	10.02498
784.297	-25.06053
784.715	14.03505
785.132	-20.04629
785.549	19.04599
785.966	-14.03362
786.383	-10.02373
786.8	3.00662
787.217	-27.06102
787.633	-21.05052
788.05	-19.04166
788.466	-4.00886
788.883	-18.04467
789.299	-24.05467
789.715	28.06507
790.131	-1.00236
790.547	-66.15604
790.963	-30.07156
791.379	26.0628
791.795	-66.14394
792.21	-9.01989
792.626	4.00899
793.041	-31.07285
793.457	-21.04939
793.872	-48.10845
794.287	51.11802
794.702	-10.02336
795.117	-55.13081
795.532	6.01457
795.947	-45.10244
796.362	15.03344
796.776	-13.02783
797.191	-59.13832
797.605	11.02508
798.02	-14.03285
798.434	0
798.848	-62.14618
799.262	50.11944
799.676	-27.06221
800.09	2.00465
800.504	-34.07879
800.918	-32.07029
801.331	-15.03742
801.745	-42.09148
802.158	-23.05493
802.572	-51.11779
802.985	-54.12325
803.398	-22.04995
803.811	-22.05378
804.224	-36.08544
804.637	-119.27046
805.05	8.01745
805.462	8.01855
805.875	1.00254
806.288	8.01857
806.7	-87.21184
807.112	-22.04837
807.525	10.02356
807.937	-5.01181
808.349	-65.15626
808.761	-49.11376
809.173	-27.06161
809.584	-18.04211
809.996	-17.04
810.408	-59.14831
810.819	-8.01791
811.231	-21.0537
811.642	36.08472
812.053	29.06645
812.464	-26.05958
812.875	-18.04426
813.286	-10.02454
813.697	-11.02357
814.108	-51.11793
814.519	-38.07932
814.929	-52.12602
815.34	-70.1628
815.75	-39.09528
816.16	-56.13147
816.571	-23.05744
816.981	-62.13757
817.391	-47.10803
817.801	19.04548
818.211	-28.06381
818.62	-35.08016
819.03	-32.07386
819.44	4.00992
819.849	-7.0169
820.259	-17.0418
820.668	-8.01901
821.077	-24.05725
821.486	-14.03153
821.895	-59.13681
822.304	-8.02038
822.713	-22.04912
823.122	12.02864
823.531	23.05164
823.939	-30.06996
824.348	-10.02318
824.756	4.00947
825.164	2.00474
825.573	-51.12311
825.981	-10.02361
826.389	-41.09714
826.797	-43.10357
827.205	31.06653
827.612	19.0439
828.02	31.06917
828.428	-55.13417
828.835	-5.01266
829.243	2.00448
829.65	-39.09333
830.057	15.03484
830.464	0
830.871	1.00225
831.278	-76.17466
831.685	-26.05379
832.092	19.04421
832.499	-53.10884
832.905	2.00484
833.312	-9.01912
833.718	-27.0638
834.124	14.03007
834.531	-4.00953
834.937	-39.095
835.343	-30.06897
835.749	5.01084
836.155	-41.10303
836.561	-74.17142
836.966	7.01611
837.372	-44.10692
837.777	-62.14737
838.183	-62.12695
838.588	-21.05006
838.993	-62.14254
839.399	-74.17305
839.804	-9.02113
840.209	-18.0443
840.613	-10.02114
841.018	-65.15643
841.423	-81.19841
841.828	-87.21239
842.232	-50.11601
842.637	-77.17067
843.041	8.0199
843.445	-36.08541
843.849	1.00235
844.253	-33.07357
844.657	5.0121
845.061	-33.07089
845.465	30.06991
845.869	-32.06991
846.272	-100.23523
846.676	13.02975
847.079	-10.0245
847.483	-43.10215
847.886	-16.03612
848.289	27.07003
848.692	-24.05786
849.095	-13.02914
849.498	-25.05898
849.901	-70.15098
850.304	-47.10587
850.707	-24.05823
851.109	-58.13765
851.512	-18.04246
851.914	-13.032
852.316	11.02651
852.718	-54.1364
853.121	9.02087
853.523	-47.10396
853.925	-70.1772
854.326	0
854.728	-9.0221
855.13	-7.01742
855.531	-6.01383
855.933	10.02248
856.334	-35.08401
856.736	-62.13045
857.137	-30.06604
857.538	-30.07216
857.939	-41.0977
858.34	-19.04353
858.741	-13.03246
859.142	-4.00911
859.542	21.05409
859.943	-10.02385
860.343	-29.06911
860.744	3.00695
861.144	6.01382
861.544	-15.03482
861.945	-32.07741
862.345	-51.11662
862.745	-49.11658
863.145	-28.06184
863.544	-18.04397
863.944	-3.00664
864.344	-40.09328
864.743	-13.03061
865.143	-17.0417
865.542	-81.17857
865.941	1.00237
866.34	-9.02039
866.74	-28.07229
867.139	-1.00228
867.537	-61.14825
867.936	-34.07817
868.335	4.00976
868.734	-6.0148
869.132	13.02856
869.531	-26.05942
869.929	-14.03042
870.327	-26.0591
870.726	4.00939
871.124	-38.08312
871.522	-54.13063
871.92	-16.03734
872.318	-1.00232
872.715	23.05327
873.113	3.00693
873.511	32.0753
873.908	22.05406
874.306	-34.0811
874.703	-13.03082
875.1	-48.11672
875.497	-53.12017
875.894	-42.10029
876.291	24.05595
876.688	-64.15871
877.085	-46.10427
877.482	-13.03062
877.878	13.02958
878.275	-29.07006
878.671	-68.13854
879.068	12.02716
879.464	-25.05751
879.86	-7.01586
880.256	-50.11596
880.652	-45.10949
881.048	-51.11896
881.444	-24.0531
881.84	-53.12842
882.236	-35.08423
882.631	-14.03266
883.027	-54.12231
883.422	-23.05605
883.817	-15.03643
884.213	-19.04668
884.608	-5.01177
885.003	-20.04589
885.398	-43.10294
885.793	-41.09778
886.188	7.01672
886.582	-57.13729
886.977	-5.01114
887.371	-38.09168
887.766	-16.03827
888.16	-5.01185
888.554	-13.03004
888.949	-71.16828
889.343	-58.13308
889.737	-22.05743
890.131	-13.03119
890.525	-48.11725
890.918	-5.01207
891.312	-63.14057
891.706	6.01516
892.099	-2.00481
892.492	-21.04229
892.886	-41.09481
893.279	-45.10998
893.672	-26.06351
894.065	-44.10471
894.458	-28.06694
894.851	3.0068
895.244	-7.01706
895.637	3.00683
896.029	32.07342
896.422	-48.1111
896.814	3.00708
897.206	-12.02738
897.599	-62.14288
897.991	-15.03448
898.383	-32.07118
898.775	-22.04641
899.167	-26.05807
899.559	-31.07435
899.951	-30.06659
900.342	-60.1435
900.734	-9.02176
901.125	-6.01486
901.517	20.04653
901.908	-1.00223
902.299	-11.02562
902.69	0
903.082	-8.01827
903.473	7.01599
903.863	2.00491
904.254	1.00216
904.645	-32.07448
905.036	-20.04677
905.426	-66.13832
905.817	-23.05352
906.207	-39.08885
906.597	8.01764
906.987	-87.21461
907.378	-80.19352
907.768	-12.03052
908.158	-33.0767
908.547	-38.09458
908.937	-58.14215
909.327	4.0091
909.717	-5.01191
910.106	-46.10512
910.495	51.12013
910.885	0
911.274	19.04508
911.663	15.03639
912.052	-19.04397
912.441	2.00488
912.83	-22.04717
913.219	-48.11903
913.608	-26.06035
913.997	-57.13692
914.385	-14.03109
914.774	-39.08975
915.162	-21.04701
915.55	-18.04118
915.939	-4.00964
916.327	-18.0426
916.715	-4.0098
917.103	-37.08569
917.491	-23.05308
917.878	-55.12652
918.266	-22.05438
918.654	20.04904
919.041	-30.07521
919.429	-12.02684
919.816	-22.05276
920.203	-80.1862
920.591	-27.06305
920.978	-60.13971
921.365	-43.10782
921.752	10.02251
922.139	-13.0265
922.525	-40.09119
922.912	-43.09923
923.299	-19.04514
923.685	-24.05997
924.072	-21.04482
924.458	-11.02586
924.844	-31.07288
925.231	-68.14925
925.617	-6.01479
926.003	-14.03404
926.389	28.06737
926.774	19.04576
927.16	-28.06568
927.546	-46.11316
927.931	-22.05211
928.317	-46.0979
928.702	-56.12446
929.088	-35.07884
929.473	3.00726
929.858	-16.03745
930.243	-36.08267
930.628	-59.13643
931.013	16.03796
931.398	22.04647
931.783	-13.03267
932.167	-42.09702
932.552	-44.10354
932.937	-70.16331
933.321	-60.14355
933.705	-6.01454
934.09	-70.16677
934.474	-22.04916
934.858	-36.08996
935.242	10.02208
935.626	-60.14678
936.009	-9.02288
936.393	7.01706
936.777	-2.00492
937.16	-54.13313
937.544	-8.0176
937.927	-11.02666
938.311	-6.01368
938.694	19.04769
939.077	-63.14243
939.46	-6.01397
939.843	-67.12826
940.226	-69.1692
940.609	-40.08609
940.991	-68.16641
941.374	-65.15084
941.757	-6.01394
942.139	-34.071
942.522	-21.04598
942.904	-6.01364
943.286	-29.06948
943.668	-63.15683
944.05	-54.12682
944.432	18.04203
944.814	-76.17731
945.196	-18.04221
945.578	-39.08929
945.959	-13.02873
946.341	-37.08426
946.722	29.06374
947.104	-49.1101
947.485	-42.09203
947.866	8.01928
948.247	-39.09407
948.628	-21.04804
949.009	-25.06137
949.39	-75.17508
949.771	7.01506
950.152	3.00699
950.532	-10.02414
950.913	-59.13371
951.293	-12.03143
951.674	-40.09097
952.054	-71.16945
952.434	-58.13627
952.814	-49.10838
953.194	16.03987
953.574	-73.16914
953.954	-6.01341
954.334	-39.09322
954.714	-61.14257
955.093	-14.03204
955.473	-89.21241
955.853	-1.00247
956.232	-9.02368
956.611	-73.16329
956.99	-60.14525
957.37	-13.0315
957.749	-25.05564
958.128	-20.04853
958.506	19.04723
958.885	-36.08616
959.264	-56.13132
959.643	-26.05569
960.021	-23.05422
960.4	5.01075
960.778	-72.16599
961.156	-32.07639
961.535	-38.08133
961.913	-45.09712
962.291	-7.01735
962.669	-34.08252
963.047	-57.13749
963.424	21.05092
963.802	-38.08778
964.18	-30.07164
964.557	-64.13697
964.935	-37.08242
965.312	-6.015
965.69	-71.16919
966.067	-25.0571
966.444	-22.05129
966.821	-39.09549
967.198	-77.17529
967.575	-15.03442
967.952	15.03304
968.329	-45.10352
968.705	-13.02534
969.082	-15.03695
969.458	-15.03451
969.835	-33.07594
970.211	-30.07366
970.587	-14.03302
970.963	-59.14479
971.339	-28.0707
971.715	-79.18587
972.091	-14.03248
972.467	-49.1143
972.843	-20.04714
973.219	9.01989
973.594	-13.03253
973.97	-60.13346
974.345	-57.12955
974.721	-22.04993
975.096	-73.16679
975.471	4.00893
975.846	25.05668
976.221	-49.11936
976.596	-66.15095
976.971	-2.00466
977.346	-26.05598
977.72	-16.03866
978.095	-41.10181
978.469	-9.02026
978.844	-31.07387
979.218	-49.11281
979.593	-3.00677
979.967	25.05749
980.341	-9.01923
980.715	-31.07387
981.089	-48.11326
981.463	38.082
981.837	-58.13649
982.21	-2.0043
982.584	-67.15333
982.957	-12.02869
983.331	32.07044
983.704	-30.07054
984.078	-29.06735
984.451	-47.10855
984.824	-17.03956
985.197	-10.02281
985.57	-84.20013
985.943	-71.16365
986.316	59.13469
986.688	-24.05434
987.061	-24.05228
987.434	-21.05239
987.806	-26.0592
988.179	-23.05073
988.551	-42.10076
988.923	-29.06746
989.295	-18.04246
989.667	-12.02768
990.039	-37.08749
990.411	-4.00871
990.783	-12.02569
991.155	-4.00922
991.527	-41.09349
991.898	-67.15861
992.27	-57.13499
992.641	-22.05201
993.012	48.10557
993.384	-24.05405
993.755	-56.13597
994.126	-11.02499
994.497	-42.09791
994.868	-2.00431
995.239	-8.0184
995.61	-29.06918
995.98	-13.03018
996.351	7.01651
996.722	-54.11977
997.092	-19.04296
997.462	-26.05807
997.833	-21.04659
998.203	-36.08204
998.573	-36.0861
998.943	-54.11837
999.313	-19.04325
999.683	-40.08993
1000.053	-6.01299
1000.423	-10.02292
1000.792	-10.02474
1001.162	-33.07767
1001.531	24.05595
1001.901	-12.02815
1002.27	-29.06111
1002.639	-10.02439
1003.009	-9.02046
1003.378	-23.05617
1003.747	-28.06205
1004.116	-46.10521
1004.485	20.04504
1004.853	3.0072
1005.222	-2.00483
1005.591	-59.13165
1005.959	17.03619
1006.328	-34.07151
1006.696	-5.01146
1007.064	2.00476
1007.433	-25.05969
1007.801	9.02058
1008.169	-69.16562
1008.537	26.0534
1008.905	-48.10637
1009.273	33.07625
1009.64	-16.03625
1010.008	-26.05827
1010.375	48.10819
1010.743	-60.12752
1011.11	-29.06503
1011.478	1.00233
1011.845	-41.0894
1012.212	-37.07776
1012.579	-11.02561
1012.946	-37.0817
1013.313	-45.10091
1013.68	-19.03953
1014.047	21.04763
1014.414	5.01119
1014.78	7.0166
1015.147	-42.09463
1015.513	38.08698
1015.88	-40.09607
1016.246	-12.02807
1016.612	-13.02749
1016.978	-19.04383
1017.344	21.04941
1017.71	-68.15433
1018.076	-16.03531
1018.442	17.04113
1018.808	-36.0858
1019.174	-18.04256
1019.539	-11.02286
1019.905	11.02446
1020.27	-9.02124
1020.636	-30.06773
1021.001	-3.00669
1021.366	7.01612
1021.731	-3.00736
1022.096	-27.06557
1022.461	-42.09273
1022.826	-45.10149
1023.191	-43.1084
1023.556	-26.05642
1023.92	-2.00457
1024.285	-57.1317
1024.649	-1.00231
1025.014	11.02559
1025.378	-3.00723
1025.742	-46.10863
1026.107	-44.09221
1026.471	-22.04702
1026.835	-45.10488
1027.199	-17.0389
1027.562	-4.00876
1027.926	-31.07146
1028.29	-17.04102
1028.654	-86.18581
1029.017	12.02784
1029.381	-13.02943
1029.744	0
1030.107	-38.08309
1030.471	-42.09474
1030.834	-102.2166
1031.197	3.00666
1031.56	-5.01121
1031.923	-52.12872
1032.286	-59.13012
1032.648	-51.11464
1033.011	-22.04755
1033.374	-42.0916
1033.736	-46.11607
1034.099	-18.04173
1034.461	-29.07051
1034.823	-39.0919
1035.185	-47.11097
1035.548	-19.04355
1035.91	-5.01136
1036.272	-49.10521
1036.634	-28.06383
1036.995	41.0905
1037.357	-80.18679
1037.719	-19.04355
1038.08	-61.13459
1038.442	27.06119
1038.803	-36.08104
1039.165	-7.01678
1039.526	-20.04567
1039.887	-16.03636
1040.248	14.03325
1040.609	-9.02094
1040.97	-58.13478
1041.331	-41.0971
1041.692	-32.07118
1042.053	-13.02731
1042.413	-14.03014
1042.774	-16.03648
1043.134	-6.01321
1043.495	-7.01651
1043.855	-2.00457
1044.215	-31.07274
1044.576	-14.03183
1044.936	-8.01723
1045.296	-11.02579
1045.656	-34.07901
1046.016	-58.13099
1046.375	33.07555
1046.735	22.04698
1047.095	-22.04851
1047.454	18.03487
1047.814	9.0201
1048.173	-38.08393
1048.533	-11.02374
1048.892	-56.12905
1049.251	-17.04043
1049.61	-60.13904
1049.969	8.0178
1050.328	-85.17092
1050.687	-77.17848
1051.046	-12.02782
1051.405	-40.09317
1051.763	-17.03688
1052.122	9.02143
1052.48	-25.05758
1052.839	-21.04659
1053.197	14.03083
1053.555	-60.12374
1053.914	-53.1226
1054.272	-32.07277
1054.63	-47.10846
1054.988	-68.1532
1055.345	-94.18828
1055.703	-28.06288
1056.061	-1.00244
1056.419	-21.05214
1056.776	-51.11671
1057.134	-25.05414
1057.491	-42.09976
1057.848	-44.10342
1058.206	-6.01319
1058.563	-12.02492
1058.92	-52.11158
1059.277	-51.11727
1059.634	-56.12167
1059.991	13.02928
1060.348	-37.07941
1060.704	-67.1524
1061.061	9.01896
1061.418	21.04808
1061.774	29.06823
1062.131	16.04119
1062.487	-58.12725
1062.843	-48.11379
1063.199	3.00709
1063.555	-17.0373
1063.911	-47.11269
1064.267	-28.05234
1064.623	-12.02785
1064.979	-5.01076
1065.335	-55.12216
1065.691	39.08796
1066.046	-69.14112
1066.402	-29.0617
1066.757	-4.00957
1067.112	-33.0757
1067.468	-14.03171
1067.823	-16.03636
1068.178	33.07503
1068.533	-33.07494
1068.888	-34.07569
1069.243	-21.04935
1069.598	-55.12475
1069.952	-41.08864
1070.307	24.05687
1070.662	-37.08338
1071.016	-1.00211
1071.371	47.09804
1071.725	-86.19042
1072.079	-32.07251
1072.434	-28.06422
1072.788	1.00225
1073.142	48.11124
1073.496	-49.11019
1073.85	-26.05644
1074.203	-25.05698
1074.557	15.03825
1074.911	-36.07998
1075.265	-46.09939
1075.618	12.02761
1075.971	-40.08931
1076.325	-27.06537
1076.678	-43.09265
1077.031	3.0063
1077.385	22.04507
1077.738	17.03571
1078.091	33.07073
1078.444	7.0149
1078.796	-43.10105
1079.149	-41.09548
1079.502	-38.08505
1079.855	-34.07516
1080.207	-9.02084
1080.56	-62.15364
1080.912	-55.125
1081.264	-11.0249
1081.617	3.0069
1081.969	-29.07109
1082.321	-9.02074
1082.673	-38.08284
1083.025	-54.12012
1083.377	-32.06258
1083.728	-25.05349
1084.08	7.0166
1084.432	-78.17494
1084.783	32.07041
1085.135	40.09556
1085.486	-58.12671
1085.838	-16.03725
1086.189	-24.055
1086.54	21.04678
1086.891	-27.06599
1087.242	-51.1169
1087.593	-24.05458
1087.944	0
1088.295	-33.06933
1088.646	-9.02059
1088.996	-90.20699
1089.347	-32.0738
1089.698	-50.11325
1090.048	-47.11581
1090.398	-1.00218
1090.749	-7.01579
1091.099	-25.06049
1091.449	-71.16776
1091.799	-62.14788
1092.149	-9.02127
1092.499	-17.03933
1092.849	-51.12418
1093.199	-24.05665
1093.548	3.00682
1093.898	-8.01899
1094.248	-26.06358
1094.597	-10.02467
1094.947	-32.0817
1095.296	-82.19281
1095.645	-22.05426
1095.994	22.04969
1096.343	0
1096.692	-30.0764
1097.041	-40.10527
1097.39	-15.03548
1097.739	3.00744
1098.088	-54.13747
1098.437	-45.11422
1098.785	-14.03591
1099.134	-21.05251
1099.482	-75.1982
1099.83	-8.01993
1100.179	-10.02529
1100.527	-38.09609
1100.875	-61.15538
1101.223	-22.05644
1101.571	-79.21345
1101.919	-79.20158
1102.267	-27.07446
1102.615	6.01928
1102.962	0
1103.31	7.02247
1103.658	-9.02888
