Data from N3 R6 sample 8_Subt2__3__15-24-50-531.txt Node

Date: Fri Sep 19 15:24:50 PDT 2025
User: uwsun
Spectrometer: HDX01956
Trigger mode: 0
Integration Time (sec): 5.000000E-1
Scans to average: 1
Nonlinearity correction enabled: true
Boxcar width: 0
Storing dark spectrum: false
XAxis mode: Wavelengths
Number of Pixels in Spectrum: 2068
>>>>>Begin Spectral Data<<<<<
194.03	4.01161
194.578	6.0195
195.127	17.05446
195.676	-3.00962
196.225	-11.02913
196.773	26.07235
197.321	20.05569
197.87	-6.01557
198.418	51.13233
198.966	41.10843
199.513	69.17569
200.061	-25.06424
200.609	1.00266
201.156	-52.11442
201.704	-36.09165
202.251	-8.0214
202.798	49.12779
203.345	29.07196
203.892	-14.0356
204.438	-5.01206
204.985	65.15447
205.532	69.18497
206.078	30.07393
206.624	-6.01502
207.17	55.12708
207.716	-18.04382
208.262	-31.06185
208.808	-26.06565
209.354	-17.04186
209.899	-26.06603
210.445	32.0806
210.99	-36.08849
211.535	19.04474
212.08	-18.04216
212.625	-34.0861
213.17	-7.0178
213.715	-23.05255
214.259	20.04701
214.804	-24.0595
215.348	-3.0069
215.892	34.08194
216.436	5.0117
216.98	-36.07981
217.524	-16.03816
218.068	10.02524
218.612	-38.09582
219.155	-4.00945
219.698	-34.081
220.242	5.01244
220.785	15.03515
221.328	14.03497
221.871	9.02277
222.414	-1.00246
222.956	-43.10541
223.499	-15.03387
224.041	-32.07383
224.583	-9.0193
225.126	23.0514
225.668	5.01219
226.21	12.03014
226.751	-50.10914
227.293	-26.05906
227.835	-38.09306
228.376	17.03862
228.918	62.15448
229.459	44.11027
230	-30.07175
230.541	-30.06897
231.082	14.03389
231.622	-23.05321
232.163	-1.00245
232.704	-45.11219
233.244	26.06415
233.784	0
234.324	-14.03132
234.864	-29.0657
235.404	19.04444
235.944	-40.09438
236.484	-38.0942
237.023	-2.00474
237.563	15.03448
238.102	26.06097
238.641	16.04063
239.18	10.02351
239.719	33.08299
240.258	-43.09662
240.797	60.14262
241.335	-70.1708
241.874	30.05767
242.412	-18.04315
242.95	-33.08014
243.488	-5.01141
244.026	-13.03013
244.564	33.06706
245.102	14.03134
245.64	3.00718
246.177	-25.05578
246.715	-25.05941
247.252	-25.05687
247.789	-73.13123
248.326	-38.09092
248.863	-19.04146
249.4	64.14502
249.936	-29.05963
250.473	32.0743
251.009	-14.03247
251.546	3.00663
252.082	-9.0199
252.618	3.00673
253.154	1.0024
253.69	-23.05174
254.226	-7.01664
254.761	-18.03987
255.297	-8.01759
255.832	-33.078
256.367	-2.00468
256.903	-16.0349
257.438	-43.10038
257.972	-30.0664
258.507	20.04622
259.042	-80.17218
259.576	6.01294
260.111	-25.0576
260.645	23.0496
261.179	-11.0255
261.713	-20.04423
262.247	46.10609
262.781	45.09399
263.315	20.0488
263.849	-23.05769
264.382	-38.08715
264.915	21.04931
265.449	-5.01226
265.982	-8.01793
266.515	35.08474
267.048	26.05495
267.58	-68.14742
268.113	-2.00435
268.646	40.09883
269.178	-35.07871
269.71	-19.04127
270.243	6.01363
270.775	37.09355
271.307	-13.0308
271.838	0
272.37	51.12469
272.902	60.13546
273.433	-6.013
273.965	62.15088
274.496	-15.03689
275.027	-9.02221
275.558	1.00242
276.089	25.06253
276.62	1.00253
277.15	13.03183
277.681	-40.08557
278.211	-31.0756
278.741	18.03992
279.272	11.02506
279.802	-1.0025
280.332	-25.0593
280.861	11.02637
281.391	-4.00902
281.921	-36.08587
282.45	56.14014
282.98	37.09617
283.509	8.01791
284.038	-17.0381
284.567	-26.05966
285.096	6.0145
285.625	44.10043
286.153	0
286.682	-22.05007
287.21	-13.0313
287.739	4.00936
288.267	16.03882
288.795	6.0157
289.323	26.06137
289.851	-1.00233
290.378	1.00225
290.906	3.00732
291.433	29.07201
291.961	3.00674
292.488	-19.04749
293.015	53.12474
293.542	13.03273
294.069	-24.05923
294.596	16.0394
295.122	0
295.649	67.14714
296.175	-6.01434
296.702	-49.11846
297.228	-24.05753
297.754	-23.05172
298.28	-9.0204
298.806	-1.00242
299.332	-28.06233
299.857	-4.009
300.383	4.01001
300.908	14.03429
301.433	44.10676
301.958	-18.04092
302.483	28.07063
303.008	41.09972
303.533	-27.06935
304.058	-9.02115
304.582	26.06135
305.107	27.07075
305.631	16.036
306.155	17.03995
306.679	14.0328
307.203	18.04181
307.727	23.05477
308.251	5.01232
308.775	-11.02616
309.298	44.10575
309.822	4.01009
310.345	15.0355
310.868	-24.05768
311.391	15.03676
311.914	11.02763
312.437	3.00677
312.96	22.05197
313.482	16.03806
314.005	0
314.527	41.10748
315.049	14.0351
315.571	81.1823
316.093	71.1752
316.615	76.18273
317.137	-7.01515
317.659	-8.01924
318.18	68.16269
318.702	47.1089
319.223	-2.00412
319.744	1.00226
320.265	41.09946
320.786	39.09634
321.307	91.22464
321.828	71.16052
322.348	-9.02144
322.869	-23.05386
323.389	264.46548
323.909	2.00461
324.43	7.01675
324.95	26.05985
325.47	67.1643
325.989	80.19038
326.509	-28.06275
327.029	-25.05703
327.548	44.09929
328.067	43.10329
328.587	83.20512
329.106	78.17487
329.625	34.08744
330.144	51.11591
330.662	18.04186
331.181	74.1721
331.7	34.07935
332.218	90.1947
332.736	37.08569
333.255	-1.00234
333.773	41.0971
334.291	37.091
334.808	30.06634
335.326	64.1439
335.844	126.29141
336.361	72.1807
336.879	69.15955
337.396	45.10694
337.913	-24.05549
338.43	77.17373
338.947	56.13296
339.464	14.03016
339.981	76.17982
340.497	83.20316
341.014	7.01697
341.53	89.20105
342.046	60.147
342.562	68.16802
343.078	10.02355
343.594	52.12455
344.11	69.1624
344.626	84.21067
345.141	110.24935
345.657	25.05606
346.172	57.13588
346.687	35.08074
347.202	95.21092
347.717	80.18965
348.232	105.25958
348.747	78.17782
349.261	140.30636
349.776	57.13243
350.29	74.18244
350.805	70.17003
351.319	93.21479
351.833	92.20838
352.347	72.16513
352.861	123.28215
353.374	98.22052
353.888	73.17349
354.401	103.23305
354.915	66.14839
355.428	120.29453
355.941	91.21059
356.454	74.16447
356.967	119.27757
357.48	91.20573
357.993	135.3249
358.505	116.2824
359.018	106.25225
359.53	79.1876
360.042	49.10666
360.554	152.35698
361.066	72.17299
361.578	130.28051
362.09	97.22812
362.602	106.23039
363.113	72.16275
363.625	126.28108
364.136	114.24599
364.647	136.31054
365.158	174.39522
365.669	158.37498
366.18	106.23979
366.691	137.29581
367.201	97.2267
367.712	119.26168
368.222	205.45948
368.733	132.28385
369.243	122.26122
369.753	155.34599
370.263	92.21405
370.773	148.35706
371.282	151.34819
371.792	150.33324
372.301	163.38393
372.811	134.34016
373.32	154.3176
373.829	229.52256
374.338	175.37688
374.847	162.35855
375.356	183.42365
375.865	179.36758
376.373	208.45324
376.882	259.62305
377.39	201.46754
377.898	237.56342
378.407	228.48437
378.915	220.45065
379.423	292.65083
379.93	274.58259
380.438	330.75618
380.946	349.75964
381.453	287.64802
381.96	348.76695
382.468	397.8685
382.975	419.94252
383.482	415.85027
383.989	442.03209
384.495	420.8821
385.002	471.88429
385.509	434.91431
386.015	557.98051
386.521	527.03066
387.028	578.13621
387.534	578.07163
388.04	542.11741
388.546	645.20593
389.051	687.25295
389.557	705.36321
390.063	811.5274
390.568	759.47901
391.073	807.45967
391.578	806.56367
392.084	843.46302
392.589	1001.64121
393.093	1007.778
393.598	1123.83395
394.103	1139.95456
394.607	1251.04865
395.112	1438.3343
395.616	1575.37147
396.12	1678.27716
396.624	1809.37718
397.128	1946.51862
397.632	2072.41216
398.136	2314.45021
398.639	2535.56615
399.143	2932.73142
399.646	3331.23931
400.15	3596.97351
400.653	4114.56661
401.156	4600.87925
401.659	5383.66566
402.162	6802.32052
402.664	10062.64588
403.167	17970.69283
403.67	51548.14711
404.172	54212.52939
404.674	37291.05854
405.176	4428.40989
405.678	533.47942
406.18	0
406.682	0
407.184	6962.89417
407.686	35269.52519
408.187	22656.82648
408.688	14654.88459
409.19	11297.91545
409.691	9555.65031
410.192	8109.87405
410.693	7218.40058
411.194	6875.10164
411.694	6389.99738
412.195	5867.25402
412.696	5452.23911
413.196	5264.90408
413.696	5408.5084
414.196	5336.07226
414.696	5019.77443
415.196	4695.75485
415.696	3786.20996
416.196	2866.06354
416.695	2481.39726
417.195	2287.52513
417.694	2199.87303
418.194	1955.97162
418.693	1948.30083
419.192	1983.48837
419.691	1886.44556
420.19	1833.4445
420.688	1823.57929
421.187	1630.84395
421.685	1510.18312
422.184	1294.03241
422.682	1119.71903
423.18	991.69617
423.678	921.5937
424.176	795.42842
424.674	764.31753
425.172	703.33468
425.669	684.39297
426.167	594.14577
426.664	611.15803
427.161	508.99069
427.659	482.02911
428.156	462.84753
428.652	403.90802
429.149	450.96176
429.646	360.70271
430.143	406.86886
430.639	349.74512
431.135	330.73947
431.632	297.6176
432.128	305.67459
432.624	242.57099
433.12	255.53995
433.616	272.5443
434.111	251.55702
434.607	245.54393
435.103	202.38999
435.598	205.39302
436.093	210.4541
436.588	203.42684
437.083	185.39071
437.578	168.36002
438.073	102.24105
438.568	159.36605
439.062	146.29433
439.557	71.15901
440.051	166.35466
440.546	146.31666
441.04	122.27351
441.534	134.32414
442.028	136.30941
442.522	137.31339
443.015	101.21059
443.509	116.2719
444.002	105.24655
444.496	60.12402
444.989	157.36606
445.482	58.13871
445.975	52.11504
446.468	62.12856
446.961	46.09419
447.454	23.04975
447.947	105.24183
448.439	103.24224
448.931	40.08761
449.424	40.09592
449.916	55.12713
450.408	83.18343
450.9	60.14015
451.392	66.1614
451.884	49.10693
452.375	50.11894
452.867	69.14911
453.358	29.06305
453.849	18.03701
454.341	22.04822
454.832	64.13282
455.323	24.05692
455.814	59.12952
456.304	38.08418
456.795	22.04816
457.285	28.05951
457.776	-9.01954
458.266	81.18596
458.756	8.01842
459.247	33.07558
459.737	65.15066
460.226	59.12761
460.716	43.09959
461.206	33.07555
461.695	91.21917
462.185	40.09163
462.674	-10.02211
463.163	8.01701
463.653	57.11531
464.142	-18.04206
464.63	71.16594
465.119	49.11033
465.608	23.05098
466.096	-9.01914
466.585	30.06576
467.073	18.0412
467.561	60.14092
468.05	-8.01788
468.538	44.10551
469.026	54.12524
469.513	-2.0041
470.001	-36.07975
470.489	-2.0046
470.976	16.03574
471.463	69.16663
471.951	15.03636
472.438	49.11123
472.925	-30.06792
473.412	14.03294
473.899	32.07127
474.385	31.07356
474.872	-3.00678
475.359	17.04026
475.845	-46.09346
476.331	43.0887
476.817	-31.07305
477.303	-3.00677
477.789	23.05352
478.275	3.00727
478.761	-15.03506
479.247	33.07073
479.732	32.07785
480.218	-22.05599
480.703	14.03426
481.188	-48.10033
481.673	-13.02915
482.158	-12.02517
482.643	4.00989
483.128	-44.09795
483.612	-59.13496
484.097	-2.00475
484.581	-29.06473
485.066	0
485.55	-37.07879
486.034	35.07398
486.518	-14.0322
487.002	-15.03594
487.486	-41.09841
487.969	1.00241
488.453	30.07369
488.936	-72.15949
489.42	13.02795
489.903	35.08541
490.386	35.07269
490.869	-45.09429
491.352	19.04472
491.835	-46.09192
492.318	20.04408
492.8	-43.08623
493.283	6.01499
493.765	-28.06794
494.247	-41.09292
494.73	-19.04097
495.212	-29.06823
495.694	-27.06184
496.175	-55.129
496.657	57.13201
497.139	-76.12442
497.62	-27.06333
498.102	-23.05625
498.583	-38.09223
499.064	19.04173
499.545	-31.06917
500.026	-22.04814
500.507	-56.12648
500.988	-12.02883
501.469	-28.06832
501.949	-27.06464
502.43	-33.07673
502.91	-16.03211
503.39	-21.05132
503.87	10.02297
504.35	-77.1772
504.83	-12.02568
505.31	32.07557
505.79	-5.01168
506.269	-14.03168
506.749	-15.03339
507.228	-30.06908
507.707	0
508.187	51.11624
508.666	-2.00476
509.145	16.0363
509.623	67.15086
510.102	72.16685
510.581	69.15828
511.059	89.21663
511.538	91.22513
512.016	136.31066
512.494	85.19592
512.972	167.37801
513.45	193.42528
513.928	169.38783
514.406	242.55611
514.884	280.67827
515.361	269.60242
515.839	282.5868
516.316	262.57865
516.793	278.64929
517.27	319.71173
517.747	309.73371
518.224	279.58922
518.701	318.64579
519.178	391.89682
519.654	345.72636
520.131	326.7302
520.607	359.80923
521.083	330.68973
521.56	301.64822
522.036	303.60816
522.512	327.73681
522.987	329.72341
523.463	301.66018
523.939	252.57353
524.414	269.5666
524.89	261.56788
525.365	278.58517
525.84	238.54254
526.315	179.40319
526.79	182.38125
527.265	132.28141
527.74	178.40823
528.215	169.37724
528.689	181.38176
529.164	69.14048
529.638	173.42249
530.112	138.31358
530.587	116.23869
531.061	73.17068
531.534	54.12544
532.008	90.2089
532.482	48.10393
532.956	78.19512
533.429	17.03897
533.903	2.00426
534.376	76.1604
534.849	50.11251
535.322	25.05733
535.795	33.07824
536.268	25.05889
536.741	15.03502
537.213	50.11205
537.686	-41.0977
538.158	8.01752
538.631	-36.08531
539.103	-23.05056
539.575	26.05222
540.047	-14.02999
540.519	17.03914
540.991	39.09154
541.463	-16.03816
541.934	-2.00448
542.406	-7.01639
542.877	24.05243
543.348	-60.13943
543.82	-13.03111
544.291	-50.11297
544.762	-51.1191
545.233	35.08634
545.703	-24.05236
546.174	-20.04587
546.645	-11.02631
547.115	-26.06178
547.585	3.00683
548.056	-6.01448
548.526	-16.03708
548.996	-17.04007
549.466	-26.0619
549.935	3.00707
550.405	-15.03265
550.875	-44.10241
551.344	-25.05955
551.814	-62.13866
552.283	-35.07421
552.752	-31.07088
553.221	-32.06846
553.69	39.08443
554.159	16.03907
554.628	-27.05932
555.096	-10.02486
555.565	-8.0174
556.033	-5.01146
556.502	-50.11917
556.97	-29.06278
557.438	2.00463
557.906	21.04842
558.374	0
558.842	32.07448
559.31	-6.01301
559.777	6.01426
560.245	29.06522
560.712	25.05514
561.18	33.07037
561.647	8.01732
562.114	76.16666
562.581	90.21418
563.048	77.16782
563.514	73.17389
563.981	102.22179
564.448	185.39088
564.914	100.2216
565.381	104.2221
565.847	177.38774
566.313	151.33092
566.779	237.50162
567.245	196.4309
567.711	246.55307
568.176	287.60957
568.642	247.58403
569.108	216.49915
569.573	277.59218
570.038	358.6809
570.504	417.84702
570.969	353.80611
571.434	409.80992
571.899	440.94202
572.363	394.80304
572.828	476.94944
573.293	521.04395
573.757	542.08986
574.222	526.03673
574.686	522.02786
575.15	567.17716
575.614	541.0741
576.078	589.18863
576.542	641.24518
577.006	682.30261
577.469	619.307
577.933	624.17494
578.396	654.34267
578.86	681.34251
579.323	703.41192
579.786	668.19517
580.249	690.32365
580.712	642.33104
581.175	657.38855
581.637	690.3485
582.1	609.12164
582.563	552.97806
583.025	616.28673
583.487	635.05531
583.95	594.08821
584.412	580.01926
584.874	545.15104
585.336	521.08487
585.797	563.03467
586.259	436.89592
586.721	515.05951
587.182	455.92336
587.643	497.98419
588.105	501.04547
588.566	433.80092
589.027	471.01926
589.488	387.78645
589.949	382.82563
590.41	387.67616
590.87	361.72458
591.331	375.70785
591.791	311.64527
592.252	325.67702
592.712	352.76601
593.172	309.63338
593.632	249.48523
594.092	337.67734
594.552	253.4949
595.011	262.55999
595.471	245.5047
595.931	268.54599
596.39	242.54006
596.849	213.46029
597.308	236.46854
597.768	208.49724
598.227	245.548
598.685	174.36707
599.144	186.40651
599.603	187.41448
600.062	105.20724
600.52	208.43282
600.978	203.4535
601.437	150.32158
601.895	183.36069
602.353	107.22201
602.811	131.27363
603.269	173.38649
603.727	154.34809
604.184	117.25035
604.642	170.3902
605.099	114.24968
605.557	102.23375
606.014	119.24128
606.471	172.41009
606.928	185.38676
607.385	124.29293
607.842	140.30727
608.299	106.23431
608.755	149.3385
609.212	122.25884
609.668	104.22123
610.125	108.24601
610.581	129.28247
611.037	170.36021
611.493	117.25933
611.949	105.24096
612.405	146.27713
612.861	122.26585
613.316	175.39531
613.772	145.31375
614.227	139.30989
614.683	132.26574
615.138	169.37677
615.593	84.18413
616.048	131.27764
616.503	148.34188
616.958	96.22951
617.412	123.27513
617.867	119.25253
618.321	100.19009
618.776	146.30164
619.23	142.31717
619.684	133.27867
620.138	118.25189
620.592	68.15696
621.046	108.23794
621.5	117.26785
621.954	62.13177
622.407	94.197
622.861	54.1235
623.314	108.23224
623.768	110.24305
624.221	182.33316
624.674	26.0568
625.127	84.18669
625.58	42.08899
626.033	32.06632
626.485	33.07555
626.938	61.13729
627.39	80.17677
627.843	51.11139
628.295	66.14535
628.747	74.1672
629.199	106.22981
629.651	8.01757
630.103	29.06417
630.555	18.03609
631.006	54.12051
631.458	-8.01791
631.909	29.06302
632.361	-50.11205
632.812	15.03346
633.263	-14.02872
633.714	-28.05686
634.165	-53.12236
634.616	-21.04794
635.067	1.00209
635.518	-21.04755
635.968	42.0791
636.419	12.02455
636.869	-31.07063
637.319	52.11423
637.769	12.02592
638.219	-12.02711
638.669	-48.11198
639.119	-2.00467
639.569	93.21479
640.019	0
640.468	-33.07006
640.918	-9.0208
641.367	4.00865
641.816	1.00216
642.265	-10.0223
642.714	62.13745
643.163	-3.00653
643.612	-14.03305
644.061	-30.06084
644.51	-29.06447
644.958	3.00635
645.406	6.01393
645.855	-6.01416
646.303	10.0223
646.751	1.00221
647.199	-58.12617
647.647	37.08266
648.095	-24.05301
648.543	-57.11129
648.99	8.01855
649.438	16.0362
649.885	5.01206
650.333	-15.02735
650.78	51.12018
651.227	-4.0095
651.674	10.02203
652.121	-71.16685
652.568	-55.13081
653.015	-67.16253
653.461	-24.05546
653.908	-12.02697
654.354	-35.08
654.801	-41.09409
655.247	0
655.693	-21.05341
656.139	-23.0534
656.585	3.00697
657.031	-3.00685
657.477	31.06472
657.922	5.01122
658.368	-34.08122
658.813	-25.05488
659.259	36.08346
659.704	30.06781
660.149	-21.0475
660.594	-6.01383
661.039	30.06615
661.484	-6.01388
661.929	-31.07026
662.373	40.09869
662.818	23.05563
663.262	-48.11256
663.707	-36.08866
664.151	29.06918
664.595	-49.116
665.039	13.03111
665.483	7.01746
665.927	-36.08197
666.371	-37.08454
666.814	-10.0231
667.258	-35.08196
667.701	-12.02451
668.145	-9.02163
668.588	-15.03596
669.031	-25.05792
669.474	12.02789
669.917	51.10695
670.36	3.00717
670.803	8.01858
671.245	-22.04451
671.688	-30.07093
672.13	-22.0477
672.573	36.08869
673.015	-10.0232
673.457	6.01271
673.899	-10.02336
674.341	8.01864
674.783	-29.06828
675.225	3.00714
675.666	-25.05896
676.108	16.03359
676.549	-44.10108
676.991	-19.04036
677.432	-48.09151
677.873	-14.03123
678.314	0
678.755	16.03789
679.196	16.03559
679.637	-42.0991
680.078	-8.01803
680.518	-18.03979
680.959	-26.06047
681.399	-18.04305
681.839	-44.10439
682.28	2.00482
682.72	-57.12676
683.16	-1.00242
683.6	29.06321
684.039	-12.0239
684.479	-8.0191
684.919	6.01354
685.358	-24.05895
685.798	-47.11993
686.237	14.03248
686.676	-19.0425
687.115	11.02489
687.554	-10.02296
687.993	-36.07581
688.432	10.02224
688.871	-42.09269
689.309	82.19161
689.748	-9.01805
690.186	-1.00228
690.625	20.04598
691.063	8.01874
691.501	-21.05058
691.939	-23.0559
692.377	36.08468
692.815	8.01874
693.253	-4.00917
693.69	-29.0616
694.128	7.01662
694.565	26.0598
695.003	-11.02724
695.44	-43.09801
695.877	29.06588
696.314	9.01845
696.751	-15.03275
697.188	-52.11735
697.625	11.02393
698.061	7.01624
698.498	49.11317
698.934	-23.05321
699.371	-3.00688
699.807	28.06378
700.243	18.04231
700.679	46.09922
701.115	5.01123
701.551	51.11554
701.987	-4.00854
702.422	27.06142
702.858	-19.04346
703.294	-25.05426
703.729	36.08514
704.164	21.04906
704.599	-26.0555
705.035	22.04739
705.47	7.01669
705.904	-13.02913
706.339	23.05034
706.774	-1.00224
707.209	-40.08927
707.643	15.03467
708.078	-45.10633
708.512	31.07619
708.946	1.00229
709.38	-12.02723
709.814	-12.02619
710.248	-23.05354
710.682	12.02773
711.116	55.12688
711.549	-35.08738
711.983	-37.08211
712.416	-43.09722
712.85	-5.01215
713.283	24.05438
713.716	23.05508
714.149	2.00452
714.582	-30.06515
715.015	-4.00958
715.448	-25.0601
715.881	-8.01633
716.313	13.02944
716.746	17.03865
717.178	-33.07655
717.61	22.0537
718.043	-21.0501
718.475	-30.06999
718.907	-19.04566
719.339	-35.07674
719.77	43.0988
720.202	-31.07582
720.634	21.04948
721.065	-30.06847
721.497	17.04011
721.928	-21.05025
722.359	-32.07612
722.79	-33.07649
723.221	-32.07712
723.652	2.00491
724.083	-48.10411
724.514	-96.21061
724.945	9.02029
725.375	-31.06983
725.806	-52.12346
726.236	-23.0568
726.666	-36.08147
727.096	-40.0942
727.526	-22.05428
727.956	-65.14317
728.386	-10.02324
728.816	-26.06393
729.246	10.02353
729.675	5.01196
730.105	-23.05418
730.534	-15.03366
730.964	-9.02159
731.393	-74.17475
731.822	19.04675
732.251	-16.03945
732.68	-37.0815
733.109	-26.06199
733.537	-49.11425
733.966	-49.11726
734.395	-18.03944
734.823	4.00848
735.251	-13.03011
735.68	20.04752
736.108	-25.06062
736.536	37.08256
736.964	-45.09995
737.392	-37.08857
737.82	-50.11504
738.247	-31.07057
738.675	-46.1041
739.102	-6.0146
739.53	14.03453
739.957	-17.04192
740.384	-2.00465
740.811	-24.05897
741.238	-9.02088
741.665	5.01123
742.092	-19.04289
742.519	-6.01444
742.945	-52.12022
743.372	27.06402
743.798	-25.06192
744.225	-43.09809
744.651	-44.10608
745.077	-33.07927
745.503	-19.04404
745.929	-43.09876
746.355	-36.08429
746.781	-53.12664
747.207	-17.03883
747.632	3.00706
748.058	-28.06648
748.483	-99.21843
748.908	-67.16137
749.334	-56.1328
749.759	-44.09933
750.184	-47.10777
750.609	-41.09631
751.033	-39.08641
751.458	10.02143
751.883	-4.0094
752.307	-34.07817
752.732	-42.10301
753.156	-49.11672
753.58	12.0269
754.005	30.07323
754.429	-32.07085
754.853	-39.09365
755.277	-27.06171
755.7	29.0682
756.124	-23.05571
756.548	-7.01597
756.971	-18.04186
757.394	-31.07706
757.818	-18.04503
758.241	-27.06557
758.664	8.01958
759.087	-5.01087
759.51	-32.07662
759.933	-15.03491
760.356	-24.05919
760.778	29.06918
761.201	-31.07091
761.623	-85.196
762.046	-86.19185
762.468	-34.07789
762.89	19.0446
763.312	-1.00231
763.734	-27.06271
764.156	-1.00237
764.578	-37.08034
765	-21.04912
765.421	-32.0802
765.843	-10.0254
766.264	-59.136
766.686	50.12031
767.107	-7.01647
767.528	22.054
767.949	-38.09331
768.37	-77.18243
768.791	-26.05987
769.212	-21.05176
769.632	-69.15511
770.053	-25.06388
770.473	-17.03975
770.894	-58.13834
771.314	-42.09482
771.734	-46.10215
772.154	1.00247
772.575	-49.10847
772.994	-44.09621
773.414	-73.16517
773.834	-36.08744
774.254	-47.11019
774.673	2.00461
775.093	-4.00956
775.512	-18.04295
775.931	-9.02218
776.351	-71.16971
776.77	-19.04484
777.189	-64.14543
777.607	-22.05438
778.026	11.02639
778.445	13.03162
778.864	-19.04659
779.282	-41.09379
779.701	19.04574
780.119	-88.21519
780.537	-54.12999
780.955	17.04105
781.373	-28.0664
781.791	-12.02583
782.209	10.02192
782.627	-15.03838
783.045	-60.13258
783.462	-47.11521
783.88	-47.11862
784.297	-28.06783
784.715	17.04254
785.132	9.02071
785.549	17.04116
785.966	-47.11359
786.383	-16.03802
786.8	6.01322
787.217	-29.06556
787.633	-31.07472
788.05	-57.12597
788.466	-13.02885
788.883	-39.09716
789.299	-61.13999
789.715	40.09273
790.131	-25.05928
790.547	-93.22102
790.963	23.0543
791.379	-8.01945
791.795	-44.09551
792.21	-59.13176
792.626	-41.09296
793.041	-60.1418
793.457	-39.09204
793.872	-29.06527
794.287	26.06047
794.702	-69.16303
795.117	-71.16938
795.532	2.00486
795.947	-2.00451
796.362	10.02232
796.776	-50.10789
797.191	-59.13832
797.605	-21.04819
798.02	-15.03521
798.434	-49.10258
798.848	-45.10575
799.262	-21.05085
799.676	-44.10172
800.09	-18.04204
800.504	-18.04158
800.918	-34.07472
801.331	-57.14329
801.745	-67.14671
802.158	-17.04056
802.572	-25.05744
802.985	-45.10252
803.398	-46.10495
803.811	-18.04397
804.224	-71.16964
804.637	-79.17809
805.05	-21.0461
805.462	-19.0443
805.875	12.0304
806.288	-16.03731
806.7	-16.03844
807.112	-15.03293
807.525	-16.03789
807.937	-6.01417
808.349	-69.166
808.761	-68.15846
809.173	-58.13318
809.584	-28.06563
809.996	-40.09453
810.408	-32.08005
810.819	-37.08331
811.231	-26.06654
811.642	8.01893
812.053	-31.07188
812.464	0
812.875	-12.02948
813.286	-45.11117
813.697	-44.09494
814.108	-29.06677
814.519	-6.01244
814.929	-59.14318
815.34	-42.09714
815.75	-23.05602
816.16	-71.16717
816.571	6.01491
816.981	-65.14431
817.391	-19.04343
817.801	3.0072
818.211	25.05636
818.62	-60.13811
819.03	-57.13222
819.44	-11.02736
819.849	-3.00724
820.259	-10.02455
820.668	-48.11493
821.077	-45.10777
821.486	-61.1387
821.895	-67.1556
822.304	-40.10248
822.713	-49.11001
823.122	22.05241
823.531	-8.01808
823.939	-39.09111
824.348	-8.01854
824.756	-26.0619
825.164	-39.09311
825.573	-12.02875
825.981	21.04929
826.389	-63.14989
826.797	-35.08417
827.205	-48.10477
827.612	-32.07469
828.02	-30.06778
828.428	-46.11203
828.835	-9.02281
829.243	-51.1154
829.65	-16.03812
830.057	-2.00466
830.464	-20.04703
830.871	-7.01577
831.278	-45.10277
831.685	-46.09559
832.092	10.02331
832.499	-36.07364
832.905	-67.1643
833.312	-23.049
833.718	11.0258
834.124	-9.01942
834.531	-26.06218
834.937	-61.1492
835.343	-7.01602
835.749	-19.04139
836.155	-62.15639
836.561	-76.17612
836.966	-26.06023
837.372	-44.10692
837.777	-41.09706
838.183	-55.11243
838.588	6.01423
838.993	-33.07543
839.399	-61.14229
839.804	-15.03525
840.209	-20.04924
840.613	-16.03387
841.018	-87.21025
841.423	-87.21334
841.828	-40.0968
842.232	-53.12304
842.637	-83.1842
843.041	-4.00997
843.445	-60.143
843.849	-36.08518
844.253	-51.11413
844.657	-7.01697
845.061	-45.09691
845.465	22.05135
845.869	-97.21482
846.272	-51.11882
846.676	-11.02529
847.079	-2.00489
847.483	-18.04256
847.886	-55.12516
848.289	26.06745
848.692	-37.08942
849.095	-9.02016
849.498	-18.04241
849.901	-80.17292
850.304	-19.04255
850.707	-46.11207
851.109	-51.12088
851.512	6.01409
851.914	-6.01475
852.316	-27.06555
852.718	-15.03763
853.121	-26.06071
853.523	-47.10396
853.925	-18.04514
854.326	10.02406
854.728	-76.18895
855.13	-36.09006
855.531	19.04357
855.933	-34.07713
856.334	-58.13983
856.736	-47.09856
857.137	-47.10383
857.538	-14.03357
857.939	-20.04747
858.34	-29.06658
858.741	-11.02745
859.142	-29.06637
859.542	18.04639
859.943	8.01902
860.343	-58.13898
860.744	13.03006
861.144	-20.04629
861.544	-14.0325
861.945	-36.08715
862.345	-79.18166
862.745	-58.13824
863.145	-40.08857
863.544	-6.01462
863.944	-35.07797
864.344	-77.18088
864.743	-13.03061
865.143	-1.00245
865.542	-35.07641
865.941	11.02603
866.34	8.01806
866.74	-14.03606
867.139	-24.05498
867.537	-63.15317
867.936	-18.04125
868.335	34.08249
868.734	2.00493
869.132	40.08739
869.531	-18.04107
869.929	-17.03696
870.327	-33.07512
870.726	-10.02353
871.124	-23.05015
871.522	-74.17968
871.92	8.01858
872.318	-5.0116
872.715	-5.01164
873.113	-36.08379
873.511	-45.10748
873.908	14.03445
874.306	-8.01899
874.703	-38.09053
875.1	-11.02656
875.497	-47.10643
875.894	-7.0166
876.291	24.05595
876.688	-61.15119
877.085	-45.10199
877.482	-36.08518
877.878	-89.2067
878.275	-53.12862
878.671	-54.10966
879.068	-13.02957
879.464	-43.09927
879.86	38.08533
880.256	-18.04148
880.652	-15.03629
881.048	-72.16864
881.444	-60.13374
881.84	-52.12598
882.236	-30.07213
882.631	-42.09853
883.027	-62.14066
883.422	-55.13482
883.817	0
884.213	-55.13602
884.608	-6.01412
885.003	-34.07823
885.398	-61.14653
885.793	-40.09537
886.188	-23.05525
886.582	-62.14947
886.977	-31.06943
887.371	18.04297
887.766	-28.06712
888.16	-28.06666
888.554	-23.05325
888.949	-64.15148
889.343	-61.14004
889.737	-19.04957
890.131	18.04293
890.525	-48.11725
890.918	4.00964
891.312	-39.08659
891.706	-31.07882
892.099	2.00481
892.492	23.04584
892.886	-57.13222
893.279	-29.07067
893.672	-22.0537
894.065	-22.05213
894.458	-49.11761
894.851	-1.00227
895.244	-34.08327
895.637	11.025
896.029	-37.08607
896.422	-28.06455
896.814	-28.06645
897.206	-20.0457
897.599	-61.14055
897.991	-36.0831
898.383	-37.08239
898.775	-20.04217
899.167	-2.00445
899.559	-40.0961
899.951	-23.05098
900.342	-64.15318
900.734	0
901.125	-34.08462
901.517	26.06042
901.908	-28.06275
902.299	-7.01629
902.69	2.00444
903.082	-9.02055
903.473	-27.06211
903.863	13.03184
904.254	-19.04129
904.645	-41.0956
905.036	13.0302
905.426	-72.15109
905.817	4.00926
906.207	-25.0568
906.597	-65.14551
906.987	-76.18709
907.378	-66.15923
907.768	-39.09965
908.158	-9.02082
908.547	-23.05709
908.937	-28.06824
909.327	-29.06639
909.717	-36.08623
910.106	-16.03634
910.495	6.01426
910.885	-68.16226
911.274	-22.05262
911.663	12.02913
912.052	-67.15653
912.441	-8.01956
912.83	-61.13188
913.219	-45.11153
913.608	-34.07904
913.997	-74.17833
914.385	-6.0133
914.774	-32.07354
915.162	-27.06052
915.55	11.02502
915.939	-40.09709
916.327	-63.15041
916.715	-1.00245
917.103	3.00689
917.491	-8.01841
917.878	-73.16853
918.266	-7.01725
918.654	23.05636
919.041	-32.08025
919.429	-44.09905
919.816	-36.08656
920.203	-20.046
920.591	-25.05836
920.978	-9.02075
921.365	-53.13314
921.752	-11.02487
922.139	47.09451
922.525	-35.07971
922.912	-19.04364
923.299	-16.03799
923.685	-51.12807
924.072	-46.09871
924.458	-37.08742
924.844	-47.11084
925.231	-27.05875
925.617	-25.06185
926.003	-4.00971
926.389	-24.05832
926.774	-22.0534
927.16	-23.0539
927.546	6.01462
927.931	-12.02837
928.317	-60.12808
928.702	-62.13797
929.088	-15.03365
929.473	-36.08771
929.858	-16.03745
930.243	-24.05498
930.628	-37.08518
931.013	46.1085
931.398	-18.03836
931.783	6.01503
932.167	-55.12738
932.552	-51.12018
932.937	-42.09745
933.321	-69.16537
933.705	22.05304
934.09	16.03749
934.474	-23.0514
934.858	-40.10003
935.242	-11.02439
935.626	-13.03152
936.009	-47.12026
936.393	10.02436
936.777	-13.03203
937.16	-45.11076
937.544	13.02848
937.927	-30.07298
938.311	-37.08488
938.694	-13.03282
939.077	-70.15848
939.46	2.00465
939.843	-10.01888
940.226	-14.03398
940.609	-8.0171
940.991	-16.03878
941.374	-71.16496
941.757	5.01159
942.139	-22.04582
942.522	-13.02842
942.904	-19.04331
943.286	-13.03105
943.668	-15.03701
944.05	-13.03029
944.432	-8.01877
944.814	-18.04151
945.196	-30.07051
945.578	7.01588
945.959	-30.06654
946.341	-25.0568
946.722	18.03966
947.104	-76.17172
947.485	-5.01087
947.866	-52.12674
948.247	-31.07466
948.628	-68.15702
949.009	-19.04659
949.39	-69.16088
949.771	-11.02376
950.152	-2.00467
950.532	-3.00723
950.913	-55.12455
951.293	25.06507
951.674	-45.10244
952.054	-81.19368
952.434	-29.06775
952.814	-40.08831
953.194	-6.01501
953.574	-11.02517
953.954	-52.1173
954.334	2.00474
954.714	-65.15203
955.093	-39.08972
955.473	-78.18576
955.853	-16.03971
956.232	-2.00526
956.611	-59.13159
956.99	6.01434
957.37	-81.19878
957.749	-22.04894
958.128	-11.02664
958.506	-47.11823
958.885	-52.12484
959.264	-48.11238
959.643	-27.05785
960.021	-61.14486
960.4	24.05137
960.778	-23.05251
961.156	-26.06199
961.535	-64.13774
961.913	-58.12553
962.291	1.00247
962.669	-36.08741
963.047	-78.18889
963.424	-57.14024
963.802	-39.09011
964.18	-10.02379
964.557	-96.20688
964.935	-28.06226
965.312	-24.06021
965.69	-15.03536
966.067	-43.09856
966.444	-4.00929
966.821	-51.12516
967.198	-54.12236
967.575	-16.03673
967.952	-11.02436
968.329	-35.08035
968.705	-29.05675
969.082	28.06842
969.458	-33.07619
969.835	-28.06437
970.211	-9.02201
970.587	-5.01177
970.963	-9.02188
971.339	0
971.715	-70.1644
972.091	-2.00463
972.467	-67.15683
972.843	-6.0141
973.219	-47.10509
973.594	-13.03253
973.97	-53.11772
974.345	-54.12266
974.721	-35.07964
975.096	-71.16215
975.471	26.05776
975.846	47.10609
976.221	-49.11936
976.596	-33.07497
976.971	32.0741
977.346	-50.10821
977.72	-25.06051
978.095	-40.0993
978.469	-11.02477
978.844	6.0142
979.218	-9.02055
979.593	0
979.967	-21.04873
980.341	-22.04715
980.715	13.03072
981.089	-62.14669
981.463	7.01521
981.837	-23.05375
982.21	26.05562
982.584	-21.04761
982.957	-25.05992
983.331	-2.00443
983.704	16.03728
984.078	-25.05802
984.451	-42.09691
984.824	-21.04891
985.197	-11.02509
985.57	-59.13989
985.943	-47.10782
986.316	20.04602
986.688	-3.00676
987.061	17.03671
987.434	-19.04738
987.806	-22.05005
988.179	-65.14461
988.551	-61.14686
988.923	-64.1499
989.295	-2.0047
989.667	-23.05316
990.039	-8.01881
990.411	-18.03929
990.783	-4.00855
991.155	7.0161
991.527	-26.0591
991.898	-58.13707
992.27	-34.08016
992.641	-2.00471
993.012	51.1121
993.384	-22.04953
993.755	-42.10171
994.126	1.00227
994.497	-66.15458
994.868	15.03221
995.239	-27.06233
995.61	-63.15128
995.98	-13.03018
996.351	-45.10719
996.722	13.02843
997.092	-2.00451
997.462	-56.12586
997.833	-27.05997
998.203	-34.07745
998.573	-18.0429
998.943	-59.12947
999.313	-8.01817
999.683	-80.18134
1000.053	8.01726
1000.423	-47.10851
1000.792	-35.08697
1001.162	-45.10616
1001.531	20.04666
1001.901	-13.0305
1002.27	6.01255
1002.639	16.03884
1003.009	9.02038
1003.378	3.00729
1003.747	-66.14742
1004.116	-18.04094
1004.485	27.06072
1004.853	10.02396
1005.222	35.08398
1005.591	4.00881
1005.959	-5.01069
1006.328	-54.11407
1006.696	-19.04367
1007.064	-16.03825
1007.433	-7.01666
1007.801	-11.02525
1008.169	-32.07627
1008.537	5.01032
1008.905	-20.04406
1009.273	12.02784
1009.64	-25.05675
1010.008	-8.01786
1010.375	12.02725
1010.743	-3.0063
1011.11	-25.05601
1011.478	-33.07734
1011.845	-57.12471
1012.212	-40.08413
1012.579	-30.0701
1012.946	-30.06615
1013.313	8.01774
1013.68	-20.04162
1014.047	8.01819
1014.414	-10.02246
1014.78	-19.04528
1015.147	-61.13797
1015.513	26.05966
1015.88	-45.10818
1016.246	13.03026
1016.612	-28.05941
1016.978	2.00459
1017.344	74.1723
1017.71	-46.10393
1018.076	-11.02425
1018.442	-45.11015
1018.808	-33.07861
1019.174	-42.09976
1019.539	-49.10271
1019.905	-39.08763
1020.27	-10.02361
1020.636	5.01121
1021.001	9.02002
1021.366	47.10738
1021.731	7.01715
1022.096	-23.05582
1022.461	-63.1397
1022.826	14.03119
1023.191	-21.05273
1023.556	-53.11566
1023.92	-6.01373
1024.285	-34.0782
1024.649	-55.12844
1025.014	18.04181
1025.378	8.01924
1025.742	-75.1781
1026.107	-61.12832
1026.471	-80.17314
1026.835	-54.12608
1027.199	-27.06191
1027.562	1.00219
1027.926	-29.06682
1028.29	-4.00963
1028.654	-63.13545
1029.017	17.0394
1029.381	-4.00904
1029.744	56.13506
1030.107	-40.0875
1030.471	-49.11069
1030.834	-43.09014
1031.197	-8.0178
1031.56	21.04682
1031.923	-8.01964
1032.286	-14.03058
1032.648	-49.1101
1033.011	-54.11752
1033.374	-54.11807
1033.736	-69.17482
1034.099	-24.05571
1034.461	-37.09009
1034.823	-65.15394
1035.185	-49.11573
1035.548	-35.08048
1035.91	25.05645
1036.272	-30.06415
1036.634	-51.1168
1036.995	7.01556
1037.357	-8.01841
1037.719	-27.06199
1038.08	-38.08344
1038.442	37.08368
1038.803	-63.14261
1039.165	-13.03119
1039.526	-20.04567
1039.887	-32.07295
1040.248	15.03562
1040.609	-34.07951
1040.97	-45.1043
1041.331	-80.19089
1041.692	-11.02436
1042.053	-37.07814
1042.413	-40.08661
1042.774	-8.01821
1043.134	-67.14943
1043.495	-39.09254
1043.855	12.02733
1044.215	-15.03508
1044.576	-52.11912
1044.936	-38.08238
1045.296	21.04893
1045.656	-13.03008
1046.016	-64.14472
1046.375	5.01151
1046.735	-37.08003
1047.095	-13.02861
1047.454	-3.00584
1047.814	-47.10617
1048.173	-60.13313
1048.533	8.0172
1048.892	-52.11974
1049.251	20.04723
1049.61	-72.16725
1049.969	30.06643
1050.328	-83.16682
1050.687	-43.099
1051.046	7.01617
1051.405	-49.11434
1051.763	-6.01299
1052.122	-32.0768
1052.48	-69.16031
1052.839	-38.0846
1053.197	-17.03768
1053.555	-107.223
1053.914	-55.12728
1054.272	-7.01584
1054.63	-63.14585
1054.988	-53.11904
1055.345	-75.14956
1055.703	-40.09005
1056.061	-13.03184
1056.419	-20.04965
1056.776	-66.15149
1057.134	-31.06722
1057.491	-65.15507
1057.848	-62.14624
1058.206	-35.07742
1058.563	-21.04369
1058.92	-71.15297
1059.277	-57.13123
1059.634	-93.20364
1059.991	19.04275
1060.348	-28.05998
1060.704	-17.03828
1061.061	-64.13697
1061.418	9.02065
1061.774	0
1062.131	10.02577
1062.487	-74.16289
1062.843	-30.07087
1063.199	-33.07852
1063.555	-65.14407
1063.911	-24.05729
1064.267	-43.08068
1064.623	-18.04183
1064.979	-92.20175
1065.335	-18.03967
1065.691	-7.01594
1066.046	-37.07512
1066.402	-68.14591
1066.757	-39.09393
1067.112	-41.0942
1067.468	24.05394
1067.823	-34.07754
1068.178	16.0365
1068.533	-52.11854
1068.888	-27.06002
1069.243	-24.05643
1069.598	-48.10872
1069.952	-21.04521
1070.307	-35.08388
1070.662	-28.06298
1071.016	-20.0424
1071.371	-66.14113
1071.725	-62.13659
1072.079	-22.04975
1072.434	-58.13382
1072.788	25.05601
1073.142	35.08132
1073.496	-76.17186
1073.85	-45.09808
1074.203	-49.11222
1074.557	7.01787
1074.911	-50.1114
1075.265	-49.10594
1075.618	-3.00692
1075.971	-32.07133
1076.325	-31.07512
1076.678	-53.11444
1077.031	-54.11477
1077.385	18.03691
1077.738	-8.0169
1078.091	-20.04336
1078.444	-52.11211
1078.796	3.00699
1079.149	-31.07205
1079.502	-69.15542
1079.855	-36.07961
1080.207	-11.02548
1080.56	-71.17623
1080.912	-58.1319
1081.264	-33.07503
1081.617	-42.09745
1081.969	24.05825
1082.321	-5.01151
1082.673	-18.03907
1083.025	-70.15622
1083.377	-336.70445
1083.728	-69.14905
1084.08	-1.00237
1084.432	-81.18178
1084.783	22.04851
1085.135	-7.01687
1085.486	19.04083
1085.838	34.07839
1086.189	-33.07576
1086.54	-27.06074
1086.891	3.00729
1087.242	-59.13545
1087.593	-52.11893
1087.944	-20.04212
1088.295	-63.13323
1088.646	-22.05046
1088.996	-65.14875
1089.347	-61.1415
1089.698	-11.02472
1090.048	-21.0515
1090.398	14.03042
1090.749	-21.0475
1091.099	8.01924
1091.449	-48.11291
1091.799	-33.07828
1092.149	-23.05449
1092.499	4.00921
1092.849	-49.11927
1093.199	-26.0614
1093.548	-4.0091
1093.898	2.00474
1094.248	-3.0073
1094.597	0
1094.947	-14.03563
1095.296	-37.08624
1095.645	10.02452
1095.994	-38.08687
1096.343	45.10752
1096.692	-57.14585
1097.041	23.05988
1097.39	-48.11427
1097.739	2.00496
1098.088	-40.10158
1098.437	-42.10655
1098.785	-48.12383
1099.134	-66.16636
1099.482	-28.07341
1099.83	-4.00996
1100.179	-29.07358
1100.527	-33.08337
1100.875	-37.09385
1101.223	-16.04101
1101.571	-14.03743
1101.919	-33.08352
1102.267	-49.1356
1102.615	14.04494
1102.962	4.01283
1103.31	8.02568
1103.658	-7.02246
