Data from N3 R6 sample 3_Subt2__2__15-27-57-527.txt Node

Date: Fri Sep 19 15:27:57 PDT 2025
User: uwsun
Spectrometer: HDX01956
Trigger mode: 0
Integration Time (sec): 5.000000E-1
Scans to average: 1
Nonlinearity correction enabled: true
Boxcar width: 0
Storing dark spectrum: false
XAxis mode: Wavelengths
Number of Pixels in Spectrum: 2068
>>>>>Begin Spectral Data<<<<<
194.03	8.0232
194.578	7.02275
195.127	4.01283
195.676	-6.01925
196.225	-16.0424
196.773	27.07512
197.321	40.11103
197.87	44.1132
198.418	57.14774
198.966	64.1686
199.513	49.12521
200.061	17.04336
200.609	-7.01861
201.156	-35.07674
201.704	-2.00506
202.251	12.03199
202.798	-6.0158
203.345	66.16266
203.892	5.01267
204.438	44.10511
204.985	38.09078
205.532	31.08362
206.078	32.07883
206.624	10.02495
207.17	31.07197
207.716	-10.02431
208.262	17.03354
208.808	34.08493
209.354	-15.03692
209.899	15.03782
210.445	41.1031
210.99	5.0122
211.535	23.05411
212.08	26.06037
212.625	27.06763
213.17	-13.0331
213.715	36.08127
214.259	67.15604
214.804	8.01972
215.348	40.09119
215.892	22.05314
216.436	64.14802
216.98	-24.05307
217.524	-4.00952
218.068	40.10043
218.612	-19.04775
219.155	38.08907
219.698	-13.03085
220.242	33.0817
220.785	47.10946
221.328	45.11178
221.871	19.04799
222.414	-2.00492
222.956	8.01942
223.499	38.08488
224.041	-22.05066
224.583	9.01922
225.126	66.1462
225.668	16.03892
226.21	-8.02016
226.751	-51.11135
227.293	35.07852
227.835	-8.01948
228.376	23.05219
228.918	48.1199
229.459	52.13013
230	4.0095
230.541	10.02281
231.082	2.00485
231.622	36.0823
232.163	41.09968
232.704	8.01975
233.244	29.07151
233.784	27.0651
234.324	53.11694
234.864	-1.00225
235.404	48.11163
235.944	-16.03758
236.484	0
237.023	46.10812
237.563	-5.01154
238.102	35.08193
238.641	24.06086
239.18	5.01177
239.719	80.19948
240.258	20.04436
240.797	43.10255
241.335	-21.05077
241.874	57.10886
242.412	18.04285
242.95	2.00483
243.488	7.01594
244.026	13.02998
244.564	31.06303
245.102	18.04025
245.64	39.09276
246.177	-13.02893
246.715	7.01653
247.252	19.04283
247.789	-21.03725
248.326	-19.04529
248.863	15.0325
249.4	41.09334
249.936	20.04067
250.473	33.07661
251.009	37.08494
251.546	72.15676
252.082	26.05707
252.618	20.04471
253.154	21.0502
253.69	39.08662
254.226	12.02841
254.761	-14.03099
255.297	62.1343
255.832	-42.09945
256.367	31.072
256.903	-1.00217
257.438	-51.11924
257.972	4.00879
258.507	25.05772
259.042	-11.02332
259.576	1.00216
260.111	1.00229
260.645	39.08381
261.179	-7.01621
261.713	-11.02428
262.247	59.13572
262.781	30.06287
263.315	26.06337
263.849	7.01746
264.382	9.02045
264.915	44.10285
265.449	-13.03193
265.982	-16.03591
266.515	54.13028
267.048	-33.07064
267.58	-31.06668
268.113	11.02387
268.646	56.13796
269.178	-20.04484
269.71	53.11336
270.243	-3.00683
270.775	6.01525
271.307	-2.00473
271.838	9.02109
272.37	37.0907
272.902	38.08617
273.433	-35.07632
273.965	58.14125
274.496	-31.07647
275.027	20.04909
275.558	40.09599
276.089	14.03509
276.62	9.0227
277.15	13.03183
277.681	45.0945
278.211	3.00727
278.741	70.15357
279.272	44.09958
279.802	16.03991
280.332	10.02356
280.861	25.05978
281.391	5.01126
281.921	-2.00474
282.45	64.15993
282.98	51.13224
283.509	43.09555
284.038	18.04006
284.567	0
285.096	64.15301
285.625	67.15222
286.153	-24.05628
286.682	-9.02043
287.21	7.01679
287.739	-18.04229
288.267	56.13485
288.795	34.08857
289.323	69.16152
289.851	-5.01164
290.378	48.10677
290.906	41.09931
291.433	22.0547
291.961	31.0692
292.488	43.10627
293.015	28.06622
293.542	9.02267
294.069	48.1169
294.596	48.11751
295.122	58.13707
295.649	41.09054
296.175	-1.00239
296.702	23.05485
297.228	-10.02391
297.754	56.12389
298.28	30.06745
298.806	44.10567
299.332	23.05066
299.857	-14.03155
300.383	-8.02007
300.908	30.07325
301.433	36.08748
301.958	-13.02952
302.483	62.15544
303.008	44.10696
303.533	-9.02305
304.058	60.1391
304.582	60.14064
305.107	68.17695
305.631	31.06954
306.155	106.24477
306.679	50.11633
307.203	59.13594
307.727	56.1325
308.251	44.1076
308.775	9.02132
309.298	65.1556
309.822	35.08776
310.345	83.19383
310.868	24.05716
311.391	69.16738
311.914	39.09747
312.437	55.12287
312.96	66.15458
313.482	94.22025
314.005	47.11726
314.527	87.22628
315.049	50.12454
315.571	86.19336
316.093	120.29344
316.615	62.14947
317.137	62.13223
317.659	71.16821
318.18	82.19566
318.702	71.16372
319.223	36.07354
319.744	76.1694
320.265	101.24224
320.786	52.12815
321.307	67.16612
321.828	121.27077
322.348	54.12707
322.869	53.12226
323.389	240.42582
323.909	97.21957
324.43	72.17015
324.95	66.1507
325.47	84.20534
325.989	128.30179
326.509	25.05541
327.029	72.16102
327.548	100.22308
328.067	71.16964
328.587	129.3161
329.106	97.21661
329.625	68.17385
330.144	73.16517
330.662	78.17925
331.181	117.26979
331.7	84.19412
332.218	127.27257
332.736	84.19273
333.255	74.17067
333.773	152.35224
334.291	71.17353
334.808	63.13836
335.326	129.28617
335.844	140.32289
336.361	83.2079
336.879	164.37205
337.396	133.31071
337.913	83.1878
338.43	119.26618
338.947	156.36323
339.464	100.21143
339.981	163.37915
340.497	186.44652
341.014	97.23123
341.53	195.43095
342.046	165.39634
342.562	156.3792
343.078	135.31018
343.594	201.46772
344.11	224.51125
344.626	198.48632
345.141	212.47057
345.657	143.31286
346.172	154.36027
346.687	182.40751
347.202	163.35677
347.717	195.45197
348.232	195.47408
348.747	189.42118
349.261	230.49373
349.776	147.33545
350.29	208.50009
350.805	214.50572
351.319	221.49738
351.833	182.40466
352.347	143.32329
352.861	157.35769
353.374	187.4131
353.888	151.35346
354.401	207.45843
354.915	225.48934
355.428	209.5045
355.941	191.43321
356.454	189.41
356.967	202.46346
357.48	206.45478
357.993	190.45248
358.505	240.57066
359.018	206.48077
359.53	202.46828
360.042	203.4274
360.554	211.48982
361.066	188.4417
361.578	235.49565
362.09	248.56602
362.602	231.48871
363.113	207.45498
363.625	256.55569
364.136	253.52962
364.647	228.51093
365.158	231.51861
365.669	288.6663
366.18	197.43737
366.691	257.54062
367.201	236.53646
367.712	204.44056
368.222	298.65512
368.733	347.7116
369.243	238.49679
369.753	266.58011
370.263	230.5205
370.773	321.74897
371.282	305.68163
371.792	279.60316
372.301	299.68557
372.811	306.75292
373.32	315.62611
373.829	327.73139
374.338	357.73872
374.847	331.70669
375.356	372.82876
375.865	397.77512
376.373	423.87959
376.882	453.04726
377.39	444.98298
377.898	452.02775
378.407	464.93496
378.915	451.87555
379.423	484.03383
379.93	486.9856
380.438	542.18692
380.946	616.26284
381.453	550.17304
381.96	668.37145
382.468	722.46913
382.975	759.58617
383.482	719.37042
383.989	760.6649
384.495	762.47818
385.002	823.41088
385.509	845.61802
386.015	986.54269
386.521	949.67359
387.028	1049.83701
387.534	1076.75247
388.04	1095.98098
388.546	1097.82622
389.051	1184.8938
389.557	1308.17043
390.063	1432.29478
390.568	1426.34688
391.073	1466.2181
391.578	1466.40524
392.084	1528.18643
392.589	1696.26492
393.093	1820.55977
393.598	1974.49796
394.103	2190.76341
394.607	2334.75046
395.112	2506.94254
395.616	2667.82514
396.12	2776.56627
396.624	3207.52271
397.128	3368.58045
397.632	3738.20234
398.136	4105.98617
398.639	4583.84191
399.143	5143.74882
399.646	5879.0004
400.15	6285.78145
400.653	7163.87312
401.156	8025.5754
401.659	9312.27996
402.162	11967.20028
402.664	16867.3817
403.167	28409.88933
403.67	56876.52714
404.172	55487.84425
404.674	37291.05854
405.176	4428.40989
405.678	533.47942
406.18	0
406.682	0
407.184	6962.89417
407.686	50953.82939
408.187	44442.37908
408.688	28696.53943
409.19	21758.51375
409.691	17993.57085
410.192	15269.26477
410.693	13362.29749
411.194	12498.70199
411.694	11794.74578
412.195	10679.70206
412.696	9867.39686
413.196	9500.50102
413.696	9660.43529
414.196	9630.74866
414.696	9288.23533
415.196	8546.48927
415.696	7295.70789
416.196	5484.81591
416.695	4584.62444
417.195	4183.05517
417.694	3976.28918
418.194	3735.60765
418.693	3535.19413
419.192	3536.45099
419.691	3376.51338
420.19	3285.58336
420.688	3204.81977
421.187	3042.88746
421.685	2819.60473
422.184	2457.66865
422.682	2051.34093
423.18	1932.5134
423.678	1707.36139
424.176	1559.26939
424.674	1431.04283
425.172	1334.15107
425.669	1268.24328
426.167	1140.91627
426.664	1081.81819
427.161	969.68322
427.659	913.76947
428.156	873.43622
428.652	790.63681
429.149	815.60258
429.646	687.23587
430.143	664.33992
430.639	661.31401
431.135	608.28234
431.632	547.07238
432.128	587.21983
432.624	497.11224
433.12	533.05819
433.616	536.00547
434.111	490.0313
434.607	456.96783
435.103	422.77179
435.598	477.85457
436.093	422.87106
436.588	406.81546
437.083	334.68231
437.578	325.67281
438.073	289.65812
438.568	311.69417
439.062	305.59238
439.557	243.52489
440.051	284.59122
440.546	269.5681
441.04	199.43905
441.534	297.69625
442.028	234.52178
442.522	262.58421
443.015	259.52105
443.509	260.59221
444.002	273.61993
444.496	156.3155
444.989	214.49335
445.482	166.38879
445.975	211.45128
446.468	164.33229
446.961	173.34403
447.454	172.36014
447.947	239.53568
448.439	234.53622
448.931	199.42119
449.424	136.32015
449.916	162.36647
450.408	202.43531
450.9	94.21809
451.392	173.41461
451.884	96.20741
452.375	146.34088
452.867	131.27933
453.358	60.12958
453.849	138.27603
454.341	167.35486
454.832	116.23794
455.323	137.31779
455.814	115.24948
456.304	140.30351
456.795	111.23844
457.285	109.22757
457.776	66.14101
458.266	159.35932
458.756	90.20385
459.247	115.25904
459.737	174.39458
460.226	138.29343
460.716	135.30695
461.206	97.21921
461.695	90.21681
462.185	128.28802
462.674	96.20759
463.163	61.12821
463.653	97.19442
464.142	76.17431
464.63	127.29355
465.119	87.19436
465.608	93.20313
466.096	125.25808
466.585	76.16498
467.073	24.05487
467.561	143.3304
468.05	80.17558
468.538	126.29742
469.026	148.33684
469.513	74.14891
470.001	117.25089
470.489	72.16308
470.976	48.1065
471.463	98.23536
471.951	91.21743
472.438	64.14484
472.925	13.02917
473.412	73.16981
473.899	80.1764
474.385	81.19035
474.872	41.09182
475.359	48.113
475.845	58.11504
476.331	22.0456
476.817	9.02104
477.303	53.11826
477.789	32.07433
478.275	55.13192
478.761	45.10393
479.247	27.05795
479.732	47.11401
480.218	35.08817
480.703	98.23608
481.188	14.02886
481.673	23.05119
482.158	30.06234
482.643	38.09334
483.128	-9.01989
483.612	29.06516
484.097	45.10596
484.581	-7.01555
485.066	29.0678
485.55	-4.00846
486.034	67.14063
486.518	37.08423
487.002	14.03335
487.486	26.06161
487.969	12.02892
488.453	41.1005
488.936	63.13562
489.42	51.10875
489.903	17.04163
490.386	22.04582
490.869	-9.01871
491.352	41.09609
491.835	-82.16523
492.318	-10.02218
492.8	-36.07207
493.283	54.13377
493.765	-4.00966
494.247	30.06701
494.73	59.1251
495.212	17.03964
495.694	-33.07567
496.175	-50.11716
496.657	77.17763
497.139	-27.04359
497.62	2.00466
498.102	13.03158
498.583	-22.05324
499.064	-19.04206
499.545	-47.10522
500.026	-36.07901
500.507	-41.09232
500.988	-47.11367
501.469	-10.02432
501.949	-35.08391
502.43	-55.12844
502.91	-4.008
503.39	-7.01706
503.87	-23.05318
504.35	-50.11445
504.83	-9.01925
505.31	-20.0477
505.79	-47.11071
506.269	-26.05898
506.749	-16.03562
507.228	-56.12962
507.707	-2.00431
508.187	-20.04624
508.666	-40.09599
509.145	-31.071
509.623	-50.11527
510.102	-21.04956
510.581	-43.10085
511.059	0
511.538	-24.06062
512.016	-21.04948
512.494	-45.10641
512.972	-45.10624
513.45	-41.09477
513.928	-13.03092
514.406	1.00241
514.884	11.02799
515.361	2.00472
515.839	-97.21885
516.316	-56.13188
516.793	-36.08924
517.27	13.03084
517.747	-33.08349
518.224	-42.09493
518.701	-61.13459
519.178	19.04682
519.654	-74.17013
520.131	-50.12063
520.607	-23.05588
521.083	-63.14313
521.56	-74.17217
522.036	-38.08228
522.512	-40.09687
522.987	32.07474
523.463	-14.03274
523.939	-34.08184
524.414	-25.05606
524.89	-84.19613
525.365	-43.0969
525.84	-17.04074
526.315	-28.06574
526.79	-40.0879
527.265	-98.21934
527.74	-46.11022
528.215	-54.12608
528.689	0
529.164	-52.10879
529.638	8.02014
530.112	8.01866
530.587	-1.00211
531.061	-56.13424
531.534	-57.13531
532.008	-23.05458
532.482	-57.12618
532.956	-15.03815
533.429	-100.23458
533.903	-43.09253
534.376	-26.0561
534.849	-31.07091
535.322	-21.0486
535.795	-55.13262
536.268	-44.10503
536.741	-12.02816
537.213	-11.02496
537.686	-88.21159
538.158	-93.20802
538.631	-38.09008
539.103	-76.16891
539.575	-58.11876
540.047	-30.06448
540.519	-51.11901
540.991	-59.14113
541.463	-46.11035
541.934	-32.07218
542.406	-47.11088
542.877	-48.10646
543.348	-103.24139
543.82	-41.09864
544.291	-61.13813
544.762	-71.16646
545.233	-16.03984
545.703	-55.12079
546.174	-49.11304
546.645	-38.09137
547.115	-74.17745
547.585	-13.0297
548.056	-10.02414
548.526	-74.17346
548.996	-26.0614
549.466	-63.15105
549.935	-22.05213
550.405	-35.07651
550.875	-72.16851
551.344	-30.07153
551.814	-74.1659
552.283	-36.07635
552.752	-100.23183
553.221	-75.16194
553.69	-17.03724
554.159	-1.00245
554.628	-85.18903
555.096	-13.03234
555.565	-67.14758
556.033	-9.02064
556.502	-64.15295
556.97	-61.13295
557.438	-37.08634
557.906	-35.08161
558.374	-73.16578
558.842	-7.01642
559.31	-15.0326
559.777	5.01189
560.245	-9.0204
560.712	-95.21478
561.18	-44.09539
561.647	-34.07428
562.114	-20.04475
562.581	2.00484
563.048	-40.08934
563.514	6.01448
563.981	-65.14635
564.448	34.07421
564.914	-24.05456
565.381	3.00655
565.847	31.07
566.313	-5.01132
566.779	56.12322
567.245	12.0274
567.711	57.13311
568.176	97.21455
568.642	55.13487
569.108	60.14295
569.573	34.07651
570.038	92.18632
570.504	81.17714
570.969	96.23056
571.434	85.18109
571.899	155.35228
572.363	115.24926
572.828	172.36731
573.293	137.29936
573.757	227.49033
574.222	235.49565
574.686	218.4607
575.15	221.49493
575.614	242.51478
576.078	226.49476
576.542	305.64073
577.006	221.4698
577.469	244.55824
577.933	246.50687
578.396	308.6825
578.86	275.59452
579.323	271.59915
579.786	241.47925
580.249	309.64799
580.712	257.57934
581.175	263.60449
581.637	297.6352
582.1	210.42608
582.563	258.49212
583.025	266.5995
583.487	253.46537
583.95	246.4909
584.412	267.50843
584.874	241.54372
585.336	220.48955
585.797	230.45876
586.259	151.33022
586.721	196.43289
587.182	221.47246
587.643	218.45989
588.105	173.38792
588.566	239.46353
589.027	175.40336
589.488	133.28594
589.949	139.31604
590.41	171.3158
590.87	128.27074
591.331	131.26208
591.791	79.1724
592.252	142.30785
592.712	118.26955
593.172	116.24816
593.632	37.07574
594.092	71.15146
594.552	55.11264
595.011	73.16241
595.471	83.17721
595.931	50.10692
596.39	66.15265
596.849	60.13391
597.308	37.07687
597.768	37.09134
598.227	70.16222
598.685	-2.00438
599.144	17.03848
599.603	74.16788
600.062	16.03224
600.52	40.08635
600.978	36.0832
601.437	44.09649
601.895	-12.02474
602.353	-29.062
602.811	54.11472
603.269	-19.04413
603.727	56.12911
604.184	20.04369
604.642	-17.04048
605.099	21.0469
605.557	-15.03518
606.014	-11.02297
606.471	16.03929
606.928	85.18164
607.385	54.1293
607.842	20.045
608.299	24.05396
608.755	8.01869
609.212	86.1839
609.668	-24.05248
610.125	-6.01398
610.581	21.04703
611.037	49.10657
611.493	28.06321
611.949	17.0397
612.405	47.09137
612.861	50.11062
613.316	47.10894
613.772	52.11475
614.227	-36.08316
614.683	67.1369
615.138	88.19948
615.593	9.02004
616.048	4.00871
616.503	52.12241
616.958	60.14443
617.412	52.11802
617.867	44.0949
618.321	-9.01756
618.776	51.10761
619.23	54.12281
619.684	12.02582
620.138	33.07174
620.592	-20.04697
621.046	29.06495
621.5	-1.00234
621.954	36.07695
622.407	32.06798
622.861	-37.08617
623.314	57.12392
623.768	1.00226
624.221	6.01147
624.674	-20.04412
625.127	12.02707
625.58	-25.05375
626.033	-1.00209
626.485	-54.12578
626.938	-12.02741
627.39	24.05365
627.843	13.02862
628.295	17.03782
628.747	36.08197
629.199	59.12919
629.651	-15.03311
630.103	9.02
630.555	-8.01614
631.006	6.01352
631.458	-22.0494
631.909	-31.06823
632.361	-27.06022
632.812	-44.09933
633.263	-25.05141
633.714	-56.11445
634.165	-54.12469
634.616	-58.1334
635.067	-39.08222
635.518	-45.1024
635.968	-8.01525
636.419	-40.08279
636.869	-60.1375
637.319	-40.08957
637.769	19.04097
638.219	-28.06347
638.669	-33.07676
639.119	-50.11793
639.569	-56.13316
640.019	-1.00221
640.468	-52.11086
640.918	-19.044
641.367	-21.04563
641.816	-14.03031
642.265	12.02664
642.714	-60.1364
643.163	-94.20866
643.612	-42.09968
644.061	-94.19342
644.51	-6.01327
644.958	-24.05108
645.406	-8.01862
645.855	-61.14547
646.303	-43.09694
646.751	-13.02886
647.199	-95.20829
647.647	-35.07935
648.095	-56.12451
648.543	-39.07582
648.99	-55.1291
649.438	-5.01136
649.885	-51.12432
650.333	-41.07526
650.78	11.02612
651.227	-2.00475
651.674	-21.04657
652.121	-52.12175
652.568	-69.16455
653.015	-71.17236
653.461	-58.13494
653.908	3.00672
654.354	-48.11
654.801	-24.05489
655.247	-41.08682
655.693	-53.13557
656.139	-26.0604
656.585	-78.18419
657.031	-13.02976
657.477	10.02098
657.922	9.02017
658.368	-81.19524
658.813	-77.17089
659.259	-49.11551
659.704	-57.13112
660.149	-23.05204
660.594	-21.04854
661.039	-33.07372
661.484	4.00924
661.929	-42.0954
662.373	17.04212
662.818	-33.08065
663.262	-66.15531
663.707	-75.18603
664.151	-11.02644
664.595	-51.12078
665.039	-70.17016
665.483	-20.05014
665.927	-23.05223
666.371	-52.11917
666.814	-43.09998
667.258	-16.03733
667.701	-38.07809
668.145	-52.12598
668.588	-44.10608
669.031	-56.13055
669.474	-55.1295
669.917	-21.04474
670.36	-62.15003
670.803	-28.0655
671.245	-93.19124
671.688	-35.08283
672.13	-73.15998
672.573	-5.01241
673.015	-65.15245
673.457	13.0275
673.899	-23.05386
674.341	-37.08698
674.783	-5.01172
675.225	-51.12265
675.666	-62.14726
676.108	-24.05083
676.549	-43.09876
676.991	-91.19632
677.432	-25.0474
677.873	-55.12374
678.314	-41.09526
678.755	-23.05487
679.196	-49.11046
679.637	-18.04228
680.078	-23.052
680.518	-91.20422
680.959	-28.06514
681.399	-61.14709
681.839	-42.0996
682.28	-24.0581
682.72	-49.10879
683.16	-44.10756
683.6	-41.09069
684.039	-38.07615
684.479	-34.08159
684.919	-62.14185
685.358	-53.13088
685.798	-112.28904
686.237	-58.13649
686.676	3.00668
687.115	-28.06386
687.554	-32.0738
687.993	-49.10349
688.432	-30.06729
688.871	-55.12171
689.309	30.07082
689.748	-49.09917
690.186	-5.0114
690.625	-20.04635
691.063	33.07694
691.501	-32.07723
691.939	-19.04614
692.377	-25.05951
692.815	21.04906
693.253	-45.10406
693.69	-54.11532
694.128	13.03082
694.565	-4.00925
695.003	-42.10461
695.44	-30.0682
695.877	16.03645
696.314	-30.06204
696.751	-31.06791
697.188	-1.00223
697.625	2.00436
698.061	-28.06543
698.498	-11.02571
698.934	-76.17766
699.371	-56.12977
699.807	-51.11802
700.243	7.01649
700.679	-41.09008
701.115	-41.09292
701.551	31.07051
701.987	-49.10562
702.422	-29.06671
702.858	-53.12207
703.294	-22.04772
703.729	-18.04302
704.164	13.03042
704.599	-37.07917
705.035	-26.05658
705.47	-16.03831
705.904	-46.10376
706.339	-12.02646
706.774	-60.13612
707.209	-104.23517
707.643	-21.04889
708.078	-45.10633
708.512	-17.04215
708.946	-34.07845
709.38	-19.04318
709.814	-47.10335
710.248	-75.17639
710.682	-14.03252
711.116	-39.09165
711.549	-56.14034
711.983	-80.17913
712.416	-31.06991
712.85	23.05558
713.283	-23.05261
713.716	-10.0241
714.149	-74.16972
714.582	-5.0108
715.015	-28.06737
715.448	-41.09886
715.881	-40.08223
716.313	-31.07083
716.746	-45.1036
717.178	-95.22307
717.61	-26.06403
718.043	-66.15881
718.475	-58.13606
718.907	-31.07466
719.339	-55.1211
719.77	-23.05354
720.202	-44.10788
720.634	-10.02371
721.065	-37.08457
721.497	-28.06663
721.928	-39.09365
722.359	0
722.79	-54.12569
723.221	-19.04568
723.652	3.00736
724.083	-19.04095
724.514	-54.11742
724.945	-79.1813
725.375	-27.06077
725.806	-65.15471
726.236	-13.03204
726.666	-33.07464
727.096	-49.1156
727.526	-55.13652
727.956	-19.04145
728.386	-79.18608
728.816	-61.15097
729.246	-29.06876
729.675	-39.09404
730.105	-5.01174
730.534	-20.04493
730.964	-56.13552
731.393	-68.16039
731.822	-14.03466
732.251	-21.05182
732.68	-80.1778
733.109	-23.05481
733.537	-53.12367
733.966	-7.01662
734.395	-66.14608
734.823	-8.017
735.251	-89.20923
735.68	-25.05992
736.108	-42.10217
736.536	-3.00675
736.964	-55.12242
737.392	-48.11515
737.82	-50.11504
738.247	-61.13971
738.675	-26.0586
739.102	-7.01703
739.53	-3.00742
739.957	-83.20714
740.384	-40.09365
740.811	36.08748
741.238	-34.07926
741.665	-11.0248
742.092	-67.15271
742.519	-13.03133
742.945	-44.10156
743.372	-23.05506
743.798	-30.07437
744.225	-45.10269
744.651	-48.11581
745.077	-2.00478
745.503	-56.13075
745.929	-21.04802
746.355	-66.15543
746.781	-54.12905
747.207	-13.02967
747.632	-8.01886
748.058	-51.12162
748.483	-40.08716
748.908	-9.02144
749.334	4.00938
749.759	-82.18656
750.184	-95.21993
750.609	1.00233
751.033	-63.14028
751.458	-5.01075
751.883	-41.09706
752.307	0
752.732	8.01944
753.156	-50.11912
753.58	-61.13881
754.005	38.09261
754.429	-90.20169
754.853	-30.07191
755.277	-20.04565
755.7	-12.02845
756.124	-34.08252
756.548	-26.05956
756.971	-23.05354
757.394	-33.08206
757.818	-25.06262
758.241	-39.09493
758.664	-27.0665
759.087	0
759.51	-15.0358
759.933	-7.01626
760.356	23.05623
760.778	47.11174
761.201	-75.17308
761.623	-50.11449
762.046	-52.11519
762.468	5.01136
762.89	-10.02361
763.312	-53.12367
763.734	-19.04406
764.156	-21.05002
764.578	-43.09348
765	-15.03504
765.421	11.02735
765.843	0
766.264	-42.09648
766.686	22.05322
767.107	6.01408
767.528	-10.02469
767.949	-12.02932
768.37	-35.08225
768.791	10.02286
769.212	13.03184
769.632	-70.15739
770.053	-14.0357
770.473	-22.05149
770.894	-45.10707
771.314	-15.03368
771.734	-63.1404
772.154	-3.00741
772.575	-14.03077
772.994	-9.01953
773.414	-78.17667
773.834	-31.07523
774.254	-16.03728
774.673	-13.03007
775.093	-51.12302
775.512	-2.00476
775.931	23.05636
776.351	-63.15036
776.77	3.00705
777.189	-40.09045
777.607	-60.14934
778.026	14.03357
778.445	-9.02198
778.864	-21.05152
779.282	-19.04327
779.701	-71.17385
780.119	-37.08962
780.537	-44.10571
780.955	-2.00485
781.373	-41.09748
781.791	9.01928
782.209	8.01754
782.627	-26.06666
783.045	-26.05704
783.462	-36.08807
783.88	23.05732
784.297	-9.02173
784.715	8.02005
785.132	-59.13762
785.549	14.03392
785.966	-45.10871
786.383	34.08001
786.8	17.03738
787.217	-14.03155
787.633	-30.0723
788.05	-55.1215
788.466	-3.00664
788.883	6.01483
789.299	-70.16093
789.715	26.06044
790.131	-30.0712
790.547	-59.1393
790.963	-27.06436
791.379	-1.00243
791.795	-14.0302
792.21	-35.07777
792.626	-16.03609
793.041	-24.05632
793.457	-43.10156
793.872	-23.0517
794.287	6.01401
794.702	-57.13437
795.117	-91.21793
795.532	-18.0439
795.947	-35.07952
796.362	-23.05168
796.776	-50.10789
797.191	-56.13121
797.605	0
798.02	-9.0211
798.434	-4.00829
798.848	-37.08681
799.262	-38.0923
799.676	-22.05064
800.09	-62.14607
800.504	-9.02075
800.918	-38.08358
801.331	-37.09268
801.745	-51.1113
802.158	-40.09585
802.572	-19.0436
802.985	-33.075
803.398	-13.02946
803.811	-29.07098
804.224	-12.02835
804.637	-83.18726
805.05	-30.06598
805.462	-18.04196
805.875	12.0304
806.288	16.03708
806.7	-10.024
807.112	-43.09495
807.525	-4.00945
807.937	-38.09033
808.349	-27.06444
808.761	-73.17028
809.173	-64.14714
809.584	-59.13914
809.996	9.02107
810.408	-44.11031
810.819	-61.13802
811.231	-21.0537
811.642	7.01657
812.053	16.03676
812.464	-8.01827
812.875	-11.02701
813.286	-32.07886
813.697	-54.11677
814.108	-43.09927
814.519	-28.05832
814.929	-38.09185
815.34	-15.03451
815.75	-43.10513
816.16	-68.16002
816.571	20.04956
816.981	-53.11738
817.391	-84.19451
817.801	0
818.211	16.03614
818.62	-47.1079
819.03	-43.09947
819.44	6.01488
819.849	2.00482
820.259	29.07069
820.668	8.01895
821.077	-51.12228
821.486	-75.17101
821.895	-33.07613
822.304	-21.05362
822.713	-22.04912
823.122	-4.00958
823.531	4.00902
823.939	-19.04421
824.348	17.0392
824.756	-27.06429
825.164	-38.09071
825.573	-2.00478
825.981	13.03056
826.389	-55.13066
826.797	-52.12546
827.205	-28.06086
827.612	-24.05593
828.02	-35.07916
828.428	-40.09731
828.835	-54.13796
829.243	-44.09942
829.65	-10.0238
830.057	29.06717
830.464	-2.00469
830.871	1.00225
831.278	-67.1537
831.685	-55.11453
832.092	-4.00935
832.499	-61.12549
832.905	-36.08777
833.312	-26.05543
833.718	-27.0638
834.124	-15.03242
834.531	-19.04538
834.937	-53.12944
835.343	14.0319
835.749	-21.04577
836.155	-14.03501
836.561	-73.16907
836.966	22.05048
837.372	-4.00965
837.777	-81.19324
838.183	-74.15193
838.588	10.0237
838.993	-58.13324
839.399	-48.11168
839.804	-39.09208
840.209	18.044
840.613	31.06495
841.018	-69.16619
841.423	-36.08744
841.828	-28.0676
842.232	-22.05076
842.637	-65.14371
843.041	-12.02997
843.445	-45.10694
843.849	-13.03062
844.253	-30.06684
844.657	-26.06327
845.061	1.00213
845.465	49.11376
845.869	-46.10079
846.272	-49.11412
846.676	12.02747
847.079	-4.00979
847.483	42.09814
847.886	-32.07248
848.289	-28.07331
848.692	-24.05786
849.095	-6.01343
849.498	-4.0094
849.901	-43.09221
850.304	-40.08997
850.707	-21.05092
851.109	-55.13046
851.512	-2.0047
851.914	45.10957
852.316	10.02411
852.718	-14.03511
853.121	-4.0093
853.523	-31.06834
853.925	-64.16184
854.326	9.02166
854.728	-24.0591
855.13	-10.0249
855.531	18.04128
855.933	-37.08399
856.334	-27.06471
856.736	-68.14327
857.137	-83.18474
857.538	-31.07458
857.939	-20.04747
858.34	-37.08508
858.741	-45.113
859.142	-16.03652
859.542	47.12052
859.943	0
860.343	-47.11238
860.744	-23.05356
861.144	-20.04629
861.544	24.05529
861.945	-57.13853
862.345	-94.2168
862.745	-19.04495
863.145	-24.05296
863.544	24.05817
863.944	-21.04664
864.344	-58.13574
864.743	30.07005
865.143	-16.03924
865.542	-53.11615
865.941	10.02367
866.34	-18.04085
866.74	-41.10609
867.139	-11.02513
867.537	-2.00481
867.936	-27.06199
868.335	24.05834
868.734	-8.01974
869.132	5.011
869.531	-29.06631
869.929	29.06243
870.327	7.01581
870.726	37.08627
871.124	-27.05892
871.522	-66.16001
871.92	5.01162
872.318	-11.02556
872.715	9.0209
873.113	1.00231
873.511	-4.00948
873.908	5.01232
874.306	8.01893
874.703	9.02125
875.1	-52.12655
875.497	-30.0677
875.894	17.04014
876.291	15.03503
876.688	-21.05167
877.085	-17.03831
877.482	-51.12102
877.878	-4.00913
878.275	-27.0652
878.671	-39.07893
879.068	26.05867
879.464	-2.00458
879.86	-12.02722
880.256	-35.08093
880.652	-16.03872
881.048	-23.05335
881.444	-55.12247
881.84	-25.06026
882.236	4.00956
882.631	-24.0561
883.027	-46.10402
883.422	5.01212
883.817	-9.02183
884.213	-4.0098
884.608	13.03049
885.003	25.05684
885.398	-32.07644
885.793	-38.09057
886.188	10.02387
886.582	-63.15191
886.977	9.01999
887.371	-27.06501
887.766	-35.08401
888.16	20.04717
888.554	-16.03699
888.949	-76.1803
889.343	-52.11917
889.737	-18.04695
890.131	-22.05288
890.525	-46.11232
890.918	-13.03144
891.312	-62.13831
891.706	16.04034
892.099	-13.03132
892.492	28.05575
892.886	-70.1628
893.279	-2.00485
893.672	-26.06351
894.065	-29.06881
894.458	-22.05254
894.851	-79.18217
895.244	-10.02438
895.637	-4.00912
896.029	-6.01387
896.422	-18.04142
896.814	18.04234
897.206	-8.01824
897.599	-52.1196
897.991	19.04338
898.383	-35.0779
898.775	-67.14274
899.167	-38.08509
899.559	-25.05989
899.951	14.03079
900.342	-55.13141
900.734	16.0385
901.125	-28.06961
901.517	24.05579
901.908	-16.03577
902.299	-46.10787
902.69	-5.01112
903.082	36.08147
903.473	-9.02063
903.863	-1.00246
904.254	-27.05877
904.645	-33.07682
905.036	-8.01866
905.426	-99.20899
905.817	8.0185
906.207	-77.17678
906.597	-49.10933
906.987	-62.15223
907.378	-48.11541
907.768	-21.05349
908.158	2.00462
908.547	-27.06707
908.937	-38.09279
909.327	-34.07792
909.717	-47.11281
910.106	-51.11666
910.495	6.01426
910.885	-110.26458
911.274	9.0214
911.663	23.05571
912.052	-13.03005
912.441	22.0535
912.83	-45.09696
913.219	-45.11153
913.608	-41.09545
913.997	-72.17345
914.385	-54.12091
914.774	-54.12464
915.162	-57.12855
915.55	14.03183
915.939	-30.07268
916.327	-59.14076
916.715	-40.09865
917.103	30.06856
917.491	-87.20333
917.878	-69.15917
918.266	-39.0967
918.654	1.00246
919.041	-82.2075
919.429	-22.0493
919.816	-27.06481
920.203	-31.07146
920.591	-39.09129
920.978	-6.01382
921.365	-50.12553
921.752	-26.05896
922.139	38.07657
922.525	-27.06139
922.912	-14.03212
923.299	-2.00474
923.685	-56.14075
924.072	-36.07708
924.458	-4.00939
924.844	-64.15142
925.231	-62.13591
925.617	10.02458
926.003	-2.00485
926.389	-3.00726
926.774	-37.09006
927.16	4.00932
927.546	-4.00976
927.931	-15.03548
928.317	-52.11081
928.702	-38.08414
929.088	-34.07657
929.473	-7.01696
929.858	-7.01635
930.243	21.04767
930.628	-53.12241
931.013	12.02849
931.398	16.03384
931.783	-3.00753
932.167	-41.09469
932.552	-79.18717
932.937	-8.01844
933.321	-31.07376
933.705	12.02898
934.09	-33.07806
934.474	-27.06039
934.858	17.04207
935.242	-6.01329
935.626	-48.11716
936.009	-10.02542
936.393	-15.03672
936.777	16.03921
937.16	-53.13064
937.544	21.04593
937.927	9.02173
938.311	-4.00912
938.694	-14.03535
939.077	-28.06285
939.46	-4.00931
939.843	-41.078
940.226	-48.11725
940.609	-48.10349
940.991	-4.00967
941.374	-66.15319
941.757	8.01854
942.139	-44.09209
942.522	-46.10126
942.904	-7.01592
943.286	-23.05504
943.668	-7.01725
944.05	-18.04198
944.432	16.03737
944.814	-16.03689
945.196	-10.02341
945.578	-17.03875
945.959	-3.00662
946.341	-13.02946
946.722	28.06156
947.104	-16.03571
947.485	7.01518
947.866	-13.03145
948.247	-47.11354
948.628	-4.00912
949.009	-34.08361
949.39	-84.19644
949.771	-2.00431
950.152	-33.07746
950.532	11.02644
950.913	-38.08575
951.293	-13.03406
951.674	-50.11394
952.054	-70.16703
952.434	-24.05601
952.814	-34.07497
953.194	-5.01251
953.574	-26.05968
953.954	-23.05157
954.334	-22.05241
954.714	-54.12603
955.093	-42.09668
955.473	-77.18335
955.853	-14.03473
956.232	-27.07126
956.611	-81.18148
956.99	-22.05288
957.37	-73.17888
957.749	-38.08481
958.128	-6.01452
958.506	11.02738
958.885	-46.11031
959.264	-38.08879
959.643	-32.06863
960.021	-75.17858
960.4	-8.01724
960.778	-46.1055
961.156	-40.09563
961.535	-65.13993
961.913	-61.13211
962.291	-43.10728
962.669	-13.03143
963.047	-33.07924
963.424	-3.00731
963.802	-84.19582
964.18	14.03315
964.557	-25.05305
964.935	-10.02215
965.312	-3.0075
965.69	-16.03772
966.067	-42.09625
966.444	-10.02326
966.821	-12.02924
967.198	-67.15222
967.575	-27.06211
967.952	1.00221
968.329	-27.06189
968.705	4.00777
969.082	48.11686
969.458	-11.02528
969.835	-18.0413
970.211	-29.07119
970.587	9.02113
970.963	-17.04139
971.339	8.02007
971.715	-50.11697
972.091	13.03
972.467	-68.15921
972.843	-27.06372
973.219	-49.1096
973.594	-78.19745
973.97	-28.06187
974.345	-22.04965
974.721	-18.04082
975.096	-24.05429
975.471	-17.0381
975.846	36.08144
976.221	3.00724
976.596	-60.13706
976.971	20.04642
977.346	-51.1104
977.72	-37.08976
978.095	7.01723
978.469	-18.04059
978.844	-17.0404
979.218	-32.07342
979.593	19.04268
979.967	12.02767
980.341	-41.08822
980.715	-35.08347
981.089	-63.14909
981.463	47.10122
981.837	-22.05141
982.21	-5.01077
982.584	-18.04079
982.957	-6.01433
983.331	3.00664
983.704	39.09047
984.078	-18.04171
984.451	-62.14362
984.824	-70.16459
985.197	-37.08484
985.57	-12.02819
985.943	-37.08471
986.316	14.03225
986.688	-50.1138
987.061	-34.07421
987.434	-4.00995
987.806	-6.01361
988.179	2.00439
988.551	-42.10076
988.923	-30.0698
989.295	29.06778
989.667	13.02983
990.039	-35.08273
990.411	-14.03053
990.783	-13.02784
991.155	0
991.527	-3.00679
991.898	-44.1037
992.27	-49.11587
992.641	4.00941
993.012	41.09031
993.384	-52.11778
993.755	-23.0555
994.126	-44.10063
994.497	-47.10967
994.868	12.02578
995.239	-1.0023
995.61	-72.17318
995.98	-18.04183
996.351	-23.05456
996.722	-49.10856
997.092	2.0045
997.462	-9.02003
997.833	17.03741
998.203	-14.03176
998.573	-25.05967
998.943	-76.16737
999.313	-33.07534
999.683	-51.11493
1000.053	56.11959
1000.423	-26.05977
1000.792	-32.07947
1001.162	1.00234
1001.531	14.0327
1001.901	-18.04228
1002.27	5.01046
1002.639	-12.02928
1003.009	37.08331
1003.378	-27.06599
1003.747	-32.07097
1004.116	-28.06381
1004.485	-8.01812
1004.853	-29.07001
1005.222	-52.12683
1005.591	-35.07771
1005.959	-29.06235
1006.328	-55.11621
1006.696	-19.04367
1007.064	-25.05987
1007.433	2.00475
1007.801	1.00229
1008.169	-36.08587
1008.537	-22.04568
1008.905	-13.0286
1009.273	23.05325
1009.64	-13.02944
1010.008	-5.01116
1010.375	22.04985
1010.743	-14.02946
1011.11	-30.06729
1011.478	-8.01866
1011.845	-52.11365
1012.212	-61.12889
1012.579	-21.04898
1012.946	-44.0973
1013.313	-9.02003
1013.68	-14.02909
1014.047	-33.07567
1014.414	-16.03597
1014.78	-26.06204
1015.147	-8.0179
1015.513	5.01152
1015.88	-8.0191
1016.246	22.05112
1016.612	-4.00844
1016.978	-36.08333
1017.344	1.00236
1017.71	-42.09482
1018.076	2.0044
1018.442	-32.07814
1018.808	-1.00237
1019.174	-50.11894
1019.539	-16.03329
1019.905	-11.02457
1020.27	1.00236
1020.636	13.02909
1021.001	-28.06277
1021.366	42.09606
1021.731	-24.05913
1022.096	-9.02178
1022.461	-90.20069
1022.826	-17.03812
1023.191	-19.04769
1023.556	-52.11346
1023.92	-57.13175
1024.285	-23.05278
1024.649	-26.06037
1025.014	37.08563
1025.378	54.1287
1025.742	8.01869
1026.107	-6.01247
1026.471	-23.04917
1026.835	-40.09314
1027.199	-48.11053
1027.562	30.06526
1027.926	3.00687
1028.29	-14.03376
1028.654	-81.17482
1029.017	7.01626
1029.381	-36.08187
1029.744	-50.123
1030.107	-58.12735
1030.471	-39.08792
1030.834	-60.12624
1031.197	-39.08731
1031.56	-10.02244
1031.923	-30.07396
1032.286	13.02824
1032.648	-5.01113
1033.011	-36.07805
1033.374	-41.0894
1033.736	-39.09829
1034.099	-65.15209
1034.461	-7.01695
1034.823	-45.10616
1035.185	-95.22638
1035.548	-33.07585
1035.91	-6.01363
1036.272	-1.00212
1036.634	-67.15394
1036.995	15.03329
1037.357	-33.07634
1037.719	-38.08743
1038.08	-69.15249
1038.442	22.04991
1038.803	21.04672
1039.165	-18.04323
1039.526	-35.08016
1039.887	-5.01134
1040.248	-31.07427
1040.609	-32.0748
1040.97	-20.04613
1041.331	-58.13781
1041.692	-37.08239
1042.053	-12.0252
1042.413	-7.01505
1042.774	-14.0319
1043.134	-1.0022
1043.495	-32.07583
1043.855	-19.04355
1044.215	4.00932
1044.576	-42.09602
1044.936	-13.02803
1045.296	-61.14441
1045.656	-13.03008
1046.016	11.02449
1046.375	-14.03235
1046.735	-23.0496
1047.095	-35.07738
1047.454	-24.04696
1047.814	-20.04493
1048.173	-40.08838
1048.533	-40.08687
1048.892	-59.13605
1049.251	16.03781
1049.61	-91.21218
1049.969	12.02667
1050.328	-26.05157
1050.687	-65.1503
1051.046	-17.03945
1051.405	-48.11198
1051.763	-35.07622
1052.122	-44.10583
1052.48	-57.13212
1052.839	-7.01548
1053.197	-46.10258
1053.555	-111.23154
1053.914	-20.04596
1054.272	-16.03627
1054.63	-104.24273
1054.988	-55.12358
1055.345	-67.13336
1055.703	-18.04034
1056.061	-21.05152
1056.419	-31.07712
1056.776	20.04511
1057.134	-62.13533
1057.491	-52.12375
1057.848	-42.09868
1058.206	-24.05296
1058.563	-48.10046
1058.92	-19.04048
1059.277	-38.08715
1059.634	-52.11288
1059.991	50.11177
1060.348	-22.04706
1060.704	-85.19405
1061.061	-59.12614
1061.418	-1.0023
1061.774	-5.01184
1062.131	27.06938
1062.487	-79.17408
1062.843	-22.05189
1063.199	8.01888
1063.555	14.03052
1063.911	-57.13692
1064.267	-60.11305
1064.623	18.04153
1064.979	-89.19505
1065.335	-56.12441
1065.691	-2.00455
1066.046	-24.04858
1066.402	-59.12635
1066.757	48.1137
1067.112	-36.08263
1067.468	28.06288
1067.823	-1.00227
1068.178	2.00458
1068.533	-21.04757
1068.888	-20.0444
1069.243	-19.04463
1069.598	-60.13623
1069.952	-3.00643
1070.307	4.00952
1070.662	-44.09929
1071.016	-18.03814
1071.371	-27.05725
1071.725	-110.24478
1072.079	-18.04067
1072.434	-19.0435
1072.788	6.0135
1073.142	58.13414
1073.496	-10.02231
1073.85	-4.00864
1074.203	-19.04325
1074.557	-27.06935
1074.911	-39.0867
1075.265	-58.12564
1075.618	8.01842
1075.971	-15.03332
1076.325	-33.07999
1076.678	-58.12537
1077.031	-44.09331
1077.385	12.02464
1077.738	-28.05941
1078.091	-8.0173
1078.444	-45.09687
1078.796	-4.00933
1079.149	-14.03243
1079.502	-35.07829
1079.855	-31.06848
1080.207	-6.01388
1080.56	-41.10121
1080.912	-70.15958
1081.264	-24.05447
1081.617	-22.05084
1081.969	-11.02687
1082.321	-67.15616
1082.673	-24.05216
1083.025	-96.2154
1083.377	-276.57099
1083.728	-54.11627
1084.08	-4.0095
1084.432	-79.17722
1084.783	54.11827
1085.135	24.05751
1085.486	-47.10244
1085.838	-21.04895
1086.189	-40.09196
1086.54	-43.09706
1086.891	-13.03169
1087.242	-82.18912
1087.593	-3.00679
1087.944	-24.05059
1088.295	-15.03139
1088.646	-23.05276
1088.996	-60.13717
1089.347	-35.08077
1089.698	-10.02247
1090.048	-38.09348
1090.398	21.04556
1090.749	5.01125
1091.099	8.01924
1091.449	-30.07032
1091.799	-23.05445
1092.149	-3.00708
1092.499	-52.12113
1092.849	-28.06789
1093.199	-20.04717
1093.548	-46.10559
1093.898	-41.09796
1094.248	-37.09066
1094.597	-13.03209
1094.947	-30.07656
1095.296	-15.03481
1095.645	5.01227
1095.994	-2.00454
1096.343	46.10989
1096.692	-55.14069
1097.041	-35.09203
1097.39	-15.03548
1097.739	-2.00497
1098.088	-32.08115
1098.437	-39.09888
1098.785	-29.07457
1099.134	-82.20728
1099.482	-83.21964
1099.83	-13.03241
1100.179	36.09029
1100.527	-52.13182
1100.875	-26.06582
1101.223	-10.0256
1101.571	-34.09119
1101.919	-69.17575
1102.267	-2.00549
1102.615	7.02249
1102.962	1.00321
1103.31	7.02247
1103.658	-2.00641
