Data from N3 R6 sample 12_Subt2__0__15-27-07-528.txt Node

Date: Fri Sep 19 15:27:07 PDT 2025
User: uwsun
Spectrometer: HDX01956
Trigger mode: 0
Integration Time (sec): 5.000000E-1
Scans to average: 1
Nonlinearity correction enabled: true
Boxcar width: 0
Storing dark spectrum: false
XAxis mode: Wavelengths
Number of Pixels in Spectrum: 2068
>>>>>Begin Spectral Data<<<<<
194.03	-3.00872
194.578	13.04222
195.127	8.02565
195.676	-10.03211
196.225	-9.02382
196.773	29.08066
197.321	31.08617
197.87	41.10554
198.418	48.12461
198.966	89.23346
199.513	62.15806
200.061	31.07888
200.609	64.16814
201.156	-33.07232
201.704	32.08049
202.251	49.12984
202.798	47.12262
203.345	89.21841
203.892	3.00761
204.438	55.13111
204.985	31.07415
205.532	148.39157
206.078	36.08862
206.624	23.05726
207.17	70.16125
207.716	-6.01457
208.262	44.08625
208.808	26.06504
209.354	18.04403
209.899	55.13766
210.445	91.22678
210.99	54.13053
211.535	47.11006
212.08	75.17246
212.625	41.10244
213.17	65.16322
213.715	39.08799
214.259	90.20865
214.804	36.08826
215.348	66.14967
215.892	98.2333
216.436	68.15715
216.98	18.03946
217.524	9.02136
218.068	69.17233
218.612	6.01501
219.155	30.07043
219.698	23.0542
220.242	69.1697
220.785	59.13708
221.328	56.13882
221.871	53.13304
222.414	-2.00492
222.956	32.07735
223.499	35.07822
224.041	14.03201
224.583	47.09957
225.126	36.08024
225.668	45.10888
226.21	21.05266
226.751	-25.05428
227.293	14.03154
227.835	0
228.376	42.09493
228.918	69.17171
229.459	11.02773
230	30.07093
230.541	-4.00915
231.082	69.16531
231.622	18.0413
232.163	69.16688
232.704	23.05663
233.244	45.11064
233.784	41.0986
234.324	39.0863
234.864	10.02247
235.404	21.0491
235.944	15.03502
236.484	27.06614
237.023	27.0637
237.563	-36.08359
238.102	56.13055
238.641	77.19342
239.18	13.03055
239.719	49.12287
240.258	54.11892
240.797	53.12615
241.335	0
241.874	64.12202
242.412	11.02622
242.95	76.18079
243.488	13.02957
244.026	55.12576
244.564	104.20792
245.102	22.04916
245.64	89.20964
246.177	37.0815
246.715	48.11247
247.252	7.01582
247.789	26.04555
248.326	-17.04051
248.863	30.06479
249.4	99.22272
249.936	23.04674
250.473	5.01167
251.009	68.15514
251.546	46.10071
252.082	113.24346
252.618	50.11108
253.154	41.09763
253.69	42.09323
254.226	22.05199
254.761	8.01763
255.297	39.08489
255.832	24.0561
256.367	33.07661
256.903	17.03682
257.438	-35.08158
257.972	18.03944
258.507	41.09435
259.042	-20.04249
259.576	15.03229
260.111	23.05249
260.645	71.15153
261.179	35.08039
261.713	11.02417
262.247	44.10152
262.781	76.15765
263.315	51.12372
263.849	63.15558
264.382	65.14599
264.915	46.10749
265.449	31.07551
265.982	19.04234
266.515	46.11115
267.048	55.11549
267.58	34.07211
268.113	69.1479
268.646	66.1623
269.178	58.12794
269.71	72.15336
270.243	62.13923
270.775	62.15605
271.307	26.06114
271.838	63.14608
272.37	71.17294
272.902	106.23705
273.433	-20.04347
273.965	91.22025
274.496	22.05374
275.027	32.07837
275.558	56.13398
276.089	60.14912
276.62	38.09534
277.15	66.16001
277.681	25.05273
278.211	57.13671
278.741	81.17729
279.272	27.06132
279.802	82.20209
280.332	21.04937
280.861	77.18229
281.391	-7.0158
281.921	43.10101
282.45	95.23606
282.98	43.11165
283.509	30.06684
284.038	24.05334
284.567	45.10178
285.096	89.21175
285.625	54.123
286.153	46.10639
286.682	1.00227
287.21	32.07639
287.739	45.10443
288.267	48.11576
288.795	73.18889
289.323	114.2645
289.851	22.05096
290.378	62.13751
290.906	44.10652
291.433	98.24027
291.961	58.12875
292.488	62.15268
293.015	46.10842
293.542	45.11263
294.069	69.16738
294.596	89.21622
295.122	54.12772
295.649	99.21596
296.175	54.12757
296.702	49.11627
297.228	49.11582
297.754	55.12171
298.28	29.06522
298.806	74.17671
299.332	27.05942
299.857	55.12221
300.383	64.15848
300.908	96.23152
301.433	119.28465
301.958	41.09209
302.483	98.24409
303.008	88.21215
303.533	66.16677
304.058	76.17563
304.582	108.25077
305.107	85.22054
305.631	85.18856
306.155	105.24251
306.679	86.19866
307.203	102.233
307.727	87.20461
308.251	88.21343
308.775	89.2076
309.298	107.25409
309.822	107.26481
310.345	98.22818
310.868	100.23468
311.391	86.20795
311.914	97.23989
312.437	83.18435
312.96	102.23722
313.482	99.23174
314.005	57.14195
314.527	111.28751
315.049	109.26858
315.571	138.30696
316.093	121.29583
316.615	134.31863
317.137	83.17621
317.659	99.23328
318.18	115.27267
318.702	151.34263
319.223	102.20525
319.744	173.37786
320.265	105.25165
320.786	173.41682
321.307	146.35675
321.828	160.35516
322.348	172.39542
322.869	60.13822
323.389	103.18926
323.909	152.3402
324.43	145.33782
324.95	163.3649
325.47	146.35277
325.989	187.43583
326.509	125.27129
327.029	151.33218
327.548	132.29252
328.067	170.39847
328.587	187.45327
329.106	183.40139
329.625	140.35338
330.144	141.31461
330.662	144.32655
331.181	181.41203
331.7	204.46016
332.218	206.43458
332.736	190.42665
333.255	205.46043
333.773	176.40591
334.291	163.39154
334.808	171.367
335.326	180.39506
335.844	241.54461
336.361	175.43103
336.879	185.4179
337.396	201.46329
337.913	179.39708
338.43	272.58917
338.947	219.50357
339.464	238.48796
339.981	251.57368
340.497	260.61536
341.014	206.48077
341.53	239.52333
342.046	289.67776
342.562	259.61737
343.078	252.5654
343.594	307.69939
344.11	285.64245
344.626	319.76589
345.141	301.65573
345.657	206.44469
346.172	280.63879
346.687	302.65945
347.202	263.56347
347.717	308.69784
348.232	296.70596
348.747	280.61219
349.261	325.68335
349.776	311.68614
350.29	331.77715
350.805	325.75144
351.319	315.69525
351.833	313.67695
352.347	281.61736
352.861	297.65745
353.374	302.65107
353.888	310.70294
354.401	331.71404
354.915	383.80493
355.428	399.92835
355.941	362.79245
356.454	360.75243
356.967	384.84876
357.48	333.71558
357.993	351.80993
358.505	380.8791
359.018	395.88745
359.53	335.75607
360.042	357.72615
360.554	380.85253
361.066	349.79409
361.578	406.82412
362.09	373.82978
362.602	336.69449
363.113	361.76773
363.625	410.86072
364.136	412.83209
364.647	364.79279
365.158	446.95692
365.669	455.01558
366.18	355.76219
366.691	465.93332
367.201	390.85878
367.712	401.82939
368.222	482.01665
368.733	498.9864
369.243	409.8213
369.753	501.03621
370.263	442.95692
370.773	525.17355
371.282	506.08185
371.792	493.01508
372.301	501.1
372.811	520.22641
373.32	492.93761
373.829	590.24596
374.338	561.1061
374.847	583.17488
375.356	661.38238
375.865	645.18392
376.373	701.36582
376.882	675.49253
377.39	706.47563
377.898	702.51644
378.407	726.37341
378.915	799.42167
379.423	829.64009
379.93	853.58386
380.438	996.97412
380.946	967.82711
381.453	954.85827
381.96	974.86321
382.468	1132.08982
382.975	1260.34306
383.482	1204.02864
383.989	1211.40097
384.495	1326.23175
385.002	1415.05242
385.509	1434.36274
386.015	1623.08998
386.521	1523.29504
387.028	1712.49452
387.534	1747.33359
388.04	1776.67421
388.546	1863.4789
389.051	1960.47975
389.557	2177.7996
390.063	2260.82603
390.568	2306.92901
391.073	2490.7139
391.578	2517.0139
392.084	2518.58962
392.589	2740.53391
393.093	3004.82768
393.598	3268.56137
394.103	3503.73635
394.607	3767.55556
395.112	4072.62051
395.616	4411.26443
396.12	4713.7708
396.624	5264.50851
397.128	5746.40118
397.632	6310.02996
398.136	6736.00461
398.639	7422.32251
399.143	8539.5646
399.646	9556.77116
400.15	10416.80218
400.653	11857.1996
401.156	13472.87519
401.659	15606.17091
402.162	19821.77824
402.664	28285.6241
403.167	49253.16913
403.67	59090.74243
404.172	55487.84425
404.674	37291.05854
405.176	4428.40989
405.678	533.47942
406.18	0
406.682	0
407.184	6962.89417
407.686	50953.82939
408.187	59237.6763
408.688	46854.84883
409.19	35397.90209
409.691	29242.21141
410.192	24925.87234
410.693	22123.41855
411.194	20431.416
411.694	19319.3617
412.195	17673.63056
412.696	16263.59082
413.196	15704.18016
413.696	15726.13962
414.196	15905.45339
414.696	14900.88031
415.196	14041.14601
415.696	11698.20359
416.196	9167.82459
416.695	7457.22572
417.195	6891.11099
417.694	6642.44964
418.194	6126.54662
418.693	5858.03949
419.192	5740.33223
419.691	5750.33343
420.19	5421.52066
420.688	5213.86541
421.187	4902.94513
421.685	4651.85713
422.184	4086.26136
422.682	3502.21268
423.18	3076.65794
423.678	2757.66388
424.176	2520.67826
424.674	2413.47737
425.172	2256.7537
425.669	2123.96316
426.167	1903.56481
426.664	1790.45399
427.161	1692.39765
427.659	1582.5871
428.156	1461.0241
428.652	1324.4189
429.149	1278.2424
429.646	1224.90617
430.143	1166.08449
430.639	1121.99323
431.135	1010.94427
431.632	976.72268
432.128	958.82815
432.624	878.81202
433.12	906.64456
433.616	867.49604
434.111	882.69833
434.607	751.48974
435.103	707.19924
435.598	725.21525
436.093	660.28794
436.588	653.23537
437.083	587.12872
437.578	601.16568
438.073	534.15363
438.568	544.1537
439.062	561.02168
439.557	467.96026
440.051	477.95033
440.546	475.95779
441.04	454.94804
441.534	489.10104
442.028	485.02322
442.522	427.91952
443.015	438.84483
443.509	474.03079
444.002	419.9232
444.496	342.66219
444.989	400.8878
445.482	365.82141
445.975	392.80551
446.468	387.74412
446.961	372.70546
447.454	323.6537
447.947	359.78472
448.439	357.79782
448.931	330.67842
449.424	322.73044
449.916	291.64094
450.408	362.75326
450.9	286.63825
451.392	340.78877
451.884	234.49061
452.375	231.53031
452.867	301.6181
453.358	234.48649
453.849	302.5811
454.341	296.61127
454.832	293.57695
455.323	295.66282
455.814	267.56041
456.304	299.62619
456.795	244.50909
457.285	209.42667
457.776	215.4445
458.266	254.56286
458.756	228.50188
459.247	210.46381
459.737	249.55603
460.226	220.45942
460.716	218.48731
461.206	164.36555
461.695	244.57057
462.185	212.46881
462.674	250.52276
463.163	199.40551
463.653	212.41362
464.142	183.41068
464.63	202.45993
465.119	262.56411
465.608	220.46758
466.096	210.4253
466.585	186.39428
467.073	177.39215
467.561	240.54379
468.05	164.35357
468.538	209.48537
469.026	192.43309
469.513	114.22728
470.001	161.34196
470.489	118.26476
470.976	177.38217
471.463	204.48003
471.951	164.38636
472.438	157.34857
472.925	116.25481
473.412	149.34138
473.899	179.38649
474.385	118.27529
474.872	115.25362
475.359	129.29888
475.845	123.24026
476.331	123.24916
476.817	89.20482
477.303	82.18187
477.789	121.27612
478.275	153.3601
478.761	102.2329
479.247	111.23391
479.732	107.25663
480.218	115.28555
480.703	165.39242
481.188	66.13446
481.673	78.17163
482.158	92.18854
482.643	111.26896
483.128	1.00221
483.612	52.11629
484.097	76.17787
484.581	9.01993
485.066	67.15548
485.55	38.0796
486.034	49.10326
486.518	87.19605
487.002	28.06653
487.486	69.16215
487.969	91.21601
488.453	76.18509
488.936	40.08653
489.42	100.21096
489.903	53.12891
490.386	46.09529
490.869	16.03307
491.352	10.02358
491.835	2.00395
492.318	32.07035
492.8	18.03559
493.283	66.16313
493.765	16.0385
494.247	8.01795
494.73	18.03851
495.212	29.06746
495.694	22.04989
496.175	-8.01859
496.657	117.26775
497.139	-58.09447
497.62	47.10864
498.102	38.09189
498.583	-10.02414
499.064	45.09829
499.545	-8.01777
500.026	12.02607
500.507	-22.04934
500.988	-12.02883
501.469	-44.10768
501.949	-2.00476
502.43	-50.11665
502.91	-2.004
503.39	5.01216
503.87	45.10265
504.35	-33.07528
504.83	-8.01711
505.31	35.0826
505.79	10.02329
506.269	-48.10938
506.749	-3.00666
507.228	16.0365
507.707	45.09596
508.187	8.01839
508.666	-40.09599
509.145	-33.07561
509.623	-44.10132
510.102	-18.04246
510.581	-3.00698
511.059	32.07872
511.538	4.01005
512.016	17.03976
512.494	-21.04943
512.972	7.01636
513.45	-28.06455
513.928	-6.01425
514.406	4.00963
514.884	41.10377
515.361	12.02829
515.839	-24.05334
516.316	-4.00932
516.793	-19.04695
517.27	46.10842
517.747	-11.02772
518.224	-20.045
518.701	8.0174
519.178	-7.01733
519.654	-30.06836
520.131	-22.0528
520.607	-12.02909
521.083	6.01344
521.56	-44.10176
522.036	-16.03448
522.512	6.0144
522.987	-16.03772
523.463	-15.03508
523.939	26.06187
524.414	11.02448
524.89	-1.0023
525.365	-17.0381
525.84	16.03811
526.315	-59.13935
526.79	-27.05917
527.265	-49.10856
527.74	-52.12474
528.215	33.07573
528.689	21.04585
529.164	-63.13212
529.638	6.01511
530.112	-8.01872
530.587	-21.04455
531.061	14.03311
531.534	-16.03768
532.008	1.00236
532.482	-50.11053
532.956	12.03038
533.429	-63.14672
533.903	-25.05359
534.376	-49.10625
534.849	1.00227
535.322	-17.03931
535.795	-24.05753
536.268	20.04716
536.741	-26.06118
537.213	3.00679
537.686	-39.0929
538.158	-41.09073
538.631	-45.10682
539.103	-91.20288
539.575	-11.02228
540.047	-33.07098
540.519	-9.02083
540.991	-15.03558
541.463	-6.01428
541.934	-11.02471
542.406	-30.07054
542.877	-6.01319
543.348	-104.24378
543.82	-34.08169
544.291	-58.13126
544.762	-59.138
545.233	24.05932
545.703	-21.04579
546.174	-13.02977
546.645	18.04282
547.115	0
547.585	9.02047
548.056	8.01925
548.526	-19.04406
548.996	-3.00705
549.466	-58.13893
549.935	10.02355
550.405	35.07538
550.875	-14.03239
551.344	19.04488
551.814	-48.10704
552.283	-35.07421
552.752	-65.14965
553.221	-29.062
553.69	-9.01968
554.159	-31.07636
554.628	-1.00219
555.096	-40.09999
555.565	-29.06337
556.033	-33.07603
556.502	-51.12158
556.97	-36.07805
557.438	-28.06522
557.906	5.01157
558.374	-26.05848
558.842	-28.06594
559.31	-5.01084
559.777	-19.04538
560.245	-53.12119
560.712	-57.12787
561.18	-9.01937
561.647	-18.03919
562.114	-23.05149
562.581	19.04583
563.048	2.00443
563.514	48.11489
563.981	-19.04238
564.448	10.02194
564.914	-4.00906
565.381	7.01526
565.847	-3.00682
566.313	20.04504
566.779	29.06417
567.245	37.08406
567.711	54.12618
568.176	92.20371
568.642	113.27412
569.108	55.13116
569.573	75.16735
570.038	148.29589
570.504	97.21142
570.969	116.27753
571.434	156.32722
571.899	147.33464
572.363	133.28717
572.828	180.38373
573.293	190.4105
573.757	211.45734
574.222	202.42913
574.686	185.39379
575.15	198.44553
575.614	247.52484
576.078	248.54039
576.542	259.54962
577.006	274.57574
577.469	255.58211
577.933	234.48345
578.396	347.76266
578.86	289.62291
579.323	338.7368
579.786	285.56093
580.249	305.64017
580.712	310.69123
581.175	313.71219
581.637	364.7672
582.1	289.57577
582.563	202.39055
583.025	295.66091
583.487	264.48426
583.95	279.55249
584.412	250.47802
584.874	270.60553
585.336	264.58209
585.797	255.50567
586.259	207.44733
586.721	251.54798
587.182	230.49075
587.643	222.46792
588.105	247.54541
588.566	209.40825
589.027	205.46968
589.488	173.36873
589.949	193.43401
590.41	165.30517
590.87	153.32185
591.331	142.28337
591.791	114.24694
592.252	159.34345
592.712	146.33162
593.172	134.28554
593.632	105.21163
594.092	143.30028
594.552	94.19081
595.011	124.27296
595.471	103.21896
595.931	129.27113
596.39	110.25218
596.849	86.1909
597.308	171.34465
597.768	120.2917
598.227	156.35534
598.685	101.21649
599.144	106.23559
599.603	132.29593
600.062	81.16077
600.52	120.2546
600.978	137.31023
601.437	124.26734
601.895	112.22444
602.353	108.22403
602.811	123.25737
603.269	122.27542
603.727	124.28199
604.184	144.30632
604.642	82.19153
605.099	143.31128
605.557	183.41254
606.014	192.38279
606.471	174.4147
606.928	212.44055
607.385	184.4296
607.842	276.58838
608.299	168.36655
608.755	186.41939
609.212	249.51363
609.668	225.466
610.125	262.57816
610.581	227.48676
611.037	237.49481
611.493	238.5142
611.949	255.56754
612.405	290.53115
612.861	244.5179
613.316	275.6085
613.772	252.53278
614.227	335.71647
614.683	317.61099
615.138	313.67695
615.593	259.54674
616.048	248.51214
616.503	307.68666
616.958	285.65661
617.412	302.65051
617.867	299.60956
618.321	227.41817
618.776	280.56109
619.23	317.68238
619.684	293.59217
620.138	243.50464
620.592	286.63138
621.046	301.63623
621.5	270.59906
621.954	269.54591
622.407	272.54758
622.861	247.5429
623.314	252.52508
623.768	264.56451
624.221	223.40399
624.674	174.3682
625.127	228.49154
625.58	177.36397
626.033	208.41411
626.485	202.4467
626.938	155.34212
627.39	238.50848
627.843	140.30002
628.295	208.44438
628.747	215.47177
629.199	218.46131
629.651	164.34841
630.103	194.41448
630.555	158.3065
631.006	174.37867
631.458	113.24671
631.909	167.35223
632.361	174.37191
632.812	155.33567
633.263	144.28482
633.714	122.23927
634.165	91.20405
634.616	128.28342
635.067	161.32449
635.518	88.19485
635.968	164.29961
636.419	134.26653
636.869	144.31645
637.319	151.32478
637.769	170.35469
638.219	144.31498
638.669	127.28607
639.119	152.34441
639.569	220.49523
640.019	180.38273
640.468	85.17581
640.918	158.35305
641.367	127.26727
641.816	177.36758
642.265	117.25403
642.714	168.36422
643.163	106.22549
643.612	170.38691
644.061	108.21211
644.51	158.33756
644.958	137.28133
645.406	169.37958
645.855	143.32764
646.303	140.30377
646.751	142.30509
647.199	130.27148
647.647	194.41932
648.095	162.34386
648.543	176.32462
648.99	153.34449
649.438	181.39566
649.885	218.50457
650.333	118.20794
650.78	246.55761
651.227	185.42318
651.674	207.43717
652.121	119.26925
652.568	127.29145
653.015	146.33994
653.461	151.33678
653.908	148.32168
654.354	127.28079
654.801	110.24478
655.247	198.39732
655.693	150.36993
656.139	152.34062
656.585	180.4037
657.031	190.41718
657.477	190.38268
657.922	153.33276
658.368	118.27367
658.813	112.23877
659.259	106.24233
659.704	156.34354
660.149	126.27643
660.594	159.35433
661.039	134.28902
661.484	168.37524
661.929	130.28496
662.373	138.33432
662.818	143.33801
663.262	107.24329
663.707	115.2753
664.151	194.44814
664.595	138.31485
665.039	112.26294
665.483	151.36684
665.927	110.24305
666.371	111.24603
666.814	160.35708
667.258	164.36903
667.701	174.34045
668.145	141.32914
668.588	111.25973
669.031	177.39362
669.474	98.22386
669.917	127.26186
670.36	117.27355
670.803	172.38655
671.245	127.24819
671.688	130.29779
672.13	78.16549
672.573	197.47086
673.015	132.29763
673.457	220.44433
673.899	125.28421
674.341	164.37039
674.783	143.3254
675.225	179.4116
675.666	162.36811
676.108	153.31149
676.549	154.3397
676.991	161.32853
677.432	91.16763
677.873	126.27293
678.314	112.25233
678.755	157.36159
679.196	179.38467
679.637	120.27422
680.078	159.3461
680.518	117.25132
680.959	150.3367
681.399	145.33595
681.839	130.29803
682.28	172.40095
682.72	86.18557
683.16	181.42384
683.6	167.35331
684.039	126.24291
684.479	143.33158
684.919	140.30727
685.358	148.35192
685.798	130.32132
686.237	192.42973
686.676	173.37161
687.115	173.3785
687.554	142.31612
687.993	118.24007
688.432	230.48819
688.871	121.2579
689.309	221.50227
689.748	171.32863
690.186	104.23181
690.625	229.50439
691.063	166.37689
691.501	163.37885
691.939	151.35498
692.377	145.33382
692.815	122.27936
693.253	160.35486
693.69	135.27647
694.128	199.45484
694.565	187.41621
695.003	160.38382
695.44	186.40427
695.877	204.44698
696.314	157.31104
696.751	178.37271
697.188	190.40751
697.625	169.35535
698.061	200.44634
698.498	204.45658
698.934	102.23008
699.371	140.3118
699.807	207.45441
700.243	199.45117
700.679	200.4171
701.115	165.35825
701.551	166.36725
701.987	142.29351
702.422	153.33912
702.858	166.36556
703.294	187.38748
703.729	234.53213
704.164	206.46372
704.599	219.44261
705.035	198.41036
705.47	217.49637
705.904	181.3893
706.339	145.30919
706.774	164.35509
707.209	187.3977
707.643	206.45802
708.078	213.478
708.512	196.46695
708.946	197.43355
709.38	197.42809
709.814	181.3789
710.248	178.3979
710.682	218.48309
711.116	170.38315
711.549	149.35954
711.983	128.2743
712.416	165.35718
712.85	209.48729
713.283	244.52807
713.716	232.53335
714.149	204.44169
714.582	217.44642
715.015	200.46034
715.448	214.49099
715.881	181.35355
716.313	228.49365
716.746	217.47335
717.178	174.38703
717.61	222.52157
718.043	177.40618
718.475	144.32442
718.907	190.43837
719.339	193.40277
719.77	208.46208
720.202	148.34989
720.634	173.39557
721.065	136.3
721.497	213.4833
721.928	165.38077
722.359	203.46099
722.79	162.36094
723.221	170.39395
723.652	180.42735
724.083	139.28944
724.514	95.20002
724.945	199.43114
725.375	153.33163
725.806	120.27544
726.236	200.47355
726.666	158.34341
727.096	190.42735
727.526	200.47318
727.956	183.38207
728.386	185.41329
728.816	153.36374
729.246	221.4986
729.675	172.39811
730.105	205.46137
730.534	190.40839
730.964	162.37586
731.393	174.39105
731.822	175.41812
732.251	201.47564
732.68	151.31946
733.109	145.33435
733.537	142.31861
733.966	110.25522
734.395	104.222
734.823	167.34139
735.251	165.36861
735.68	187.42999
736.108	168.39255
736.536	180.38973
736.964	124.26573
737.392	144.33277
737.82	172.37814
738.247	172.37543
738.675	165.35733
739.102	178.41804
739.53	204.48545
739.957	96.23178
740.384	208.46323
740.811	192.45285
741.238	119.26903
741.665	172.37321
742.092	113.24817
742.519	161.37524
742.945	147.32637
743.372	125.29076
743.798	149.35723
744.225	136.29899
744.651	135.31439
745.077	197.45244
745.503	153.34251
745.929	145.32045
746.355	138.31205
746.781	111.25687
747.207	127.28161
747.632	169.38472
748.058	172.39257
748.483	126.26488
748.908	190.43523
749.334	166.37674
749.759	137.29783
750.184	131.28964
750.609	155.35013
751.033	127.27163
751.458	206.42274
751.883	175.39692
752.307	203.4445
752.732	142.33636
753.156	137.31465
753.58	165.35825
754.005	180.42702
754.429	82.17724
754.853	141.32694
755.277	180.39423
755.7	151.34666
756.124	138.3241
756.548	171.37617
756.971	131.29568
757.394	171.40935
757.818	179.43176
758.241	121.28567
758.664	210.49453
759.087	138.29087
759.51	164.37794
759.933	156.35074
760.356	113.27164
760.778	220.50556
761.201	134.29633
761.623	153.33601
762.046	103.22077
762.468	173.37977
762.89	141.32305
763.312	178.39642
763.734	112.25295
764.156	138.31866
764.578	152.31672
765	160.36091
765.421	151.36588
765.843	158.38923
766.264	123.2732
766.686	138.3265
767.107	148.33766
767.528	157.37569
767.949	134.31851
768.37	89.20408
768.791	155.34399
769.212	153.365
769.632	71.15501
770.053	106.26459
770.473	138.31281
770.894	109.25164
771.314	105.22992
771.734	65.14101
772.154	110.26599
772.575	122.26043
772.994	87.18495
773.414	53.11684
773.834	121.28523
774.254	112.2544
774.673	87.19725
775.093	94.22051
775.512	60.14103
775.931	166.39594
776.351	57.1329
776.77	113.25984
777.189	49.10879
777.607	99.23925
778.026	83.19642
778.445	91.21809
778.864	108.25859
779.282	79.17634
779.701	80.19038
780.119	31.07413
780.537	35.08283
780.955	86.20497
781.373	90.20857
781.791	74.15632
782.209	144.30672
782.627	77.19384
783.045	95.2031
783.462	55.13227
783.88	66.16319
784.297	47.11226
784.715	120.29464
785.132	48.1096
785.549	88.21022
785.966	92.21649
786.383	25.05893
786.8	106.22873
787.217	54.12002
787.633	33.07858
788.05	-10.02188
788.466	82.17838
788.883	89.21655
789.299	36.08101
789.715	56.12941
790.131	51.11915
790.547	-18.04216
790.963	71.16607
791.379	47.11307
791.795	53.11267
792.21	61.13284
792.626	33.07369
793.041	-14.03279
793.457	15.03503
793.872	47.10413
794.287	47.10885
794.702	-5.01167
795.117	-8.01885
795.532	45.10847
795.947	-33.07494
796.362	13.02899
796.776	-68.1473
797.191	40.09196
797.605	30.06814
798.02	64.1479
798.434	55.11248
798.848	-3.00699
799.262	70.16658
799.676	26.05927
800.09	8.01859
800.504	42.09586
800.918	-22.04822
801.331	15.03722
801.745	-23.0499
802.158	11.0261
802.572	33.07494
802.985	29.06508
803.398	-12.02719
803.811	-12.02928
804.224	12.02822
804.637	-83.18726
805.05	11.02399
805.462	-1.00232
805.875	58.14572
806.288	-20.04668
806.7	-1.0024
807.112	15.03272
807.525	29.06807
807.937	-9.02127
808.349	-21.05006
808.761	-23.05312
809.173	9.02039
809.584	-1.00233
809.996	-25.05891
810.408	-7.01743
810.819	-39.08785
811.231	6.01527
811.642	42.09872
812.053	-2.00461
812.464	25.0567
812.875	-3.00736
813.286	-24.05906
813.697	-25.05373
814.108	-14.03213
814.519	18.03711
814.929	-18.04335
815.34	-12.02759
815.75	-19.04625
816.16	-68.16002
816.571	1.00249
816.981	-42.0928
817.391	-31.07103
817.801	-17.04098
818.211	-14.03181
818.62	-19.04338
819.03	-12.02759
819.44	-25.06235
819.849	41.09811
820.259	22.0537
820.668	32.07545
821.077	-18.04288
821.486	-8.01799
821.895	-48.11106
822.304	-34.08702
822.713	-18.04016
823.122	12.02864
823.531	-8.01808
823.939	-16.03721
824.348	52.11907
824.756	0
825.164	-38.09071
825.573	-17.04077
825.981	-2.00472
826.389	-53.12586
826.797	-16.03834
827.205	1.00216
827.612	-47.11002
828.02	5.01122
828.428	-37.08996
828.835	-34.08656
829.243	-26.05853
829.65	-17.04051
830.057	28.06486
830.464	6.01404
830.871	-26.05879
831.278	-56.12818
831.685	-30.06212
832.092	4.00934
832.499	-23.04691
832.905	-19.04618
833.312	-59.12668
833.718	-15.03536
834.124	-28.06068
834.531	-11.02623
834.937	-28.06806
835.343	38.08617
835.749	-22.04796
836.155	-20.05007
836.561	-81.1879
836.966	-32.07422
837.372	-17.0411
837.777	-56.13296
838.183	-98.20229
838.588	0
838.993	-36.08233
839.399	-36.08356
839.804	-45.10637
840.209	19.04644
840.613	-17.036
841.018	-67.16131
841.423	-88.21583
841.828	-22.05306
842.232	-57.13243
842.637	-60.13252
843.041	-17.04249
843.445	-35.08302
843.849	-41.0971
844.253	-45.10057
844.657	-4.00969
845.061	-28.06008
845.465	6.01405
845.869	-57.12518
846.272	-42.09768
846.676	10.0229
847.079	-4.00979
847.483	-22.05205
847.886	-6.01352
848.289	46.11892
848.692	-58.14072
849.095	-14.03139
849.498	-46.10896
849.901	2.00425
850.304	-31.0696
850.707	-28.06799
851.109	-59.14005
851.512	-25.05905
851.914	31.07568
852.316	-44.10716
852.718	-29.07293
853.121	-22.05133
853.523	-21.0462
853.925	-33.08299
854.326	1.00241
854.728	-35.08637
855.13	-19.04738
855.531	-6.01383
855.933	-23.05206
856.334	-18.04307
856.736	-54.11342
857.137	-2.00438
857.538	-12.02877
857.939	-4.00946
858.34	-21.04813
858.741	0
859.142	8.01817
859.542	52.13322
859.943	1.00238
860.343	-38.09071
860.744	15.03467
861.144	-26.06025
861.544	5.01156
861.945	-57.13853
862.345	-47.10738
862.745	-16.03783
863.145	-41.0908
863.544	35.08465
863.944	-93.20965
864.344	-16.03714
864.743	46.10707
865.143	-36.08862
865.542	-72.15843
865.941	22.05195
866.34	39.08749
866.74	4.01027
867.139	-21.04808
867.537	-28.06763
867.936	4.00913
868.335	-14.03427
868.734	42.10267
869.132	-5.01103
869.531	40.09019
869.929	24.05172
870.327	-51.11652
870.726	26.06075
871.124	-14.03047
871.522	-49.11842
871.92	-31.07257
872.318	-7.01625
872.715	3.00698
873.113	0
873.511	-9.02135
873.908	-9.02224
874.306	-5.01186
874.703	-31.07376
875.1	-15.03625
875.497	-59.13393
875.894	-5.01186
876.291	1.00234
876.688	-31.07641
877.085	-11.02476
877.482	-38.08994
877.878	-10.02286
878.275	-53.12862
878.671	-49.0994
879.068	15.03393
879.464	-4.00916
879.86	5.0113
880.256	-53.12299
880.652	-88.21583
881.048	-30.06969
881.444	-50.11122
881.84	-24.05784
882.236	16.03813
882.631	6.01394
883.027	-46.10402
883.422	-64.15715
883.817	23.05546
884.213	-22.05408
884.608	-29.06857
885.003	-1.00229
885.398	-32.07644
885.793	-3.0071
886.188	-13.03117
886.582	-24.05744
886.977	3.00667
887.371	-33.07954
887.766	-29.06953
888.16	-41.09785
888.554	-9.02078
888.949	-42.09899
889.343	-29.06615
889.737	3.0078
890.131	5.01196
890.525	-25.06081
890.918	-6.01449
891.312	-73.16322
891.706	2.00506
892.099	20.04789
892.492	7.014
892.886	-38.08782
893.279	-13.03158
893.672	-20.0488
894.065	-21.04975
894.458	-27.06454
894.851	-24.05474
895.244	-49.12034
895.637	30.06792
896.029	-45.10484
896.422	-3.00688
896.814	-74.17718
897.206	-38.08715
897.599	-24.05489
897.991	9.02059
898.383	-43.09587
898.775	-23.04853
899.167	-10.02226
899.559	19.04514
899.951	-48.10695
900.342	-28.06656
900.734	5.01206
901.125	-39.09716
901.517	34.07889
901.908	-66.14906
902.299	-41.09605
902.69	-5.01112
903.082	-2.00456
903.473	-6.01374
903.863	23.05623
904.254	-28.06096
904.645	-51.11915
905.036	-24.05617
905.426	-33.06865
905.817	-15.03485
906.207	-28.06365
906.597	-15.03323
906.987	-51.12497
907.378	-42.10087
907.768	-3.00762
908.158	-43.10014
908.547	-48.11969
908.937	-38.09279
909.327	-58.13356
909.717	-23.05495
910.106	-29.06604
910.495	-13.031
910.885	-51.1213
911.274	-31.07427
911.663	-2.00487
912.052	-33.07658
912.441	-18.0441
912.83	-20.04286
913.219	-41.10155
913.608	-15.03474
913.997	-48.1151
914.385	-26.05788
914.774	-8.0183
915.162	-43.0967
915.55	13.02956
915.939	-5.01206
916.327	-16.03786
916.715	-8.01961
917.103	-13.02997
917.491	-50.11601
917.878	-22.05028
918.266	-6.01479
918.654	18.04415
919.041	-39.09793
919.429	-26.05831
919.816	-46.11081
920.203	-49.11335
920.591	-52.12203
920.978	-23.05316
921.365	-21.05245
921.752	26.05834
922.139	-3.0061
922.525	-40.09119
922.912	-55.12723
923.299	6.01419
923.685	-45.11288
924.072	-45.09654
924.458	5.01172
924.844	-26.06106
925.231	-56.1226
925.617	24.05884
926.003	16.03869
926.389	-5.01211
926.774	-3.00726
927.16	5.01165
927.546	-15.03669
927.931	-2.00472
928.317	-42.08931
928.702	-12.02643
929.088	-36.08111
929.473	-16.03884
929.858	-4.00934
930.243	-44.1012
930.628	-22.0505
931.013	24.05685
931.398	25.05278
931.783	-40.101
932.167	-54.12504
932.552	-20.04684
932.937	-32.0741
933.321	-48.11458
933.705	30.07221
934.09	-49.11627
934.474	41.09042
934.858	-5.01242
935.242	-10.02217
935.626	-73.17901
936.009	-50.12801
936.393	59.14243
936.777	-23.05678
937.16	-61.15058
937.544	-19.0419
937.927	-11.02666
938.311	-14.03197
938.694	20.0502
939.077	-49.11046
939.46	20.04631
939.843	-29.05501
940.226	-60.14689
940.609	-6.01282
940.991	-37.09003
941.374	-35.08074
941.757	-25.05831
942.139	-55.11539
942.522	-27.0592
942.904	16.03621
943.286	-32.07671
943.668	-43.10666
944.05	-29.06778
944.432	9.02105
944.814	-19.04383
945.196	-5.01169
945.578	-45.10315
945.959	-39.08666
946.341	-12.02719
946.722	-12.0266
947.104	-63.14197
947.485	-54.11862
947.866	14.0337
948.247	-6.01438
948.628	-6.01368
949.009	-3.00733
949.39	-34.07873
949.771	-33.07162
950.152	-27.0633
950.532	2.00482
950.913	-32.07212
951.293	-13.03406
951.674	-60.137
952.054	-30.07104
952.434	-68.16008
952.814	-61.13526
953.194	5.01248
953.574	-17.03895
953.954	-35.07868
954.334	18.04256
954.714	-8.0185
955.093	-48.11062
955.473	-38.0898
955.853	-12.02976
956.232	-25.06596
956.611	-14.03093
956.99	0
957.37	-53.12939
957.749	-47.10509
958.128	2.00483
958.506	4.00997
958.885	-80.19308
959.264	-15.03489
959.643	20.04242
960.021	-44.10415
960.4	48.1022
960.778	-69.15898
961.156	-39.09322
961.535	-73.15742
961.913	-30.06454
962.291	-27.06717
962.669	-19.04599
963.047	-57.13749
963.424	13.03157
963.802	-43.09943
964.18	0
964.557	-47.10022
964.935	-18.03994
965.312	3.00749
965.69	-29.06855
966.067	-63.14498
966.444	-15.03492
966.821	-44.10784
967.198	-21.04726
967.575	-68.15771
967.952	-29.06447
968.329	-12.02742
968.705	-24.04691
969.082	-3.00737
969.458	-22.05068
969.835	5.01142
970.211	-28.06873
970.587	-10.02357
970.963	-36.08797
971.339	13.03259
971.715	-66.15489
972.091	-45.10505
972.467	-76.17822
972.843	-39.09226
973.219	-7.01552
973.594	-42.10564
973.97	-37.08191
974.345	-73.16645
974.721	-13.02945
975.096	-36.08164
975.471	25.05555
975.846	-21.04806
976.221	-77.18854
976.596	-51.11629
976.971	9.02094
977.346	-52.11259
977.72	-34.08243
978.095	-21.05195
978.469	4.00898
978.844	30.07065
979.218	-26.05958
979.593	-17.03847
979.967	2.00462
980.341	-13.0278
980.715	-37.08827
981.089	-46.1085
981.463	8.01737
981.837	1.00233
982.21	-43.09336
982.584	-54.12325
982.957	-30.07197
983.331	-3.00665
983.704	8.01867
984.078	-31.07202
984.451	-45.10389
984.824	-32.07469
985.197	-5.01139
985.57	-34.08023
985.943	-32.07319
986.316	17.03914
986.688	-32.07257
987.061	-55.12059
987.434	4.00993
987.806	-30.06836
988.179	-76.16947
988.551	-21.05018
988.923	-2.00463
989.295	-7.01648
989.667	-20.0462
990.039	23.05375
990.411	6.01303
990.783	-59.12761
991.155	16.03673
991.527	-30.06825
991.898	-47.11084
992.27	-15.03524
992.641	13.03053
993.012	64.14029
993.384	40.0889
993.755	-63.15317
994.126	4.00906
994.497	-38.08852
994.868	-26.05632
995.239	2.00459
995.61	-35.0836
995.98	14.03233
996.351	-32.07603
996.722	8.01751
997.092	-51.11605
997.462	-44.09864
997.833	-36.08011
998.203	-38.08663
998.573	12.02844
998.943	-22.0479
999.313	-10.02272
999.683	-25.05604
1000.053	-20.04342
1000.423	-15.03441
1000.792	-3.00741
1001.162	5.01168
1001.531	7.01637
1001.901	-4.00937
1002.27	-18.03784
1002.639	-16.03907
1003.009	39.08778
1003.378	-31.07582
1003.747	-15.03315
1004.116	-14.03181
1004.485	-16.0363
1004.853	2.0048
1005.222	29.06966
1005.591	-37.08218
1005.959	-52.11235
1006.328	10.02083
1006.696	-33.07607
1007.064	-1.00238
1007.433	-3.00713
1007.801	-32.07377
1008.169	-20.04756
1008.537	46.09406
1008.905	-11.02419
1009.273	-21.04904
1009.64	-55.12561
1010.008	-14.0313
1010.375	20.04534
1010.743	-28.0591
1011.11	-32.0718
1011.478	-34.0797
1011.845	-43.0938
1012.212	-52.10965
1012.579	-4.0093
1012.946	-51.11295
1013.313	26.05745
1013.68	-25.05208
1014.047	6.01365
1014.414	-38.08582
1014.78	-2.00475
1015.147	-50.11283
1015.513	79.17933
1015.88	-25.05987
1016.246	6.01399
1016.612	-14.02961
1016.978	18.04122
1017.344	21.04941
1017.71	-47.10621
1018.076	25.0547
1018.442	-16.03895
1018.808	-21.04991
1019.174	-67.1599
1019.539	15.031
1019.905	-22.04926
1020.27	11.02586
1020.636	3.00673
1021.001	-24.05376
1021.366	-9.02079
1021.731	-27.06655
1022.096	-17.04121
1022.461	-69.15319
1022.826	-1.00223
1023.191	-19.04769
1023.556	-66.14443
1023.92	-10.0229
1024.285	-12.02748
1024.649	2.00462
1025.014	-3.007
1025.378	11.02643
1025.742	-35.08247
1026.107	-60.12619
1026.471	-75.16215
1026.835	-48.11194
1027.199	-12.02743
1027.562	9.01967
1027.926	-25.05756
1028.29	-2.00481
1028.654	-25.05331
1029.017	6.01394
1029.381	-18.04079
1029.744	-10.02442
1030.107	-72.15856
1030.471	-11.02466
1030.834	-50.10497
1031.197	-47.10539
1031.56	-16.03594
1031.923	-65.16128
1032.286	-30.06576
1032.648	-5.01113
1033.011	-16.03454
1033.374	-24.05214
1033.736	-53.1339
1034.099	18.04143
1034.461	-45.10974
1034.823	-31.07293
1035.185	-66.1564
1035.548	-15.03435
1035.91	30.06767
1036.272	-4.00851
1036.634	-40.09141
1036.995	25.05537
1037.357	-57.13248
1037.719	-23.05276
1038.08	-43.09452
1038.442	55.12394
1038.803	-69.15638
1039.165	-42.10133
1039.526	10.0227
1039.887	-2.00453
1040.248	5.0119
1040.609	16.03705
1040.97	-27.06236
1041.331	-58.13781
1041.692	-25.05553
1042.053	-33.06963
1042.413	-19.04095
1042.774	-21.04792
1043.134	-25.05527
1043.495	-4.00943
1043.855	-28.0643
1044.215	-9.02103
1044.576	-12.02727
1044.936	29.06197
1045.296	-17.0399
1045.656	-32.07433
1046.016	-29.06511
1046.375	12.02759
1046.735	-21.04527
1047.095	-7.01539
1047.454	6.01166
1047.814	-59.13361
1048.173	-62.13762
1048.533	-27.05847
1048.892	-87.20173
1049.251	10.02366
1049.61	-77.17904
1049.969	24.05321
1050.328	-5.00987
1050.687	-44.10132
1051.046	15.03459
1051.405	-35.08145
1051.763	-8.01732
1052.122	-29.06956
1052.48	-50.11573
1052.839	-47.10483
1053.197	-51.11384
1053.555	-73.15099
1053.914	-9.02064
1054.272	38.08519
1054.63	-54.12479
1054.988	-40.0896
1055.345	-41.08111
1055.703	-33.07418
1056.061	-57.14076
1056.419	-4.0099
1056.776	-44.10055
1057.134	-72.15749
1057.491	-21.04968
1057.848	-13.03037
1058.206	-28.06184
1058.563	42.08615
1058.92	-57.12244
1059.277	-38.08715
1059.634	-82.17914
1059.991	33.07403
1060.348	25.05294
1060.704	-56.1271
1061.061	-3.00634
1061.418	-25.05776
1061.774	-17.04035
1062.131	17.04376
1062.487	-61.13391
1062.843	-11.02589
1063.199	32.07519
1063.555	-36.07931
1063.911	-11.02619
1064.267	8.01482
1064.623	-6.01391
1064.979	-65.14173
1065.335	-49.1087
1065.691	13.02947
1066.046	-40.08127
1066.402	-54.11552
1066.757	-25.06005
1067.112	-11.02512
1067.468	1.00226
1067.823	-1.00227
1068.178	7.016
1068.533	-75.17177
1068.888	-27.06002
1069.243	-15.03521
1069.598	-52.11787
1069.952	23.04904
1070.307	7.01664
1070.662	-36.08111
1071.016	-11.02327
1071.371	-62.13246
1071.725	-73.1612
1072.079	17.03814
1072.434	-72.16659
1072.788	19.04262
1073.142	50.11582
1073.496	-35.07848
1073.85	0
1074.203	-32.07304
1074.557	-17.04359
1074.911	-84.18847
1075.265	-29.06243
1075.618	8.01842
1075.971	-13.02886
1076.325	-32.07755
1076.678	1.00213
1077.031	-58.12338
1077.385	15.03078
1077.738	-36.07651
1078.091	-23.0499
1078.444	-46.09905
1078.796	7.01629
1079.149	-52.12136
1079.502	-37.0828
1079.855	-1.0022
1080.207	5.01154
1080.56	-68.16869
1080.912	-63.14342
1081.264	-44.10027
1081.617	-21.04852
1081.969	6.01461
1082.321	-23.05314
1082.673	-17.0369
1083.025	-61.13588
1083.377	-43.08431
1083.728	-71.15343
1084.08	22.05201
1084.432	-70.15674
1084.783	20.04412
1085.135	19.04557
1085.486	-30.06515
1085.838	-27.063
1086.189	-19.0435
1086.54	-8.01793
1086.891	-13.03169
1087.242	-50.11458
1087.593	-34.07748
1087.944	-76.16202
1088.295	-2.00417
1088.646	0
1088.996	-35.07961
1089.347	-4.00917
1089.698	-1.00224
1090.048	-21.0515
1090.398	8.0174
1090.749	-16.03615
1091.099	-51.124
1091.449	-31.07268
1091.799	-22.05207
1092.149	21.04933
1092.499	-37.08593
1092.849	-24.05814
1093.199	-6.01411
1093.548	-1.00227
1093.898	-49.11726
1094.248	-11.02682
1094.597	-26.06434
1094.947	-31.07913
1095.296	-43.10034
1095.645	14.0343
1095.994	-4.00908
1096.343	33.07903
1096.692	-27.06872
1097.041	-12.03143
1097.39	-29.06879
1097.739	4.00992
1098.088	-38.09647
1098.437	-43.1091
1098.785	-33.08492
1099.134	-57.14344
1099.482	-35.09187
1099.83	-18.04492
1100.179	29.07282
1100.527	-25.06307
1100.875	-64.1631
1101.223	16.04078
1101.571	-43.1155
1101.919	-48.12181
1102.267	4.01098
1102.615	9.02891
1102.962	10.03206
1103.31	-1.00321
1103.658	-5.01604
