Data from N3 R6 sample 8_Subt2__2__15-24-49-531.txt Node

Date: Fri Sep 19 15:24:49 PDT 2025
User: uwsun
Spectrometer: HDX01956
Trigger mode: 0
Integration Time (sec): 5.000000E-1
Scans to average: 1
Nonlinearity correction enabled: true
Boxcar width: 0
Storing dark spectrum: false
XAxis mode: Wavelengths
Number of Pixels in Spectrum: 2068
>>>>>Begin Spectral Data<<<<<
194.03	-4.01162
194.578	8.026
195.127	4.01283
195.676	-3.00962
196.225	-12.03178
196.773	-1.00279
197.321	-1.00279
197.87	-8.02077
198.418	12.03134
198.966	34.09002
199.513	24.0616
200.061	15.03827
200.609	4.01062
201.156	-22.0481
201.704	-41.10447
202.251	-5.01337
202.798	-14.03691
203.345	2.00499
203.892	-2.00508
204.438	22.05278
204.985	11.02641
205.532	51.13712
206.078	-21.05224
206.624	31.07706
207.17	39.0904
207.716	-62.15218
208.262	12.0237
208.808	-22.05551
209.354	-27.0666
209.899	-15.03802
210.445	1.00253
210.99	-30.07366
211.535	1.00236
212.08	0
212.625	-1.00252
213.17	-34.08689
213.715	-2.00455
214.259	38.089
214.804	1.00247
215.348	-46.10669
215.892	-1.00243
216.436	-2.00469
216.98	-40.08875
217.524	-30.07175
218.068	37.09294
218.612	-24.06036
219.155	2.00472
219.698	5.01182
220.242	-13.03246
220.785	-10.02355
221.328	9.0225
221.871	0
222.414	-53.13155
222.956	9.02185
223.499	7.01574
224.041	-35.0808
224.583	38.08066
225.126	34.07582
225.668	-2.00488
226.21	12.03014
226.751	-46.10032
227.293	-4.00905
227.835	-22.05372
228.376	-8.01827
228.918	20.05021
229.459	17.04281
230	-19.04535
230.541	21.04779
231.082	-16.03895
231.622	21.04815
232.163	32.07793
232.704	-14.03471
233.244	-29.07227
233.784	1.00242
234.324	-5.01117
234.864	13.0292
235.404	-34.08035
235.944	-13.03051
236.484	-39.0967
237.023	15.03547
237.563	8.01841
238.102	12.02822
238.641	47.1187
239.18	-14.03307
239.719	43.10794
240.258	-29.06498
240.797	22.05268
241.335	-23.05563
241.874	30.05767
242.412	-20.04796
242.95	-15.03631
243.488	17.03864
244.026	-7.01621
244.564	20.04076
245.102	8.01793
245.64	12.02869
246.177	-28.06252
246.715	17.04007
247.252	-48.10969
247.789	-96.1736
248.326	-45.10781
248.863	-12.02615
249.4	12.02748
249.936	15.03054
250.473	-23.05399
251.009	12.02769
251.546	-9.01993
252.082	22.04833
252.618	-7.01574
253.154	-2.0048
253.69	-11.02469
254.226	-31.07401
254.761	-22.04877
255.297	9.01972
255.832	-18.04242
256.367	-42.09895
256.903	-53.1165
257.438	-7.01623
257.972	-40.08872
258.507	-18.04191
259.042	-51.10908
259.576	-6.01297
260.111	-18.04142
260.645	15.0324
261.179	16.03689
261.713	-39.08659
262.247	40.09237
262.781	15.03154
263.315	1.00245
263.849	-4.01
264.382	-5.01139
264.915	11.02588
265.449	-7.01717
265.982	-33.07433
266.515	-1.00244
267.048	16.03389
267.58	6.0128
268.113	16.03469
268.646	41.10129
269.178	0
269.71	-15.03255
270.243	-27.06174
270.775	11.02794
271.307	-16.03793
271.838	-8.01881
272.37	29.07119
272.902	1.00228
273.433	-33.07193
273.965	75.18207
274.496	-70.17391
275.027	12.0295
275.558	-19.04611
276.089	0
276.62	-19.04816
277.15	25.06108
277.681	-34.07264
278.211	-18.04379
278.741	12.02665
279.272	-2.00457
279.802	20.04985
280.332	-17.04026
280.861	13.03116
281.391	-25.05664
281.921	-15.03563
282.45	32.08043
282.98	31.08066
283.509	-5.01122
284.038	-23.05162
284.567	-27.06196
285.096	26.06261
285.625	34.07776
286.153	-34.07988
286.682	-15.03409
287.21	-37.08949
287.739	-1.00234
288.267	-3.0073
288.795	5.01309
289.323	-2.00475
289.851	11.02554
290.378	-4.00899
290.906	0
291.433	-3.00749
291.961	-25.05645
292.488	35.08662
293.015	43.1014
293.542	-3.00757
294.069	17.04164
294.596	53.12963
295.122	30.07128
295.649	55.1211
296.175	9.02145
296.702	-10.024
297.228	-48.11559
297.754	0
298.28	-1.00226
298.806	9.02176
299.332	-21.04668
299.857	-6.0135
300.383	8.02001
300.908	7.01717
301.433	41.09953
301.958	-17.03864
302.483	49.12313
303.008	-13.03194
303.533	-19.04874
304.058	-27.06367
304.582	23.0543
305.107	12.03153
305.631	3.00677
306.155	36.08429
306.679	-4.00941
307.203	12.02791
307.727	36.08551
308.251	14.03443
308.775	-10.02378
309.298	11.0266
309.822	6.01512
310.345	1.00237
310.868	1.00239
311.391	11.02697
311.914	11.02763
312.437	7.01579
312.96	7.01658
313.482	13.03094
314.005	12.03013
314.527	39.10227
315.049	-17.04286
315.571	67.15123
316.093	84.20679
316.615	32.07758
317.137	0
317.659	-9.02165
318.18	18.04348
318.702	59.13637
319.223	31.0634
319.744	57.12755
320.265	20.04871
320.786	50.12327
321.307	31.07737
321.828	60.13595
322.348	55.1294
322.869	-29.06799
323.389	266.46876
323.909	56.12782
324.43	38.0904
324.95	35.08042
325.47	72.1764
325.989	63.15041
326.509	32.07083
327.029	24.0542
327.548	8.01819
328.067	68.16257
328.587	67.16606
329.106	-7.01597
329.625	48.12315
330.144	23.05257
330.662	18.04186
331.181	82.1904
331.7	13.03047
332.218	82.1777
332.736	85.19499
333.255	32.07442
333.773	68.1602
334.291	87.212
334.808	16.03549
335.326	52.1172
335.844	57.13364
336.361	51.12848
336.879	37.0861
337.396	48.11401
337.913	44.10035
338.43	79.17817
338.947	83.19604
339.464	32.06866
339.981	86.20308
340.497	87.21279
341.014	36.08682
341.53	110.24742
342.046	94.22884
342.562	99.24322
343.078	95.22002
343.594	80.1906
344.11	66.15543
344.626	74.18592
345.141	77.17571
345.657	76.16863
346.172	84.19921
346.687	101.22992
347.202	74.16501
347.717	81.19198
348.232	76.18888
348.747	114.25799
349.261	146.31909
349.776	61.14161
350.29	100.24536
350.805	52.12674
351.319	98.22611
351.833	94.21282
352.347	63.14475
352.861	110.25299
353.374	64.14502
353.888	76.18051
354.401	98.22196
354.915	89.19916
355.428	134.32804
355.941	119.27385
356.454	111.2448
356.967	145.33648
357.48	142.31769
357.993	115.27781
358.505	122.29667
359.018	96.22889
359.53	69.16417
360.042	46.1002
360.554	94.22326
361.066	74.17772
361.578	126.27211
362.09	129.30149
362.602	107.23252
363.113	110.24671
363.625	119.26585
364.136	103.22278
364.647	126.28828
365.158	129.29568
365.669	175.41396
366.18	69.15727
366.691	159.34169
367.201	104.24273
367.712	92.20345
368.222	182.40986
368.733	156.33372
369.243	90.19403
369.753	85.19248
370.263	138.31815
370.773	180.43163
371.282	142.32802
371.792	163.36114
372.301	136.32202
372.811	131.33273
373.32	151.31162
373.829	146.33874
374.338	180.38723
374.847	177.39052
375.356	231.52967
375.865	188.38528
376.373	220.47817
376.882	212.51454
377.39	242.55834
377.898	262.61985
378.407	228.48437
378.915	253.51438
379.423	251.5642
379.93	293.62041
380.438	297.68508
380.946	334.72931
381.453	307.69034
381.96	325.71972
382.468	405.8845
382.975	424.95278
383.482	391.80545
383.989	460.07041
384.495	446.93133
385.002	504.93857
385.509	451.94658
386.015	575.00596
386.521	507.99789
387.028	613.19523
387.534	586.08433
388.04	610.23868
388.546	644.20435
389.051	680.24235
389.557	731.4048
390.063	813.53043
390.568	762.48381
391.073	845.5138
391.578	827.59647
392.084	850.47247
392.589	952.58184
393.093	977.73833
393.598	1112.82146
394.103	1200.02514
394.607	1338.13944
395.112	1433.32936
395.616	1494.30235
396.12	1649.25811
396.624	1783.36245
397.128	1969.52963
397.632	2159.43853
398.136	2343.45476
398.639	2613.56904
399.143	2892.73553
399.646	3275.25871
400.15	3541.99825
400.653	4119.56383
401.156	4641.85692
401.659	5371.67039
402.162	7020.44524
402.664	9897.61144
403.167	18084.24863
403.67	51076.6735
404.172	54182.98898
404.674	37291.05854
405.176	4428.40989
405.678	533.47942
406.18	0
406.682	0
407.184	6962.89417
407.686	35169.98681
408.187	22498.80478
408.688	14856.36366
409.19	11448.00992
409.691	9444.20127
410.192	8062.77518
410.693	7354.58175
411.194	6885.10956
411.694	6404.00147
412.195	5898.25004
412.696	5516.22088
413.196	5310.89127
413.696	5382.51791
414.196	5268.09367
414.696	5027.77056
415.196	4626.7918
415.696	3768.21976
416.196	2925.04941
416.695	2526.39863
417.195	2343.53587
417.694	2220.87389
418.194	2013.98491
418.693	1968.30852
419.192	1956.47623
419.691	1892.44862
420.19	1838.44731
420.688	1809.57027
421.187	1595.82715
421.685	1538.20501
422.184	1366.10216
422.682	1140.74069
423.18	1056.77647
423.678	870.52555
424.176	903.57819
424.674	793.35714
425.172	728.37384
425.669	709.43577
426.167	623.19347
426.664	559.07271
427.161	540.04341
427.659	529.11817
428.156	509.92273
428.652	423.94917
429.149	447.95597
429.646	411.79256
430.143	350.7581
430.639	386.81749
431.135	335.7499
431.632	299.62148
432.128	315.69525
432.624	280.65576
433.12	287.60345
433.616	264.52927
434.111	262.5801
434.607	221.4931
435.103	203.39182
435.598	209.4003
436.093	180.39173
436.588	216.45287
437.083	156.33156
437.578	177.37857
438.073	126.29638
438.568	171.39273
439.062	172.34467
439.557	113.25088
440.051	129.27782
440.546	97.21258
441.04	73.16531
441.534	107.26015
442.028	127.28946
442.522	116.26647
443.015	97.20243
443.509	125.29248
444.002	150.34912
444.496	69.14233
444.989	110.25885
445.482	66.15761
445.975	89.19538
446.468	107.21963
446.961	49.10026
447.454	26.0562
447.947	141.32241
448.439	122.28586
448.931	66.14376
449.424	68.1622
449.916	86.19756
450.408	90.19861
450.9	50.11702
451.392	63.15415
451.884	14.03078
452.375	56.13306
452.867	44.09559
453.358	7.01529
453.849	83.16813
454.341	123.26387
454.832	48.09997
455.323	46.10863
455.814	42.09253
456.304	20.04447
456.795	28.06122
457.285	1.00214
457.776	17.03671
458.266	103.23542
458.756	18.04137
459.247	41.09375
459.737	80.18488
460.226	79.17014
460.716	48.11106
461.206	38.08691
461.695	45.10933
462.185	78.17731
462.674	39.08536
463.163	2.00426
463.653	32.0651
464.142	15.03482
464.63	46.10804
465.119	17.03853
465.608	-3.00669
466.096	12.0254
466.585	-15.03319
467.073	-11.02532
467.561	76.17794
468.05	-28.06285
468.538	70.16703
469.026	23.05367
469.513	-18.03699
470.001	15.03287
470.489	39.08893
470.976	32.07124
471.463	61.14753
471.951	65.15608
472.438	13.02973
472.925	-27.06109
473.412	-27.06404
473.899	57.12629
474.385	-12.02871
474.872	-10.02263
475.359	20.04734
475.845	-33.06685
476.331	7.01456
476.817	-24.05648
477.303	5.01127
477.789	1.00234
478.275	2.00485
478.761	3.00699
479.247	3.00647
479.732	15.03661
480.218	-2.00507
480.703	54.13117
481.188	-42.08767
481.673	-9.02016
482.158	-54.11432
482.643	21.05174
483.128	-47.1047
483.612	-1.00226
484.097	18.0426
484.581	-47.1053
485.066	-28.0662
485.55	-14.02966
486.034	10.02125
486.518	10.02289
487.002	-20.04796
487.486	-7.01669
487.969	-4.00967
488.453	22.05412
488.936	-14.03064
489.42	-28.06073
489.903	-30.0741
490.386	20.04167
490.869	-50.10488
491.352	-20.04743
491.835	-31.06173
492.318	-43.09603
492.8	-22.0439
493.283	-4.01001
493.765	3.00724
494.247	-30.06784
494.73	-20.04314
495.212	-27.0635
495.694	-56.129
496.175	-111.26318
496.657	67.15487
497.139	-100.16481
497.62	-30.0704
498.102	-23.05625
498.583	-72.17587
499.064	27.0592
499.545	-33.07366
500.026	-25.05474
500.507	-38.08551
500.988	-34.08203
501.469	-34.08305
501.949	-12.02864
502.43	-55.12844
502.91	-81.16498
503.39	28.06781
503.87	22.05042
504.35	-29.0661
504.83	0
505.31	-8.01904
505.79	-30.07043
506.269	-53.1209
506.749	-15.03339
507.228	22.05013
507.707	27.0578
508.187	10.02298
508.666	14.03325
509.145	14.03177
509.623	35.07932
510.102	83.19192
510.581	33.07625
511.059	104.25243
511.538	122.30011
512.016	178.40315
512.494	140.31915
512.972	194.43671
513.45	185.40834
513.928	161.37006
514.406	224.51661
514.884	262.63683
515.361	272.60876
515.839	264.55155
516.316	296.64908
516.793	298.69326
517.27	390.85733
517.747	303.72029
518.224	368.76199
518.701	385.76989
519.178	421.9598
519.654	367.76893
520.131	296.66711
520.607	377.84667
521.083	348.72445
521.56	317.68032
522.036	325.649
522.512	307.69458
522.987	351.76821
523.463	282.62099
523.939	259.58862
524.414	261.55072
524.89	227.49747
525.365	279.58715
525.84	250.56851
526.315	193.43348
526.79	197.4113
527.265	146.3103
527.74	161.37051
528.215	206.45631
528.689	210.4401
529.164	125.25124
529.638	175.42721
530.112	156.35318
530.587	157.32007
531.061	97.22572
531.534	70.16209
532.008	106.24525
532.482	46.09964
532.956	110.27358
533.429	21.0481
533.903	43.09081
534.376	110.23043
534.849	70.15687
535.322	23.05276
535.795	20.04754
536.268	73.17034
536.741	12.02803
537.213	13.02935
537.686	-13.03081
538.158	20.04369
538.631	-5.01178
539.103	-27.0594
539.575	34.06816
540.047	16.03405
540.519	-5.01156
540.991	-20.04749
541.463	40.09438
541.934	-20.045
542.406	-19.04458
542.877	-12.02642
543.348	-35.08093
543.82	35.08299
544.291	7.01563
544.762	-28.06509
545.233	14.03467
545.703	-40.08757
546.174	34.07713
546.645	4.00954
547.115	-23.05462
547.585	-20.04576
548.056	26.06235
548.526	-12.02779
548.996	-24.05665
549.466	-6.01423
549.935	-18.04262
550.405	7.01517
550.875	-51.11887
551.344	-19.04521
551.814	-82.18414
552.283	-14.02955
552.752	-4.0091
553.221	-32.06846
553.69	-40.08805
554.159	31.07548
554.628	-33.0726
555.096	-15.03733
555.565	-13.02831
556.033	-20.04596
556.502	-33.0784
556.97	-12.02588
557.438	10.02312
557.906	25.0576
558.374	27.06007
558.842	33.07679
559.31	-7.01519
559.777	31.07333
560.245	53.1186
560.712	5.01107
561.18	53.11252
561.647	15.03243
562.114	41.09057
562.581	53.12702
563.048	101.21901
563.514	109.25784
563.981	84.18335
564.448	119.25507
564.914	106.23461
565.381	101.21583
565.847	157.34538
566.313	157.34364
566.779	220.46737
567.245	167.36938
567.711	252.56586
568.176	266.56755
568.642	290.67997
569.108	244.56071
569.573	290.61822
570.038	334.63896
570.504	402.81935
570.969	389.88186
571.434	398.79017
571.899	447.95555
572.363	430.86924
572.828	428.86322
573.293	487.98514
573.757	554.11097
574.222	533.04882
574.686	516.01745
575.15	602.24021
575.614	548.08625
576.078	584.17987
576.542	677.30398
577.006	634.22483
577.469	689.43274
577.933	618.16533
578.396	672.37409
578.86	646.28385
579.323	712.42706
579.786	694.23349
580.249	634.23244
580.712	650.34525
581.175	668.40844
581.637	730.41332
582.1	691.2469
582.563	592.03659
583.025	615.28492
583.487	614.02622
583.95	572.05362
584.412	613.06809
584.874	572.20103
585.336	523.08856
585.797	496.92826
586.259	512.03227
586.721	495.02286
587.182	507.01491
587.643	538.05346
588.105	449.94944
588.566	397.74093
589.027	488.0523
589.488	400.81045
589.949	424.90816
590.41	418.72437
590.87	328.66336
591.331	403.75549
591.791	311.64527
592.252	329.68475
592.712	349.75996
593.172	311.6372
593.632	261.50716
594.092	279.56827
594.552	260.50775
595.011	254.54383
595.471	222.45969
595.931	217.44722
596.39	231.51669
596.849	223.48087
597.308	201.40232
597.768	204.48805
598.227	227.50963
598.685	190.39942
599.144	202.43998
599.603	217.47796
600.062	168.32668
600.52	193.40295
600.978	191.42775
601.437	150.32158
601.895	133.26522
602.353	113.23414
602.811	115.24106
603.269	141.31708
603.727	105.23971
604.184	121.25868
604.642	150.34567
605.099	110.24112
605.557	81.18641
606.014	126.25506
606.471	126.30307
606.928	152.3201
607.385	99.235
607.842	167.36444
608.299	138.30301
608.755	100.22944
609.212	155.32649
609.668	90.19203
610.125	128.29038
610.581	106.23324
611.037	125.26747
611.493	160.35146
611.949	153.34773
612.405	137.26062
612.861	142.30811
613.316	166.37567
613.772	128.27797
614.227	128.28602
614.683	165.32965
615.138	169.37677
615.593	81.17767
616.048	126.26733
616.503	117.27194
616.958	83.19892
617.412	121.27077
617.867	113.24012
618.321	84.1603
618.776	130.26955
619.23	153.34096
619.684	79.1675
620.138	106.22686
620.592	73.16833
621.046	57.12692
621.5	93.21394
621.954	112.23545
622.407	88.18467
622.861	53.12124
623.314	93.20063
623.768	96.21274
624.221	116.21589
624.674	79.17065
625.127	104.23018
625.58	2.00427
626.033	52.10729
626.485	10.023
626.938	72.16168
627.39	120.26293
627.843	37.08105
628.295	93.20364
628.747	67.1516
629.199	110.23827
629.651	42.0916
630.103	48.10579
630.555	52.10343
631.006	36.08064
631.458	-4.00895
631.909	28.06086
632.361	0
632.812	30.0667
633.263	7.01429
633.714	18.03617
634.165	-33.07588
634.616	-40.09167
635.067	-21.0441
635.518	-16.0362
635.968	39.0735
636.419	-34.07028
636.869	-26.05918
637.319	4.00888
637.769	24.0517
638.219	-48.10925
638.669	21.04833
639.119	16.03725
639.569	20.04686
640.019	-45.10037
640.468	-48.10224
640.918	2.00461
641.367	-31.06751
641.816	-9.01947
642.265	-23.05143
642.714	48.10673
643.163	-52.11442
643.612	27.06323
644.061	-51.10393
644.51	3.00662
644.958	-24.05108
645.406	4.00929
645.855	-37.08783
646.303	-1.00223
646.751	-2.00443
647.199	-58.12617
647.647	-3.00676
648.095	-15.03307
648.543	-7.0135
648.99	-1.00232
649.438	37.08334
649.885	42.1006
650.333	-64.11816
650.78	16.03796
651.227	-6.01425
651.674	-24.05325
652.121	-44.10285
652.568	19.04455
653.015	-31.07469
653.461	5.01149
653.908	24.05354
654.354	-12.0273
654.801	-50.11495
655.247	13.0272
655.693	11.02782
656.139	7.01615
656.585	-49.11506
657.031	5.01141
657.477	-32.06775
657.922	12.02688
658.368	-56.13434
658.813	-41.09031
659.259	-29.0681
659.704	-11.02507
660.149	-17.03842
660.594	10.02297
661.039	-37.08273
661.484	12.02767
661.929	-12.02709
662.373	-6.01493
662.818	-8.01946
663.262	-14.03261
663.707	-44.10852
664.151	5.01198
664.595	-27.06365
665.039	-16.0385
665.483	-26.06525
665.927	-25.0568
666.371	-25.05698
666.814	-36.08359
667.258	2.00465
667.701	15.03046
668.145	4.00959
668.588	-19.04559
669.031	9.02071
669.474	-44.10338
669.917	-11.02338
670.36	-57.13781
670.803	-13.03032
671.245	-12.02422
671.688	-14.033
672.13	-34.0739
672.573	14.03463
673.015	-55.12874
673.457	-10.02126
673.899	0
674.341	-24.05628
674.783	-17.03993
675.225	-18.04302
675.666	-3.00704
676.108	-10.02111
676.549	-12.02739
676.991	-8.01695
677.432	-38.07227
677.873	-31.0694
678.314	-23.05325
678.755	8.01897
679.196	-18.04032
679.637	-35.08247
680.078	27.06042
680.518	-24.05312
680.959	-21.04879
681.399	-43.10333
681.839	16.03752
682.28	16.03844
682.72	-8.01761
683.16	0
683.6	30.06537
684.039	-22.04392
684.479	-4.00954
684.919	-13.02945
685.358	-9.02205
685.798	-30.07632
686.237	-27.06315
686.676	3.00668
687.115	2.00453
687.554	21.04792
687.993	-19.03986
688.432	42.0928
688.871	-23.05056
689.309	50.11757
689.748	12.02395
690.186	-33.07564
690.625	47.10747
691.063	46.10698
691.501	65.154
691.939	5.01209
692.377	-8.01898
692.815	30.06996
693.253	-22.05064
693.69	-6.01268
694.128	-2.00476
694.565	5.01155
695.003	27.06641
695.44	-14.03172
695.877	23.05232
696.314	12.02458
696.751	-8.01744
697.188	42.09296
697.625	22.04776
698.061	38.08764
698.498	28.06494
698.934	-45.10455
699.371	-2.00459
699.807	0
700.243	5.01178
700.679	31.06708
701.115	-1.00225
701.551	45.10207
701.987	-4.00854
702.422	-8.01833
702.858	-29.06647
703.294	-8.0173
703.729	26.06161
704.164	67.15511
704.599	-32.0684
705.035	-13.02821
705.47	53.12523
705.904	0
706.339	-34.07531
706.774	1.00224
707.209	4.00885
707.643	30.06914
708.078	-20.04703
708.512	24.05906
708.946	11.02515
709.38	-9.02041
709.814	-46.10113
710.248	-65.15257
710.682	34.07823
711.116	-4.00934
711.549	-37.09241
711.983	-32.07094
712.416	-32.07218
712.85	25.0604
713.283	-11.0251
713.716	31.07413
714.149	-4.00905
714.582	-6.01296
715.015	0
715.448	-6.01437
715.881	20.04056
716.313	14.0317
716.746	17.03865
717.178	-37.0859
717.61	-1.00245
718.043	-7.01666
718.475	-48.11238
718.907	-2.00479
719.339	-10.02181
719.77	-7.01624
720.202	-4.00973
720.634	-25.05944
721.065	-33.07537
721.497	3.0071
721.928	-11.02627
722.359	6.01417
722.79	-27.06251
723.221	-32.07712
723.652	-1.00246
724.083	5.01072
724.514	-60.13063
724.945	-38.08649
725.375	-37.08345
725.806	-54.12826
726.236	-18.04441
726.666	-19.04285
727.096	-46.10846
727.526	-9.02215
727.956	-29.06339
728.386	-47.11002
728.816	-10.02452
729.246	-11.02599
729.675	-12.02879
730.105	22.05137
730.534	6.01341
730.964	-38.09165
731.393	-32.07495
731.822	34.08342
732.251	6.01473
732.68	-51.11267
733.109	18.04256
733.537	-50.11661
733.966	-11.02613
734.395	-16.03504
734.823	-48.10291
735.251	-11.02547
735.68	-34.08163
736.108	-49.11936
736.536	-28.06332
736.964	-51.11342
737.392	-51.12242
737.82	-28.06414
738.247	-12.02721
738.675	-18.0405
739.102	27.06528
739.53	23.05663
739.957	-52.12905
740.384	-22.05133
740.811	-16.03926
741.238	-64.15008
741.665	13.02916
742.092	-38.0861
742.519	23.05506
742.945	15.03422
743.372	-8.0191
743.798	-15.03708
744.225	-33.07512
744.651	-24.05764
745.077	18.04282
745.503	-59.13784
745.929	-47.10803
746.355	-35.08193
746.781	-31.07376
747.207	-8.01824
747.632	-49.11645
748.058	-55.13126
748.483	-30.06523
748.908	-54.12974
749.334	-41.09695
749.759	-66.14967
750.184	-42.09621
750.609	-28.06561
751.033	-20.04414
751.458	25.0534
751.883	-46.10901
752.307	-32.07354
752.732	-22.05376
753.156	-30.0712
753.58	6.01347
754.005	13.03183
754.429	-44.09767
754.853	-24.05746
755.277	-7.01594
755.7	-26.0618
756.124	-9.02174
756.548	-31.07108
756.971	-1.00232
757.394	-53.13227
757.818	-14.035
758.241	-47.11457
758.664	14.03422
759.087	-22.048
759.51	-11.02623
759.933	-16.03724
760.356	-3.00737
760.778	26.06206
761.201	-38.08705
761.623	-50.11449
762.046	-71.1579
762.468	9.02044
762.89	-14.03307
763.312	-28.06502
763.734	-14.03243
764.156	-2.00475
764.578	-42.09129
765	-8.01866
765.421	-22.05504
765.843	2.00507
766.264	-51.11737
766.686	20.0484
767.107	45.1048
767.528	-3.0074
767.949	-23.05632
768.37	-56.13214
768.791	-31.07146
769.212	-1.00246
769.632	-96.21699
770.053	-45.11539
770.473	-21.04914
770.894	-31.07356
771.314	-17.03818
771.734	-110.24752
772.154	-18.04457
772.575	-18.03959
772.994	-11.02388
773.414	-67.15141
773.834	-41.09968
774.254	-25.05836
774.673	-77.18038
775.093	-21.05037
775.512	-16.03816
775.931	18.04415
776.351	-67.16002
776.77	-47.11153
777.189	-71.16156
777.607	-30.07426
778.026	-3.00722
778.445	-27.06616
778.864	-22.05398
779.282	-43.0984
779.701	-26.06313
780.119	-45.10916
780.537	-63.15191
780.955	-10.02427
781.373	-67.16009
781.791	3.00644
782.209	21.04593
782.627	-33.08471
783.045	11.02394
783.462	-22.05368
783.88	-37.09321
784.297	1.00241
784.715	4.01003
785.132	-35.08125
785.549	-2.00486
785.966	-61.14781
786.383	-21.04995
786.8	9.01982
787.217	-49.11123
787.633	-41.09901
788.05	-5.01093
788.466	-14.03108
788.883	4.00989
789.299	-31.07071
789.715	8.01866
790.131	-16.03787
790.547	-80.18965
790.963	-14.03329
791.379	-25.06096
791.795	1.00215
792.21	7.01542
792.626	1.00225
793.041	-34.07995
793.457	-44.10394
793.872	-55.12445
794.287	56.12947
794.702	-57.13437
795.117	-56.13321
795.532	-33.08071
795.947	-63.14394
796.362	-21.04717
796.776	-49.10571
797.191	-42.09814
797.605	-54.12474
798.02	27.06286
798.434	-15.03116
798.848	-52.12237
799.262	13.03128
799.676	-23.05295
800.09	-19.04439
800.504	-21.04854
800.918	-19.04162
801.331	-34.08512
801.745	-68.14893
802.158	-48.11519
802.572	-30.069
802.985	-20.04534
803.398	-6.01358
803.811	-14.03417
804.224	-2.00472
804.637	-113.25651
805.05	-32.07041
805.462	22.05088
805.875	32.08077
806.288	-29.0678
806.7	-42.10141
807.112	-34.07494
807.525	0
807.937	-34.08076
808.349	-10.02379
808.761	-51.11845
809.173	-45.10306
809.584	-27.06328
809.996	-13.03056
810.408	-41.10273
810.819	-24.05389
811.231	-40.10262
811.642	21.04956
812.053	-37.0859
812.464	-62.14311
812.875	-43.10623
813.286	-49.12114
813.697	-74.1607
814.108	-31.0714
814.519	-8.01659
814.929	-19.04576
815.34	-64.14867
815.75	-46.11253
816.16	-63.14811
816.571	-45.11284
816.981	-19.04178
817.391	-46.10571
817.801	-12.0289
818.211	-13.02953
818.62	-47.1079
819.03	-43.09947
819.44	-32.07991
819.849	1.00241
820.259	12.02934
820.668	-2.00475
821.077	-26.06204
821.486	-44.0997
821.895	-30.06916
822.304	-9.02293
822.713	-25.05585
823.122	11.02626
823.531	-29.0658
823.939	31.07143
824.348	-8.01854
824.756	-34.08107
825.164	-1.00237
825.573	-41.09879
825.981	32.07495
826.389	-37.08759
826.797	11.02622
827.205	-26.05649
827.612	20.0462
828.02	-27.06097
828.428	-43.10466
828.835	3.00759
829.243	-56.12684
829.65	-12.02857
830.057	15.03484
830.464	26.06059
830.871	-17.03837
831.278	-32.07289
831.685	-45.09349
832.092	-26.06104
832.499	-49.10053
832.905	19.04585
833.312	21.04431
833.718	-15.03536
834.124	26.05569
834.531	-42.10076
834.937	-47.11466
835.343	14.0319
835.749	-7.01521
836.155	-30.07524
836.561	-130.30448
836.966	-7.01615
837.372	-48.11672
837.777	-34.08038
838.183	-84.17285
838.588	-12.02856
838.993	-27.06164
839.399	-44.10229
839.804	-10.02348
840.209	4.0098
840.613	30.06287
841.018	-86.2078
841.423	-42.10213
841.828	-65.15803
842.232	-76.17724
842.637	-78.17292
843.041	-14.03497
843.445	-63.15024
843.849	-22.05191
844.253	-20.04447
844.657	-2.00485
845.061	-18.03854
845.465	47.10916
845.869	-38.08312
846.272	-37.08597
846.676	43.09781
847.079	-11.02695
847.483	-16.03781
847.886	-12.02707
848.289	-7.01826
848.692	-15.0361
849.095	-25.05617
849.498	-31.07322
849.901	-17.03625
850.304	-14.03132
850.707	-39.09489
851.109	-51.12088
851.512	8.01877
851.914	28.0684
852.316	-1.00242
852.718	-15.03763
853.121	-26.06071
853.523	-34.075
853.925	-26.0653
854.326	-7.0169
854.728	-43.10627
855.13	28.06923
855.531	32.07319
855.933	-18.0407
856.334	-32.07677
856.736	-47.09856
857.137	-31.06825
857.538	9.02149
857.939	3.00709
858.34	-24.05504
858.741	-6.01496
859.142	-50.11491
859.542	28.07204
859.943	10.02376
860.343	-34.0811
860.744	-16.03721
861.144	-38.08827
861.544	16.03692
861.945	-28.06768
862.345	-82.18867
862.745	-43.10219
863.145	-48.10646
863.544	-8.01951
863.944	-16.0355
864.344	-31.07217
864.743	-42.09945
865.143	-32.07872
865.542	-74.16289
865.941	23.0543
866.34	7.01581
866.74	-3.00771
867.139	-30.06881
867.537	-77.1877
867.936	9.02051
868.335	2.00488
868.734	0
869.132	-29.06428
869.531	-10.02278
869.929	-27.05882
870.327	-43.09809
870.726	17.03979
871.124	-24.05234
871.522	-61.14775
871.92	34.07857
872.318	-36.08405
872.715	-8.01864
873.113	-52.12141
873.511	-24.05709
873.908	-2.00494
874.306	-32.0763
874.703	-19.0451
875.1	-33.08002
875.497	-41.09273
875.894	13.03072
876.291	-23.05411
876.688	-41.10125
877.085	-48.10885
877.482	-20.04717
877.878	-51.11756
878.275	-74.18029
878.671	-43.08711
879.068	-25.057
879.464	-20.04596
879.86	-24.05458
880.256	-40.09259
880.652	-61.14886
881.048	-44.10249
881.444	-38.08432
881.84	-54.13087
882.236	-7.01676
882.631	56.12885
883.027	-46.10402
883.422	-42.10271
883.817	-28.06817
884.213	-32.07881
884.608	-43.10196
885.003	-15.03438
885.398	-23.05485
885.793	-36.08577
886.188	-51.12316
886.582	-84.20335
886.977	-30.06717
887.371	-36.08682
887.766	-42.10095
888.16	-38.09064
888.554	-38.08824
888.949	-65.15388
889.343	-26.05927
889.737	-15.03911
890.131	-9.02158
890.525	-49.11971
890.918	-46.11194
891.312	-58.12928
891.706	13.0328
892.099	0
892.492	7.014
892.886	-37.08549
893.279	-57.13962
893.672	4.00972
894.065	-7.01654
894.458	-9.02144
894.851	-60.13783
895.244	-58.14268
895.637	-7.01597
896.029	-25.05802
896.422	-36.08313
896.814	-24.05692
897.206	-27.06179
897.599	-48.11031
897.991	-12.02757
898.383	-58.12971
898.775	-34.07192
899.167	9.01996
899.559	-19.04547
899.951	-27.0599
900.342	-42.1001
900.734	-13.03145
901.125	-44.10971
901.517	5.01167
901.908	14.0311
902.299	-55.1292
902.69	-13.02897
903.082	-1.00228
903.473	24.05465
903.863	27.06596
904.254	-46.10054
904.645	-22.0511
905.036	-15.03504
905.426	-76.15963
905.817	-58.1359
906.207	-47.10725
906.597	-26.05774
906.987	-74.1821
907.378	-44.10571
907.768	-1.00254
908.158	3.00692
908.547	-5.01237
908.937	-4.00971
909.327	-4.00911
909.717	-11.02622
910.106	-27.06146
910.495	-3.00714
910.885	-69.16467
911.274	-7.01669
911.663	17.04122
912.052	-32.07425
912.441	13.03167
912.83	-62.13407
913.219	-40.09905
913.608	-49.11425
913.997	-70.16856
914.385	-32.07133
914.774	-31.07123
915.162	-80.18127
915.55	-18.04118
915.939	-81.19811
916.327	-33.07834
916.715	-7.01716
917.103	31.07083
917.491	-71.16542
917.878	-53.12187
918.266	-43.10669
918.654	15.03681
919.041	-65.16398
919.429	-24.05381
919.816	4.00954
920.203	-16.03677
920.591	-32.0748
920.978	-16.03693
921.365	-47.11794
921.752	-42.09555
922.139	-7.01425
922.525	-26.0591
922.912	-29.06674
923.299	-12.02847
923.685	-16.03992
924.072	-28.05985
924.458	-33.07791
924.844	-68.16101
925.231	-41.08948
925.617	6.01476
926.003	-17.04136
926.389	-32.07787
926.774	-23.05584
927.16	-19.04449
927.546	-70.17296
927.931	-12.02837
928.317	-54.11512
928.702	-40.08861
929.088	-66.14961
929.473	-4.00969
929.858	14.03257
930.243	-5.01141
930.628	-58.13409
931.013	-13.03101
931.398	-53.1138
931.783	-10.02512
932.167	-70.1626
932.552	-45.10591
932.937	-69.16095
933.321	-42.10014
933.705	-26.06325
934.09	-15.03536
934.474	-22.04916
934.858	1.00248
935.242	18.03967
935.626	-18.04369
936.009	-1.00254
936.393	38.0921
936.777	-17.04192
937.16	-59.14559
937.544	-27.05965
937.927	-29.07053
938.311	-31.07103
938.694	-21.05309
939.077	-64.14472
939.46	-1.00233
939.843	-14.02646
940.226	-21.05104
940.609	-80.17366
940.991	-62.15156
941.374	-54.12504
941.757	-13.03025
942.139	-57.11964
942.522	-36.07908
942.904	-19.04331
943.286	-37.08878
943.668	-30.07423
944.05	-28.06543
944.432	-52.12308
944.814	-26.06006
945.196	-61.14424
945.578	-25.05707
945.959	-14.03095
946.341	-43.09805
946.722	-15.03328
947.104	-79.1786
947.485	-37.08099
947.866	3.00724
948.247	-19.04566
948.628	-37.08491
949.009	-59.14575
949.39	-70.16325
949.771	-32.06943
950.152	1.00233
950.532	-6.01447
950.913	-64.14519
951.293	-40.10527
951.674	-57.13007
952.054	-42.09968
952.434	-3.00697
952.814	-46.10168
953.194	-12.03005
953.574	-30.06892
953.954	-12.02685
954.334	-14.0333
954.714	-37.08607
955.093	-33.07582
955.473	-62.1472
955.853	-8.01982
956.232	-20.05272
956.611	-49.10906
956.99	12.02866
957.37	-28.06804
957.749	-30.06684
958.128	-8.01937
958.506	-14.03501
958.885	-72.17351
959.264	-56.13132
959.643	-22.04708
960.021	-48.1137
960.4	64.13579
960.778	-46.1055
961.156	-40.09563
961.535	-58.12467
961.913	-53.11458
962.291	-33.08218
962.669	-38.0923
963.047	-75.18153
963.424	-15.03662
963.802	-72.16745
964.18	-10.02379
964.557	-54.11532
964.935	-12.02659
965.312	7.01746
965.69	-8.01883
966.067	-31.07088
966.444	1.00232
966.821	-33.08071
967.198	-31.06991
967.575	-25.05749
967.952	-3.00663
968.329	-31.07111
968.705	-34.06662
969.082	9.02207
969.458	-24.05531
969.835	-19.0436
970.211	-48.11825
970.587	0
970.963	0
971.339	0
971.715	-58.1359
972.091	0
972.467	-72.1687
972.843	-26.06135
973.219	-25.05564
973.594	-26.06521
973.97	10.02192
974.345	-31.07009
974.721	-27.06134
975.096	-68.15521
975.471	31.0688
975.846	22.04991
976.221	-58.14152
976.596	-49.11168
976.971	-17.03975
977.346	-46.09947
977.72	-47.11423
978.095	-15.03707
978.469	-8.018
978.844	5.01183
979.218	-9.02055
979.593	-5.01129
979.967	23.05291
980.341	-22.04715
980.715	-28.06668
981.089	-34.08001
981.463	-27.05907
981.837	-5.01164
982.21	23.04924
982.584	-37.08416
982.957	2.00477
983.331	-16.03558
983.704	23.05352
984.078	-32.07436
984.451	-51.11788
984.824	-18.0419
985.197	-34.07792
985.57	-51.12074
985.943	-10.02277
986.316	31.07117
986.688	-5.01128
987.061	-56.12281
987.434	1.00248
987.806	-24.05462
988.179	-71.15816
988.551	-3.00714
988.923	-31.07214
989.295	33.07707
989.667	7.01608
990.039	26.06073
990.411	27.05837
990.783	0
991.155	-25.05785
991.527	-20.04541
991.898	-22.05163
992.27	-32.07542
992.641	-32.0758
993.012	20.04425
993.384	-30.06764
993.755	-44.1066
994.126	-59.13534
994.497	-60.14037
994.868	-53.11547
995.239	33.07528
995.61	-51.12218
995.98	-29.06754
996.351	-22.05217
996.722	-19.04183
997.092	-46.10457
997.462	-20.04462
997.833	-4.00884
998.203	17.03832
998.573	-13.03095
998.943	-69.15173
999.313	-8.01817
999.683	-72.16294
1000.053	-25.05433
1000.423	-7.01603
1000.792	-19.04708
1001.162	-16.03753
1001.531	7.01637
1001.901	-38.0896
1002.27	9.01881
1002.639	-22.05378
1003.009	15.03393
1003.378	-22.05372
1003.747	-67.14968
1004.116	-50.11445
1004.485	-38.08659
1004.853	14.03352
1005.222	13.03132
1005.591	-72.16109
1005.959	-22.04723
1006.328	-30.06304
1006.696	1.00229
1007.064	-37.08881
1007.433	17.04026
1007.801	-1.00229
1008.169	-31.07387
1008.537	42.08596
1008.905	-32.07068
1009.273	-17.03967
1009.64	-2.00452
1010.008	-15.03354
1010.375	33.07461
1010.743	-25.05273
1011.11	5.01113
1011.478	-50.11757
1011.845	-106.23431
1012.212	-69.14604
1012.579	-13.03028
1012.946	-33.07281
1013.313	38.08375
1013.68	-50.10474
1014.047	23.05215
1014.414	22.04908
1014.78	5.01186
1015.147	-25.05613
1015.513	25.05737
1015.88	-23.05506
1016.246	25.05806
1016.612	-30.06368
1016.978	-39.09033
1017.344	20.04706
1017.71	-42.09482
1018.076	-23.05083
1018.442	17.04113
1018.808	-17.04037
1019.174	-51.12134
1019.539	0
1019.905	-45.10124
1020.27	-8.01888
1020.636	-7.01573
1021.001	-34.07632
1021.366	-11.02543
1021.731	27.06589
1022.096	-16.03878
1022.461	-73.16221
1022.826	-7.01566
1023.191	4.01
1023.556	-50.10905
1023.92	-51.11774
1024.285	-25.0574
1024.649	-26.06037
1025.014	11.02559
1025.378	-10.02413
1025.742	13.03035
1026.107	-30.06268
1026.471	-42.09016
1026.835	-55.12844
1027.199	-8.01827
1027.562	-7.01535
1027.926	-30.06914
1028.29	-52.12631
1028.654	-28.05974
1029.017	42.09687
1029.381	-30.06814
1029.744	14.03403
1030.107	-18.03919
1030.471	-81.18417
1030.834	-78.16477
1031.197	-41.09182
1031.56	-4.00896
1031.923	-26.06405
1032.286	-28.06135
1032.648	-6.01336
1033.011	-45.09775
1033.374	-71.1558
1033.736	-39.09829
1034.099	-17.0394
1034.461	-37.09009
1034.823	-37.08715
1035.185	-60.14202
1035.548	-12.02747
1035.91	-3.00681
1036.272	-13.0277
1036.634	-2.00454
1036.995	11.02443
1037.357	-60.13954
1037.719	-45.10368
1038.08	-48.10562
1038.442	25.05668
1038.803	-42.09466
1039.165	-23.05529
1039.526	-27.06174
1039.887	-56.12828
1040.248	3.00714
1040.609	-18.04196
1040.97	-48.11132
1041.331	-98.23465
1041.692	-53.11841
1042.053	-32.06751
1042.413	-54.11727
1042.774	-35.0801
1043.134	-14.03088
1043.495	-49.1165
1043.855	-58.13398
1044.215	-40.09402
1044.576	-1.00227
1044.936	-4.00861
1045.296	-11.02579
1045.656	16.03681
1046.016	-31.06963
1046.375	15.03446
1046.735	3.00643
1047.095	-7.01539
1047.454	-53.10441
1047.814	-68.15427
1048.173	-45.09954
1048.533	-23.04977
1048.892	-12.02741
1049.251	-10.02375
1049.61	-82.19086
1049.969	6.01335
1050.328	-27.05357
1050.687	-44.10132
1051.046	20.04607
1051.405	-27.06273
1051.763	-41.0894
1052.122	-5.01194
1052.48	-76.17682
1052.839	-41.09133
1053.197	-46.10258
1053.555	-86.1784
1053.914	-14.03213
1054.272	-37.08423
1054.63	-72.16699
1054.988	-31.06931
1055.345	-78.15565
1055.703	-10.02237
1056.061	-16.03921
1056.419	6.01483
1056.776	-27.06149
1057.134	-55.11988
1057.491	-19.04493
1057.848	-19.04444
1058.206	-19.04189
1058.563	28.05762
1058.92	-58.12462
1059.277	-86.19914
1059.634	-79.17248
1059.991	-6.01357
1060.348	-45.09675
1060.704	-54.12251
1061.061	-42.08946
1061.418	10.02294
1061.774	16.03774
1062.131	-14.03623
1062.487	-92.20328
1062.843	-3.00705
1063.199	-24.057
1063.555	1.00219
1063.911	-107.25946
1064.267	-68.12838
1064.623	7.01619
1064.979	-41.08894
1065.335	-48.10646
1065.691	-18.04107
1066.046	-54.11006
1066.402	-74.15899
1066.757	-9.02155
1067.112	-72.16646
1067.468	2.00452
1067.823	-8.01815
1068.178	-13.02983
1068.533	-33.07494
1068.888	-5.01106
1069.243	-34.0801
1069.598	-47.10643
1069.952	-29.06254
1070.307	14.03324
1070.662	-51.11525
1071.016	-37.07873
1071.371	-45.09579
1071.725	-88.19493
1072.079	-19.04294
1072.434	-33.07576
1072.788	-52.11835
1073.142	53.1227
1073.496	-48.10792
1073.85	2.00432
1074.203	-17.03868
1074.557	0
1074.911	-59.1317
1075.265	1.00214
1075.618	20.04594
1075.971	-21.0467
1076.325	15.03603
1076.678	-25.05366
1077.031	-23.04855
1077.385	18.03691
1077.738	-56.11954
1078.091	-12.02597
1078.444	-64.13834
1078.796	-19.04444
1079.149	-77.1806
1079.502	-26.05805
1079.855	-23.05073
1080.207	-18.04175
1080.56	-34.08382
1080.912	-20.04513
1081.264	-57.13023
1081.617	-7.01613
1081.969	-12.02932
1082.321	-9.02074
1082.673	-15.03254
1083.025	-60.13363
1083.377	-293.60847
1083.728	-41.08803
1084.08	-19.04528
1084.432	-66.14766
1084.783	48.10526
1085.135	27.06466
1085.486	-24.05205
1085.838	-59.13854
1086.189	-46.10588
1086.54	-13.02916
1086.891	-50.12272
1087.242	-52.11921
1087.593	-24.05458
1087.944	-26.05483
1088.295	-29.06087
1088.646	-29.06661
1088.996	-32.07274
1089.347	-36.0831
1089.698	-56.12699
1090.048	-26.06382
1090.398	-4.00872
1090.749	-24.05431
1091.099	30.07183
1091.449	-45.10579
1091.799	-33.07828
1092.149	-1.00236
1092.499	-4.00923
1092.849	-43.10455
1093.199	-2.0047
1093.548	-23.05255
1093.898	-12.02851
1094.248	-19.0464
1094.597	-24.05937
1094.947	-28.07143
1095.296	-57.13337
1095.645	-46.11395
1095.994	-18.04098
1096.343	14.03365
1096.692	-44.11233
1097.041	-32.0841
1097.39	-19.04498
1097.739	3.00744
1098.088	-55.14004
1098.437	-36.09123
1098.785	-43.11084
1099.134	-54.13582
1099.482	-55.14486
1099.83	-20.04992
1100.179	-20.05066
1100.527	-45.11393
1100.875	-82.20964
1101.223	-6.01535
1101.571	-2.00534
1101.919	-51.12949
1102.267	22.0602
1102.615	8.0257
1102.962	11.03526
1103.31	15.04811
1103.658	-3.00962
