Data from N3 R6 sample 10_Subt2__0__15-26-14-029.txt Node

Date: Fri Sep 19 15:26:14 PDT 2025
User: uwsun
Spectrometer: HDX01956
Trigger mode: 0
Integration Time (sec): 5.000000E-1
Scans to average: 1
Nonlinearity correction enabled: true
Boxcar width: 0
Storing dark spectrum: false
XAxis mode: Wavelengths
Number of Pixels in Spectrum: 2068
>>>>>Begin Spectral Data<<<<<
194.03	1.0029
194.578	2.0065
195.127	8.02565
195.676	-5.01604
196.225	4.01057
196.773	9.02511
197.321	30.0834
197.87	62.15901
198.418	74.19124
198.966	63.16599
199.513	85.21582
200.061	16.04082
200.609	57.14993
201.156	25.05412
201.704	3.00758
202.251	39.10352
202.798	74.19217
203.345	60.14803
203.892	24.06062
204.438	43.10274
204.985	46.10972
205.532	94.25095
206.078	62.1519
206.624	67.16545
207.17	33.07658
207.716	2.00485
208.262	66.12871
208.808	29.07251
209.354	74.17914
209.899	25.06291
210.445	77.19238
210.99	44.10656
211.535	42.09845
212.08	36.08343
212.625	31.07759
213.17	15.038
213.715	14.03175
214.259	71.16522
214.804	33.08095
215.348	9.02065
215.892	35.08433
216.436	59.13659
216.98	56.12177
217.524	38.0897
218.068	43.1079
218.612	44.10931
219.155	37.08675
219.698	15.0354
220.242	57.1405
220.785	36.08402
221.328	81.19988
221.871	57.14298
222.414	26.0636
222.956	4.00972
223.499	27.06044
224.041	0
224.583	57.12049
225.126	77.17017
225.668	75.18043
226.21	24.06015
226.751	-5.01081
227.293	15.03379
227.835	30.07254
228.376	46.10389
228.918	70.17416
229.459	69.17214
230	31.07328
230.541	53.11982
231.082	47.11307
231.622	39.08911
232.163	51.12376
232.704	2.00494
233.244	53.13011
233.784	30.0723
234.324	35.07751
234.864	5.01125
235.404	42.09779
235.944	1.00234
236.484	30.07344
237.023	58.13601
237.563	5.01152
238.102	56.13055
238.641	75.18847
239.18	29.06794
239.719	46.11541
240.258	8.01779
240.797	52.12379
241.335	-15.03622
241.874	91.17235
242.412	32.07598
242.95	62.14788
243.488	40.09049
244.026	47.10764
244.564	65.13113
245.102	65.14395
245.64	41.09748
246.177	-23.0513
246.715	42.09853
247.252	-2.00453
247.789	52.09048
248.326	1.00237
248.863	29.06264
249.4	87.19621
249.936	-14.02869
250.473	65.14994
251.009	56.12808
251.546	39.08551
252.082	47.1027
252.618	60.13302
253.154	27.06446
253.69	69.1523
254.226	53.1245
254.761	-18.03987
255.297	72.15563
255.832	4.00939
256.367	42.09733
256.903	45.09687
257.438	14.03232
257.972	3.00659
258.507	53.12168
259.042	5.01056
259.576	26.05584
260.111	34.07742
260.645	73.15573
261.179	42.09633
261.713	64.13905
262.247	91.208
262.781	114.23447
263.315	22.05366
263.849	36.08934
264.382	32.07236
264.915	72.16738
265.449	23.05611
265.982	58.12821
266.515	70.16837
267.048	92.19161
267.58	28.05946
268.113	68.14579
268.646	98.23956
269.178	68.14969
269.71	78.16592
270.243	32.0723
270.775	42.10609
271.307	21.04943
271.838	65.15066
272.37	50.12227
272.902	66.14882
273.433	20.0431
273.965	90.21787
274.496	19.04644
275.027	11.02704
275.558	42.10076
276.089	71.1761
276.62	37.09284
277.15	50.12159
277.681	14.0296
278.211	67.16039
278.741	87.19018
279.272	32.0726
279.802	72.17777
280.332	69.16069
280.861	14.03355
281.391	-1.00225
281.921	21.04954
282.45	115.28471
282.98	93.23939
283.509	62.13722
284.038	4.00893
284.567	11.02505
285.096	79.18832
285.625	96.21682
286.153	34.07882
286.682	61.1365
287.21	57.13541
287.739	66.15252
288.267	79.18941
288.795	65.16842
289.323	80.18686
289.851	84.19219
290.378	102.22434
290.906	92.2207
291.433	108.2643
291.961	73.16154
292.488	80.19636
293.015	91.2126
293.542	105.25996
294.069	71.17217
294.596	70.17067
295.122	113.2642
295.649	79.17306
296.175	51.12055
296.702	75.17707
297.228	63.14851
297.754	90.1977
298.28	66.1473
298.806	94.22361
299.332	50.10951
299.857	63.13976
300.383	89.21938
300.908	71.17204
301.433	129.30798
301.958	46.10321
302.483	106.26363
303.008	55.13342
303.533	34.0864
304.058	51.11845
304.582	84.19597
305.107	84.21799
305.631	51.11394
306.155	109.25154
306.679	75.17363
307.203	117.26645
307.727	81.19072
308.251	73.17755
308.775	62.14539
309.298	105.24944
309.822	123.30352
310.345	102.23731
310.868	84.19774
311.391	125.30003
311.914	122.30033
312.437	95.21048
312.96	99.23038
313.482	120.27974
314.005	106.26162
314.527	97.25185
315.049	118.29027
315.571	176.38839
316.093	145.35293
316.615	104.24873
317.137	115.24245
317.659	133.31132
318.18	87.20739
318.702	111.25391
319.223	97.19541
319.744	189.4114
320.265	94.22576
320.786	120.29202
321.307	185.44876
321.828	160.35516
322.348	159.36649
322.869	76.17452
323.389	288.50461
323.909	124.27914
324.43	152.35363
324.95	206.45707
325.47	170.40889
325.989	202.4694
326.509	137.29657
327.029	132.29154
327.548	166.36525
328.067	131.3094
328.587	222.53456
329.106	193.42243
329.625	130.32872
330.144	131.2929
330.662	168.37911
331.181	220.49685
331.7	176.39927
332.218	255.53216
332.736	224.49948
333.255	209.46903
333.773	214.48981
334.291	212.50448
334.808	194.4143
335.326	213.46423
335.844	244.55105
336.361	236.57471
336.879	253.56356
337.396	207.47655
337.913	249.5443
338.43	294.63382
338.947	231.52988
339.464	218.44898
339.981	228.52352
340.497	303.71114
341.014	231.53646
341.53	266.57912
342.046	263.61993
342.562	297.70277
343.078	241.54194
343.594	315.71645
344.11	323.72244
344.626	297.71606
345.141	316.68622
345.657	276.58684
346.172	295.67097
346.687	303.66149
347.202	302.64156
347.717	340.76532
348.232	368.86551
348.747	348.7499
349.261	346.72413
349.776	314.69232
350.29	323.75955
350.805	350.80521
351.319	411.88887
351.833	322.69507
352.347	307.67079
352.861	358.78237
353.374	316.6792
353.888	432.95522
354.401	365.78164
354.915	351.74289
355.428	386.90041
355.941	355.77828
356.454	414.85493
356.967	401.88318
357.48	396.8394
357.993	333.77116
358.505	434.99322
359.018	378.85223
359.53	362.81249
360.042	360.73175
360.554	400.89371
361.066	379.8571
361.578	430.86805
362.09	434.95324
362.602	397.80934
363.113	353.75202
363.625	471.97546
364.136	442.88654
364.647	408.88031
365.158	451.96661
365.669	505.11577
366.18	411.87176
366.691	462.92794
367.201	511.09468
367.712	458.93518
368.222	534.11372
368.733	522.02641
369.243	467.92522
369.753	542.1109
370.263	514.09376
370.773	507.13745
371.282	517.10278
371.792	527.07694
372.301	547.18958
372.811	564.31898
373.32	579.07856
373.829	587.24043
374.338	632.22562
374.847	626.24925
375.356	675.40733
375.865	672.22523
376.373	726.40623
376.882	747.62713
377.39	746.54556
377.898	794.6817
378.407	776.45028
378.915	846.48725
379.423	911.76811
379.93	913.6703
380.438	987.96035
380.946	1071.97282
381.453	1084.0457
381.96	1141.09447
382.468	1250.24097
382.975	1353.4591
383.482	1309.14423
383.989	1323.55558
384.495	1420.33052
385.002	1500.12062
385.509	1501.42857
386.015	1676.12106
386.521	1709.43795
387.028	1825.57094
387.534	1783.35469
388.04	1939.78408
388.546	1960.52875
389.051	2155.55543
389.557	2341.85487
390.063	2485.88439
390.568	2381.95215
391.073	2569.72235
391.578	2601.02879
392.084	2751.59192
392.589	2963.50709
393.093	3156.80284
393.598	3509.48149
394.103	3759.63866
394.607	4202.34446
395.112	4404.44773
395.616	4687.10926
396.12	5194.50746
396.624	5518.38683
397.128	6125.27764
397.632	6663.02092
398.136	7283.17545
398.639	7940.73529
399.143	9106.59401
399.646	10247.02674
400.15	11213.41733
400.653	12639.34414
401.156	14410.39708
401.659	16749.44971
402.162	21589.32728
402.664	31063.65039
403.167	54839.38826
403.67	59721.58024
404.172	55487.84425
404.674	37291.05854
405.176	4428.40989
405.678	533.47942
406.18	0
406.682	0
407.184	6962.89417
407.686	50953.82939
408.187	59237.6763
408.688	49952.07349
409.19	37387.25591
409.691	31196.23305
410.192	26363.53026
410.693	23428.0584
411.194	21949.47162
411.694	20514.47979
412.195	18936.68055
412.696	17763.45258
413.196	16763.97275
413.696	16873.68805
414.196	16897.48738
414.696	16002.84737
415.196	15141.08427
415.696	12687.94852
416.196	9771.57858
416.695	8078.81224
417.195	7525.38088
417.694	7131.6684
418.194	6629.57322
418.693	6248.95219
419.192	6221.18952
419.691	6047.2352
420.19	5813.35272
420.688	5808.58215
421.187	5394.71719
421.685	4905.71389
422.184	4339.1256
422.682	3655.14691
423.18	3284.60815
423.678	2872.65574
424.176	2731.68658
424.674	2581.48734
425.172	2431.79814
425.669	2306.04315
426.167	2075.64837
426.664	1937.536
427.161	1725.42009
427.659	1695.68761
428.156	1567.10006
428.652	1495.61631
429.149	1389.36803
429.646	1358.03375
430.143	1262.20155
430.639	1222.11586
431.135	1124.10386
431.632	1026.78769
432.128	1004.89483
432.624	1000.00629
433.12	952.70815
433.616	951.6049
434.111	885.7029
434.607	799.56739
435.103	854.39202
435.598	797.31009
436.093	688.33378
436.588	727.35084
437.083	683.28341
437.578	603.16901
438.073	531.14788
438.568	650.34705
439.062	582.05438
439.557	514.04391
440.051	530.0412
440.546	540.07086
441.04	461.96116
441.534	484.09088
442.028	539.12392
442.522	489.03709
443.015	458.87917
443.509	473.02883
444.002	463.00875
444.496	397.75857
444.989	450.98837
445.482	401.89575
445.975	440.89435
446.468	389.74761
446.961	409.76863
447.454	306.6217
447.947	386.83892
448.439	398.8819
448.931	418.84227
449.424	369.82905
449.916	356.7734
450.408	402.82904
450.9	329.72766
451.392	348.80604
451.884	304.6275
452.375	250.57174
452.867	330.67322
453.358	258.53351
453.849	283.54703
454.341	332.68007
454.832	275.5438
455.323	298.66914
455.814	294.6134
456.304	282.59281
456.795	258.53662
457.285	259.52273
457.776	259.53018
458.266	288.63367
458.756	218.48087
459.247	221.48698
459.737	246.54967
460.226	251.52055
460.716	275.60748
461.206	216.47626
461.695	249.58169
462.185	295.64103
462.674	224.4711
463.163	177.36249
463.653	206.40248
464.142	180.4042
464.63	240.54224
465.119	184.40282
465.608	177.37971
466.096	206.41758
466.585	154.32873
467.073	190.41981
467.561	251.56744
468.05	175.37639
468.538	231.53413
469.026	216.48483
469.513	147.29082
470.001	129.27591
470.489	176.39018
470.976	156.33835
471.463	200.47099
471.951	192.44986
472.438	193.42528
472.925	147.3208
473.412	155.3547
473.899	155.33639
474.385	143.33197
474.872	137.30075
475.359	133.30791
475.845	135.26295
476.331	120.24325
476.817	91.20934
477.303	137.30037
477.789	151.34249
478.275	162.38061
478.761	70.16087
479.247	113.23802
479.732	105.25193
480.218	120.29769
480.703	132.31593
481.188	55.11233
481.673	136.2956
482.158	108.22053
482.643	149.35845
483.128	78.16925
483.612	94.2084
484.097	85.19858
484.581	39.08583
485.066	69.16006
485.55	59.12302
486.034	88.18385
486.518	81.18275
487.002	70.16498
487.486	65.15287
487.969	127.29937
488.453	116.28039
488.936	68.14623
489.42	56.11928
489.903	87.21025
490.386	89.1826
490.869	29.05977
491.352	50.11697
491.835	42.08222
492.318	52.11384
492.8	26.05131
493.283	109.26729
493.765	44.10531
494.247	26.05812
494.73	45.0957
495.212	76.17514
495.694	28.06342
496.175	-7.01626
496.657	75.17308
497.139	-27.04359
497.62	45.10406
498.102	31.07506
498.583	-6.01448
499.064	64.13922
499.545	17.03756
500.026	-5.0109
500.507	-2.00447
500.988	33.07861
501.469	7.01697
501.949	-26.06223
502.43	8.01845
502.91	22.04376
503.39	18.04367
503.87	16.03671
504.35	-24.05465
504.83	30.06362
505.31	23.05441
505.79	-5.01168
506.269	-21.04759
506.749	-21.0468
507.228	23.0524
507.707	35.07479
508.187	13.02986
508.666	-35.08391
509.145	-15.03424
509.623	-29.06658
510.102	2.0047
510.581	-3.00698
511.059	48.11773
511.538	-21.05302
512.016	14.03277
512.494	-19.0447
512.972	37.08597
513.45	17.03884
513.928	28.06607
514.406	15.03603
514.884	35.08868
515.361	14.033
515.839	-21.04664
516.316	1.00233
516.793	-17.042
517.27	35.08267
517.747	-2.00503
518.224	-2.00448
518.701	-18.03936
519.178	40.09818
519.654	-45.10286
520.131	-65.15726
520.607	-22.05344
521.083	-22.04957
521.56	17.03884
522.036	32.06825
522.512	6.0144
522.987	30.0701
523.463	-10.02337
523.939	3.00717
524.414	-39.0877
524.89	-49.11362
525.365	2.00447
525.84	7.0167
526.315	-47.11075
526.79	-25.05477
527.265	-47.10409
527.74	-26.06206
528.215	0
528.689	28.06104
529.164	-78.16412
529.638	-2.00504
530.112	-27.0634
530.587	16.03367
531.061	-9.02138
531.534	-18.04241
532.008	-8.01893
532.482	-64.14189
532.956	30.0757
533.429	-83.19406
533.903	-50.10775
534.376	-18.03877
534.849	-9.0205
535.322	-1.00231
535.795	-22.05272
536.268	-9.02134
536.741	-15.03522
537.213	-7.01587
537.686	-77.18475
538.158	-29.06401
538.631	-40.09486
539.103	-40.08824
539.575	-43.08774
540.047	-26.05584
540.519	-30.06972
540.991	-38.09053
541.463	15.03557
541.934	9.02013
542.406	-22.05165
542.877	-21.04631
543.348	-76.17717
543.82	15.0357
544.291	-18.0404
544.762	-7.01621
545.233	-5.01242
545.703	11.02382
546.174	37.08389
546.645	27.06412
547.115	20.0471
547.585	7.01593
548.056	20.04802
548.526	11.02536
548.996	8.01877
549.466	7.01656
549.935	7.01649
550.405	33.0711
550.875	-35.08132
551.344	46.10808
551.814	-67.14999
552.283	-20.04227
552.752	58.13024
553.221	-31.0663
553.69	10.02178
554.159	122.292
554.628	39.0845
555.096	43.10588
555.565	64.13709
556.033	59.13344
556.502	58.13537
556.97	74.15666
557.438	71.16215
557.906	100.22696
558.374	49.10852
558.842	104.23862
559.31	79.16823
559.777	82.19206
560.245	98.21726
560.712	112.2425
561.18	102.21424
561.647	136.2864
562.114	125.27129
562.581	218.50597
563.048	153.32809
563.514	169.39512
563.981	238.50252
564.448	226.47321
564.914	253.54275
565.381	194.40621
565.847	272.58388
566.313	262.56072
566.779	300.6262
567.245	286.61684
567.711	347.76395
568.176	387.80402
568.642	329.76552
569.108	399.88834
569.573	378.7904
570.038	444.82681
570.504	456.918
570.969	431.96871
571.434	447.87731
571.899	458.97673
572.363	435.87834
572.828	476.94944
573.293	540.07735
573.757	543.09163
574.222	512.01239
574.686	565.10147
575.15	572.18624
575.614	583.14633
576.078	564.14461
576.542	598.17339
577.006	569.11612
577.469	524.1291
577.933	577.09879
578.396	591.23034
578.86	558.13138
579.323	546.13576
579.786	550.01352
580.249	520.03785
580.712	487.04407
581.175	450.99543
581.637	560.12768
582.1	510.9639
582.563	388.71677
583.025	473.0188
583.487	441.77297
583.95	455.86393
584.412	457.83012
584.874	403.87902
585.336	434.92275
585.797	363.70167
586.259	306.64723
586.721	337.72231
587.182	325.67913
587.643	350.71694
588.105	338.73211
588.566	299.57158
589.027	294.66152
589.488	233.49013
589.949	252.55982
590.41	276.49632
590.87	213.44214
591.331	189.37304
591.791	190.40487
592.252	197.42207
592.712	220.49219
593.172	212.44409
593.632	187.36978
594.092	174.36288
594.552	145.2909
595.011	182.39574
595.471	197.41021
595.931	134.28132
596.39	156.35433
596.849	170.37075
597.308	157.31745
597.768	154.37195
598.227	162.36856
598.685	108.23114
599.144	104.23124
599.603	168.37384
600.062	81.16077
600.52	157.33041
600.978	188.4213
601.437	172.367
601.895	123.24585
602.353	72.15056
602.811	113.23697
603.269	133.29958
603.727	116.26423
604.184	124.26492
604.642	131.30303
605.099	150.32603
605.557	124.28291
606.014	131.26488
606.471	150.35915
606.928	199.41474
607.385	210.48779
607.842	162.35391
608.299	169.36865
608.755	116.2653
609.212	209.435
609.668	164.3443
610.125	174.39105
610.581	122.26754
611.037	157.33361
611.493	147.32379
611.949	184.41556
612.405	226.42062
612.861	172.37082
613.316	189.42571
613.772	192.41127
614.227	158.35086
614.683	230.45258
615.138	249.54591
615.593	168.36173
616.048	145.30637
616.503	184.42199
616.958	194.45508
617.412	146.32502
617.867	205.42686
618.321	167.31227
618.776	163.33548
619.23	146.32583
619.684	187.38713
620.138	135.28711
620.592	153.34717
621.046	153.33389
621.5	169.38285
621.954	134.28033
622.407	167.34433
622.861	77.17529
623.314	153.32582
623.768	162.35406
624.221	155.28567
624.674	81.17489
625.127	128.28188
625.58	102.21329
626.033	146.29487
626.485	125.28087
626.938	118.26247
627.39	105.23079
627.843	129.2771
628.295	76.16702
628.747	96.21593
629.199	162.34701
629.651	95.20486
630.103	121.2626
630.555	37.07385
631.006	101.22321
631.458	85.18668
631.909	75.16138
632.361	6.01329
632.812	62.13694
633.263	34.06898
633.714	48.09579
634.165	-3.00686
634.616	33.07452
635.067	29.06022
635.518	17.0382
635.968	105.19469
636.419	-9.0185
636.869	34.07644
637.319	50.10988
637.769	51.10922
638.219	5.01126
638.669	23.05291
639.119	36.08349
639.569	52.12108
640.019	68.14811
640.468	-28.05938
640.918	39.08929
641.367	0
641.816	46.09832
642.265	57.12534
642.714	83.1832
643.163	-19.04152
643.612	59.1373
644.061	-18.0364
644.51	19.04182
644.958	4.00846
645.406	24.05551
645.855	28.06563
646.303	20.04451
646.751	33.07257
647.199	-15.03233
647.647	58.12901
648.095	40.08716
648.543	13.02496
648.99	15.03473
649.438	41.09228
649.885	48.11484
650.333	39.07015
650.78	56.13183
651.227	43.10117
651.674	-2.00442
652.121	-1.00232
652.568	31.07251
653.015	-13.03122
653.461	22.05038
653.908	22.0491
654.354	-49.11231
654.801	1.00228
655.247	6.01257
655.693	12.03034
656.139	-7.0162
656.585	2.00465
657.031	11.02506
657.477	21.04394
657.922	14.03135
658.368	-38.09085
658.813	-39.08587
659.259	24.05577
659.704	37.08351
660.149	-15.03388
660.594	20.04585
661.039	7.01551
661.484	18.04145
661.929	-26.05887
662.373	9.02233
662.818	12.02908
663.262	-29.06775
663.707	-17.04172
664.151	37.08814
664.595	-31.07313
665.039	-25.06026
665.483	12.02991
665.927	0
666.371	-41.09375
666.814	-34.07892
667.258	-27.06313
667.701	0
668.145	-25.06026
668.588	-28.0673
669.031	10.02301
669.474	-8.01866
669.917	31.0653
670.36	3.00717
670.803	-11.02565
671.245	-2.00403
671.688	-36.08521
672.13	-39.08486
672.573	30.07399
673.015	-16.03717
673.457	-10.02126
673.899	-12.02804
674.341	-29.06807
674.783	-10.02346
675.225	-27.06464
675.666	-6.0141
676.108	-21.04445
676.549	9.02046
676.991	-32.06816
677.432	-40.07611
677.873	-31.0694
678.314	4.00921
678.755	-10.0238
679.196	-20.04482
679.637	-18.04228
680.078	-12.02707
680.518	-39.08659
680.959	-42.09799
681.399	-53.1276
681.839	2.0047
682.28	8.01925
682.72	-59.13127
683.16	4.00969
683.6	37.08051
684.039	-48.09641
684.479	-27.06471
684.919	-32.07277
685.358	0
685.798	-52.1328
686.237	-3.00698
686.676	5.01113
687.115	-10.02272
687.554	-16.03678
687.993	-38.08006
688.432	11.02446
688.871	-20.04393
689.309	82.19161
689.748	-35.07061
690.186	-48.11035
690.625	-7.01618
691.063	5.01172
691.501	-26.06268
691.939	-68.16666
692.377	-2.00474
692.815	2.00469
693.253	-9.02066
693.69	-87.18712
694.128	-12.02859
694.565	-51.1191
695.003	-13.03221
695.44	-36.08194
695.877	25.05684
696.314	-49.10176
696.751	-47.10331
697.188	-13.0291
697.625	1.00218
698.061	-30.07013
698.498	-5.01167
698.934	-28.06484
699.371	-11.02526
699.807	-33.0761
700.243	23.05401
700.679	-6.01309
701.115	-9.02026
701.551	23.0524
701.987	20.04247
702.422	-48.11084
702.858	-31.07108
703.294	-26.05644
703.729	68.15983
704.164	1.00235
704.599	-44.09429
705.035	-16.03475
705.47	29.06884
705.904	-49.1106
706.339	-38.08425
706.774	-13.02921
707.209	-28.06233
707.643	-14.03255
708.078	-44.10394
708.512	-25.06208
708.946	-19.04371
709.38	-17.03862
709.814	-43.09448
710.248	-65.15257
710.682	-19.04418
711.116	-19.04448
711.549	-10.02485
711.983	-7.01544
712.416	-38.08582
712.85	-8.01945
713.283	11.02499
713.716	0
714.149	-5.01131
714.582	9.01938
715.015	-5.01198
715.448	-43.10372
715.881	-26.05328
716.313	6.01361
716.746	-27.06194
717.178	-44.10229
717.61	-2.0049
718.043	-45.10785
718.475	-14.03256
718.907	-28.0674
719.339	1.00218
719.77	-6.01392
720.202	-23.05617
720.634	-27.06422
721.065	-16.03642
721.497	4.00946
721.928	-16.03825
722.359	-31.07373
722.79	-47.10924
723.221	-36.08682
723.652	-9.02214
724.083	-49.1063
724.514	-98.21509
724.945	-19.04308
725.375	-39.08799
725.806	-63.14989
726.236	9.02209
726.666	-22.04965
727.096	-27.06343
727.526	-28.06916
727.956	-36.07881
728.386	-4.00928
728.816	-3.00735
729.246	38.08893
729.675	10.02389
730.105	27.06298
730.534	-15.03366
730.964	-4.00958
731.393	-83.19634
731.822	-14.03466
732.251	-2.00492
732.68	-90.20044
733.109	12.0284
733.537	-14.03242
733.966	-29.06913
734.395	5.0109
734.823	16.03383
735.251	-28.06504
735.68	5.01191
736.108	-34.08259
736.536	-23.05196
736.964	-70.15629
737.392	-7.01666
737.82	-39.08954
738.247	5.0113
738.675	-26.0586
739.102	-20.04878
739.53	-9.02229
739.957	-62.15415
740.384	-19.0443
740.811	55.13317
741.238	-28.0652
741.665	3.00674
742.092	-54.12276
742.519	-34.08228
742.945	7.01599
743.372	-2.00477
743.798	4.00985
744.225	-44.10039
744.651	-33.07939
745.077	6.01431
745.503	16.03683
745.929	-49.11267
746.355	13.03014
746.781	-1.00237
747.207	-28.06409
747.632	-12.02832
748.058	-28.06648
748.483	-21.04558
748.908	-39.09343
749.334	10.02341
749.759	-29.06527
750.184	-7.01592
750.609	13.03022
751.033	-5.011
751.458	39.08305
751.883	-15.03533
752.307	-1.00228
752.732	-29.07096
753.156	8.01885
753.58	-2.0045
754.005	11.02694
754.429	-67.14943
754.853	35.08286
755.277	-6.01366
755.7	-35.08334
756.124	4.00964
756.548	10.02274
756.971	-3.00696
757.394	6.01481
757.818	29.07193
758.241	-38.09248
758.664	32.07796
759.087	17.03678
759.51	-22.05258
759.933	50.11486
760.356	-4.00983
760.778	26.06206
761.201	-28.06401
761.623	-48.10987
762.046	-20.04401
762.468	68.15258
762.89	31.07259
763.312	-20.04637
763.734	29.06661
764.156	48.11282
764.578	-17.03675
765	33.07637
765.421	24.05954
765.843	-7.01777
766.264	18.04085
766.686	7.01698
767.107	54.12554
767.528	-14.03459
767.949	-34.08342
768.37	-8.0187
768.791	-46.10635
769.212	44.10716
769.632	-30.0669
770.053	9.02286
770.473	24.05566
770.894	-14.03311
771.314	2.00447
771.734	10.02195
772.154	22.05408
772.575	4.00876
772.994	16.03454
773.414	-7.01563
773.834	-13.03144
774.254	-1.00232
774.673	10.02303
775.093	-3.00717
775.512	12.02847
775.931	53.12915
776.351	-53.12625
776.77	21.04918
777.189	-1.00224
777.607	-22.05438
778.026	48.11436
778.445	-5.0122
778.864	-3.00733
779.282	-30.06847
779.701	-7.01694
780.119	-32.07744
780.537	-42.10087
780.955	-9.02184
781.373	-16.03786
781.791	-15.0323
782.209	28.06114
782.627	-19.04865
783.045	20.04345
783.462	-25.06103
783.88	-14.03512
784.297	-31.07514
784.715	8.02005
785.132	-13.03005
785.549	50.12031
785.966	-29.06985
786.383	-11.02611
786.8	0
787.217	23.05145
787.633	-10.02401
788.05	-63.13941
788.466	-14.03108
788.883	25.06156
789.299	-7.01589
789.715	48.1111
790.131	-75.17954
790.547	-39.09172
790.963	3.00711
791.379	-44.10768
791.795	7.01503
792.21	-32.07106
792.626	10.02244
793.041	-42.09891
793.457	-44.10394
793.872	-12.02691
794.287	-29.06818
794.702	-26.06092
795.117	-26.06149
795.532	-21.05125
795.947	-4.00903
796.362	-9.02016
796.776	-78.16932
797.191	-41.09579
797.605	29.06588
798.02	-20.04699
798.434	6.01241
798.848	-22.05147
799.262	39.09336
799.676	-1.00229
800.09	22.05098
800.504	-33.07646
800.918	-22.04822
801.331	-7.01744
801.745	-26.05644
802.158	-50.12004
802.572	-19.0436
802.985	-12.02716
803.398	13.02931
803.811	-10.02439
804.224	-33.07828
804.637	-90.20335
805.05	6.0131
805.462	27.06238
805.875	41.10333
806.288	-6.01397
806.7	-26.06259
807.112	-25.055
807.525	-2.00472
807.937	-12.02838
808.349	-14.03333
808.761	-80.18686
809.173	-15.03415
809.584	7.0163
809.996	-79.18811
810.408	0
810.819	-53.11973
811.231	-11.02808
811.642	61.14285
812.053	10.023
812.464	-10.02284
812.875	7.01713
813.286	-49.12114
813.697	-5.0107
814.108	-45.10393
814.519	-80.16855
814.929	-30.07241
815.34	-54.12519
815.75	-56.13725
816.16	-67.15763
816.571	31.07667
816.981	-76.16912
817.391	-37.08488
817.801	9.02159
818.211	-8.01816
818.62	-47.1079
819.03	-67.15573
819.44	-31.0774
819.849	10.02407
820.259	-4.00981
820.668	-1.00237
821.077	-48.11502
821.486	-27.06097
821.895	-67.1556
822.304	-22.05619
822.713	-22.04912
823.122	21.05004
823.531	-24.0544
823.939	-36.08405
824.348	-4.00926
824.756	-17.0404
825.164	-42.10033
825.573	-23.05523
825.981	32.07495
826.389	-67.15953
826.797	-12.02873
827.205	-27.05867
827.612	-11.02557
828.02	-34.07688
828.428	-47.11449
828.835	-34.08656
829.243	-53.11997
829.65	-19.04529
830.057	47.10846
830.464	-11.02582
830.871	-6.01351
831.278	-54.12355
831.685	-72.15049
832.092	32.07427
832.499	-35.07158
832.905	-10.02426
833.312	-63.13539
833.718	-29.06855
834.124	-17.03675
834.531	-53.12741
834.937	-14.03394
835.343	-22.0505
835.749	-9.01957
836.155	-35.08786
836.561	-98.22809
836.966	-31.07188
837.372	-33.08002
837.777	-62.14737
838.183	-82.16866
838.588	17.04023
838.993	-80.18458
839.399	-95.22307
839.804	-47.11114
840.209	-17.04183
840.613	-12.02538
841.018	-62.14913
841.423	-57.139
841.828	-9.02165
842.232	-35.08096
842.637	-57.12582
843.041	13.03232
843.445	-73.17442
843.849	-5.01176
844.253	-11.02441
844.657	-20.04862
845.061	-23.0493
845.465	-3.00704
845.869	-60.13185
846.272	-30.06961
846.676	-24.05533
847.079	17.04144
847.483	19.0446
847.886	-1.00225
848.289	29.07519
848.692	-13.03128
849.095	-81.1841
849.498	-25.05898
849.901	-45.09654
850.304	-57.12866
850.707	-26.06311
851.109	-82.19551
851.512	-13.03063
851.914	-14.03446
852.316	0
852.718	-26.06535
853.121	-32.0748
853.523	-60.13307
853.925	-27.06782
854.326	-5.01207
854.728	-11.02702
855.13	-43.10771
855.531	28.06409
855.933	-10.02258
856.334	-9.0215
856.736	-68.14327
857.137	-20.04393
857.538	-13.03117
857.939	-31.07373
858.34	-25.05735
858.741	0
859.142	-6.01367
859.542	45.11543
859.943	24.05687
860.343	-5.01186
860.744	18.04158
861.144	-19.04397
861.544	-27.06283
861.945	-41.09935
862.345	-78.17932
862.745	0
863.145	-27.05962
863.544	33.07984
863.944	-9.01994
864.344	-63.14759
864.743	9.0211
865.143	21.05115
865.542	-30.06543
865.941	28.06604
866.34	31.06966
866.74	-8.02058
867.139	-28.06419
867.537	-35.08465
867.936	30.06809
868.335	10.02437
868.734	17.04175
869.132	23.05043
869.531	-17.03878
869.929	0
870.327	-32.07283
870.726	-36.08514
871.124	-50.10965
871.522	-54.13063
871.92	21.04866
872.318	2.00463
872.715	-7.01631
873.113	-54.12613
873.511	-15.03562
873.908	28.06873
874.306	-22.05235
874.703	-9.02132
875.1	-29.07027
875.497	-20.04504
875.894	21.04954
876.291	6.01404
876.688	-22.05414
877.085	-31.07006
877.482	-53.12581
877.878	-50.11523
878.275	-18.04339
878.671	-54.10966
879.068	-25.057
879.464	-28.06445
879.86	-5.01133
880.256	-26.06001
880.652	-30.07279
881.048	-33.0767
881.444	-92.20642
881.84	-18.04333
882.236	0
882.631	-38.08907
883.027	-49.11087
883.422	-20.04871
883.817	8.01934
884.213	-3.00735
884.608	-11.02592
885.003	4.00913
885.398	-56.13439
885.793	-31.07379
886.188	-34.08184
886.582	-60.14459
886.977	-19.04245
887.371	-39.09411
887.766	-24.05749
888.16	16.03777
888.554	2.00461
888.949	-70.16588
889.343	-79.18202
889.737	-16.04172
890.131	-36.08676
890.525	-24.05836
890.918	-15.03629
891.312	-20.04423
891.706	-11.02787
892.099	-12.02891
892.492	-20.04026
892.886	-52.12051
893.279	-28.06822
893.672	-32.07825
894.065	-38.09033
894.458	-21.05014
894.851	-28.06391
895.244	-46.11291
895.637	-8.01825
896.029	-43.10014
896.422	-26.05992
896.814	-15.03551
897.206	-20.0457
897.599	-60.13822
897.991	-14.03217
898.383	-69.15466
898.775	-34.07192
899.167	-38.08509
899.559	-31.07435
899.951	2.00441
900.342	-58.13866
900.734	8.01928
901.125	-36.08963
901.517	6.014
901.908	-35.07855
902.299	-35.0819
902.69	-17.03792
903.082	-14.03201
903.473	-19.04364
903.863	4.00981
904.254	-76.16716
904.645	-41.0956
905.036	1.00233
905.426	-82.17246
905.817	1.00232
906.207	-44.10035
906.597	-68.15232
906.987	-43.10521
907.378	-31.0743
907.768	-18.04582
908.158	-71.16626
908.547	-30.07456
908.937	-61.14959
909.327	-12.02738
909.717	-11.02622
910.106	1.00226
910.495	20.04739
910.885	-79.1889
911.274	-50.12022
911.663	43.10376
912.052	-30.06958
912.441	-4.00977
912.83	-58.12531
913.219	-32.07912
913.608	54.12335
913.997	-49.11753
914.385	-28.06236
914.774	-32.07354
915.162	-70.15829
915.55	38.08596
915.939	-20.04836
916.327	-16.03786
916.715	-45.11109
917.103	-10.02304
917.491	-15.03456
917.878	-85.19671
918.266	-35.08672
918.654	66.16044
919.041	-44.11059
919.429	7.01559
919.816	-43.10353
920.203	-38.08771
920.591	-44.1031
920.978	-18.04156
921.365	-41.10277
921.752	-35.07952
922.139	-3.0061
922.525	-38.08659
922.912	-32.07369
923.299	-21.04991
923.685	-39.09772
924.072	-42.09004
924.458	18.04208
924.844	-51.12036
925.231	-23.05
925.617	-25.06185
926.003	-37.09036
926.389	-33.08032
926.774	-8.01937
927.16	-23.0539
927.546	-44.1082
927.931	30.07035
928.317	-79.16933
928.702	-25.05521
929.088	-25.0562
929.473	-49.11967
929.858	-7.01635
930.243	4.00911
930.628	-66.15283
931.013	25.05921
931.398	-47.10079
931.783	-6.01506
932.167	-28.0645
932.552	-50.1178
932.937	-72.16804
933.321	-66.15809
933.705	-7.01697
934.09	-19.04482
934.474	-17.03795
934.858	-24.05984
935.242	-3.00664
935.626	-40.09749
936.009	-71.18244
936.393	22.05348
936.777	-45.11153
937.16	-85.21075
937.544	-22.04855
937.927	-35.08522
938.311	-21.04802
938.694	11.02765
939.077	-50.11274
939.46	-13.0303
939.843	-49.0934
940.226	-37.09019
940.609	-45.09696
940.991	-34.08268
941.374	-76.17675
941.757	-1.00232
942.139	-38.07943
942.522	-31.06802
942.904	-22.05017
943.286	-41.09845
943.668	25.06124
944.05	-24.05604
944.432	-11.02583
944.814	-56.13013
945.196	-3.00701
945.578	-41.0939
945.959	-8.01766
946.341	-72.16513
946.722	0
947.104	-41.09198
947.485	-43.09424
947.866	-60.14645
948.247	-56.13552
948.628	-46.10576
949.009	-4.00978
949.39	-48.11146
949.771	-13.02809
950.152	-15.03508
950.532	20.048
950.913	-33.07439
951.293	-24.06299
951.674	-61.13931
952.054	-47.11165
952.434	-36.08422
952.814	-62.13751
953.194	33.08197
953.574	-71.16444
953.954	-30.06737
954.334	-16.03808
954.714	-58.13547
955.093	-88.20442
955.473	-44.1041
955.853	0
956.232	-20.05272
956.611	-24.05314
956.99	2.00479
957.37	23.05535
957.749	-59.13225
958.128	-16.03879
958.506	-2.00499
958.885	-48.11515
959.264	-15.03489
959.643	20.04242
960.021	-13.03059
960.4	27.05775
960.778	-67.15431
961.156	-17.04046
961.535	-78.16838
961.913	-48.10366
962.291	-22.05468
962.669	-40.0972
963.047	-37.08891
963.424	-13.03173
963.802	-39.09011
964.18	-15.03572
964.557	-75.1609
964.935	-56.12524
965.312	-48.12094
965.69	-2.0047
966.067	-20.04563
966.444	-5.01162
966.821	-46.11278
967.198	-23.05179
967.575	-56.12957
967.952	-19.04215
968.329	-61.14077
968.705	-53.10431
969.082	12.02941
969.458	-26.05994
969.835	6.0137
970.211	-28.06873
970.587	-7.01649
970.963	-5.01215
971.339	0
971.715	-66.15489
972.091	-10.02318
972.467	-27.06271
972.843	7.01641
973.219	-34.07582
973.594	-18.04508
973.97	-16.03526
974.345	-57.12955
974.721	-28.06363
975.096	-52.1183
975.471	-37.08327
975.846	26.05894
976.221	-31.07526
976.596	-20.04532
976.971	-2.00466
977.346	-26.05598
977.72	-20.04836
978.095	-28.06936
978.469	4.00898
978.844	-6.01423
979.218	-30.06881
979.593	24.05385
979.967	24.0552
980.341	-44.09474
980.715	-11.02611
981.089	-50.11803
981.463	1.00217
981.837	-50.11748
982.21	-12.02588
982.584	-67.15333
982.957	-27.06473
983.331	-16.03558
983.704	-19.04458
984.078	-38.08841
984.451	-50.11555
984.824	-9.02091
985.197	-27.06179
985.57	-5.01173
985.943	-51.11709
986.316	28.06432
986.688	-22.04979
987.061	-23.05009
987.434	-27.06743
987.806	-38.08673
988.179	-78.174
988.551	-52.12498
988.923	-32.07448
989.295	-9.02119
989.667	-25.05781
990.039	-34.08035
990.411	-1.00217
990.783	-27.058
991.155	-38.08817
991.527	-55.12576
991.898	-34.07998
992.27	-51.12064
992.641	-33.07818
993.012	14.03101
993.384	-14.03146
993.755	-35.08465
994.126	-40.09141
994.497	-79.1855
994.868	-7.0151
995.239	17.0389
995.61	-36.086
995.98	-16.03717
996.351	30.07043
996.722	-18.03962
997.092	-45.10228
997.462	-11.02449
997.833	-1.00221
998.203	-43.09813
998.573	2.00475
998.943	-70.15396
999.313	-6.01362
999.683	-60.13546
1000.053	-25.05433
1000.423	-25.05746
1000.792	-32.07947
1001.162	-17.03989
1001.531	-14.03288
1001.901	-11.0258
1002.27	23.04791
1002.639	16.03884
1003.009	2.00454
1003.378	-18.04392
1003.747	-3.00661
1004.116	-60.13761
1004.485	-17.03857
1004.853	-12.02887
1005.222	27.06488
1005.591	-39.08666
1005.959	22.04678
1006.328	-51.10766
1006.696	-8.01835
1007.064	-11.02627
1007.433	-15.03574
1007.801	-30.06914
1008.169	-41.09789
1008.537	-57.11927
1008.905	-40.08849
1009.273	-13.03031
1009.64	-30.06817
1010.008	-36.08084
1010.375	31.07011
1010.743	-47.09961
1011.11	-4.00892
1011.478	-32.07498
1011.845	-35.07622
1012.212	-43.0905
1012.579	-15.03495
1012.946	-54.11967
1013.313	23.05085
1013.68	-5.01037
1014.047	32.07242
1014.414	-24.05405
1014.78	6.01423
1015.147	-64.14484
1015.513	61.13898
1015.88	-33.07915
1016.246	59.1361
1016.612	-66.14119
1016.978	-59.13719
1017.344	23.05409
1017.71	-34.07663
1018.076	-37.08201
1018.442	-40.09782
1018.808	7.01655
1019.174	-49.11654
1019.539	-60.12608
1019.905	-7.01563
1020.27	9.02117
1020.636	21.04692
1021.001	-28.06277
1021.366	-10.02311
1021.731	4.0098
1022.096	-28.06801
1022.461	-51.11281
1022.826	5.01116
1023.191	-17.04266
1023.556	-70.15331
1023.92	-53.12241
1024.285	-48.11071
1024.649	-3.00693
1025.014	15.03486
1025.378	6.01443
1025.742	21.04895
1026.107	-46.09645
1026.471	-55.1184
1026.835	-67.15683
1027.199	-23.0527
1027.562	9.01967
1027.926	-31.07146
1028.29	-30.07257
1028.654	-67.14417
1029.017	6.01394
1029.381	-9.02036
1029.744	26.06306
1030.107	-47.10296
1030.471	-57.12897
1030.834	-60.12624
1031.197	-58.13035
1031.56	22.04904
1031.923	-31.07644
1032.286	-48.10562
1032.648	-20.04467
1033.011	-56.12193
1033.374	-61.13357
1033.736	-62.15689
1034.099	-44.10253
1034.461	10.02414
1034.823	-65.15394
1035.185	-52.12289
1035.548	-42.09671
1035.91	1.00227
1036.272	-12.02556
1036.634	1.00227
1036.995	39.08612
1037.357	-8.01841
1037.719	-55.12698
1038.08	-38.08344
1038.442	39.08817
1038.803	-63.14261
1039.165	-47.1135
1039.526	-26.05944
1039.887	-29.06607
1040.248	-36.08633
1040.609	10.02318
1040.97	-23.05308
1041.331	-87.20787
1041.692	-30.0667
1042.053	-34.07176
1042.413	-44.09535
1042.774	-31.07088
1043.134	-47.10439
1043.495	-41.09733
1043.855	29.06583
1044.215	8.01863
1044.576	-30.06842
1044.936	26.0556
1045.296	-12.02814
1045.656	-11.02545
1046.016	-38.08547
1046.375	26.05961
1046.735	-1.00215
1047.095	-35.07738
1047.454	0
1047.814	-64.14508
1048.173	-23.05064
1048.533	2.0043
1048.892	-14.03199
1049.251	-2.00474
1049.61	-73.16961
1049.969	-18.04025
1050.328	-64.12807
1050.687	-71.16437
1051.046	-20.04644
1051.405	-51.11905
1051.763	-62.13579
1052.122	-16.03828
1052.48	-21.04833
1052.839	-21.04659
1053.197	-6.01327
1053.555	-69.14259
1053.914	-5.01146
1054.272	-12.02718
1054.63	-86.20001
1054.988	-37.08283
1055.345	-34.06715
1055.703	-39.08778
1056.061	-52.12829
1056.419	-49.12229
1056.776	-41.09364
1057.134	-37.08034
1057.491	-38.09019
1057.848	2.00466
1058.206	-45.09974
1058.563	11.02272
1058.92	-20.04262
1059.277	-75.17329
1059.634	-74.16139
1059.991	4.00903
1060.348	-4.00852
1060.704	-33.07455
1061.061	-49.10453
1061.418	22.05036
1061.774	30.07057
1062.131	6.01547
1062.487	-60.13169
1062.843	-12.02825
1063.199	-10.02369
1063.555	-42.09265
1063.911	-44.10543
1064.267	-4.00743
1064.623	17.03923
1064.979	-65.14173
1065.335	-55.12216
1065.691	14.03174
1066.046	-66.13489
1066.402	-65.13938
1066.757	15.03576
1067.112	-12.02741
1067.468	-25.05675
1067.823	-4.00907
1068.178	12.0274
1068.533	-19.04303
1068.888	-14.03104
1069.243	-37.08722
1069.598	-81.18469
1069.952	-23.04953
1070.307	-44.10563
1070.662	3.0067
1071.016	-22.04666
1071.371	-54.11517
1071.725	-61.13436
1072.079	-34.07707
1072.434	-80.18539
1072.788	-3.00676
1073.142	-20.04697
1073.496	-23.05145
1073.85	-28.06081
1074.203	-23.0524
1074.557	-32.08227
1074.911	-35.07774
1075.265	-79.17189
1075.618	4.00922
1075.971	-49.1096
1076.325	-32.07755
1076.678	-106.23147
1077.031	-6.01262
1077.385	-29.06009
1077.738	-6.01267
1078.091	-8.0173
1078.444	-28.06006
1078.796	-15.03506
1079.149	-82.19251
1079.502	-41.09182
1079.855	-32.07071
1080.207	-23.0534
1080.56	-30.07391
1080.912	-69.15727
1081.264	-42.09567
1081.617	-68.15858
1081.969	36.08718
1082.321	-25.05779
1082.673	-11.02384
1083.025	-90.20169
1083.377	-323.67525
1083.728	-50.10757
1084.08	-45.10777
1084.432	-103.2322
1084.783	31.06823
1085.135	8.01923
1085.486	-39.08486
1085.838	-17.03959
1086.189	2.00456
1086.54	22.049
1086.891	-14.03413
1087.242	-44.10071
1087.593	-53.12124
1087.944	-60.12747
1088.295	-21.044
1088.646	-14.03206
1088.996	-80.18363
1089.347	-36.0831
1089.698	-18.0405
1090.048	-44.10836
1090.398	3.00653
1090.749	-8.01805
1091.099	-38.09216
1091.449	-57.13431
1091.799	7.01648
1092.149	-37.0879
1092.499	-1.00231
1092.849	-40.0972
1093.199	1.00235
1093.548	32.0723
1093.898	-27.06434
1094.248	-18.04395
1094.597	7.01722
1094.947	-42.10741
1095.296	-80.18803
1095.645	-40.09898
1095.994	8.01812
1096.343	55.13116
1096.692	-21.0534
1097.041	-13.03406
1097.39	-14.03311
1097.739	-1.00248
1098.088	3.00756
1098.437	-39.09888
1098.785	-29.07457
1099.134	-54.13582
1099.482	-40.10509
1099.83	-44.11031
1100.179	-8.02022
1100.527	-32.08083
1100.875	-33.08364
1101.223	7.01787
1101.571	-20.05352
1101.919	-31.07843
1102.267	-8.022
1102.615	8.0257
1102.962	6.01925
1103.31	6.01926
1103.658	-5.01604
