Data from N3 R6 sample 1_Subt2__0__16-14-09-465.txt Node

Date: Fri Sep 19 16:14:09 PDT 2025
User: uwsun
Spectrometer: HDX01956
Trigger mode: 0
Integration Time (sec): 5.000000E-1
Scans to average: 1
Nonlinearity correction enabled: true
Boxcar width: 0
Storing dark spectrum: false
XAxis mode: Wavelengths
Number of Pixels in Spectrum: 2068
>>>>>Begin Spectral Data<<<<<
194.03	22.06368
194.578	37.11984
195.127	44.1405
195.676	18.0576
196.225	46.12065
196.773	94.25879
197.321	71.19612
197.87	105.26726
198.418	164.4172
198.966	155.40202
199.513	168.42025
200.061	72.18187
200.609	87.22767
201.156	85.18164
201.704	89.22156
202.251	93.24462
202.798	142.36443
203.345	124.30232
203.892	103.2565
204.438	126.29627
204.985	94.22215
205.532	176.46346
206.078	138.33331
206.624	115.28148
207.17	138.31358
207.716	62.14868
208.262	139.26636
208.808	105.25891
209.354	79.19106
209.899	130.32097
210.445	141.34819
210.99	122.29111
211.535	115.26571
212.08	125.28456
212.625	93.23016
213.17	127.31534
213.715	134.29645
214.259	204.46223
214.804	120.28962
215.348	97.21858
215.892	131.30988
216.436	154.34979
216.98	138.29484
217.524	128.29686
218.068	147.36193
218.612	118.2892
219.155	154.35277
219.698	127.2932
220.242	115.28043
220.785	152.34665
221.328	138.33696
221.871	158.38909
222.414	119.28607
222.956	126.29915
223.499	120.26349
224.041	109.24442
224.583	124.25826
225.126	127.27774
225.668	112.26755
226.21	95.23503
226.751	66.14052
227.293	134.29447
227.835	98.23393
228.376	108.24083
228.918	163.39866
229.459	116.28693
230	128.29686
230.541	125.27845
231.082	111.26379
231.622	124.27845
232.163	159.37801
232.704	115.27834
233.244	152.36629
233.784	78.18626
234.324	111.24193
234.864	114.25073
235.404	64.14837
235.944	96.22053
236.484	125.3006
237.023	140.32302
237.563	110.24803
238.102	148.33875
238.641	91.22801
239.18	96.22194
239.719	144.35488
240.258	115.25001
240.797	139.32537
241.335	86.20371
241.874	163.30329
242.412	118.27551
242.95	115.27151
243.488	143.31669
244.026	141.31682
244.564	106.21182
245.102	150.3263
245.64	125.29237
246.177	78.17033
246.715	116.26818
247.252	100.2217
247.789	40.06982
248.326	81.18938
248.863	101.2148
249.4	180.39822
249.936	129.25581
250.473	135.30707
251.009	154.34525
251.546	117.2523
252.082	118.25396
252.618	125.27337
253.154	115.26993
253.69	109.23858
254.226	104.24187
254.761	80.17359
255.297	159.33727
255.832	83.19177
256.367	153.34674
256.903	86.1835
257.438	121.27333
257.972	99.21321
258.507	131.29604
259.042	139.28505
259.576	104.21959
260.111	151.33567
260.645	162.3389
261.179	123.27751
261.713	87.18809
262.247	171.38454
262.781	156.31782
263.315	116.27795
263.849	115.28127
264.382	132.2924
264.915	147.33667
265.449	106.25457
265.982	111.24265
266.515	175.41252
267.048	117.24232
267.58	114.23754
268.113	138.29138
268.646	175.42163
269.178	150.3245
269.71	133.27953
270.243	134.29645
270.775	136.33775
271.307	74.17237
271.838	160.36386
272.37	139.33427
272.902	147.32596
273.433	105.22214
273.965	169.40301
274.496	93.22416
275.027	138.3313
275.558	163.38199
276.089	189.45864
276.62	137.33756
277.15	129.30904
277.681	95.19729
278.211	141.33276
278.741	146.31517
279.272	162.3578
279.802	171.41449
280.332	89.20645
280.861	179.41538
281.391	121.26596
281.921	127.29343
282.45	207.50382
282.98	179.45382
283.509	147.31957
284.038	119.25925
284.567	102.22801
285.096	167.39137
285.625	176.39099
286.153	127.28899
286.682	111.24583
287.21	150.34995
287.739	84.19343
288.267	121.28778
288.795	144.36801
289.323	180.41216
289.851	141.3189
290.378	122.2672
290.906	172.40631
291.433	163.3948
291.961	149.32447
292.488	170.41029
293.015	207.47255
293.542	197.47948
294.069	159.37917
294.596	156.37422
295.122	204.46842
295.649	199.42488
296.175	175.40369
296.702	155.36026
297.228	108.25236
297.754	182.39204
298.28	138.30339
298.806	179.41883
299.332	123.26524
299.857	130.28436
300.383	134.32756
300.908	204.4819
301.433	232.54293
301.958	123.27161
302.483	181.444
303.008	199.46963
303.533	122.30519
304.058	175.39644
304.582	142.3275
305.107	197.50123
305.631	171.37254
306.155	195.44228
306.679	171.38832
307.203	203.45425
307.727	179.41341
308.251	170.40594
308.775	162.37243
309.298	213.49545
309.822	169.41349
310.345	199.4541
310.868	178.41134
311.391	214.50493
311.914	205.4969
312.437	167.36444
312.96	185.42318
313.482	173.39907
314.005	227.54773
314.527	263.6632
315.049	206.49848
315.571	251.54519
316.093	254.60557
316.615	248.57673
317.137	202.41771
317.659	257.58691
318.18	180.42142
318.702	228.50924
319.223	215.42136
319.744	192.41767
320.265	218.51117
320.786	251.59578
321.307	282.67154
321.828	261.56715
322.348	241.54639
322.869	180.4047
323.389	401.68181
323.909	248.54406
324.43	276.62636
324.95	264.57867
325.47	279.65713
325.989	277.63411
326.509	265.55793
327.029	317.67299
327.548	259.55873
328.067	268.6161
328.587	339.7981
329.106	303.64776
329.625	214.53299
330.144	277.60064
330.662	280.61736
331.181	336.74082
331.7	288.63846
332.218	352.71875
332.736	309.67687
333.255	311.68326
333.773	332.7418
334.291	315.73468
334.808	309.64341
335.326	383.80458
335.844	333.73835
336.361	355.84517
336.879	353.76998
337.396	348.77851
337.913	351.75068
338.43	423.88664
338.947	427.94082
339.464	335.67177
339.981	364.81295
340.497	396.91246
341.014	344.78097
341.53	399.8441
342.046	414.94708
342.562	367.8566
343.078	386.84213
343.594	415.92472
344.11	445.9702
344.626	449.04908
345.141	469.98522
345.657	454.92785
346.172	440.97128
346.687	433.91922
347.202	441.90844
347.717	486.05918
348.232	512.16818
348.747	518.07359
349.261	515.03571
349.776	441.9464
350.29	537.20781
350.805	468.04916
351.319	512.08147
351.833	478.99726
352.347	442.93812
352.861	485.02948
353.374	538.09921
353.888	494.07619
354.401	512.05972
354.915	560.12923
355.428	595.3286
355.941	599.2437
356.454	552.10287
356.967	590.24596
357.48	574.16759
357.993	569.25373
358.505	591.30771
359.018	550.19434
359.53	599.27687
360.042	533.03897
360.554	587.25884
361.066	567.23104
361.578	645.23629
362.09	595.26065
362.602	613.18673
363.113	583.17811
363.625	665.31584
364.136	648.23636
364.647	607.25193
365.158	679.38183
365.669	719.51841
366.18	598.21483
366.691	659.26195
367.201	730.49082
367.712	683.32186
368.222	750.49017
368.733	761.41343
369.243	693.29904
369.753	695.37593
370.263	737.49323
370.773	786.6633
371.282	764.54341
371.792	728.42086
372.301	784.62003
372.811	808.79979
373.32	746.33299
373.829	810.62898
374.338	884.61267
374.847	880.65394
375.356	880.75207
375.865	968.63501
376.373	990.79831
376.882	1044.13023
377.39	1000.95536
377.898	1076.13829
378.407	1120.91826
378.915	1212.93116
379.423	1232.2097
379.93	1228.07041
380.438	1286.37744
380.946	1400.36975
381.453	1460.50768
381.96	1442.45173
382.468	1640.65474
382.975	1712.83703
383.482	1718.50643
383.989	1777.06877
384.495	1888.71366
385.002	1912.37134
385.509	1975.79001
386.015	2179.31512
386.521	2292.71612
387.028	2333.79738
387.534	2471.58132
388.04	2515.0156
388.546	2595.69473
389.051	2723.63446
389.557	2959.91016
390.063	3242.86083
390.568	3271.967
391.073	3364.62154
391.578	3454.95648
392.084	3678.34678
392.589	3707.26493
393.093	3967.51507
393.598	4439.02645
394.103	4759.11879
394.607	5301.73645
395.112	5701.75087
395.616	6019.4594
396.12	6596.08981
396.624	7156.22109
397.128	7785.66206
397.632	8725.82353
398.136	9313.09472
398.639	9932.82329
399.143	11103.23861
399.646	12463.52535
400.15	13975.67028
400.653	15486.96914
401.156	17380.10293
401.659	20204.89011
402.162	24689.56655
402.664	32094.32604
403.167	45163.25792
403.67	58660.02319
404.172	55487.84425
404.674	37291.05854
405.176	4428.40989
405.678	533.47942
406.18	0
406.682	0
407.184	6962.89417
407.686	50953.82939
408.187	59237.6763
408.688	61091.12691
409.19	58520.45956
409.691	47070.50488
410.192	39791.43806
410.693	34127.42166
411.194	30928.44044
411.694	29452.29405
412.195	27465.99481
412.696	24446.26945
413.196	22918.3577
413.696	22143.8475
414.196	22448.23148
414.696	22168.63305
415.196	21004.74994
415.696	19379.74995
416.196	15493.17825
416.695	11996.52408
417.195	10253.92003
417.694	9619.26805
418.194	9259.10256
418.693	8589.56995
419.192	8236.10265
419.691	8053.88926
420.19	7966.81678
420.688	7674.69317
421.187	7423.95883
421.685	6919.16274
422.184	6249.24044
422.682	5445.20135
423.18	4657.9598
423.678	4135.2116
424.176	3770.41743
424.674	3557.26928
425.172	3367.7359
425.669	3192.12761
426.167	2979.76751
426.664	2710.72174
427.161	2557.7255
427.659	2373.0809
428.156	2195.37847
428.652	2028.07368
429.149	1981.86473
429.646	1851.38226
430.143	1830.73398
430.639	1713.5941
431.135	1565.61909
431.632	1454.25448
432.128	1446.43891
432.624	1311.44479
433.12	1321.14967
433.616	1266.95832
434.111	1178.10818
434.607	1157.07946
435.103	1069.63988
435.598	1062.61998
436.093	994.78825
436.588	992.72374
437.083	946.66438
437.578	898.62011
438.073	842.7004
438.568	830.65164
439.062	840.42357
439.557	750.44241
440.051	778.44041
440.546	722.37182
441.04	664.32029
441.534	744.58874
442.028	697.40307
442.522	673.37085
443.015	666.21304
443.509	648.35785
444.002	603.2754
444.496	582.06081
444.989	620.31112
445.482	522.13489
445.975	525.0447
446.468	546.00815
446.961	555.00408
447.454	512.99138
447.947	550.15172
448.439	600.27154
448.931	575.11516
449.424	520.13005
449.916	497.04537
450.408	498.00307
450.9	460.98951
451.392	507.13512
451.884	448.89484
452.375	466.01723
452.867	473.9336
453.358	427.84953
453.849	452.83837
454.341	502.98875
454.832	429.81774
455.323	439.95712
455.814	441.89005
456.304	415.84681
456.795	439.87625
457.285	426.82681
457.776	384.7638
458.266	420.89843
458.756	391.83116
459.247	356.7622
459.737	409.88303
460.226	425.84712
460.716	386.83285
461.206	362.77371
461.695	339.77789
462.185	338.72773
462.674	335.6873
463.163	301.59912
463.653	357.67255
464.142	310.67749
464.63	343.75862
465.119	303.64663
465.608	330.68453
466.096	340.66808
466.585	316.65081
467.073	241.52681
467.561	353.78139
468.05	278.58466
468.538	366.82349
469.026	274.60768
469.513	263.50617
470.001	257.53442
470.489	275.59706
470.976	253.53736
471.463	321.73807
471.951	260.60105
472.438	270.58533
472.925	207.44599
473.412	225.50763
473.899	279.58948
474.385	225.51384
474.872	230.495
475.359	238.53947
475.845	213.40717
476.331	235.46383
476.817	174.39361
477.303	242.51881
477.789	195.43833
478.275	181.42367
478.761	175.3937
479.247	157.3275
479.732	206.48474
480.218	192.47002
480.703	233.54688
481.188	165.32858
481.673	190.40822
482.158	176.35383
482.643	143.34441
483.128	155.3308
483.612	132.29032
484.097	170.39051
484.581	113.24482
485.066	101.2328
485.55	130.26678
486.034	187.3821
486.518	127.28384
487.002	121.28235
487.486	138.31992
487.969	120.28326
488.453	104.25195
488.936	93.19891
489.42	161.3351
489.903	154.36746
490.386	165.33271
490.869	99.20082
491.352	94.21801
491.835	53.10348
492.318	134.28827
492.8	115.22218
493.283	131.31992
493.765	107.25301
494.247	84.18553
494.73	91.1916
495.212	97.2226
495.694	78.17487
496.175	41.09435
496.657	167.37832
497.139	-15.02414
497.62	65.14971
498.102	99.23663
498.583	82.19454
499.064	80.17344
499.545	99.21495
500.026	62.13327
500.507	58.12794
500.988	87.20509
501.469	42.10114
501.949	2.00476
502.43	93.21085
502.91	70.13767
503.39	73.17529
503.87	124.27834
504.35	32.07204
504.83	73.15336
505.31	50.11766
505.79	93.21308
506.269	40.08953
506.749	41.0902
507.228	31.07051
507.707	53.11282
508.187	82.18573
508.666	12.02851
509.145	33.07461
509.623	32.07257
510.102	74.17142
510.581	47.10829
511.059	62.15167
511.538	30.07505
512.016	83.19162
512.494	31.07222
512.972	31.07211
513.45	3.00687
513.928	48.11282
514.406	86.20379
514.884	72.18122
515.361	78.18155
515.839	38.08337
516.316	30.06947
516.793	45.1099
517.27	42.09907
517.747	10.02511
518.224	-4.00897
518.701	42.09067
519.178	88.21407
519.654	-46.10516
520.131	21.04998
520.607	-10.02424
521.083	21.0469
521.56	-4.00918
522.036	26.05553
522.512	52.12375
522.987	32.07474
523.463	74.17006
523.939	70.16517
524.414	44.09726
524.89	33.07528
525.365	71.15626
525.84	87.20437
526.315	-13.03043
526.79	27.0585
527.265	12.02625
527.74	31.07319
528.215	34.07801
528.689	38.08266
529.164	4.00826
529.638	17.04272
530.112	68.15671
530.587	48.10028
531.061	17.04018
531.534	35.08161
532.008	63.14701
532.482	-22.04835
532.956	63.15803
533.429	-9.02074
533.903	3.00639
534.376	33.07031
534.849	38.08572
535.322	-19.04395
535.795	21.04991
536.268	58.13574
536.741	7.01637
537.213	49.10983
537.686	4.00945
538.158	17.03716
538.631	14.03285
539.103	-46.1016
539.575	29.05821
540.047	-11.02355
540.519	2.00462
540.991	2.00473
541.463	-8.01905
541.934	37.08228
542.406	58.13404
542.877	-7.01539
543.348	-21.04842
543.82	19.04519
544.291	-42.09474
544.762	15.03458
545.233	22.0544
545.703	30.06471
546.174	8.01825
546.645	31.07356
547.115	37.08685
547.585	57.12839
548.056	29.0695
548.526	40.09167
548.996	47.10941
549.466	32.07533
549.935	77.17897
550.405	59.12641
550.875	26.05968
551.344	42.09876
551.814	-9.01991
552.283	24.05023
552.752	26.05877
553.221	19.0402
553.69	75.16111
554.159	58.14051
554.628	1.00218
555.096	68.16666
555.565	29.06259
556.033	44.09982
556.502	25.05873
556.97	45.09587
557.438	65.14863
557.906	30.06905
558.374	1.00224
558.842	55.12743
559.31	35.07525
559.777	19.04505
560.245	40.08975
560.712	-38.08491
561.18	-37.0801
561.647	-42.09191
562.114	6.01335
562.581	29.06982
563.048	-15.03333
563.514	57.13619
563.981	2.00444
564.448	39.08504
564.914	19.04282
565.381	-1.00218
565.847	51.11469
566.313	55.12298
566.779	96.20946
567.245	41.09307
567.711	62.14465
568.176	128.28129
568.642	69.16876
569.108	61.1453
569.573	57.12766
570.038	139.27848
570.504	128.27714
570.969	70.16895
571.434	125.26399
571.899	103.23656
572.363	51.11205
572.828	130.28015
573.293	93.2051
573.757	142.31232
574.222	149.3202
574.686	133.28631
575.15	96.22053
575.614	150.32547
576.078	110.24671
576.542	180.38856
577.006	139.30077
577.469	170.39473
577.933	133.28101
578.396	195.44228
578.86	100.22428
579.323	104.23795
579.786	153.3105
580.249	130.2834
580.712	108.25087
581.175	150.35256
581.637	140.3096
582.1	138.2846
582.563	30.0604
583.025	88.20555
583.487	110.20961
583.95	131.2684
584.412	83.16513
584.874	77.17954
585.336	89.20342
585.797	138.28115
586.259	77.17103
586.721	98.22088
587.182	95.20864
587.643	74.16105
588.105	71.16254
588.566	110.21992
589.027	94.22016
589.488	48.10508
589.949	61.14089
590.41	102.19163
590.87	67.14361
591.331	83.1679
591.791	29.06396
592.252	55.12145
592.712	62.14322
593.172	53.11493
593.632	-18.03731
594.092	42.09016
594.552	36.07404
595.011	85.18864
595.471	56.12027
595.931	29.06229
596.39	88.20264
596.849	48.10739
597.308	75.1545
597.768	38.09379
598.227	84.19412
598.685	50.10835
599.144	58.13019
599.603	65.14773
600.062	37.0742
600.52	91.19429
600.978	121.27489
601.437	109.23575
601.895	67.13566
602.353	88.18336
602.811	103.21648
603.269	89.20228
603.727	118.26868
604.184	68.14705
604.642	142.32776
605.099	123.26888
605.557	140.31838
606.014	122.24719
606.471	168.40086
606.928	214.44451
607.385	145.34114
607.842	204.44169
608.299	191.4147
608.755	196.44103
609.212	180.37706
609.668	193.40259
610.125	198.44279
610.581	220.47247
611.037	212.44507
611.493	205.44604
611.949	206.46315
612.405	247.4573
612.861	202.43269
613.316	239.53282
613.772	211.45011
614.227	221.48432
614.683	240.47114
615.138	263.5749
615.593	206.43992
616.048	218.45323
616.503	256.57862
616.958	205.47985
617.412	221.48432
617.867	251.51729
618.321	190.35326
618.776	260.52342
619.23	228.50019
619.684	235.48127
620.138	211.44131
620.592	190.42788
621.046	164.35706
621.5	218.48892
621.954	259.52681
622.407	210.4288
622.861	193.42903
623.314	229.4796
623.768	220.47491
624.221	237.42783
624.674	150.31908
625.127	206.44621
625.58	209.42667
626.033	185.37029
626.485	157.35045
626.938	158.34853
627.39	157.34131
627.843	125.26874
628.295	202.43213
628.747	182.40214
629.199	257.53919
629.651	123.26364
630.103	153.32979
630.555	129.25198
631.006	177.38495
631.458	91.1996
631.909	168.35426
632.361	98.21291
632.812	166.35865
633.263	145.28673
633.714	97.19136
634.165	111.24788
634.616	116.25749
635.067	146.29528
635.518	133.29172
635.968	191.34655
636.419	133.26461
636.869	109.2413
637.319	107.23232
637.769	195.4046
638.219	165.35932
638.669	137.30796
639.119	123.28034
639.569	193.43686
640.019	167.3561
640.468	113.23226
640.918	173.38537
641.367	137.28768
641.816	163.33956
642.265	164.35251
642.714	147.32012
643.163	155.3262
643.612	149.34056
644.061	117.2293
644.51	134.28778
644.958	172.35041
645.406	198.44206
645.855	94.21749
646.303	152.32897
646.751	135.29049
647.199	140.29171
647.647	208.44824
648.095	142.30272
648.543	173.31933
648.99	209.46517
649.438	210.45624
649.885	165.38592
650.333	139.2436
650.78	232.52737
651.227	167.38339
651.674	180.3824
652.121	169.37849
652.568	155.3537
653.015	125.29225
653.461	187.41396
653.908	190.40927
654.354	138.30441
654.801	144.31818
655.247	170.34334
655.693	154.37952
656.139	186.4139
656.585	197.44028
657.031	181.39817
657.477	211.42292
657.922	202.43475
658.368	190.43435
658.813	169.35582
659.259	166.37491
659.704	219.47589
660.149	196.42365
660.594	172.38227
661.039	182.3885
661.484	207.45862
661.929	151.32953
662.373	186.44652
662.818	199.46526
663.262	163.3664
663.707	204.48003
664.151	218.50117
664.595	189.42676
665.039	188.4348
665.483	235.56189
665.927	195.4232
666.371	197.42882
666.814	188.41713
667.258	216.48085
667.701	193.37592
668.145	245.56019
668.588	237.54081
669.031	265.57854
669.474	248.54933
669.917	255.51064
670.36	220.50394
670.803	232.51496
671.245	215.4114
671.688	251.56096
672.13	225.46204
672.573	319.7446
673.015	216.47865
673.457	294.58369
673.899	295.64757
674.341	264.58404
674.783	315.69176
675.225	272.61378
675.666	292.64597
676.108	345.67167
676.549	323.68722
676.991	311.61297
677.432	277.48649
677.873	259.54506
678.314	275.59884
678.755	377.82998
679.196	328.68221
679.637	279.61709
680.078	357.74434
680.518	301.62089
680.959	287.62603
681.399	331.7385
681.839	304.67252
682.28	375.83907
682.72	329.67285
683.16	367.82794
683.6	390.78477
684.039	387.69936
684.479	370.81918
684.919	367.76689
685.358	378.85884
685.798	349.8277
686.237	405.86653
686.676	416.84673
687.115	390.81404
687.554	445.92822
687.993	400.76153
688.432	446.902
688.871	448.88695
689.309	488.0469
689.748	503.88957
690.186	455.94022
690.625	506.04774
691.063	491.03907
691.501	428.94243
691.939	517.12614
692.377	457.98622
692.815	546.14131
693.253	485.00082
693.69	498.93615
694.128	594.24729
694.565	519.07351
695.003	568.25388
695.44	545.09213
695.877	559.13109
696.314	552.99281
696.751	554.06182
697.188	639.23598
697.625	630.18858
698.061	601.22788
698.498	615.25766
698.934	584.18527
699.371	652.2958
699.807	629.25612
700.243	682.39204
700.679	727.33744
701.115	687.32391
701.551	648.28723
701.987	649.18769
702.422	713.39385
702.858	728.41213
703.294	712.30094
703.729	728.4874
704.164	750.49779
704.599	732.30455
705.035	729.33038
705.47	847.68903
705.904	731.38457
706.339	791.44887
706.774	813.5147
707.209	808.4849
707.643	802.56034
708.078	818.60509
708.512	882.82028
708.946	838.59417
709.38	820.544
709.814	842.50416
710.248	901.71132
710.682	892.69707
711.116	934.77368
711.549	876.81838
711.983	876.57309
712.416	897.63685
712.85	978.9312
713.283	947.74047
713.716	962.8854
714.149	894.64904
714.582	983.67434
715.015	956.86482
715.448	949.85333
715.881	936.50319
716.313	1024.83954
716.746	970.77704
717.178	930.7421
717.61	1032.03551
718.043	956.84809
718.475	1016.8783
718.907	978.89878
719.339	976.68335
719.77	1037.9053
720.202	987.94945
720.634	1026.9402
721.065	1027.84165
721.497	1015.92543
721.928	969.8746
722.359	1044.96374
722.79	1049.90622
723.221	967.88319
723.652	1002.9971
724.083	961.63588
724.514	955.63087
724.945	972.7575
725.375	976.74326
725.806	1000.88727
726.236	1063.09043
726.666	999.78215
727.096	1038.92668
727.526	1018.02094
727.956	998.70773
728.386	938.76747
728.816	1048.05557
729.246	1034.943
729.675	985.90831
730.105	995.87461
730.534	981.74906
730.964	982.90475
731.393	964.813
731.822	1056.09071
732.251	986.97425
732.68	992.71285
733.109	961.85202
733.537	975.81086
733.966	961.85025
734.395	981.69604
734.823	951.59969
735.251	952.77901
735.68	992.91048
736.108	971.90708
736.536	1004.79064
736.964	951.67364
737.392	894.75443
737.82	952.74837
738.247	913.6787
738.675	985.75892
739.102	968.91857
739.53	899.84918
739.957	896.83104
740.384	880.68475
740.811	932.87805
741.238	904.71412
741.665	953.72263
742.092	839.55937
742.519	882.76012
742.945	903.68769
743.372	851.6923
743.798	855.76964
744.225	885.6377
744.651	854.7034
745.077	874.73205
745.503	861.64395
745.929	840.58482
746.355	870.67118
746.781	806.60457
747.207	841.58555
747.632	826.62767
748.058	810.60806
748.483	780.40248
748.908	799.60352
749.334	830.62714
749.759	778.45905
750.184	818.54702
750.609	742.47289
751.033	772.41933
751.458	862.50675
751.883	762.51968
752.307	826.56902
752.732	762.58507
753.156	778.5545
753.58	809.51394
754.005	829.71655
754.429	734.36353
754.853	746.5194
755.277	782.49324
755.7	763.534
756.124	778.59542
756.548	714.38954
756.971	759.49092
757.394	689.48294
757.818	734.58089
758.241	689.44419
758.664	726.53488
759.087	697.28728
759.51	722.47579
759.933	689.3774
760.356	696.48423
760.778	700.45145
761.201	641.26531
761.623	626.23594
762.046	653.23176
762.468	686.3413
762.89	687.39877
763.312	654.31065
763.734	663.32657
764.156	674.38752
764.578	616.14962
765	628.27877
765.421	609.34534
765.843	669.48909
766.264	580.16373
766.686	678.4333
767.107	596.23444
767.528	586.2845
767.949	598.29156
768.37	572.18201
768.791	539.09852
769.212	615.33427
769.632	524.03229
770.053	534.22628
770.473	546.13274
770.894	524.10734
771.314	539.07012
771.734	484.95598
772.154	566.24789
772.575	527.02433
772.994	526.0095
773.414	446.902
773.834	475.04019
774.254	460.97078
774.673	501.03806
775.093	463.00533
775.512	411.8995
775.931	493.09964
776.351	409.88719
776.77	414.8944
777.189	436.88986
777.607	402.91557
778.026	409.90645
778.445	413.92864
778.864	400.90402
779.282	328.69436
779.701	380.85183
780.119	300.68027
780.537	323.72155
780.955	368.82935
781.373	325.71792
781.791	336.66895
782.209	341.69518
782.627	331.795
783.045	328.66579
783.462	309.70707
783.88	294.69635
784.297	276.63017
784.715	323.7631
785.132	288.62568
785.549	332.75587
785.966	224.51352
786.383	273.61239
786.8	273.56795
787.217	255.54302
787.633	267.60705
788.05	184.38612
788.466	239.50253
788.883	248.58537
789.299	235.50718
789.715	236.5258
790.131	222.50117
790.547	179.40303
790.963	246.55557
791.379	212.49399
791.795	192.39579
792.21	218.45888
792.626	200.43118
793.041	189.42502
793.457	198.44571
793.872	169.3649
794.287	238.53026
794.702	195.43707
795.117	152.34707
795.532	201.47012
795.947	166.36172
796.362	187.40203
796.776	157.32371
797.191	191.42581
797.605	162.3581
798.02	158.35829
798.434	165.32904
798.848	100.22834
799.262	178.41477
799.676	147.32691
800.09	97.22144
800.504	165.36724
800.918	137.29022
801.331	158.38176
801.745	102.21537
802.158	125.29007
802.572	118.26335
802.985	95.21031
803.398	116.25599
803.811	114.2716
804.224	98.22656
804.637	45.09887
805.05	98.20974
805.462	95.21653
805.875	131.3248
806.288	81.18529
806.7	92.21649
807.112	110.23512
807.525	120.27665
807.937	54.12608
808.349	64.15008
808.761	45.10252
809.173	66.14778
809.584	81.18581
809.996	88.2028
810.408	29.07175
810.819	80.17581
811.231	60.15123
811.642	126.2913
812.053	113.25453
812.464	95.21241
812.875	49.119
813.286	40.09727
813.697	5.01068
814.108	40.09082
814.519	66.13458
814.929	67.15874
815.34	43.09777
815.75	81.19346
816.16	-34.07948
816.571	75.18398
816.981	31.06745
817.391	63.14162
817.801	20.04787
818.211	15.03388
818.62	17.03853
819.03	44.10002
819.44	62.15218
819.849	65.15483
820.259	68.16455
820.668	75.17535
821.077	0
821.486	57.1265
821.895	-6.01377
822.304	31.07843
822.713	39.08598
823.122	29.069
823.531	18.04045
823.939	2.00463
824.348	75.17094
824.756	20.04719
825.164	-4.00949
825.573	8.0191
825.981	43.1005
826.389	-2.0047
826.797	23.0547
827.205	35.07505
827.612	11.02546
828.02	37.08246
828.428	-5.01208
828.835	5.01264
829.243	36.08001
829.65	-8.01903
830.057	35.08096
830.464	55.12743
830.871	35.07816
831.278	-22.05001
831.685	-12.02475
832.092	65.14988
832.499	-29.05923
832.905	41.09852
833.312	26.0548
833.718	9.02112
834.124	35.07483
834.531	2.00476
834.937	-2.00484
835.343	56.12653
835.749	37.07965
836.155	15.03731
836.561	-54.12459
836.966	27.06189
837.372	43.10278
837.777	-9.02117
838.183	-42.08561
838.588	6.01423
838.993	-26.05934
839.399	5.01151
839.804	-1.00234
840.209	26.06346
840.613	34.07119
841.018	6.01425
841.423	-38.09234
841.828	6.01439
842.232	-1.0023
842.637	-31.06805
843.041	76.18675
843.445	-36.08541
843.849	-11.0259
844.253	-14.03109
844.657	44.10567
845.061	-2.00427
845.465	87.20045
845.869	21.04536
846.272	-21.04864
846.676	53.12031
847.079	29.07053
847.483	8.01882
847.886	37.08263
848.289	47.12149
848.692	-3.0072
849.095	-9.02016
849.498	39.09086
849.901	26.05492
850.304	6.01337
850.707	4.00965
851.109	-21.04948
851.512	44.10253
851.914	32.07811
852.316	5.01207
852.718	-9.02255
853.121	22.05088
853.523	-20.04399
853.925	-12.03006
854.326	17.04085
854.728	-7.01718
855.13	14.03471
855.531	33.07546
855.933	52.11591
856.334	21.04987
856.736	2.00415
857.137	-2.00438
857.538	4.00956
857.939	51.11938
858.34	30.06806
858.741	-20.05
859.142	21.04757
859.542	68.17372
859.943	56.13188
860.343	25.05896
860.744	68.15552
861.144	-13.03005
861.544	24.05529
861.945	-32.07741
862.345	-41.09356
862.745	26.06097
863.145	8.01754
863.544	42.10145
863.944	-11.02438
864.344	4.00925
864.743	38.08859
865.143	-2.00489
865.542	1.00217
865.941	25.059
866.34	52.11634
866.74	7.01796
867.139	3.00683
867.537	-7.01684
867.936	42.09509
868.335	35.0849
868.734	36.0881
869.132	11.02418
869.531	0
869.929	0
870.327	-24.05454
870.726	16.03746
871.124	41.08819
871.522	-17.04084
871.92	-2.00466
872.318	31.07143
872.715	-9.02098
873.113	4.00924
873.511	21.04952
873.908	34.08336
874.306	22.05191
874.703	17.04007
875.1	-2.00482
875.497	-6.01347
875.894	-2.00474
876.291	41.09526
876.688	-31.07641
877.085	-14.03153
877.482	-11.0259
877.878	-2.00456
878.275	-24.05792
878.671	-26.05246
879.068	46.10338
879.464	33.07503
879.86	41.09201
880.256	-19.0438
880.652	2.00482
881.048	-13.0301
881.444	-9.01985
881.84	3.00719
882.236	41.09725
882.631	16.03711
883.027	-12.02695
883.422	-18.04382
883.817	32.07703
884.213	19.04635
884.608	-8.01884
885.003	-26.05973
885.398	37.08722
885.793	-27.06422
886.188	5.01195
886.582	-11.02626
886.977	14.03106
887.371	20.04772
887.766	22.05223
888.16	16.03777
888.554	11.02529
888.949	-41.09661
889.343	-38.08684
889.737	20.05183
890.131	-16.03841
890.525	8.01934
890.918	5.01205
891.312	-25.05534
891.706	11.02776
892.099	17.04073
892.492	-3.00602
892.886	-24.05531
893.279	12.02902
893.672	-2.00486
894.065	-13.03075
894.458	6.01425
894.851	-14.03186
895.244	-26.06358
895.637	-4.00912
896.029	3.00692
896.422	-13.02988
896.814	16.03765
897.206	16.0363
897.599	-27.06179
897.991	5.01145
898.383	-7.01549
898.775	14.0293
899.167	41.09031
899.559	13.03092
899.951	7.01542
900.342	-44.10491
900.734	38.09106
901.125	-27.06712
901.517	30.06966
901.908	-4.00892
902.299	-4.0093
902.69	-14.03121
903.082	-3.00684
903.473	27.06144
903.863	58.14088
904.254	-14.03039
904.645	-1.00231
905.036	28.06486
905.426	-45.09387
905.817	13.03004
906.207	-43.09805
906.597	2.00442
906.987	-2.00486
907.378	-1.00238
907.768	37.09328
908.158	-13.0301
908.547	-31.07706
908.937	-21.05111
909.327	-30.06869
909.717	25.05918
910.106	-15.03406
910.495	31.0733
910.885	-42.09972
911.274	-3.00715
911.663	43.10376
912.052	22.0505
912.441	8.01951
912.83	-19.04071
913.219	-22.0543
913.608	29.06658
913.997	-35.08372
914.385	-11.02441
914.774	20.04548
915.162	-27.06052
915.55	26.05896
915.939	1.00241
916.327	-24.05687
916.715	-7.01716
917.103	14.0321
917.491	2.00459
917.878	-19.04339
918.266	-10.02466
918.654	29.07098
919.041	-42.10552
919.429	7.01559
919.816	17.04046
920.203	1.00229
920.591	-12.02794
920.978	-19.04388
921.365	-3.00747
921.752	20.04493
922.139	27.05454
922.525	-1.00226
922.912	-6.01374
923.299	12.02834
923.685	-19.04744
924.072	-15.03197
924.458	21.04906
924.844	15.03495
925.231	-51.11153
925.617	20.04907
926.003	-4.00971
926.389	53.12693
926.774	10.02413
927.16	12.02793
927.546	-26.06372
927.931	11.02589
928.317	-28.05936
928.702	28.06114
929.088	4.00894
929.473	-14.03397
929.858	29.06727
930.243	26.05896
930.628	-33.07591
931.013	74.17359
931.398	16.03384
931.783	-5.01255
932.167	-5.01147
932.552	-27.06333
932.937	-13.02999
933.321	-53.12664
933.705	40.0961
934.09	2.0047
934.474	22.04871
934.858	51.12543
935.242	52.11379
935.626	-20.04856
936.009	-31.0791
936.393	59.14243
936.777	19.04654
937.16	-47.11572
937.544	39.08497
937.927	27.06498
938.311	-3.00683
938.694	32.08014
939.077	-24.05383
939.46	42.09683
939.843	2.00376
940.226	-24.05836
940.609	-15.03211
940.991	-29.07046
941.374	-67.15554
941.757	18.04163
942.139	6.01242
942.522	7.01524
942.904	2.00454
943.286	15.03563
943.668	3.00738
944.05	9.02088
944.432	25.05829
944.814	17.03893
945.196	1.00234
945.578	10.02267
945.959	-31.06877
946.341	15.0338
946.722	52.11375
947.104	-62.13968
947.485	-2.00435
947.866	2.00483
948.247	3.00718
948.628	9.02046
949.009	10.02439
949.39	-63.14672
949.771	17.0365
950.152	30.06955
950.532	41.098
950.913	4.00895
951.293	3.00784
951.674	-13.0294
952.054	5.01176
952.434	-32.0748
952.814	-23.0506
953.194	51.12627
953.574	-7.01601
953.954	12.02671
954.334	32.07545
954.714	0
955.093	-30.06889
955.473	-82.19544
955.853	33.08116
956.232	1.00263
956.611	-11.02429
956.99	25.05955
957.37	22.05296
957.749	-31.06908
958.128	12.02894
958.506	-1.00249
958.885	-14.03337
959.264	-36.08409
959.643	-2.00426
960.021	29.06767
960.4	-7.01508
960.778	-50.11477
961.156	7.01658
961.535	-21.04478
961.913	-18.03862
962.291	18.04441
962.669	-33.08008
963.047	-32.07682
963.424	1.00243
963.802	-51.11812
964.18	48.11291
964.557	-43.09161
964.935	0
965.312	12.02991
965.69	35.0817
966.067	-33.07549
966.444	-30.07005
966.821	-13.03168
967.198	-8.01796
967.575	-24.05518
967.952	41.08982
968.329	23.05219
968.705	-39.07651
969.082	-9.02214
969.458	36.08197
969.835	19.04327
970.211	-8.01956
970.587	-20.04723
970.963	36.08679
971.339	12.03008
971.715	-52.1217
972.091	-3.00695
972.467	-41.09548
972.843	-35.08273
973.219	36.07911
973.594	-8.02
973.97	-1.0022
974.345	-32.07236
974.721	-16.03627
975.096	-39.0885
975.471	-2.00447
975.846	50.11279
976.221	4.00965
976.596	13.02926
976.971	38.08789
977.346	1.00214
977.72	34.08138
978.095	29.07109
978.469	-14.03154
978.844	44.10334
979.218	4.00911
979.593	14.03148
979.967	23.05291
980.341	17.03612
980.715	-6.01423
981.089	-31.07291
981.463	-5.01089
981.837	18.04173
982.21	-2.0043
982.584	-52.11864
982.957	-33.07921
983.331	0
983.704	50.11573
984.078	-7.01619
984.451	-19.04364
984.824	-19.04423
985.197	-6.01367
985.57	-6.01408
985.943	-37.08471
986.316	64.14596
986.688	-34.07713
987.061	-32.06982
987.434	4.00993
987.806	17.03837
988.179	-26.05738
988.551	7.01664
988.923	-35.08151
989.295	6.01409
989.667	29.06634
990.039	22.05143
990.411	2.00435
990.783	-18.03859
991.155	1.0023
991.527	-27.06139
991.898	-47.11084
992.27	-5.01172
992.641	-5.01178
993.012	64.14029
993.384	29.0646
993.755	14.03355
994.126	-5.01135
994.497	-2.00463
994.868	38.08119
995.239	40.09111
995.61	-21.05002
995.98	11.02542
996.351	-20.04741
996.722	18.03932
997.092	-31.07026
997.462	-41.09186
997.833	23.05056
998.203	-12.02721
998.573	28.06615
998.943	-24.05228
999.313	47.10556
999.683	-61.13774
1000.053	15.03232
1000.423	10.02282
1000.792	-12.02969
1001.162	21.04891
1001.531	9.02104
1001.901	-14.03285
1002.27	33.06859
1002.639	19.04609
1003.009	30.06764
1003.378	19.04604
1003.747	-2.00441
1004.116	-9.02043
1004.485	40.08971
1004.853	-2.0048
1005.222	14.03373
1005.591	24.05263
1005.959	-29.06235
1006.328	-31.06515
1006.696	27.06149
1007.064	20.04749
1007.433	14.03318
1007.801	15.03426
1008.169	-15.03563
1008.537	46.09406
1008.905	20.04369
1009.273	14.03247
1009.64	5.01128
1010.008	-18.04027
1010.375	29.06562
1010.743	32.06665
1011.11	-14.0313
1011.478	-13.03035
1011.845	-6.01299
1012.212	-17.03557
1012.579	-6.01395
1012.946	20.04364
1013.313	36.07938
1013.68	-12.02493
1014.047	61.13723
1014.414	-14.03146
1014.78	-4.0095
1015.147	-33.07421
1015.513	25.05737
1015.88	-39.09365
1016.246	38.08803
1016.612	6.01264
1016.978	27.06171
1017.344	14.03298
1017.71	-1.00224
1018.076	23.05034
1018.442	-10.02432
1018.808	-5.01185
1019.174	-38.09019
1019.539	-43.09002
1019.905	47.10374
1020.27	14.03289
1020.636	21.04692
1021.001	-7.01563
1021.366	-4.00923
1021.731	-5.01227
1022.096	-30.0729
1022.461	-38.08382
1022.826	-4.00895
1023.191	39.09687
1023.556	-23.04987
1023.92	-18.04128
1024.285	16.03643
1024.649	-14.03243
1025.014	3.00699
1025.378	3.00722
1025.742	5.01169
1026.107	-27.05637
1026.471	-53.11404
1026.835	-53.12372
1027.199	-27.06191
1027.562	38.08252
1027.926	-6.01376
1028.29	2.00481
1028.654	20.04223
1029.017	9.02089
1029.381	-18.04079
1029.744	25.06065
1030.107	-23.05013
1030.471	-24.05394
1030.834	-45.09437
1031.197	-34.07604
1031.56	34.0756
1031.923	4.0098
1032.286	0
1032.648	-21.04692
1033.011	-18.03887
1033.374	2.00432
1033.736	-45.11353
1034.099	11.02536
1034.461	-19.04611
1034.823	-19.0446
1035.185	-12.02814
1035.548	-7.01601
1035.91	-16.03643
1036.272	13.02754
1036.634	2.00453
1036.995	21.04655
1037.357	24.05489
1037.719	33.07485
1038.08	7.01522
1038.442	55.12394
1038.803	10.0223
1039.165	-22.05288
1039.526	41.09247
1039.887	34.07648
1040.248	2.00476
1040.609	19.04397
1040.97	-27.06236
1041.331	-17.04007
1041.692	-13.0288
1042.053	-31.06538
1042.413	-43.09316
1042.774	-31.07088
1043.134	-4.00881
1043.495	-25.05916
1043.855	13.02961
1044.215	-17.03978
1044.576	29.06535
1044.936	18.03856
1045.296	-21.04933
1045.656	13.02993
1046.016	-19.04257
1046.375	30.06872
1046.735	10.02141
1047.095	-1.0022
1047.454	59.11317
1047.814	-36.08114
1048.173	-27.0595
1048.533	20.04288
1048.892	-14.03199
1049.251	-12.02851
1049.61	-49.11331
1049.969	41.09057
1050.328	-43.08563
1050.687	-12.02746
1051.046	1.00231
1051.405	-24.05573
1051.763	-8.01732
1052.122	21.04989
1052.48	-9.02066
1052.839	-15.03323
1053.197	18.03961
1053.555	-54.11122
1053.914	-10.02294
1054.272	27.06067
1054.63	-41.09451
1054.988	-43.09638
1055.345	-71.14145
1055.703	-17.03809
1056.061	17.04141
1056.419	12.02962
1056.776	1.00226
1057.134	-17.03675
1057.491	-36.08541
1057.848	-3.00699
1058.206	-4.00879
1058.563	17.03507
1058.92	-16.03407
1059.277	-46.10567
1059.634	-19.04095
1059.991	48.10735
1060.348	39.08233
1060.704	19.04246
1061.061	-37.07873
1061.418	-15.03459
1061.774	13.03068
1062.131	40.10255
1062.487	-44.09625
1062.843	17.03979
1063.199	17.04006
1063.555	55.11886
1063.911	2.00475
1064.267	-33.06177
1064.623	-22.05116
1064.979	-15.03236
1065.335	-42.09304
1065.691	33.07452
1066.046	-52.10594
1066.402	2.00423
1066.757	9.02148
1067.112	-12.02741
1067.468	22.04946
1067.823	2.00453
1068.178	27.06146
1068.533	6.01352
1068.888	2.00442
1069.243	24.0559
1069.598	-65.14773
1069.952	49.10389
1070.307	31.07336
1070.662	19.04232
1071.016	-3.00634
1071.371	25.0524
1071.725	-22.04806
1072.079	-44.09994
1072.434	-45.10356
1072.788	68.15101
1073.142	43.09975
1073.496	-12.02678
1073.85	-36.07831
1074.203	-4.00908
1074.557	-1.00256
1074.911	-4.00883
1075.265	-50.10812
1075.618	36.08243
1075.971	49.10739
1076.325	9.02164
1076.678	-41.0883
1077.031	51.10591
1077.385	28.05728
1077.738	36.07531
1078.091	22.04727
1078.444	3.00639
1078.796	17.03948
1079.149	-3.00693
1079.502	-50.11219
1079.855	4.00877
1080.207	17.03915
1080.56	-26.06401
1080.912	-24.0542
1081.264	-4.00904
1081.617	21.04812
1081.969	32.07755
1082.321	-11.02536
1082.673	2.00432
1083.025	-6.01321
1083.377	9.01743
1083.728	-58.12499
1084.08	-20.04767
1084.432	-68.1522
1084.783	69.15064
1085.135	62.14749
1085.486	7.01508
1085.838	18.04163
1086.189	-24.055
1086.54	44.09755
1086.891	11.02669
1087.242	-51.1169
1087.593	14.03159
1087.944	7.01465
1088.295	-34.07144
1088.646	7.01596
1088.996	0
1089.347	-6.01377
1089.698	-4.00898
1090.048	-13.03183
1090.398	37.07999
1090.749	-36.08167
1091.099	11.02643
1091.449	-46.10816
1091.799	-2.00472
1092.149	21.04933
1092.499	-17.03933
1092.849	4.00964
1093.199	23.0538
1093.548	44.09917
1093.898	-4.00949
1094.248	11.02671
1094.597	12.02949
1094.947	-12.03053
1095.296	30.069
1095.645	13.03186
1095.994	-10.02273
1096.343	49.11699
1096.692	3.0076
1097.041	-20.05246
1097.39	24.05634
1097.739	16.03959
1098.088	-28.07095
1098.437	9.02262
1098.785	-29.07457
1099.134	-20.05
1099.482	-29.07605
1099.83	17.04215
1100.179	32.08031
1100.527	-5.01257
1100.875	-47.11942
1101.223	6.01532
1101.571	-24.06426
1101.919	-12.03026
1102.267	50.13621
1102.615	10.03211
1102.962	2.00642
1103.31	17.05451
1103.658	-3.00962
