Data from N3 R6 sample 5_Subt2__2__15-22-22-035.txt Node

Date: Fri Sep 19 15:22:22 PDT 2025
User: uwsun
Spectrometer: HDX01956
Trigger mode: 0
Integration Time (sec): 5.000000E-1
Scans to average: 1
Nonlinearity correction enabled: true
Boxcar width: 0
Storing dark spectrum: false
XAxis mode: Wavelengths
Number of Pixels in Spectrum: 2068
>>>>>Begin Spectral Data<<<<<
194.03	-11.03199
194.578	3.00975
195.127	7.02245
195.676	-15.04819
196.225	-16.0424
196.773	11.03068
197.321	30.0834
197.87	24.06196
198.418	75.19379
198.966	66.1738
199.513	92.2333
200.061	31.07888
200.609	58.15253
201.156	-27.0591
201.704	-11.02788
202.251	49.12984
202.798	48.12521
203.345	44.10888
203.892	5.01267
204.438	58.13818
204.985	17.04077
205.532	81.21671
206.078	22.0543
206.624	31.07706
207.17	39.0904
207.716	-11.02674
208.262	36.0707
208.808	-11.0277
209.354	5.01226
209.899	-11.02786
210.445	47.11806
210.99	-27.06626
211.535	37.08681
212.08	25.05806
212.625	40.09996
213.17	-20.05099
213.715	38.08575
214.259	45.10525
214.804	50.12227
215.348	-8.01841
215.892	76.18169
216.436	87.20029
216.98	17.03727
217.524	8.01899
218.068	9.02272
218.612	7.01751
219.155	68.15846
219.698	0
220.242	45.11117
220.785	37.08634
221.328	24.05984
221.871	13.03287
222.414	8.01964
222.956	21.05087
223.499	20.04484
224.041	-9.02067
224.583	68.14339
225.126	53.11772
225.668	21.05104
226.21	1.00252
226.751	-37.08054
227.293	49.1096
227.835	-5.01217
228.376	45.10165
228.918	47.11743
229.459	37.09284
230	10.02373
230.541	-22.0505
231.082	53.12736
231.622	24.055
232.163	18.04395
232.704	30.07377
233.244	-12.02981
233.784	22.0531
234.324	45.09945
234.864	-7.01579
235.404	-13.0306
235.944	17.03967
236.484	14.03438
237.023	53.1244
237.563	15.03448
238.102	18.04228
238.641	53.13371
239.18	44.10277
239.719	75.18718
240.258	-6.01338
240.797	21.05029
241.335	0
241.874	43.0824
242.412	10.02384
242.95	42.10056
243.488	25.05673
244.026	20.04605
244.564	50.10122
245.102	56.12425
245.64	25.05962
246.177	4.00887
246.715	25.05884
247.252	-2.00453
247.789	7.01233
248.326	7.0166
248.863	-17.03708
249.4	51.11587
249.936	-4.00818
250.473	55.12713
251.009	44.10087
251.546	31.06808
252.082	1.00221
252.618	62.1374
253.154	26.06209
253.69	25.05569
254.226	11.02605
254.761	-56.12503
255.297	63.13644
255.832	-29.0685
256.367	6.014
256.903	11.02385
257.438	17.03922
257.972	10.02195
258.507	71.16241
259.042	-18.03822
259.576	17.03658
260.111	-12.02758
260.645	26.05603
261.179	23.05295
261.713	-17.03757
262.247	34.0786
262.781	22.04619
263.315	21.05123
263.849	32.07947
264.382	19.04308
264.915	50.11674
265.449	9.02201
265.982	-12.02691
266.515	32.07752
267.048	95.19773
267.58	15.03194
268.113	62.13309
268.646	82.20104
269.178	8.01783
269.71	17.03664
270.243	25.05657
270.775	42.10609
271.307	17.04004
271.838	45.10472
272.37	35.08583
272.902	45.1019
273.433	24.05168
273.965	96.23213
274.496	28.06832
275.027	21.05153
275.558	-19.04611
276.089	68.16876
276.62	5.01262
277.15	41.09987
277.681	-15.03192
278.211	2.00485
278.741	37.08174
279.272	51.11525
279.802	51.12641
280.332	53.12382
280.861	57.13546
281.391	8.018
281.921	11.026
282.45	94.23362
282.98	30.07807
283.509	49.10875
284.038	8.01784
284.567	-23.05274
285.096	22.05302
285.625	63.14324
286.153	-16.03746
286.682	40.0899
287.21	30.07164
287.739	63.14568
288.267	59.14199
288.795	54.14018
289.323	76.17766
289.851	40.09233
290.378	45.10016
290.906	16.03894
291.433	60.14814
291.961	54.11997
292.488	85.20844
293.015	85.19881
293.542	27.0678
294.069	62.1506
294.596	41.1005
295.122	30.07128
295.649	37.08177
296.175	56.13224
296.702	32.07618
297.228	4.00954
297.754	33.07336
298.28	50.11196
298.806	58.13893
299.332	37.08126
299.857	45.1002
300.383	34.08466
300.908	74.17921
301.433	59.14275
301.958	7.01583
302.483	108.26851
303.008	31.07554
303.533	26.06617
304.058	56.12993
304.582	84.19597
305.107	76.1975
305.631	41.09179
306.155	98.22665
306.679	53.12324
307.203	84.19258
307.727	101.23688
308.251	70.17035
308.775	25.05905
309.298	80.19096
309.822	72.17933
310.345	85.19842
310.868	24.05716
311.391	77.18651
311.914	63.15677
312.437	52.11624
312.96	94.21896
313.482	90.21104
314.005	57.14195
314.527	81.21089
315.049	83.20549
315.571	115.25702
316.093	111.27189
316.615	89.21346
317.137	67.14274
317.659	63.14949
318.18	92.2191
318.702	110.25168
319.223	119.23852
319.744	113.24994
320.265	56.13546
320.786	119.28965
321.307	123.30184
321.828	155.34441
322.348	129.29912
322.869	51.1177
323.389	73.13515
323.909	74.16829
324.43	110.25804
324.95	110.24894
325.47	147.35512
325.989	159.37262
326.509	63.13853
327.029	111.24624
327.548	129.28605
328.067	118.2794
328.587	109.26808
329.106	146.32273
329.625	57.14601
330.144	99.22282
330.662	121.27567
331.181	140.32134
331.7	136.31104
332.218	152.32446
332.736	141.31981
333.255	106.24291
333.773	189.43476
334.291	163.39154
334.808	111.24131
335.326	174.38237
335.844	188.42944
336.361	158.39038
336.879	166.37643
337.396	151.35152
337.913	178.39494
338.43	190.41876
338.947	167.38799
339.464	148.30962
339.981	203.46846
340.497	204.48805
341.014	180.42224
341.53	242.52956
342.046	194.46342
342.562	167.4051
343.078	182.41422
343.594	201.46772
344.11	206.47188
344.626	216.52876
345.141	233.51493
345.657	182.3949
346.172	217.50136
346.687	203.45257
347.202	205.44471
347.717	225.5184
348.232	239.57625
348.747	217.48077
349.261	295.62437
349.776	197.445
350.29	221.53003
350.805	248.58219
351.319	237.53164
351.833	237.52092
352.347	189.42327
352.861	249.55672
353.374	265.57584
353.888	251.57598
354.401	287.62497
354.915	297.63603
355.428	286.68028
355.941	274.61096
356.454	256.5474
356.967	277.62595
357.48	308.66543
357.993	280.65525
358.505	280.66063
359.018	308.70436
359.53	261.59797
360.042	224.46944
360.554	296.67556
361.066	260.60225
361.578	333.68721
362.09	300.6775
362.602	296.6173
363.113	255.55482
363.625	356.75627
364.136	324.66758
364.647	273.60609
365.158	331.72781
365.669	370.84203
366.18	306.66394
366.691	368.75517
367.201	316.70664
367.712	289.61274
368.222	387.83483
368.733	344.70592
369.243	328.67096
369.753	363.77534
370.263	391.85574
370.773	409.93771
371.282	401.87836
371.792	396.83464
372.301	407.91291
372.811	436.04468
373.32	450.86631
373.829	484.04544
374.338	469.94612
374.847	468.96947
375.356	509.09977
375.865	493.94066
376.373	519.05433
376.882	579.30559
377.39	571.22869
377.898	599.32212
378.407	560.1018
378.915	603.1267
379.423	714.45019
379.93	647.26223
380.438	742.55711
380.946	791.55825
381.453	765.55638
381.96	848.67108
382.468	913.77789
382.975	977.94407
383.482	980.75132
383.989	998.07567
384.495	1090.95143
385.002	1084.73113
385.509	1140.02846
386.015	1241.80195
386.521	1273.05839
387.028	1373.20387
387.534	1401.07936
388.04	1406.34556
388.546	1533.25562
389.051	1582.25353
389.557	1762.57316
390.063	1821.61007
390.568	1824.6845
391.073	1944.54455
391.578	1934.77932
392.084	2095.50116
392.589	2281.503
393.093	2488.82072
393.598	2633.64973
394.103	2817.86723
394.607	3194.74851
395.112	3290.91487
395.616	3555.67161
396.12	3963.18372
396.624	4199.09708
397.128	4575.00417
397.632	5036.49877
398.136	5529.22711
398.639	5996.1723
399.143	6874.27674
399.646	7790.49217
400.15	8498.39038
400.653	9757.51119
401.156	10893.53609
401.659	12735.58107
402.162	16431.55159
402.664	24436.02226
403.167	45752.804
403.67	58780.86168
404.172	55487.84425
404.674	37291.05854
405.176	4428.40989
405.678	533.47942
406.18	0
406.682	0
407.184	6962.89417
407.686	50953.82939
408.187	52511.04916
408.688	34803.47431
409.19	26927.96299
409.691	22456.56917
410.192	19099.88137
410.693	17265.52543
411.194	16080.48683
411.694	15080.43359
412.195	13671.04078
412.696	12710.50754
413.196	12392.37386
413.696	12530.45978
414.196	12454.20966
414.696	11844.64693
415.196	10841.38092
415.696	8781.01472
416.196	6704.67442
416.695	5834.02575
417.195	5375.40409
417.694	5184.64391
418.194	4868.98188
418.693	4624.62524
419.192	4493.97379
419.691	4338.06658
420.19	4291.13844
420.688	4141.45869
421.187	3832.53787
421.685	3567.4135
422.184	3189.62115
422.682	2665.41879
423.18	2373.66464
423.678	2159.5823
424.176	2057.56294
424.674	1861.31838
425.172	1721.48423
425.669	1609.60194
426.167	1477.26068
426.664	1396.15124
427.161	1237.99977
427.659	1222.19505
428.156	1173.77292
428.652	1008.98773
429.149	1043.94221
429.646	951.59709
430.143	907.72942
430.639	923.72429
431.135	765.5585
431.632	731.37176
432.128	723.45748
432.624	682.4688
433.12	694.32685
433.616	635.1626
434.111	670.35514
434.607	630.2846
435.103	542.96133
435.598	539.95029
436.093	469.95786
436.588	469.92831
437.083	474.93755
437.578	424.85829
438.073	385.85967
438.568	378.83201
439.062	394.74901
439.557	376.789
440.051	382.77788
440.546	365.7546
441.04	303.65392
441.534	341.79249
442.028	362.78576
442.522	319.7029
443.015	352.69297
443.509	376.83628
444.002	288.652
444.496	279.54835
444.989	329.74102
445.482	261.59989
445.975	271.57207
446.468	277.54673
446.961	245.47902
447.454	235.48519
447.947	288.63899
448.439	256.58404
448.931	301.62285
449.424	241.5557
449.916	222.49605
450.408	253.53923
450.9	197.44773
451.392	232.54973
451.884	178.37782
452.375	236.54124
452.867	193.40599
453.358	167.35238
453.849	176.34893
454.341	223.46806
454.832	184.37162
455.323	208.47569
455.814	176.37683
456.304	164.35372
456.795	161.34211
457.285	164.33822
457.776	144.30245
458.266	159.35932
458.756	133.2986
459.247	169.37646
459.737	215.48348
460.226	177.37316
460.716	145.32902
461.206	108.24352
461.695	192.45355
462.185	151.33817
462.674	123.26444
463.163	168.34476
463.653	172.33877
464.142	88.20134
464.63	168.38515
465.119	141.31148
465.608	120.2606
466.096	145.29803
466.585	129.27686
467.073	116.26027
467.561	142.32815
468.05	154.33273
468.538	129.30433
469.026	143.32579
469.513	86.17257
470.001	97.2089
470.489	110.24722
470.976	144.31312
471.463	134.31961
471.951	121.28745
472.438	92.20702
472.925	63.13993
473.412	118.27204
473.899	136.29635
474.385	99.23183
474.872	65.14485
475.359	93.21701
475.845	9.01806
476.331	38.07847
476.817	20.04666
477.303	57.12708
477.789	76.175
478.275	64.15324
478.761	43.09935
479.247	43.09197
479.732	61.14759
480.218	72.18018
480.703	113.27144
481.188	-16.03321
481.673	29.06447
482.158	29.06028
482.643	59.14436
483.128	16.03518
483.612	29.06516
484.097	71.16633
484.581	19.04199
485.066	27.06315
485.55	36.07545
486.034	29.06138
486.518	33.07518
487.002	52.12299
487.486	40.09453
487.969	58.13856
488.453	35.08589
488.936	25.05426
489.42	28.06
489.903	61.14814
490.386	64.13205
490.869	8.01657
491.352	7.01651
491.835	-18.03574
492.318	52.11384
492.8	4.00793
493.283	34.08453
493.765	16.0385
494.247	-1.00225
494.73	9.01929
495.212	25.0582
495.694	-25.05723
496.175	-29.06767
496.657	64.14802
497.139	-71.11607
497.62	12.02793
498.102	8.01945
498.583	-34.08246
499.064	51.11125
499.545	37.0814
500.026	-22.04814
500.507	-69.15625
500.988	-19.04571
501.469	-76.18709
501.949	4.00952
502.43	-81.19013
502.91	-20.04017
503.39	-22.05378
503.87	-19.0439
504.35	-11.02498
504.83	-37.07962
505.31	-39.09336
505.79	-30.07043
506.269	11.02477
506.749	-37.08273
507.228	-7.01604
507.707	36.07691
508.187	-19.04392
508.666	-37.08874
509.145	-40.09178
509.623	-51.1176
510.102	0
510.581	2.00465
511.059	10.0247
511.538	-5.01259
512.016	12.0281
512.494	-42.09926
512.972	11.02569
513.45	-2.00459
513.928	2.00474
514.406	21.05039
514.884	21.05334
515.361	20.04708
515.839	-6.01329
516.316	-30.07029
516.793	-11.02714
517.27	9.02136
517.747	-24.06062
518.224	-49.11092
518.701	-18.03936
519.178	30.07377
519.654	-42.09594
520.131	-72.17443
520.607	-3.00726
521.083	-18.04052
521.56	-39.09011
522.036	-17.03664
522.512	2.00481
522.987	-8.01883
523.463	-3.007
523.939	18.0429
524.414	-25.05606
524.89	-30.0693
525.365	-7.01566
525.84	14.03335
526.315	-23.05394
526.79	-2.00436
527.265	-96.21478
527.74	-39.09333
528.215	17.03914
528.689	9.0197
529.164	-95.20063
529.638	-3.00757
530.112	-15.03514
530.587	-26.05521
531.061	-11.02614
531.534	-41.09703
532.008	-14.03316
532.482	-86.19153
532.956	-11.02796
533.429	-84.19644
533.903	-5.01067
534.376	-8.0172
534.849	-34.07782
535.322	-33.07655
535.795	-26.06235
536.268	-15.03561
536.741	-62.14692
537.213	7.01583
537.686	-70.16773
538.158	-54.11982
538.631	-52.1236
539.103	-62.1374
539.575	-36.07334
540.047	-40.08616
540.519	-52.12136
540.991	-70.1678
541.463	-30.07175
541.934	-51.11549
542.406	-25.05873
542.877	-63.14016
543.348	-103.24139
543.82	-26.06237
544.291	-50.11297
544.762	-5.01157
545.233	22.0544
545.703	-51.11191
546.174	8.01825
546.645	6.01431
547.115	-10.02369
547.585	37.08368
548.056	-1.00241
548.526	-60.14026
548.996	-44.10427
549.466	-27.06429
549.935	38.089
550.405	-9.01957
550.875	-50.11651
551.344	14.0331
551.814	-78.17501
552.283	-24.05076
552.752	-31.07088
553.221	-57.1226
553.69	7.01526
554.159	-5.01226
554.628	-60.13274
555.096	17.04206
555.565	-49.10752
556.033	-7.01604
556.502	1.00236
556.97	-51.11092
557.438	-31.07225
557.906	-14.03251
558.374	-19.04268
558.842	-17.03995
559.31	-19.04132
559.777	-9.02145
560.245	-12.02721
560.712	-58.13014
561.18	0
561.647	-36.07868
562.114	4.0089
562.581	28.06743
563.048	-14.0311
563.514	-12.02905
563.981	21.04645
564.448	-2.0044
564.914	-4.00906
565.381	-10.02188
565.847	20.04526
566.313	-2.00452
566.779	53.11669
567.245	-33.07603
567.711	6.01415
568.176	64.14254
568.642	45.11055
569.108	16.03844
569.573	-24.05465
570.038	75.15248
570.504	73.15992
570.969	44.10672
571.434	68.14541
571.899	83.19139
572.363	48.10553
572.828	50.1096
573.293	50.11126
573.757	25.05634
574.222	81.17662
574.686	49.10739
575.15	32.07445
575.614	59.1305
576.078	63.14266
576.542	92.20235
577.006	56.12332
577.469	85.20068
577.933	37.07982
578.396	87.20165
578.86	45.10207
579.323	64.14761
579.786	84.17316
580.249	79.17408
580.712	42.09883
581.175	59.14113
581.637	93.20768
582.1	62.13005
582.563	5.01012
583.025	75.17563
583.487	29.05635
583.95	14.02944
584.412	51.10222
584.874	70.16344
585.336	54.1243
585.797	26.05432
586.259	11.02477
586.721	32.0731
587.182	34.07563
587.643	51.11153
588.105	46.10584
588.566	54.10936
589.027	61.1438
589.488	9.01987
589.949	30.06972
590.41	66.12509
590.87	29.06267
591.331	-1.00206
591.791	51.11196
592.252	40.08861
592.712	81.18641
593.172	32.0697
593.632	-2.00413
594.092	37.07951
594.552	73.14889
595.011	91.2017
595.471	81.17302
595.931	84.1783
596.39	107.24545
596.849	86.1909
597.308	120.2447
597.768	73.17901
598.227	134.30659
598.685	85.18282
599.144	148.32606
599.603	194.42937
600.062	102.20146
600.52	152.32024
600.978	191.42775
601.437	186.39566
601.895	146.29027
602.353	174.35562
602.811	231.47179
603.269	265.58074
603.727	246.54558
604.184	292.60111
604.642	258.58171
605.099	322.67421
605.557	300.66007
606.014	320.61899
606.471	340.7844
606.928	412.81797
607.385	411.91657
607.842	381.79367
608.299	439.90269
608.755	406.87412
609.212	443.87397
609.668	425.84082
610.125	476.00134
610.581	461.93853
611.037	525.02432
611.493	495.00868
611.949	473.00309
612.405	598.00926
612.861	493.98952
613.316	550.14511
613.772	540.06787
614.227	521.06754
614.683	557.01027
615.138	610.23361
615.593	517.02779
616.048	563.07884
616.503	558.18137
616.958	622.33428
617.412	528.08021
617.867	583.11024
618.321	502.86123
618.776	564.05446
619.23	582.17959
619.684	526.00464
620.138	466.91956
620.592	547.13961
621.046	537.07458
621.5	463.9859
621.954	456.88589
622.407	496.94708
622.861	476.99573
623.314	511.00167
623.768	460.94182
624.221	493.83197
624.674	389.78438
625.127	434.89422
625.58	340.67344
626.033	388.74012
626.485	399.84594
626.938	370.77984
627.39	389.80385
627.843	404.81631
628.295	434.88175
628.747	362.76968
629.199	361.73997
629.651	324.66428
630.103	315.65532
630.555	265.50094
631.006	341.71572
631.458	267.56388
631.909	280.57589
632.361	228.48162
632.812	282.59412
633.263	261.50208
633.714	203.3905
634.165	176.38774
634.616	269.57806
635.067	203.40519
635.518	207.44694
635.968	270.48005
636.419	182.35796
636.869	179.39046
637.319	222.47018
637.769	219.45195
638.219	198.42815
638.669	253.55515
639.119	214.47877
639.569	195.44121
640.019	244.51157
640.468	132.27015
640.918	213.47053
641.367	233.4789
641.816	197.40728
642.265	191.40815
642.714	186.40169
643.163	138.29151
643.612	189.4285
644.061	130.25399
644.51	220.4637
644.958	203.41065
645.406	132.29873
645.855	140.32096
646.303	198.4243
646.751	191.40603
647.199	172.35584
647.647	172.37352
648.095	126.26955
648.543	177.32639
648.99	184.41165
649.438	225.48726
649.885	204.47348
650.333	144.25203
650.78	191.43778
651.227	133.30742
651.674	151.32282
652.121	89.20261
652.568	143.32711
653.015	129.30137
653.461	119.26717
653.908	189.40721
654.354	139.30655
654.801	150.33102
655.247	213.42594
655.693	155.38191
656.139	127.28607
656.585	125.28352
657.031	157.34712
657.477	146.29704
657.922	138.30109
658.368	106.24642
658.813	82.17595
659.259	144.32668
659.704	102.22717
660.149	134.29348
660.594	176.39083
661.039	120.2596
661.484	170.37955
661.929	128.2807
662.373	115.2798
662.818	133.31498
663.262	62.14225
663.707	99.23772
664.151	155.36083
664.595	118.27031
665.039	101.23762
665.483	114.27888
665.927	103.22792
666.371	109.2417
666.814	99.22373
667.258	125.28352
667.701	77.15412
668.145	94.22146
668.588	117.27344
669.031	127.28536
669.474	145.32808
669.917	136.27985
670.36	86.20229
670.803	119.27035
671.245	120.2349
671.688	129.29556
672.13	79.16758
672.573	135.3265
673.015	127.28665
673.457	142.29193
673.899	104.23747
674.341	66.15204
674.783	134.30548
675.225	122.28373
675.666	145.33062
676.108	101.20806
676.549	72.16155
676.991	105.21698
677.432	80.14778
677.873	130.28135
678.314	138.30925
678.755	142.32802
679.196	103.22497
679.637	96.22044
680.078	76.16835
680.518	84.18172
680.959	104.23565
681.399	100.23376
681.839	126.28909
682.28	103.24337
682.72	61.13233
683.16	134.31667
683.6	104.22306
684.039	79.15402
684.479	103.24072
684.919	91.20179
685.358	80.19272
685.798	51.12788
686.237	87.19893
686.676	118.25648
687.115	123.27195
687.554	113.25307
687.993	81.16619
688.432	148.31976
688.871	110.23501
689.309	205.46742
689.748	162.31201
690.186	116.25792
690.625	160.35752
691.063	116.26604
691.501	127.29728
691.939	95.22577
692.377	79.18427
692.815	140.31941
693.253	86.19368
693.69	124.25458
694.128	125.28996
694.565	54.1235
695.003	121.29242
695.44	99.21916
695.877	93.20854
696.314	109.21837
696.751	70.15007
697.188	103.22506
697.625	117.24883
698.061	89.20318
698.498	112.25543
698.934	54.123
699.371	120.26836
699.807	135.30085
700.243	150.34347
700.679	132.27945
701.115	133.29074
701.551	148.32866
701.987	98.20456
702.422	94.21091
702.858	105.23419
703.294	111.23391
703.729	132.30638
704.164	143.32606
704.599	106.21979
705.035	133.27966
705.47	131.30484
705.904	98.21455
706.339	82.17724
706.774	91.20011
707.209	98.21246
707.643	72.16454
708.078	117.26775
708.512	173.41397
708.946	121.27054
709.38	43.0965
709.814	89.19011
710.248	61.13965
710.682	124.28017
711.116	90.20617
711.549	61.14964
711.983	83.1796
712.416	46.10211
712.85	130.30782
713.283	115.25575
713.716	149.34823
714.149	111.24511
714.582	82.17383
715.015	91.21401
715.448	53.12552
715.881	56.11263
716.313	105.23332
716.746	126.28015
717.178	46.10504
717.61	82.19791
718.043	36.08495
718.475	62.14203
718.907	36.0856
719.339	23.04981
719.77	73.16672
720.202	52.12522
720.634	95.22063
721.065	72.16095
721.497	79.18413
721.928	62.14601
722.359	75.17473
722.79	46.10495
723.221	20.04772
723.652	95.22924
724.083	41.08724
724.514	51.10842
724.945	61.13605
725.375	30.06673
725.806	34.07939
726.236	33.08065
726.666	72.15936
727.096	26.06044
727.526	5.01227
727.956	35.07547
728.386	-9.02091
728.816	53.12842
729.246	43.10054
729.675	10.02389
730.105	6.01405
730.534	34.07553
730.964	8.01913
731.393	-10.02332
731.822	39.0956
732.251	14.03432
732.68	-62.13728
733.109	78.18226
733.537	7.01614
733.966	51.11971
734.395	0
734.823	60.12563
735.251	-12.02779
735.68	22.05225
736.108	-1.00241
736.536	18.04032
736.964	10.02196
737.392	-13.03098
737.82	3.00683
738.247	10.02258
738.675	11.02461
739.102	23.05565
739.53	31.07622
739.957	7.01718
740.384	25.05779
740.811	61.14753
741.238	-37.0863
741.665	26.05817
742.092	-13.02931
742.519	26.06221
742.945	-28.06442
743.372	53.12503
743.798	8.01969
744.225	-8.01812
744.651	-35.08423
745.077	-4.00956
745.503	2.00462
745.929	-24.05491
746.355	-9.02096
746.781	14.03302
747.207	7.01591
747.632	14.03287
748.058	-11.02603
748.483	-19.04122
748.908	14.0332
749.334	8.01874
749.759	-20.04493
750.184	0
750.609	20.04642
751.033	-65.14479
751.458	29.06189
751.883	-3.00705
752.307	67.15092
752.732	-37.09066
753.156	9.0212
753.58	-18.0406
754.005	23.05621
754.429	-55.12237
754.853	-3.00715
755.277	15.034
755.7	26.06118
756.124	-20.04842
756.548	52.11725
756.971	4.00926
757.394	25.06151
757.818	10.02489
758.241	-9.02178
758.664	-3.00736
759.087	11.02383
759.51	-10.02384
759.933	-29.06767
760.356	-1.00246
760.778	40.09523
761.201	-13.02963
761.623	-51.1168
762.046	-82.18278
762.468	7.0159
762.89	9.02117
763.312	-23.05335
763.734	10.02305
764.156	30.07076
764.578	1.00215
765	-7.01633
765.421	19.04718
765.843	11.02783
766.264	-21.04804
766.686	43.10361
767.107	31.07239
767.528	26.06377
767.949	-2.00488
768.37	-13.03042
768.791	-50.11569
769.212	24.05867
769.632	-22.04898
770.053	16.04059
770.473	33.0764
770.894	-34.08072
771.314	-31.06983
771.734	-70.15622
772.154	16.03937
772.575	-8.01756
772.994	-22.04788
773.414	-12.02681
773.834	-20.04843
774.254	-3.00697
774.673	-12.02775
775.093	-3.00717
775.512	-28.06694
775.931	26.06368
776.351	-44.10463
776.77	-12.02828
777.189	-51.11558
777.607	-11.02713
778.026	17.04074
778.445	-31.07602
778.864	-28.06878
779.282	-40.09148
779.701	10.02412
780.119	-57.13858
780.537	-61.14703
780.955	-2.00485
781.373	-35.08312
781.791	-14.03014
782.209	33.07199
782.627	-23.05894
783.045	0
783.462	-24.05858
783.88	-30.07548
784.297	-20.04838
784.715	12.03005
785.132	-65.1518
785.549	-2.00486
785.966	-30.07227
786.383	-12.02849
786.8	26.05707
787.217	-22.04967
787.633	18.04298
788.05	-53.11704
788.466	12.02649
788.883	-12.02975
789.299	-34.0776
789.715	56.12941
790.131	-20.04738
790.547	-80.18965
790.963	-31.07396
791.379	-26.06342
791.795	2.0043
792.21	-18.03986
792.626	-7.01576
793.041	-43.10129
793.457	-20.04703
793.872	-1.00224
794.287	26.06047
794.702	-13.03038
795.117	-27.06387
795.532	-18.0439
795.947	-37.08409
796.362	-4.00895
796.776	-60.12975
797.191	-66.15495
797.605	13.02963
798.02	-9.0211
798.434	-37.07725
798.848	-78.18448
799.262	32.07671
799.676	-19.04371
800.09	-38.08911
800.504	9.02068
800.918	-24.05263
801.331	-18.04493
801.745	-33.07174
802.158	6.01425
802.572	-40.09218
802.985	-1.00226
803.398	-3.00679
803.811	-4.00975
804.224	-12.02835
804.637	-59.13246
805.05	-9.01971
805.462	-18.04196
805.875	36.09081
806.288	-24.05606
806.7	-34.08197
807.112	-35.07716
807.525	23.05405
807.937	-49.11672
808.349	-25.05964
808.761	-59.13724
809.173	-62.14248
809.584	-29.06799
809.996	-29.06839
810.408	-42.10526
810.819	-39.08785
811.231	-5.01275
811.642	15.03544
812.053	3.00691
812.464	-19.04348
812.875	-13.03194
813.286	-23.05659
813.697	-21.04509
814.108	-1.00229
814.519	-23.04785
814.929	-7.01682
815.34	-12.02759
815.75	-27.06582
816.16	-73.17195
816.571	-7.01743
816.981	-21.0462
817.391	-20.04572
817.801	5.012
818.211	-3.0068
818.62	-89.20604
819.03	-71.16516
819.44	-20.04983
819.849	-14.03385
820.259	24.05856
820.668	10.02368
821.077	-1.00237
821.486	-53.12031
821.895	-55.12743
822.304	-24.06131
822.713	-28.06259
823.122	-1.00239
823.531	-22.04985
823.939	-2.00464
824.348	4.00925
824.756	-27.06429
825.164	-62.14868
825.573	-57.13775
825.981	-27.06397
826.389	-9.02119
826.797	-78.18911
827.205	-41.08936
827.612	-93.21965
828.02	-15.03379
828.428	-61.14898
828.835	-50.12765
829.243	-66.14979
829.65	-59.14173
830.057	-39.09154
830.464	9.02104
830.871	-5.01126
831.278	-134.31151
831.685	-31.06421
832.092	-21.04925
832.499	-38.07777
832.905	12.029
833.312	-36.07691
833.718	-33.07806
834.124	-44.09568
834.531	-47.11286
834.937	-45.10974
835.343	-24.05511
835.749	8.01733
836.155	-38.09544
836.561	-116.27095
836.966	-60.13993
837.372	-15.03625
837.777	-53.12576
838.183	-105.21708
838.588	-39.09329
838.993	-49.11236
839.399	-30.06955
839.804	-22.05177
840.209	-18.0443
840.613	-37.07869
841.018	-58.1394
841.423	-67.16369
841.828	-71.17282
842.232	-14.03225
842.637	-50.1102
843.041	-38.09534
843.445	-70.16716
843.849	-37.08756
844.253	-17.03778
844.657	-21.05106
845.061	2.00426
845.465	15.03506
845.869	-20.04358
846.272	-49.11412
846.676	21.04798
847.079	-1.00245
847.483	-42.09976
847.886	0
848.289	27.07003
848.692	-41.09916
849.095	-62.14037
849.498	-30.07084
849.901	-74.15975
850.304	-12.02684
850.707	-58.14162
851.109	-23.05422
851.512	-5.01176
851.914	-14.03446
852.316	-19.04606
852.718	11.02746
853.121	-23.05367
853.523	-35.07722
853.925	-33.08299
854.326	-6.01448
854.728	-34.08388
855.13	-43.10771
855.531	25.05726
855.933	-23.05206
856.334	7.01667
856.736	-76.1604
857.137	-56.12394
857.538	-25.06008
857.939	-11.02606
858.34	-15.03434
858.741	-49.12313
859.142	-4.00911
859.542	15.03868
859.943	26.06159
860.343	-62.14868
860.744	-19.04421
861.144	-5.01154
861.544	-44.10273
861.945	-27.06525
862.345	-77.17699
862.745	-52.12379
863.145	-30.06629
863.544	37.08945
863.944	-9.01994
864.344	-41.09564
864.743	38.08859
865.143	-20.04909
865.542	-52.11394
865.941	20.04725
866.34	5.01129
866.74	-56.14528
867.139	-22.05038
867.537	-60.1458
867.936	-45.10368
868.335	-32.0786
868.734	29.07106
869.132	-36.07991
869.531	-2.00455
869.929	-33.07199
870.327	-11.02493
870.726	11.02578
871.124	-44.09637
871.522	-45.10867
871.92	-15.035
872.318	11.02545
872.715	-8.01864
873.113	-66.15452
873.511	-36.08584
873.908	-8.01977
874.306	-46.10997
874.703	-3.0071
875.1	-42.10202
875.497	-32.07224
875.894	23.05424
876.291	-19.04467
876.688	-23.05661
877.085	-43.09741
877.482	-51.12102
877.878	-33.07579
878.275	-48.11637
878.671	-79.16135
879.068	-31.07077
879.464	-19.04366
879.86	-4.00906
880.256	-44.10193
880.652	-50.12177
881.048	-73.17101
881.444	-54.12022
881.84	-19.04574
882.236	24.05711
882.631	-11.02565
883.027	-44.09946
883.422	-19.04626
883.817	-23.05594
884.213	-19.04668
884.608	-25.05907
885.003	-33.07591
885.398	-37.08847
885.793	-35.08337
886.188	-15.03598
886.582	-52.12512
886.977	-4.00891
887.371	-32.07712
887.766	-24.05749
888.16	-5.01185
888.554	-32.07422
888.949	-80.18994
889.343	-28.06386
889.737	-6.01562
890.131	-11.02638
890.525	-35.08529
890.918	-2.00483
891.312	-39.08659
891.706	41.10292
892.099	5.01201
892.492	-15.03016
892.886	-80.18642
893.279	-35.08538
893.672	-3.0073
894.065	-17.04025
894.458	-27.06454
894.851	-22.05015
895.244	-21.05131
895.637	-57.13133
896.029	-5.01156
896.422	-39.09011
896.814	-22.05215
897.206	-38.08715
897.599	-42.0964
897.991	-26.05989
898.383	-47.10487
898.775	-101.21677
899.167	-33.07382
899.559	-43.10337
899.951	8.01762
900.342	-54.129
900.734	-1.00241
901.125	-43.1072
901.517	-2.00467
901.908	-6.01339
902.299	16.03706
902.69	-23.05136
903.082	-33.07573
903.473	4.00914
903.863	-8.01967
904.254	-75.16492
904.645	-29.06746
905.036	-6.01399
905.426	-59.12346
905.817	-33.07694
906.207	-54.1234
906.597	-24.05327
906.987	-30.07323
907.378	-22.05264
907.768	-11.02797
908.158	-16.03706
908.547	-3.00742
908.937	-4.00971
909.327	-3.00683
909.717	-19.04536
910.106	-14.03179
910.495	34.08035
910.885	-63.15018
911.274	-14.03343
911.663	21.05089
912.052	-32.07425
912.441	-6.01467
912.83	-47.10131
913.219	-42.10404
913.608	0
913.997	-77.18567
914.385	-72.16182
914.774	-41.09439
915.162	-61.13768
915.55	-19.04348
915.939	13.03124
916.327	3.00707
916.715	15.03662
917.103	-27.06241
917.491	-29.06701
917.878	-45.10331
918.266	-49.12171
918.654	14.03436
919.041	-24.0601
919.429	-22.0493
919.816	-45.10838
920.203	-2.00458
920.591	-7.01628
920.978	-17.03925
921.365	-59.14837
921.752	17.03821
922.139	-19.03879
922.525	-26.0591
922.912	-12.02752
923.299	4.00946
923.685	-57.14329
924.072	-51.10955
924.458	-29.06842
924.844	-59.13946
925.231	-60.13147
925.617	-22.0544
926.003	-25.06092
926.389	12.02896
926.774	24.05775
927.16	-53.12494
927.546	-13.03178
927.931	-33.07834
928.317	-71.15192
928.702	-25.05521
929.088	-47.10613
929.473	-19.04614
929.858	2.00466
930.243	-12.02742
930.628	-41.09447
931.013	6.01426
931.398	-9.01914
931.783	13.03252
932.167	-22.05062
932.552	-41.09642
932.937	-48.1115
933.321	-47.11217
933.705	36.08656
934.09	-24.05667
934.474	-1.00222
934.858	-11.02736
935.242	15.03308
935.626	-28.06809
936.009	-61.15647
936.393	18.04379
936.777	4.00983
937.16	-73.1806
937.544	-38.08414
937.927	-24.05832
938.311	-6.01368
938.694	12.03016
939.077	-52.1173
939.46	11.02552
939.843	-103.1989
940.226	-57.13947
940.609	-59.1275
940.991	-36.08758
941.374	-53.1227
941.757	-21.04895
942.139	-56.11752
942.522	-38.08351
942.904	19.04297
943.286	-6.01431
943.668	-18.04444
944.05	2.00465
944.432	-13.03054
944.814	-56.13013
945.196	-36.08472
945.578	1.00227
945.959	-18.03982
946.341	-58.13265
946.722	-16.0355
947.104	-59.13284
947.485	21.0454
947.866	-41.09972
948.247	-8.01918
948.628	-34.07798
949.009	-23.05644
949.39	-60.13965
949.771	1.00215
950.152	-39.09165
950.532	45.10748
950.913	-48.10854
951.293	7.01828
951.674	-49.11164
952.054	-33.07818
952.434	-50.11729
952.814	-51.11285
953.194	30.07456
953.574	-19.04355
953.954	-21.04707
954.334	4.00948
954.714	-7.01619
955.093	-21.04813
955.473	-69.16404
955.853	0
956.232	7.01837
956.611	-62.13837
956.99	-49.11837
957.37	-39.09496
957.749	-56.12544
958.128	-2.00484
958.506	-22.0551
958.885	-46.11031
959.264	-37.08644
959.643	-56.12073
960.021	-57.13525
960.4	-1.00215
960.778	-68.15665
961.156	-33.07879
961.535	-82.17717
961.913	-67.14529
962.291	-15.03723
962.669	-8.01932
963.047	-55.13262
963.424	-8.01951
963.802	-62.14391
964.18	4.00949
964.557	-74.15872
964.935	-17.03771
965.312	-5.0125
965.69	-4.00941
966.067	-22.05021
966.444	-14.03259
966.821	-25.06106
967.198	-60.13612
967.575	-28.06442
967.952	20.04401
968.329	-37.08498
968.705	-56.1103
969.082	-5.01229
969.458	-9.02068
969.835	-20.04591
970.211	-14.03427
970.587	-6.01413
970.963	-19.04628
971.339	1.00251
971.715	-83.19543
972.091	-38.08859
972.467	-75.17584
972.843	-51.12092
973.219	10.0221
973.594	-20.0501
973.97	-35.07745
974.345	-19.04285
974.721	-26.05906
975.096	-36.08164
975.471	12.02674
975.846	2.00456
976.221	-56.13659
976.596	-35.07955
976.971	-3.00699
977.346	-45.09729
977.72	-17.04108
978.095	-20.04947
978.469	26.0581
978.844	-8.01898
979.218	-12.02742
979.593	-32.07263
979.967	-4.00925
980.341	-76.16477
980.715	-56.13408
981.089	-69.16348
981.463	-41.08997
981.837	-19.04437
982.21	-6.01292
982.584	-78.17889
982.957	-32.0768
983.331	-28.06241
983.704	-14.03282
984.078	-38.08841
984.451	-62.14362
984.824	-28.0653
985.197	-48.11031
985.57	-20.04706
985.943	-45.10319
986.316	11.02536
986.688	-20.04524
987.061	-40.08742
987.434	14.03471
987.806	-63.14452
988.179	-52.11538
988.551	-53.12741
988.923	-26.06044
989.295	-17.04009
989.667	-11.02537
990.039	-1.00235
990.411	-23.05026
990.783	24.05099
991.155	-16.03696
991.527	-10.02266
991.898	-66.15622
992.27	-48.11348
992.641	-6.01414
993.012	13.0288
993.384	12.02683
993.755	-45.10904
994.126	-34.0776
994.497	-17.03944
994.868	5.01076
995.239	4.00918
995.61	-43.10286
995.98	-27.06286
996.351	-38.0904
996.722	-23.05068
997.092	-33.07482
997.462	-27.06032
997.833	-6.01327
998.203	-22.04999
998.573	-37.08851
998.943	-38.08302
999.313	-2.00454
999.683	-51.11493
1000.053	-41.0894
1000.423	-23.05285
1000.792	28.06878
1001.162	-29.0682
1001.531	18.04201
1001.901	-40.09435
1002.27	-26.05475
1002.639	-8.01951
1003.009	2.00454
1003.378	-39.09553
1003.747	-8.01765
1004.116	-28.06381
1004.485	12.02707
1004.853	-4.00961
1005.222	-16.03876
1005.591	-39.08666
1005.959	5.01067
1006.328	-19.03983
1006.696	3.00687
1007.064	1.00238
1007.433	11.02608
1007.801	-22.05062
1008.169	-13.03087
1008.537	12.02473
1008.905	-46.1019
1009.273	-11.02564
1009.64	-22.04991
1010.008	-62.13997
1010.375	5.01137
1010.743	-72.15343
1011.11	-5.01116
1011.478	-44.10334
1011.845	-36.07841
1012.212	-49.10326
1012.579	-11.02561
1012.946	-36.07948
1013.313	20.04425
1013.68	-23.04789
1014.047	-11.02511
1014.414	-21.04726
1014.78	-10.02379
1015.147	-44.09917
1015.513	26.05966
1015.88	-55.13247
1016.246	14.03259
1016.612	-29.06154
1016.978	-66.15368
1017.344	44.10306
1017.71	-43.0971
1018.076	-14.03088
1018.442	-46.11261
1018.808	-43.10262
1019.174	-39.09258
1019.539	-51.10695
1019.905	-15.03354
1020.27	0
1020.636	-12.02699
1021.001	-17.03803
1021.366	6.01382
1021.731	37.09013
1022.096	-25.06069
1022.461	-75.16672
1022.826	-8.01791
1023.191	-31.07798
1023.556	-56.12229
1023.92	-24.05511
1024.285	-21.04817
1024.649	-46.10723
1025.014	-9.02102
1025.378	-27.06535
1025.742	-15.03521
1026.107	-52.10917
1026.471	-54.11622
1026.835	-39.09079
1027.199	-39.08964
1027.562	-57.12629
1027.926	-17.03908
1028.29	-51.12386
1028.654	-23.04902
1029.017	20.04633
1029.381	-28.06357
1029.744	-1.00244
1030.107	-60.1318
1030.471	-40.09019
1030.834	-90.19062
1031.197	-13.02895
1031.56	16.03571
1031.923	9.02203
1032.286	-21.04595
1032.648	-54.12146
1033.011	-25.05407
1033.374	-40.0872
1033.736	-53.1339
1034.099	-25.05804
1034.461	-50.12204
1034.823	-70.16594
1035.185	-75.17803
1035.548	-56.12931
1035.91	-18.041
1036.272	-19.04053
1036.634	-40.09141
1036.995	31.06857
1037.357	-52.12074
1037.719	-11.02517
1038.08	-37.08123
1038.442	34.07695
1038.803	-54.12201
1039.165	-18.04323
1039.526	50.11256
1039.887	-11.02497
1040.248	13.03088
1040.609	-48.11256
1040.97	-60.13949
1041.331	-52.12341
1041.692	-30.0667
1042.053	-9.01889
1042.413	-23.04962
1042.774	-20.04563
1043.134	-59.13137
1043.495	-59.14054
1043.855	-5.01143
1044.215	-37.08692
1044.576	-16.03639
1044.936	16.03429
1045.296	-29.06823
1045.656	5.01153
1046.016	-55.12414
1046.375	3.00691
1046.735	-32.06914
1047.095	-30.06626
1047.454	4.00777
1047.814	1.00224
1048.173	-3.00658
1048.533	-32.06938
1048.892	-62.14305
1049.251	-39.09315
1049.61	-59.1367
1049.969	-14.03128
1050.328	-49.09771
1050.687	-64.14796
1051.046	-27.06278
1051.405	-58.13558
1051.763	-49.10702
1052.122	-18.04308
1052.48	-91.21235
1052.839	-28.0622
1053.197	2.00442
1053.555	-104.21661
1053.914	-21.04827
1054.272	-18.04082
1054.63	-97.22608
1054.988	-56.12586
1055.345	-25.04927
1055.703	-28.06288
1056.061	-57.14076
1056.419	5.01236
1056.776	0
1057.134	-56.12208
1057.491	-43.10215
1057.848	-57.13431
1058.206	-40.08857
1058.563	9.0186
1058.92	-23.04904
1059.277	-32.0733
1059.634	-83.18136
1059.991	9.02029
1060.348	-58.12505
1060.704	-28.06319
1061.061	-27.05732
1061.418	-22.0508
1061.774	-4.00947
1062.131	-13.03364
1062.487	-41.08963
1062.843	-42.09945
1063.199	-32.07612
1063.555	9.01964
1063.911	-91.22
1064.267	-61.11497
1064.623	-50.11693
1064.979	-66.14394
1065.335	-27.05962
1065.691	39.08796
1066.046	-85.17447
1066.402	-38.08101
1066.757	-48.11581
1067.112	-60.13838
1067.468	-16.03625
1067.823	23.05185
1068.178	8.01828
1068.533	-22.04985
1068.888	-59.13203
1069.243	-6.01406
1069.598	-62.14083
1069.952	-4.00858
1070.307	-43.10321
1070.662	-14.0314
1071.016	-54.11532
1071.371	-32.06792
1071.725	-67.14776
1072.079	-29.06567
1072.434	-56.12916
1072.788	-4.00902
1073.142	7.01635
1073.496	-16.03574
1073.85	-34.07393
1074.203	-50.11454
1074.557	10.02552
1074.911	-47.10465
1075.265	-55.11906
1075.618	-15.0347
1075.971	-53.11865
1076.325	-11.02655
1076.678	-32.06878
1077.031	-30.06343
1077.385	-20.04136
1077.738	-7.01478
1078.091	1.00216
1078.444	-22.04713
1078.796	23.05335
1079.149	-34.07907
1079.502	-46.10313
1079.855	-65.14461
1080.207	0
1080.56	-57.14112
1080.912	-73.16652
1081.264	-44.10027
1081.617	-35.08109
1081.969	-17.04158
1082.321	-21.0485
1082.673	-18.03907
1083.025	-64.14266
1083.377	-308.64176
1083.728	-92.19971
1084.08	-12.02856
1084.432	-90.20235
1084.783	49.10743
1085.135	-25.06046
1085.486	-46.10024
1085.838	-60.14092
1086.189	-77.17833
1086.54	-53.11987
1086.891	-33.08074
1087.242	-72.16573
1087.593	-13.0295
1087.944	-43.09101
1088.295	-42.08841
1088.646	-43.09904
1088.996	-57.13023
1089.347	-98.22899
1089.698	-63.14307
1090.048	-46.11332
1090.398	-2.00436
1090.749	-6.01353
1091.099	-47.11419
1091.449	-51.12004
1091.799	-54.1286
1092.149	28.06568
1092.499	-41.0953
1092.849	-15.03628
1093.199	-56.13301
1093.548	7.0159
1093.898	3.00711
1094.248	-33.0808
1094.597	-9.0222
1094.947	-10.02543
1095.296	-55.12864
1095.645	-36.08902
1095.994	-3.00681
1096.343	25.05996
1096.692	-9.02284
1097.041	-40.10527
1097.39	-38.09029
1097.739	-58.14546
1098.088	-21.05315
1098.437	-88.22506
1098.785	-60.15512
1099.134	-55.13836
1099.482	-32.08396
1099.83	-18.04492
1100.179	-5.01263
1100.527	-12.0302
1100.875	-45.1143
1101.223	-19.04872
1101.571	-38.10199
1101.919	-67.1706
1102.267	-2.00549
1102.615	-12.03864
1102.962	3.00963
1103.31	8.02568
1103.658	-14.04495
