Data from N3 R6 sample 2_Subt2__3__16-14-57-464.txt Node

Date: Fri Sep 19 16:14:57 PDT 2025
User: uwsun
Spectrometer: HDX01956
Trigger mode: 0
Integration Time (sec): 5.000000E-1
Scans to average: 1
Nonlinearity correction enabled: true
Boxcar width: 0
Storing dark spectrum: false
XAxis mode: Wavelengths
Number of Pixels in Spectrum: 2068
>>>>>Begin Spectral Data<<<<<
194.03	71.20405
194.578	79.25462
195.127	67.21335
195.676	68.2163
196.225	92.2394
196.773	94.25879
197.321	145.39583
197.87	180.45206
198.418	240.60229
198.966	200.51469
199.513	226.55939
200.061	142.35419
200.609	197.50582
201.156	150.31603
201.704	156.3836
202.251	205.52893
202.798	196.49824
203.345	213.51065
203.892	188.46091
204.438	198.45901
204.985	209.48288
205.532	258.66992
206.078	199.47509
206.624	189.45622
207.17	178.40118
207.716	140.33072
208.262	236.44163
208.808	199.48217
209.354	162.38566
209.899	168.41188
210.445	217.52835
210.99	188.4429
211.535	188.42805
212.08	182.40953
212.625	188.45715
213.17	179.44023
213.715	173.37962
214.259	261.58451
214.804	173.41334
215.348	184.40724
215.892	215.50029
216.436	233.52073
216.98	152.32376
217.524	208.47474
218.068	215.5227
218.612	155.37726
219.155	189.42989
219.698	161.36917
220.242	188.45218
220.785	167.3797
221.328	215.51741
221.871	200.48869
222.414	164.39087
222.956	157.37052
223.499	198.4276
224.041	163.36144
224.583	206.42121
225.126	201.43269
225.668	199.46745
226.21	136.33393
226.751	139.29124
227.293	141.3094
227.835	125.29683
228.376	169.37209
228.918	163.39866
229.459	202.49174
230	174.39986
230.541	176.38791
231.082	201.46938
231.622	180.39955
232.163	169.401
232.704	169.40487
233.244	151.36395
233.784	151.35553
234.324	232.49265
234.864	210.45255
235.404	152.34623
235.944	132.30104
236.484	137.32871
237.023	143.32974
237.563	153.34195
238.102	185.42028
238.641	190.46754
239.18	154.35192
239.719	194.47368
240.258	191.40851
240.797	200.46255
241.335	101.23855
241.874	190.35115
242.412	149.34577
242.95	207.47997
243.488	198.43346
244.026	224.49473
244.564	167.329
245.102	237.50601
245.64	160.37166
246.177	171.36605
246.715	164.37552
247.252	187.40705
247.789	116.19842
248.326	130.30102
248.863	140.29522
249.4	245.53465
249.936	167.32822
250.473	201.45107
251.009	181.40352
251.546	193.40939
252.082	241.50495
252.618	232.49587
253.154	187.43274
253.69	243.51679
254.226	165.3791
254.761	139.29781
255.297	156.33112
255.832	145.33088
256.367	186.4187
256.903	197.41021
257.438	157.35205
257.972	115.24681
258.507	186.41561
259.042	132.27113
259.576	175.36375
260.111	199.43795
260.645	227.46804
261.179	144.32349
261.713	233.48797
262.247	240.53206
262.781	207.41682
263.315	210.49415
263.849	217.52064
264.382	238.51552
264.915	239.53723
265.449	138.32941
265.982	214.4576
266.515	219.51181
267.048	223.4509
267.58	187.38331
268.113	214.44431
268.646	204.4888
269.178	197.42189
269.71	174.3624
270.243	157.34567
270.775	222.54264
271.307	175.3995
271.838	205.46194
272.37	191.45477
272.902	244.5301
273.433	197.40838
273.965	226.53304
274.496	159.37844
275.027	208.49268
275.558	222.51424
276.089	235.56532
276.62	176.43053
277.15	233.54709
277.681	133.27386
278.211	202.47107
278.741	231.48956
279.272	217.47375
279.802	235.56275
280.332	180.41
280.861	195.45107
281.391	157.34248
281.921	175.40047
282.45	256.61735
282.98	235.58985
283.509	217.46472
284.038	188.40357
284.567	135.29973
285.096	219.50799
285.625	224.49266
286.153	204.45696
286.682	192.41802
287.21	206.47529
287.739	233.52052
288.267	214.49983
288.795	238.59813
289.323	231.5235
289.851	208.464
290.378	228.48817
290.906	222.51933
291.433	249.59331
291.961	212.45548
292.488	229.5465
293.015	243.5507
293.542	251.60472
294.069	202.47773
294.596	274.64246
295.122	252.57306
295.649	282.59124
296.175	187.43033
296.702	222.50914
297.228	232.52887
297.754	252.53465
298.28	217.46914
298.806	246.56802
299.332	235.49456
299.857	251.53497
300.383	251.60014
300.908	213.50228
301.433	280.64908
301.958	254.54548
302.483	324.77361
303.008	226.53055
303.533	212.52167
304.058	270.5998
304.582	290.64904
305.107	253.6373
305.631	281.59787
306.155	294.65338
306.679	266.59239
307.203	288.63314
307.727	277.62723
308.251	320.74209
308.775	272.61152
309.298	255.58821
309.822	275.65952
310.345	271.6094
310.868	322.72273
311.391	315.72861
311.914	293.6984
312.437	304.64412
312.96	262.59001
313.482	268.60648
314.005	308.73176
314.527	342.85015
315.049	318.75318
315.571	405.85079
316.093	330.77525
316.615	314.72067
317.137	310.62552
317.659	282.64076
318.18	322.73281
318.702	400.86157
319.223	323.61687
319.744	366.76667
320.265	344.78667
320.786	338.78878
321.307	403.93728
321.828	382.80867
322.348	388.8533
322.869	326.71094
323.389	311.54162
323.909	352.75527
324.43	386.85638
324.95	408.8671
325.47	414.94936
325.989	444.98216
326.509	412.83935
327.029	374.78412
327.548	432.8973
328.067	417.92995
328.587	406.94332
329.106	381.80073
329.625	414.99333
330.144	428.89811
330.662	434.92596
331.181	427.92347
331.7	497.05179
332.218	502.99014
332.736	451.95826
333.255	508.06784
333.773	524.12233
334.291	435.99051
334.808	430.87124
335.326	528.07191
335.844	528.12117
336.361	519.1944
336.879	475.00734
337.396	476.03471
337.913	511.05316
338.43	556.12937
338.947	556.18996
339.464	512.98474
339.981	571.21868
340.497	576.27739
341.014	528.15184
341.53	581.17836
342.046	523.16811
342.562	584.30267
343.078	606.25854
343.594	614.30974
344.11	634.32497
344.626	653.46544
345.141	707.4056
345.657	638.24789
346.172	641.35351
346.687	635.28689
347.202	690.34021
347.717	730.50968
348.232	671.48245
348.747	682.36244
349.261	719.37905
349.776	673.37023
350.29	727.57216
350.805	707.50804
351.319	772.53893
351.833	695.3785
352.347	713.42215
352.861	715.44265
353.374	732.43071
353.888	752.54968
354.401	765.49495
354.915	762.46623
355.428	840.78152
355.941	759.52034
356.454	797.50319
356.967	811.63062
357.48	778.50999
357.993	837.74161
358.505	814.71809
359.018	831.6977
359.53	860.73044
360.042	855.54118
360.554	838.70081
361.066	838.7155
361.578	890.60646
362.09	858.71455
362.602	893.61476
363.113	813.5574
363.625	950.75604
364.136	959.69391
364.647	824.61764
365.158	966.83899
365.669	952.90874
366.18	913.72322
366.691	949.69187
367.201	948.84133
367.712	913.67114
368.222	978.84118
368.733	969.70807
369.243	939.65505
369.753	994.83206
370.263	1036.95724
370.773	1073.12788
371.282	1045.97667
371.792	1029.86695
372.301	1094.10379
372.811	1146.37336
373.32	1115.80666
373.829	1221.22506
374.338	1183.99801
374.847	1226.11053
375.356	1335.37998
375.865	1331.03172
376.373	1300.17831
376.882	1458.70054
377.39	1480.57043
377.898	1546.74324
378.407	1550.35763
378.915	1556.24357
379.423	1654.65533
379.93	1790.57674
380.438	1804.9181
380.946	1976.8478
381.453	1973.94509
381.96	2073.95511
382.468	2297.07334
382.975	2362.25586
383.482	2381.81948
383.989	2546.55778
384.495	2632.98533
385.002	2640.52488
385.509	2792.02831
386.015	3101.27007
386.521	3154.72813
387.028	3327.77483
387.534	3440.43672
388.04	3515.94076
388.546	3690.46538
389.051	3800.34113
389.557	4091.54468
390.063	4372.39192
390.568	4625.37918
391.073	4791.92491
391.578	4958.23072
392.084	4944.67078
392.589	5194.46547
393.093	5633.62707
393.598	6138.22639
394.103	6837.391
394.607	7405.48797
395.112	7843.88646
395.616	8392.38436
396.12	9069.51424
396.624	9956.88403
397.128	10957.6336
397.632	12015.44698
398.136	13231.85032
398.639	13924.20709
399.143	15725.00095
399.646	17593.62673
400.15	19601.38906
400.653	21698.22958
401.156	24511.70238
401.659	28463.37595
402.162	34642.36014
402.664	45618.31127
403.167	60313.57252
403.67	60646.44991
404.172	55487.84425
404.674	37291.05854
405.176	4428.40989
405.678	533.47942
406.18	0
406.682	0
407.184	6962.89417
407.686	50953.82939
408.187	59237.6763
408.688	61091.12691
409.19	61923.45898
409.691	62441.93235
410.192	54941.25796
410.693	48097.36298
411.194	43590.14393
411.694	41240.45038
412.195	38046.42541
412.696	34257.27928
413.196	32091.43294
413.696	30891.70967
414.196	30974.35544
414.696	30841.86206
415.196	29438.1613
415.696	26594.08206
416.196	21529.9855
416.695	16731.93284
417.195	14363.12372
417.694	13526.15952
418.194	12783.7537
418.693	12022.64621
419.192	11569.69511
419.691	11302.31797
420.19	11156.56756
420.688	10603.00391
421.187	10163.07234
421.685	9664.99701
422.184	8731.86356
422.682	7616.35732
423.18	6452.22243
423.678	5721.37781
424.176	5215.64023
424.674	4976.51806
425.172	4771.06434
425.669	4502.61487
426.167	4196.32572
426.664	3914.39276
427.161	3461.59482
427.659	3322.12176
428.156	3051.35861
428.652	2875.36467
429.149	2798.12221
429.646	2582.57664
430.143	2511.04219
430.639	2454.95866
431.135	2224.08903
431.632	2122.68749
432.128	2019.90128
432.624	1794.95806
433.12	1869.59639
433.616	1799.36844
434.111	1687.63704
434.607	1575.53656
435.103	1577.07091
435.598	1500.00167
436.093	1453.31365
436.588	1470.23999
437.083	1370.14901
437.578	1243.04787
438.073	1218.24911
438.568	1160.13212
439.062	1224.86429
439.557	1041.86396
440.051	1045.808
440.546	1035.81905
441.04	1006.84314
441.534	987.99761
442.028	1011.88994
442.522	954.8205
443.015	933.58636
443.509	986.91343
444.002	883.75439
444.496	838.43014
444.989	905.79565
445.482	817.66606
445.975	870.59428
446.468	806.3931
446.961	816.3798
447.454	778.40961
447.947	786.56108
448.439	813.64365
448.931	760.40982
449.424	740.5338
449.916	758.50399
450.408	772.45845
450.9	676.38477
451.392	704.51298
451.884	643.22473
452.375	683.4234
452.867	694.2974
453.358	643.21345
453.849	697.2129
454.341	687.29285
454.832	658.18329
455.323	609.27799
455.814	598.16178
456.304	572.12387
456.795	602.15456
457.285	568.06353
457.776	564.07321
458.266	599.22987
458.756	576.17326
459.247	521.0738
459.737	546.14232
460.226	578.10951
460.716	572.18307
461.206	513.05871
461.695	558.22201
462.185	520.0739
462.674	506.99803
463.163	468.89534
463.653	494.8994
464.142	383.82407
464.63	472.01382
465.119	520.05564
465.608	421.85554
466.096	401.77662
466.585	404.81556
467.073	394.83334
467.561	523.11464
468.05	403.82419
468.538	494.08028
469.026	470.99971
469.513	396.73778
470.001	345.70334
470.489	402.84914
470.976	432.88169
471.463	417.94032
471.951	349.79248
472.438	328.70226
472.925	292.61762
473.412	325.71822
473.899	365.75662
474.385	327.73139
474.872	281.59813
475.359	335.74433
475.845	371.6821
476.331	323.62435
476.817	304.66943
477.303	306.64694
477.789	288.635
478.275	297.67934
478.761	285.62667
479.247	305.61529
479.732	285.66028
480.218	309.73992
480.703	281.65334
481.188	256.49899
481.673	255.54019
482.158	276.54207
482.643	228.54026
483.128	215.45287
483.612	216.46667
484.097	225.51115
484.581	214.45364
485.066	197.44537
485.55	185.37492
486.034	239.48259
486.518	209.45919
487.002	223.50989
487.486	214.48863
487.969	180.41993
488.453	231.5462
488.936	171.35956
489.42	200.41265
489.903	175.41588
490.386	204.40766
490.869	151.30266
491.352	161.36843
491.835	164.31176
492.318	139.29871
492.8	152.29106
493.283	159.38628
493.765	138.32436
494.247	157.34146
494.73	129.26933
495.212	155.35156
495.694	126.27969
496.175	120.27179
496.657	248.55254
497.139	61.09604
497.62	139.3154
498.102	145.34353
498.583	98.23178
499.064	146.31206
499.545	137.29505
500.026	72.15443
500.507	95.20793
500.988	118.27648
501.469	58.13924
501.949	108.25186
502.43	64.14596
502.91	90.17618
503.39	108.2576
503.87	99.22336
504.35	72.16075
504.83	86.18015
505.31	116.26946
505.79	88.20183
506.269	101.22321
506.749	106.23
507.228	81.18238
507.707	109.22919
508.187	76.17235
508.666	66.15519
509.145	70.15706
509.623	67.15086
510.102	95.21915
510.581	75.17184
511.059	71.1734
511.538	67.16649
512.016	125.28617
512.494	55.12753
512.972	74.17067
513.45	71.16045
513.928	61.14301
514.406	69.16404
514.884	98.24551
515.361	83.19299
515.839	60.13102
516.316	11.02557
516.793	57.1389
517.27	111.2583
517.747	61.15174
518.224	33.07345
518.701	80.17129
519.178	109.26411
519.654	-20.04548
520.131	30.07128
520.607	45.10793
521.083	59.13072
521.56	6.01374
522.036	71.15015
522.512	54.12846
522.987	70.16228
523.463	91.20841
523.939	54.12781
524.414	34.07531
524.89	35.07981
525.365	74.16276
525.84	131.30508
526.315	-5.01169
526.79	59.12696
527.265	15.03279
527.74	43.10129
528.215	61.1392
528.689	86.18517
529.164	28.05754
529.638	98.24267
530.112	33.07658
530.587	96.19843
531.061	48.11278
531.534	22.05143
532.008	53.12392
532.482	4.00874
532.956	53.13318
533.429	48.10934
533.903	74.15522
534.376	37.07876
534.849	46.10359
535.322	24.05504
535.795	24.057
536.268	85.19788
536.741	28.0652
537.213	60.13418
537.686	-12.02844
538.158	-20.04406
538.631	35.0818
539.103	2.00437
539.575	67.1333
540.047	17.03617
540.519	-15.03475
540.991	28.06586
541.463	72.16884
541.934	31.06903
542.406	25.05815
542.877	-7.01539
543.348	-24.05538
543.82	51.12055
544.291	-14.0314
544.762	11.02538
545.233	60.14732
545.703	38.08182
546.174	66.14876
546.645	80.18803
547.115	34.07985
547.585	92.20575
548.056	55.13116
548.526	51.11662
548.996	70.16222
549.466	22.05189
549.935	108.24948
550.405	82.17481
550.875	51.11648
551.344	87.20277
551.814	22.04835
552.283	19.03981
552.752	89.19858
553.221	94.1956
553.69	109.23242
554.159	114.27327
554.628	49.10594
555.096	45.11076
555.565	15.03247
556.033	64.1446
556.502	70.16299
556.97	-3.00646
557.438	78.17789
557.906	31.07134
558.374	49.10852
558.842	45.10447
559.31	41.08803
559.777	19.04505
560.245	32.07192
560.712	-37.08266
561.18	-7.01506
561.647	2.00434
562.114	-19.0425
562.581	23.05544
563.048	29.06385
563.514	47.11251
563.981	40.08813
564.448	21.04596
564.914	50.11196
565.381	21.04565
565.847	54.12136
566.313	4.00904
566.779	71.15573
567.245	70.15797
567.711	51.11924
568.176	73.16228
568.642	39.09592
569.108	90.21319
569.573	26.0586
570.038	94.19028
570.504	109.23696
570.969	112.26817
571.434	130.27425
571.899	119.27243
572.363	102.2217
572.828	85.18495
573.293	103.22668
573.757	150.32936
574.222	146.31395
574.686	120.25905
575.15	174.39345
575.614	134.29175
576.078	151.33581
576.542	160.34687
577.006	182.39019
577.469	164.38125
577.933	170.35627
578.396	214.4835
578.86	159.35227
579.323	154.3488
579.786	195.39193
580.249	183.39445
580.712	198.45173
581.175	143.33657
581.637	204.44509
582.1	161.33032
582.563	106.20966
583.025	199.45465
583.487	129.24468
583.95	166.33742
584.412	131.25771
584.874	175.40015
585.336	116.26369
585.797	93.19141
586.259	136.29836
586.721	70.15868
587.182	73.16106
587.643	147.31495
588.105	119.2698
588.566	144.28562
589.027	108.25226
589.488	86.18676
589.949	81.18633
590.41	110.20625
590.87	73.15627
591.331	59.12001
591.791	87.18954
592.252	85.18652
592.712	63.1455
593.172	88.1894
593.632	65.13221
594.092	100.21198
594.552	41.08423
595.011	75.16679
595.471	104.22104
595.931	52.11115
596.39	78.17997
596.849	94.20831
597.308	83.17067
597.768	49.12069
598.227	84.19412
598.685	52.11264
599.144	63.14127
599.603	130.29157
600.062	17.03425
600.52	32.0692
600.978	92.21024
601.437	82.17838
601.895	86.17337
602.353	74.15467
602.811	70.14819
603.269	45.10319
603.727	80.18355
604.184	62.13424
604.642	59.13843
605.099	113.24754
605.557	41.09511
606.014	97.19766
606.471	95.22985
606.928	147.30991
607.385	101.23966
607.842	175.38125
608.299	146.32003
608.755	100.22944
609.212	135.28561
609.668	105.22331
610.125	128.29038
610.581	88.19436
611.037	100.21513
611.493	96.21372
611.949	79.18224
612.405	134.2551
612.861	111.24244
613.316	119.27188
613.772	151.32631
614.227	74.1672
614.683	133.26769
615.138	142.31835
615.593	68.14956
616.048	87.18616
616.503	99.23092
616.958	123.29254
617.412	107.24013
617.867	124.26286
618.321	117.22149
618.776	115.23925
619.23	131.29326
619.684	149.31109
620.138	92.1975
620.592	88.20231
621.046	133.29148
621.5	100.22972
621.954	88.18597
622.407	132.27431
622.861	63.14382
623.314	111.23854
623.768	41.0919
624.221	141.26078
624.674	23.05028
625.127	114.25179
625.58	26.05528
626.033	137.27727
626.485	27.06189
626.938	63.14173
627.39	55.12216
627.843	95.20556
628.295	105.22934
628.747	97.21814
629.199	68.14862
629.651	56.12177
630.103	71.15573
630.555	33.06593
631.006	69.15351
631.458	-12.02689
631.909	74.15927
632.361	6.01329
632.812	40.08875
633.263	67.13491
633.714	25.05016
634.165	19.04324
634.616	18.04077
635.067	16.03332
635.518	-4.00903
635.968	66.12357
636.419	31.06314
636.869	25.05631
637.319	63.13807
637.769	50.1071
638.219	35.07832
638.669	41.09398
639.119	38.0881
639.569	70.16241
640.019	59.12876
640.468	-21.04447
640.918	41.09383
641.367	53.11336
641.816	88.18638
642.265	41.09046
642.714	75.16582
643.163	10.02172
643.612	11.02584
644.061	14.02811
644.51	63.13737
644.958	85.1766
645.406	34.07848
645.855	13.03056
646.303	19.04229
646.751	34.07475
647.199	24.0513
647.647	70.15532
648.095	0
648.543	30.05736
648.99	58.13313
649.438	58.13008
649.885	100.23687
650.333	26.04692
650.78	90.21047
651.227	99.23038
651.674	17.0374
652.121	-21.04887
652.568	57.13264
653.015	6.01436
653.461	17.03897
653.908	86.18939
654.354	-2.00454
654.801	39.08806
655.247	50.10377
655.693	81.2023
656.139	36.0826
656.585	41.09458
657.031	11.02506
657.477	78.16115
657.922	91.20053
658.368	17.04021
658.813	15.03265
659.259	75.17253
659.704	76.17017
660.149	51.11365
660.594	62.14094
661.039	45.09891
661.484	78.17746
661.929	47.10483
662.373	55.13532
662.818	70.1678
663.262	50.115
663.707	-3.00734
664.151	96.22608
664.595	23.05369
665.039	48.1141
665.483	61.15069
665.927	32.07186
666.371	34.07657
666.814	26.05963
667.258	54.12425
667.701	48.09672
668.145	90.2122
668.588	49.11605
669.031	14.03219
669.474	53.12217
669.917	27.05692
670.36	67.15819
670.803	39.09004
671.245	31.06196
671.688	36.08402
672.13	20.04297
672.573	118.2863
673.015	59.13502
673.457	65.13595
673.899	76.17452
674.341	72.16566
674.783	39.09061
675.225	56.13193
675.666	69.15974
676.108	80.16558
676.549	43.09706
676.991	60.12524
677.432	53.09856
677.873	52.11442
678.314	73.16578
678.755	114.26481
679.196	47.10387
679.637	40.09288
680.078	76.16835
680.518	42.09168
680.959	20.04609
681.399	55.1297
681.839	86.1989
682.28	108.25493
682.72	57.12376
683.16	79.18868
683.6	71.15337
684.039	80.15593
684.479	57.13442
684.919	79.17562
685.358	89.21403
685.798	30.07551
686.237	70.16061
686.676	126.2734
687.115	82.18285
687.554	72.16261
687.993	68.13992
688.432	139.3009
688.871	110.23501
689.309	143.33014
689.748	117.22778
690.186	60.13496
690.625	170.37908
691.063	140.31954
691.501	113.26523
691.939	130.30686
692.377	87.20261
692.815	136.31054
693.253	77.17373
693.69	95.19632
694.128	134.31028
694.565	150.33642
695.003	147.35351
695.44	105.23215
695.877	141.31305
696.314	106.21251
696.751	124.26274
697.188	113.24639
697.625	141.29831
698.061	62.14231
698.498	135.30645
698.934	81.1835
699.371	110.24651
699.807	121.27043
700.243	131.30111
700.679	135.28561
701.115	136.29711
701.551	151.33511
701.987	148.3055
702.422	105.23506
702.858	111.24726
703.294	93.19676
703.729	159.36707
704.164	135.30831
704.599	172.35137
705.035	133.27966
705.47	156.36122
705.904	141.30588
706.339	107.23004
706.774	147.31944
707.209	124.26734
707.643	139.31335
708.078	142.32332
708.512	143.34415
708.946	143.31828
709.38	173.37786
709.814	173.3628
710.248	97.22046
710.682	235.51891
711.116	117.26656
711.549	113.27453
711.983	145.30959
712.416	147.31944
712.85	210.48953
713.283	153.33757
713.716	150.3505
714.149	186.40427
714.582	196.40513
715.015	185.42709
715.448	99.23237
715.881	145.28565
716.313	186.40633
716.746	203.44413
717.178	113.25453
717.61	177.4195
718.043	141.32591
718.475	154.34624
718.907	161.37361
719.339	172.36062
719.77	186.4151
720.202	151.35678
720.634	159.36459
721.065	157.3448
721.497	239.53943
721.928	158.36513
722.359	164.37537
722.79	175.38885
723.221	136.31729
723.652	198.46845
724.083	143.2975
724.514	145.30193
724.945	117.25793
725.375	142.30851
725.806	123.28215
726.236	189.44846
726.666	179.38732
727.096	189.42519
727.526	190.4504
727.956	142.29917
728.386	92.20948
728.816	142.33831
729.246	152.34777
729.675	174.40258
730.105	119.27254
730.534	159.34404
730.964	123.28758
731.393	134.30362
731.822	180.42965
732.251	124.2978
732.68	112.23898
733.109	162.37228
733.537	196.43488
733.966	144.33185
734.395	191.40001
734.823	154.31574
735.251	155.34699
735.68	182.41891
736.108	160.37445
736.536	174.37722
736.964	181.3831
737.392	188.43065
737.82	144.31844
738.247	176.38384
738.675	148.32168
739.102	170.39988
739.53	182.43493
739.957	130.31186
740.384	208.46323
740.811	207.48681
741.238	174.38896
741.665	237.50711
742.092	122.26743
742.519	150.35036
742.945	141.31344
743.372	155.35841
743.798	164.39207
744.225	134.29472
744.651	142.33024
745.077	184.42369
745.503	135.30334
745.929	146.3226
746.355	128.29003
746.781	162.37109
747.207	157.34596
747.632	161.3671
748.058	125.28801
748.483	151.31568
748.908	128.29686
749.334	182.41171
749.759	190.40839
750.184	166.36433
750.609	196.43904
751.033	139.29652
751.458	252.51176
751.883	122.27969
752.307	171.37696
752.732	155.36623
753.156	178.40545
753.58	184.39788
754.005	174.41327
754.429	159.33801
754.853	155.35841
755.277	164.3604
755.7	231.5218
756.124	229.52824
756.548	167.36768
756.971	166.372
757.394	187.44628
757.818	162.39201
758.241	166.38849
758.664	185.43778
759.087	210.43562
759.51	169.38907
759.933	164.36812
760.356	175.41572
760.778	212.48796
761.201	148.32633
761.623	99.21989
762.046	108.23124
762.468	179.39245
762.89	189.42885
763.312	168.37493
763.734	155.34699
764.156	159.36561
764.578	174.36078
765	157.35436
765.421	189.45467
765.843	216.52641
766.264	158.34838
766.686	193.45176
767.107	177.40146
767.528	154.36872
767.949	160.37841
768.37	139.31553
768.791	162.359
769.212	164.39042
769.632	108.23394
770.053	158.39066
770.473	179.40237
770.894	152.34791
771.314	131.28528
771.734	132.28226
772.154	134.32255
772.575	101.21658
772.994	144.30232
773.414	120.26082
773.834	160.3743
774.254	155.34899
774.673	155.34656
775.093	176.40624
775.512	149.34412
775.931	135.32391
776.351	83.19253
776.77	139.31796
777.189	92.20243
777.607	131.31467
778.026	128.30027
778.445	114.27202
778.864	157.37239
779.282	63.14109
779.701	100.23706
780.119	57.13562
780.537	95.2222
780.955	108.25632
781.373	90.20857
781.791	115.24074
782.209	165.34984
782.627	105.263
783.045	112.23856
783.462	44.10603
783.88	86.21187
784.297	88.20853
784.715	109.26818
785.132	83.18818
785.549	96.22898
785.966	71.16776
786.383	94.21861
786.8	159.33919
787.217	55.12221
787.633	88.20732
788.05	108.23044
788.466	89.19332
788.883	80.19498
789.299	39.0877
789.715	99.22683
790.131	49.11452
790.547	40.09262
790.963	70.16376
791.379	64.15347
791.795	65.13782
792.21	80.17351
792.626	59.13105
793.041	34.07889
793.457	37.08603
793.872	58.12821
794.287	119.27167
794.702	21.04875
795.117	-4.00942
795.532	55.13232
795.947	36.08061
796.362	59.13034
796.776	-12.02568
797.191	43.0988
797.605	80.17987
798.02	42.09749
798.434	48.09832
798.848	9.02093
799.262	85.20169
799.676	42.09544
800.09	24.0556
800.504	62.14094
800.918	0
801.331	5.01243
801.745	31.06648
802.158	9.02136
802.572	39.08846
802.985	40.08957
803.398	37.083
803.811	29.07022
804.224	49.11439
804.637	0
805.05	37.08023
805.462	46.10588
805.875	72.18044
806.288	18.0417
806.7	30.07145
807.112	34.07387
807.525	32.07507
807.937	19.04467
808.349	5.01186
808.761	0
809.173	8.01813
809.584	29.06722
809.996	1.00234
810.408	19.04709
810.819	27.06
811.231	29.0735
811.642	58.1359
812.053	57.12986
812.464	90.20144
812.875	32.07796
813.286	22.05368
813.697	29.0616
814.108	-2.00458
814.519	34.06984
814.929	8.01917
815.34	12.02746
815.75	47.11299
816.16	-7.01628
816.571	27.06682
816.981	11.02404
817.391	23.05213
817.801	39.09301
818.211	41.09213
818.62	14.03175
819.03	-22.05068
819.44	45.1108
819.849	41.09811
820.259	11.0269
820.668	23.05432
821.077	18.04259
821.486	2.00449
821.895	-30.06916
822.304	-5.01273
822.713	9.01997
823.122	40.09497
823.531	32.07171
823.939	-45.10525
824.348	18.0415
824.756	19.04484
825.164	-4.00949
825.573	-18.04318
825.981	41.09586
826.389	-19.04482
826.797	10.02384
827.205	-5.01081
827.612	49.11254
828.02	-22.04963
828.428	21.0505
828.835	7.01769
829.243	-17.0382
829.65	-30.07167
830.057	75.17212
830.464	59.13659
830.871	10.02245
831.278	-9.02041
831.685	-3.00617
832.092	52.12022
832.499	-23.04691
832.905	26.06266
833.312	7.01482
833.718	32.07474
834.124	44.09388
834.531	-2.00476
834.937	-17.04124
835.343	11.02508
835.749	29.06254
836.155	-14.03501
836.561	-64.14796
836.966	76.17249
837.372	-10.02414
837.777	-29.0685
838.183	-36.07328
838.588	35.08254
838.993	-15.03416
839.399	-26.06023
839.804	-1.00234
840.209	22.05374
840.613	28.05871
841.018	-55.13212
841.423	-20.04843
841.828	13.03114
842.232	2.00459
842.637	-7.01529
843.041	6.01493
843.445	-31.07347
843.849	-11.0259
844.253	-11.02441
844.657	30.07224
845.061	21.04458
845.465	90.20724
845.869	-23.05015
846.272	-41.09533
846.676	28.06388
847.079	0
847.483	44.10277
847.886	16.03589
848.289	3.00781
848.692	-28.06755
849.095	-5.01119
849.498	-3.00705
849.901	-21.04482
850.304	-21.04705
850.707	-16.03876
851.109	-59.14005
851.512	9.02112
851.914	29.07082
852.316	6.01448
852.718	-8.02004
853.121	-2.00465
853.523	-36.07945
853.925	-20.05018
854.326	21.05043
854.728	-2.00491
855.13	14.03471
855.531	66.14991
855.933	3.00675
856.334	-7.01671
856.736	-20.04169
857.137	-4.00876
857.538	-22.05284
857.939	9.02124
858.34	23.05225
858.741	-16.03997
859.142	-11.02508
859.542	78.19892
859.943	27.06394
860.343	2.00474
860.744	42.09656
861.144	-18.04165
861.544	8.01849
861.945	-30.07254
862.345	-42.09586
862.745	7.01648
863.145	10.02191
863.544	56.1349
863.944	-16.0355
864.344	-48.11212
864.743	29.06772
865.143	26.06327
865.542	-42.09183
865.941	14.03311
866.34	69.15383
866.74	-16.04122
867.139	43.09718
867.537	14.03355
867.936	19.04322
868.335	28.06801
868.734	47.11478
869.132	-7.01544
869.531	25.05654
869.929	29.06243
870.327	27.06072
870.726	30.07005
871.124	-7.01521
871.522	-33.07951
871.92	23.05327
872.318	-26.06059
872.715	25.05788
873.113	11.02537
873.511	2.00473
873.908	-3.00741
874.306	-13.03088
874.703	6.01417
875.1	-2.00482
875.497	-25.05636
875.894	-4.00948
876.291	11.02571
876.688	-33.08137
877.085	7.0157
877.482	-34.08041
877.878	12.02731
878.275	-9.02166
878.671	-26.05246
879.068	48.10783
879.464	2.00458
879.86	52.11644
880.256	-44.10193
880.652	-24.05817
881.048	3.00692
881.444	-19.04199
881.84	-44.10644
882.236	17.04051
882.631	18.04173
883.027	-12.02695
883.422	25.06037
883.817	21.05066
884.213	-15.03682
884.608	-14.03301
885.003	12.02736
885.398	3.00712
885.793	-15.03559
886.188	20.04765
886.582	-18.04303
886.977	7.01555
887.371	14.03344
887.766	11.02617
888.16	11.02599
888.554	-45.10463
888.949	-9.02108
889.343	-14.03184
889.737	10.02596
890.131	-6.01438
890.525	17.04102
890.918	27.06481
891.312	-67.14962
891.706	45.11288
892.099	7.0168
892.492	9.018
892.886	-29.0669
893.279	8.01936
893.672	-8.01948
894.065	-8.01891
894.458	21.04973
894.851	13.02943
895.244	-12.02927
895.637	27.06117
896.029	6.01384
896.422	-37.08546
896.814	13.03061
897.206	23.0521
897.599	-32.0733
897.991	16.03655
898.383	-36.08014
898.775	-29.06127
899.167	44.09686
899.559	-12.02868
899.951	17.03737
900.342	-45.10731
900.734	-7.01692
901.125	-29.07211
901.517	1.00234
901.908	6.01335
902.299	24.05551
902.69	-7.01558
903.082	4.00911
903.473	-5.01145
903.863	31.07568
904.254	-33.07193
904.645	-29.06746
905.036	32.07407
905.426	-54.11287
905.817	-11.02554
906.207	-34.07738
906.597	-4.00884
906.987	-6.01458
907.378	-7.0167
907.768	46.11578
908.158	4.00923
908.547	-10.02476
908.937	0
909.327	-4.00911
909.717	33.078
910.106	-8.01814
910.495	42.0991
910.885	-46.1093
911.274	29.06868
911.663	30.07257
912.052	-17.03933
912.441	18.0438
912.83	7.01491
913.219	-34.0841
913.608	-15.03474
913.997	-30.07169
914.385	-30.06684
914.774	6.01368
915.162	-8.01786
915.55	42.09493
915.939	-8.0193
916.327	-10.02363
916.715	16.03905
917.103	-4.0092
917.491	-35.08096
917.878	-19.04339
918.266	-9.02219
918.654	49.11949
919.041	-14.035
919.429	-9.02011
919.816	17.04046
920.203	13.0297
920.591	-22.05133
920.978	4.0092
921.365	-18.04493
921.752	11.02476
922.139	31.06257
922.525	-41.09349
922.912	34.07726
923.299	21.0495
923.685	-28.07002
924.072	30.06332
924.458	37.08617
924.844	6.014
925.231	-9.01951
925.617	29.07104
926.003	-35.08545
926.389	20.0482
926.774	9.02172
927.16	-34.07985
927.546	-1.00244
927.931	8.01884
928.317	-5.01055
928.702	-18.03969
929.088	-18.0404
929.473	-21.05102
929.858	21.04879
930.243	27.06122
930.628	-39.08982
931.013	11.02612
931.398	-24.05121
931.783	13.03252
932.167	0
932.552	-65.15358
932.937	-23.05316
933.321	-29.06897
933.705	46.11039
934.09	-37.08759
934.474	40.08824
934.858	-30.07489
935.242	9.01987
935.626	-40.09749
936.009	-37.09451
936.393	11.02679
936.777	37.09033
937.16	-51.12567
937.544	40.08713
937.927	-19.04613
938.311	-10.02282
938.694	-11.02776
939.077	-31.06963
939.46	32.07392
939.843	-95.1831
940.226	-13.03155
940.609	-2.00427
940.991	-26.06313
941.374	4.00916
941.757	13.0301
942.139	-2.00415
942.522	20.04342
942.904	-23.05246
943.286	-12.02866
943.668	-44.10916
944.05	7.01624
944.432	44.10221
944.814	-42.09733
945.196	7.01633
945.578	10.02267
945.959	35.07658
946.341	-30.06823
946.722	14.03087
947.104	-23.0514
947.485	-55.12084
947.866	26.06244
948.247	-27.06498
948.628	4.0091
949.009	14.03412
949.39	-3.0069
949.771	10.0215
950.152	-1.00233
950.532	23.05517
950.913	-18.04045
951.293	15.03911
951.674	-21.04757
952.054	-8.01886
952.434	12.02781
952.814	-45.09945
953.194	54.13362
953.574	-25.05737
953.954	18.04002
954.334	32.07545
954.714	-36.08372
955.093	6.01368
955.473	-81.19302
955.853	-24.05965
956.232	13.03408
956.611	-27.05982
956.99	-6.01438
957.37	4.00966
957.749	-21.0467
958.128	16.03856
958.506	18.04475
958.885	-32.07653
959.264	-39.09115
959.643	7.01489
960.021	19.04442
960.4	58.12322
960.778	-10.02277
961.156	-19.04524
961.535	-33.07055
961.913	-21.04509
962.291	40.09829
962.669	-30.07276
963.047	-58.13993
963.424	25.06058
963.802	-12.02758
964.18	44.10358
964.557	-48.10237
964.935	52.1137
965.312	-8.02001
965.69	8.01877
966.067	-33.07549
966.444	-3.00697
966.821	-9.02191
967.198	-12.02696
967.575	15.03422
967.952	28.06151
968.329	-20.04578
968.705	21.04061
969.082	-9.02214
969.458	14.03202
969.835	4.00914
970.211	28.06801
970.587	-10.02357
970.963	39.09397
971.339	-5.01257
971.715	-33.07694
972.091	-6.0139
972.467	-75.17584
972.843	3.00704
973.219	23.05068
973.594	-17.04257
973.97	0
974.345	-16.03606
974.721	-28.06363
975.096	-65.14827
975.471	56.12363
975.846	27.06119
976.221	-7.01692
976.596	-21.04759
976.971	53.12221
977.346	-45.09729
977.72	3.00722
978.095	-24.05941
978.469	39.08691
978.844	12.02836
979.218	-16.03659
979.593	54.12042
979.967	63.14377
980.341	-33.07089
980.715	26.06128
981.089	-25.05873
981.463	10.02171
981.837	-2.00466
982.21	-17.03671
982.584	7.01578
982.957	12.02856
983.331	46.10096
983.704	-10.02342
984.078	-15.03474
984.451	-34.07832
984.824	1.00232
985.197	27.06112
985.57	4.00937
985.943	-21.04792
986.316	39.08939
986.688	-12.0271
987.061	-14.03043
987.434	-8.01991
987.806	-11.02497
988.179	-33.07293
988.551	-25.05978
988.923	-13.03014
989.295	39.09097
989.667	36.08224
990.039	-13.0306
990.411	12.02603
990.783	-9.01926
991.155	-13.03001
991.527	-7.01585
991.898	-37.08709
992.27	4.00936
992.641	-8.01886
993.012	45.09904
993.384	29.0646
993.755	-40.09683
994.126	18.04065
994.497	-34.07914
994.868	62.13177
995.239	-5.01149
995.61	-37.08841
995.98	-1.00232
996.351	31.07276
996.722	22.04802
997.092	0
997.462	-4.00889
997.833	-1.00221
998.203	16.03608
998.573	27.0638
998.943	-40.08742
999.313	-4.00908
999.683	-7.01563
1000.053	23.04947
1000.423	3.00686
1000.792	-8.01978
1001.162	4.00935
1001.531	33.07679
1001.901	-27.06352
1002.27	31.06446
1002.639	-17.04152
1003.009	43.0967
1003.378	-7.01704
1003.747	-37.08215
1004.116	-10.0227
1004.485	31.06966
1004.853	-10.02405
1005.222	30.07205
1005.591	12.02638
1005.959	17.03619
1006.328	-21.04404
1006.696	5.01144
1007.064	-12.02867
1007.433	54.12697
1007.801	-5.01147
1008.169	-6.01423
1008.537	27.05545
1008.905	31.06757
1009.273	-27.06313
1009.64	10.02254
1010.008	6.01336
1010.375	68.15264
1010.743	-43.09105
1011.11	57.12555
1011.478	20.04639
1011.845	-23.04996
1012.212	-23.04819
1012.579	1.00232
1012.946	-9.01976
1013.313	105.22817
1013.68	28.05764
1014.047	30.06792
1014.414	-3.00673
1014.78	52.12222
1015.147	-36.08101
1015.513	74.16815
1015.88	-39.09365
1016.246	46.10639
1016.612	6.01264
1016.978	-27.06238
1017.344	26.06111
1017.71	-23.05172
1018.076	20.0438
1018.442	-14.03407
1018.808	-3.0071
1019.174	-40.09497
1019.539	-2.00415
1019.905	-14.0313
1020.27	21.04927
1020.636	56.1242
1021.001	3.00668
1021.366	33.07561
1021.731	39.09496
1022.096	-14.03392
1022.461	-30.06607
1022.826	28.0622
1023.191	8.01998
1023.556	-13.02813
1023.92	-30.06897
1024.285	24.05456
1024.649	8.01845
1025.014	-18.04211
1025.378	49.1169
1025.742	-8.01875
1026.107	5.01037
1026.471	-25.05347
1026.835	-48.11194
1027.199	-8.01827
1027.562	-9.01974
1027.926	8.0183
1028.29	-36.08718
1028.654	-13.02765
1029.017	38.08771
1029.381	-2.00452
1029.744	-6.01464
1030.107	41.08815
1030.471	-19.04266
1030.834	-8.01664
1031.197	-43.09634
1031.56	49.10861
1031.923	-11.02702
1032.286	-3.00654
1032.648	-7.01559
1033.011	-20.04321
1033.374	-8.01732
1033.736	16.03992
1034.099	22.0506
1034.461	62.14817
1034.823	-26.06111
1035.185	-30.0706
1035.548	23.05227
1035.91	46.10342
1036.272	35.07379
1036.634	40.08993
1036.995	30.06637
1037.357	-11.02533
1037.719	-3.00685
1038.08	14.0304
1038.442	89.19916
1038.803	46.10181
1039.165	12.02866
1039.526	30.06781
1039.887	55.12318
1040.248	10.02377
1040.609	15.03474
1040.97	2.00459
1041.331	-47.11144
1041.692	-14.03102
1042.053	-24.05054
1042.413	2.00429
1042.774	34.07673
1043.134	22.04816
1043.495	6.01411
1043.855	3.00685
1044.215	5.01165
1044.576	-7.01589
1044.936	54.11477
1045.296	39.09054
1045.656	7.01614
1046.016	-11.02461
1046.375	22.05048
1046.735	32.06819
1047.095	-1.0022
1047.454	72.13767
1047.814	1.00224
1048.173	-2.00438
1048.533	34.07267
1048.892	-18.04117
1049.251	25.05898
1049.61	-8.01835
1049.969	62.13636
1050.328	-64.12807
1050.687	-39.08972
1051.046	39.0895
1051.405	-24.05573
1051.763	-7.01515
1052.122	35.08292
1052.48	-3.00688
1052.839	24.05274
1053.197	9.01984
1053.555	-56.11539
1053.914	-9.02064
1054.272	-17.03854
1054.63	-40.09218
1054.988	-14.03119
1055.345	-20.03937
1055.703	13.02895
1056.061	-31.07619
1056.419	25.06156
1056.776	26.05858
1057.134	6.01291
1057.491	-12.02834
1057.848	-29.06796
1058.206	1.0022
1058.563	25.05148
1058.92	10.02117
1059.277	-55.12657
1059.634	-35.0757
1059.991	57.12724
1060.348	16.03395
1060.704	-38.08593
1061.061	3.00633
1061.418	15.03438
1061.774	48.11251
1062.131	36.09236
1062.487	-54.11837
1062.843	-3.00705
1063.199	-5.01183
1063.555	-3.00656
1063.911	-47.11269
1064.267	-8.01488
1064.623	-17.0395
1064.979	-40.08676
1065.335	-3.00659
1065.691	36.08124
1066.046	-20.04045
1066.402	-5.01058
1066.757	11.02624
1067.112	-13.0297
1067.468	-6.01357
1067.823	36.08094
1068.178	22.05013
1068.533	-13.0294
1068.888	-5.01106
1069.243	31.07211
1069.598	-38.08589
1069.952	-4.00858
1070.307	6.01427
1070.662	-29.06524
1071.016	6.01265
1071.371	-2.00422
1071.725	-64.14106
1072.079	-40.09078
1072.434	-3.00685
1072.788	55.12247
1073.142	55.12728
1073.496	3.00667
1073.85	-4.00864
1074.203	23.05191
1074.557	14.0357
1074.911	8.01761
1075.265	0
1075.618	52.11869
1075.971	-14.03109
1076.325	-27.06537
1076.678	28.05941
1077.031	-35.07408
1077.385	33.06743
1077.738	-13.02749
1078.091	15.03228
1078.444	-23.04928
1078.796	7.01629
1079.149	-50.11665
1079.502	-38.08505
1079.855	32.06976
1080.207	15.03456
1080.56	-49.12114
1080.912	-17.03834
1081.264	-24.05447
1081.617	8.01838
1081.969	56.13511
1082.321	18.04125
1082.673	1.00216
1083.025	-25.05527
1083.377	-42.08233
1083.728	-61.13154
1084.08	36.08488
1084.432	-59.13181
1084.783	42.09222
1085.135	47.11213
1085.486	-30.06515
1085.838	20.04624
1086.189	3.00684
1086.54	-2.00448
1086.891	-2.00487
1087.242	-1.00227
1087.593	23.05181
1087.944	-4.00839
1088.295	13.02703
1088.646	15.03415
1088.996	-20.04535
1089.347	-26.05989
1089.698	-2.00449
1090.048	-33.0811
1090.398	6.01306
1090.749	5.01125
1091.099	34.08135
1091.449	-23.05384
1091.799	6.01412
1092.149	15.03528
1092.499	16.03677
1092.849	-23.05571
1093.199	16.03748
1093.548	3.00682
1093.898	-31.07393
1094.248	-8.0195
1094.597	9.02213
1094.947	4.01015
1095.296	8.01848
1095.645	-4.00983
1095.994	-8.01818
1096.343	68.16176
1096.692	-3.0076
1097.041	24.06248
1097.39	-4.00944
1097.739	-7.01739
1098.088	-21.05315
1098.437	-14.03534
1098.785	-7.01793
1099.134	-30.07513
1099.482	-44.11567
1099.83	-9.02242
1100.179	18.04529
1100.527	-34.08591
1100.875	-30.076
1101.223	38.09647
1101.571	-12.03207
1101.919	-21.05304
1102.267	3.00823
1102.615	3.00964
1102.962	3.00963
1103.31	11.0353
1103.658	-9.02888
