Data from N3 R6 sample 4_Subt2__1__15-28-11-527.txt Node

Date: Fri Sep 19 15:28:11 PDT 2025
User: uwsun
Spectrometer: HDX01956
Trigger mode: 0
Integration Time (sec): 5.000000E-1
Scans to average: 1
Nonlinearity correction enabled: true
Boxcar width: 0
Storing dark spectrum: false
XAxis mode: Wavelengths
Number of Pixels in Spectrum: 2068
>>>>>Begin Spectral Data<<<<<
194.03	0
194.578	7.02275
195.127	6.01925
195.676	-8.02568
196.225	-11.02913
196.773	-3.00839
197.321	-6.01677
197.87	5.01295
198.418	60.15544
198.966	61.16077
199.513	24.0616
200.061	-21.05392
200.609	23.06084
201.156	-26.0569
201.704	-28.07118
202.251	-25.06706
202.798	0
203.345	14.03483
203.892	1.00254
204.438	24.05755
204.985	2.00481
205.532	48.12912
206.078	-31.07726
206.624	-2.005
207.17	7.01633
207.716	-28.06829
208.262	20.03943
208.808	-15.0378
209.354	-2.00491
209.899	-33.08391
210.445	14.03538
210.99	4.00976
211.535	11.02594
212.08	8.01864
212.625	-16.04039
213.17	-2.00508
213.715	-5.01138
214.259	34.0797
214.804	21.05163
215.348	-11.02533
215.892	12.02904
216.436	-16.03759
216.98	-14.0309
217.524	18.04265
218.068	11.02776
218.612	-46.11615
219.155	-30.07126
219.698	11.02598
220.242	16.03974
220.785	48.11176
221.328	21.05239
221.871	37.09314
222.414	-34.0841
222.956	3.00729
223.499	-16.03614
224.041	-34.07848
224.583	0
225.126	17.03804
225.668	22.05346
226.21	3.00755
226.751	-65.14233
227.293	-23.05221
227.835	-42.10294
228.376	-10.02284
228.918	18.04521
229.459	41.10281
230	-16.03816
230.541	-47.10842
231.082	-11.02675
231.622	7.0161
232.163	48.11655
232.704	-31.07709
233.244	-17.04227
233.784	-24.05843
234.324	27.0599
234.864	-6.01353
235.404	-19.04477
235.944	-41.09676
236.484	-31.07675
237.023	1.00237
237.563	-3.00692
238.102	28.06563
238.641	29.07348
239.18	-44.10455
239.719	39.09797
240.258	-16.03575
240.797	32.07647
241.335	-32.07752
241.874	11.02124
242.412	-30.07208
242.95	0
243.488	-10.02285
244.026	0
244.564	34.06908
245.102	-21.04734
245.64	23.05487
246.177	-31.06926
246.715	6.01417
247.252	24.05405
247.789	-47.08393
248.326	-34.08128
248.863	-41.08989
249.4	-1.0023
249.936	29.05885
250.473	-25.0587
251.009	7.01617
251.546	5.01104
252.082	25.05488
252.618	-10.02249
253.154	-8.01923
253.69	-7.0157
254.226	7.01659
254.761	-17.03765
255.297	8.01753
255.832	-20.04716
256.367	17.03959
256.903	-41.08989
257.438	-32.07454
257.972	-36.07978
258.507	19.04392
259.042	-77.16562
259.576	0
260.111	3.00687
260.645	-15.03261
261.179	-29.06746
261.713	-10.02207
262.247	61.14027
262.781	36.07535
263.315	14.0342
263.849	3.00749
264.382	-32.0733
264.915	20.04697
265.449	-3.00735
265.982	-3.00672
266.515	18.04372
267.048	-43.09225
267.58	-68.14742
268.113	18.03901
268.646	26.06441
269.178	-22.04934
269.71	-11.02385
270.243	-21.04796
270.775	21.05324
271.307	-39.09286
271.838	-10.02352
272.37	0
272.902	38.08617
273.433	-45.09833
273.965	31.07588
274.496	-49.12127
275.027	8.01968
275.558	33.0793
276.089	1.00251
276.62	-17.04307
277.15	2.00491
277.681	-81.17482
278.211	-29.07069
278.741	-6.01337
279.272	22.05001
279.802	12.02995
280.332	-12.02839
280.861	24.0574
281.391	14.03146
281.921	-41.09789
282.45	76.1895
282.98	16.04174
283.509	11.02461
284.038	-34.07648
284.567	-42.09668
285.096	18.04341
285.625	18.0413
286.153	-18.04216
286.682	-13.02953
287.21	27.06451
287.739	-20.04701
288.267	23.05573
288.795	18.04702
289.323	28.06607
289.851	-11.02565
290.378	-5.01124
290.906	-2.00488
291.433	25.06212
291.961	-5.01124
292.488	1.00249
293.015	19.04502
293.542	20.05029
294.069	30.07331
294.596	38.0932
295.122	11.02623
295.649	45.09929
296.175	13.03095
296.702	-50.1209
297.228	-51.12288
297.754	-30.06756
298.28	-11.02494
298.806	39.09375
299.332	-47.10504
299.857	-12.02704
300.383	-11.02761
300.908	13.03184
301.433	25.06087
301.958	-13.02952
302.483	21.05304
303.008	-21.05167
303.533	-28.07194
304.058	-11.02586
304.582	10.02367
305.107	-24.06344
305.631	-15.03397
306.155	32.07498
306.679	17.03981
307.203	13.03023
307.727	32.07606
308.251	11.02706
308.775	-10.02378
309.298	-11.02671
309.822	9.02267
310.345	9.02132
310.868	-21.05044
311.391	-15.03696
311.914	45.11235
312.437	9.0203
312.96	20.04727
313.482	15.03569
314.005	-15.03784
314.527	2.00528
315.049	-6.0151
315.571	54.12221
316.093	55.13612
316.615	7.01705
317.137	-8.01732
317.659	-2.00481
318.18	12.02902
318.702	63.1455
319.223	60.1219
319.744	17.03836
320.265	3.00733
320.786	-26.065
321.307	64.15877
321.828	51.11577
322.348	49.11542
322.869	-63.14868
323.389	230.40913
323.909	7.01614
324.43	24.05725
324.95	27.06214
325.47	24.05932
325.989	86.20442
326.509	17.03774
327.029	-4.00909
327.548	10.02272
328.067	30.07224
328.587	38.09468
329.106	42.09486
329.625	10.02583
330.144	-15.03455
330.662	-26.06099
331.181	38.089
331.7	35.08167
332.218	62.13493
332.736	20.04648
333.255	-2.00468
333.773	26.06175
334.291	-12.02978
334.808	1.00222
335.326	47.10604
335.844	50.11738
336.361	25.06327
336.879	13.03039
337.396	51.12106
337.913	-4.00921
338.43	95.21355
338.947	68.16108
339.464	39.08356
339.981	45.10711
340.497	63.15478
341.014	25.06042
341.53	82.1855
342.046	38.09348
342.562	59.14602
343.078	51.11915
343.594	62.14822
344.11	53.12513
344.626	52.13116
345.141	88.20037
345.657	40.08942
346.172	95.22481
346.687	70.16035
347.202	78.17379
347.717	61.14514
348.232	72.17907
348.747	91.20691
349.261	87.19252
349.776	45.1048
350.29	62.15319
350.805	33.08071
351.319	67.15554
351.833	61.13903
352.347	-22.05141
352.861	59.13708
353.374	74.16733
353.888	51.12172
354.401	88.19972
354.915	79.17715
355.428	126.30892
355.941	55.12819
356.454	151.33022
356.967	75.17645
357.48	84.19018
357.993	81.19693
358.505	73.17914
359.018	126.29869
359.53	98.23187
360.042	33.07208
360.554	84.1999
361.066	81.19428
361.578	79.17233
362.09	123.2878
362.602	87.18986
363.113	41.09326
363.625	85.19123
364.136	105.22701
364.647	58.13452
365.158	110.25309
365.669	131.31252
366.18	73.16625
366.691	113.24524
367.201	78.18298
367.712	82.18172
368.222	140.31799
368.733	159.33992
369.243	70.15156
369.753	87.19693
370.263	94.21861
370.773	95.23149
371.282	135.31229
371.792	62.14026
372.301	95.22673
372.811	81.20755
373.32	94.19648
373.829	118.27529
374.338	113.2466
374.847	109.24391
375.356	114.26753
375.865	165.3399
376.373	163.35858
376.882	180.4395
377.39	142.33415
377.898	209.49954
378.407	128.27785
378.915	180.37205
379.423	199.45209
379.93	186.40307
380.438	221.5175
380.946	243.54084
381.453	198.45519
381.96	263.58996
382.468	252.56819
382.975	316.72584
383.482	279.58922
383.989	307.73737
384.495	350.74644
385.002	319.62135
385.509	320.69105
386.015	421.76743
386.521	414.83268
387.028	443.89983
387.534	414.80007
388.04	434.91793
388.546	457.89524
389.051	516.98288
389.557	534.07424
390.063	627.23358
390.568	546.1171
391.073	592.12878
391.578	570.16734
392.084	563.04869
392.589	728.28336
393.093	723.37006
393.598	842.48174
394.103	920.67003
394.607	974.71735
395.112	1048.88565
395.616	1040.81406
396.12	1117.78965
396.624	1296.98989
397.128	1429.16477
397.632	1624.19125
398.136	1716.23083
398.639	1849.37483
399.143	2202.66282
399.646	2446.38551
400.15	2645.25161
400.653	3002.06386
401.156	3277.58578
401.659	3858.46457
402.162	5003.4191
402.664	7025.46889
403.167	12245.30104
403.67	32025.89199
404.172	52003.75948
404.674	37291.05854
405.176	4428.40989
405.678	533.47942
406.18	0
406.682	0
407.184	6962.89417
407.686	29248.19211
408.187	17866.24525
408.688	11668.21021
409.19	8800.24171
409.691	7274.49286
410.192	6234.64177
410.693	5485.45846
411.194	5090.81226
411.694	4778.24339
412.195	4385.84983
412.696	4027.92693
413.196	3869.56885
413.696	3958.25022
414.196	3990.71792
414.696	3849.4152
415.196	3593.36418
415.696	2973.58855
416.196	2237.10778
416.695	1935.28087
417.195	1786.33466
417.694	1650.75297
418.194	1462.76512
418.693	1457.01977
419.192	1503.19091
419.691	1440.14105
420.19	1385.11364
420.688	1369.20729
421.187	1234.59998
421.685	1195.89366
422.184	1003.70669
422.682	900.47054
423.18	748.36272
423.678	644.19544
424.176	571.08418
424.674	581.05016
425.172	511.0149
425.669	521.09979
426.167	515.01191
426.664	409.81447
427.161	368.74153
427.659	425.92032
428.156	388.72503
428.652	292.67287
429.149	310.68264
429.646	249.49885
430.143	273.60105
430.639	273.59247
431.135	164.38005
431.632	209.44313
432.128	216.48663
432.624	160.38353
433.12	189.40598
433.616	206.41853
434.111	231.51477
434.607	189.42449
435.103	106.20936
435.598	134.26131
436.093	98.21699
436.588	184.38851
437.083	114.24451
437.578	102.2217
438.073	98.23178
438.568	119.27615
439.062	111.22557
439.557	71.15901
440.051	44.09649
440.546	111.24254
441.04	52.11826
441.534	81.19789
442.028	83.19086
442.522	79.18282
443.015	43.09081
443.509	103.24205
444.002	62.14681
444.496	-3.00629
444.989	99.23346
445.482	41.09838
445.975	35.07771
446.468	50.10395
446.961	32.06573
447.454	11.02385
447.947	51.11873
448.439	62.14698
448.931	41.08978
449.424	-8.01936
449.916	26.06044
450.408	98.21591
450.9	17.04004
451.392	27.0665
451.884	48.10477
452.375	-28.0676
452.867	6.01314
453.358	-35.07713
453.849	-6.0124
454.341	50.10895
454.832	26.05442
455.323	8.01903
455.814	-34.0761
456.304	15.03339
456.795	-33.07308
457.285	-34.07324
457.776	-30.06543
458.266	45.10406
458.756	-14.03238
459.247	-12.02773
459.737	39.09086
460.226	56.1212
460.716	46.10647
461.206	-26.06023
461.695	51.12376
462.185	19.04371
462.674	10.02202
463.163	-13.02777
463.653	11.02249
464.142	-19.04441
464.63	-4.00949
465.119	17.03853
465.608	-38.0853
466.096	6.01272
466.585	-39.08673
467.073	-4.0092
467.561	-17.04053
468.05	15.03337
468.538	20.04818
469.026	23.05367
469.513	0
470.001	-43.09539
470.489	-9.02072
470.976	13.02905
471.463	53.12838
471.951	20.04843
472.438	15.03429
472.925	-53.12056
473.412	-8.01891
473.899	20.04465
474.385	41.0971
474.872	-31.07046
475.359	-8.01904
475.845	-32.06481
476.331	-27.05657
476.817	-25.05884
477.303	24.05387
477.789	-11.02577
478.275	1.00242
478.761	3.00699
479.247	-12.02597
479.732	66.15953
480.218	1.00253
480.703	13.03182
481.188	-46.0961
481.673	1.00224
482.158	-12.02517
482.643	-5.01238
483.128	-67.14987
483.612	-20.04539
484.097	23.05439
484.581	-19.04232
485.066	-41.09718
485.55	-57.12191
486.034	0
486.518	-30.06922
487.002	-8.01914
487.486	-49.11779
487.969	3.00724
488.453	-2.00494
488.936	-42.09245
489.42	-10.02161
489.903	4.00982
490.386	21.04375
490.869	-60.12613
491.352	-38.09043
491.835	-49.09799
492.318	-33.07354
492.8	-30.05998
493.283	-2.00501
493.765	-11.0266
494.247	27.06034
494.73	-37.0801
495.212	-32.07533
495.694	-79.18282
496.175	-19.04425
496.657	69.15943
497.139	-164.27511
497.62	-39.09169
498.102	-40.09814
498.583	-72.17587
499.064	41.08963
499.545	-19.04229
500.026	-67.14801
500.507	-46.10368
500.988	-39.09418
501.469	-20.04873
501.949	-36.08633
502.43	-38.08845
502.91	-45.09091
503.39	-24.05869
503.87	-11.02538
504.35	-56.12833
504.83	-51.11007
505.31	-4.00951
505.79	-5.01168
506.269	-30.06811
506.749	-59.13252
507.228	3.00686
507.707	-25.05412
508.187	20.04587
508.666	-25.05983
509.145	-74.17094
509.623	-32.07351
510.102	-4.00941
510.581	38.08771
511.059	64.15651
511.538	48.11969
512.016	40.09314
512.494	17.03972
512.972	41.09518
513.45	9.0206
513.928	32.07545
514.406	54.12875
514.884	125.31162
515.361	94.21809
515.839	60.13102
516.316	95.21714
516.793	75.18214
517.27	112.26058
517.747	95.23486
518.224	91.20011
518.701	102.21736
519.178	139.3349
519.654	39.08763
520.131	39.09251
520.607	92.21868
521.083	105.2304
521.56	40.09097
522.036	66.13973
522.512	86.20332
522.987	119.2732
523.463	104.23757
523.939	77.18144
524.414	50.11039
524.89	80.18075
525.365	108.23584
525.84	74.17427
526.315	-15.03513
526.79	27.0585
527.265	-19.04183
527.74	-3.00713
528.215	42.09621
528.689	84.18094
529.164	-55.11514
529.638	22.05523
530.112	-10.0234
530.587	12.02527
531.061	-5.01187
531.534	3.00704
532.008	37.08678
532.482	-107.23934
532.956	17.043
533.429	-74.17271
533.903	-30.06437
534.376	-4.00859
534.849	-21.04794
535.322	-15.03467
535.795	-51.12288
536.268	-25.05946
536.741	-40.09438
537.213	-6.0136
537.686	-75.17988
538.158	-73.16261
538.631	-61.14525
539.103	-70.15538
539.575	-17.03448
540.047	-36.07748
540.519	-5.01156
540.991	-32.07615
541.463	-41.09826
541.934	-52.11778
542.406	-58.13712
542.877	-59.13116
543.348	-92.21514
543.82	-32.07685
544.291	-92.20965
544.762	-44.10261
545.233	-24.05984
545.703	-44.09641
546.174	-13.02977
546.645	-37.08895
547.115	-58.13866
547.585	1.00228
548.056	3.00723
548.526	-37.0861
548.996	-8.01883
549.466	-11.02611
549.935	-6.01417
550.405	-55.12074
550.875	-63.14718
551.344	-46.11001
551.814	-49.10929
552.283	-21.04439
552.752	-43.09856
553.221	-74.15975
553.69	-44.09694
554.159	-6.01471
554.628	-27.05932
555.096	-67.1683
555.565	-57.12529
556.033	0
556.502	-55.13121
556.97	-45.09775
557.438	-38.08869
557.906	2.00463
558.374	-52.11759
558.842	9.02104
559.31	21.04528
559.777	-7.01668
560.245	-38.08663
560.712	-65.14605
561.18	-10.02152
561.647	5.01083
562.114	-8.01785
562.581	19.04583
563.048	30.06604
563.514	42.10064
563.981	50.10993
564.448	101.21733
564.914	95.21074
565.381	49.10589
565.847	58.13024
566.313	38.08526
566.779	195.41652
567.245	106.23745
567.711	116.26775
568.176	220.47409
568.642	165.39634
569.108	193.44804
569.573	149.32737
570.038	216.42503
570.504	272.57078
570.969	229.53602
571.434	267.54631
571.899	302.66586
572.363	289.60311
572.828	379.773
573.293	316.66428
573.757	388.80915
574.222	372.76096
574.686	393.79864
575.15	405.87253
575.614	460.93202
576.078	403.8492
576.542	433.88393
577.006	520.03161
577.469	512.10603
577.933	477.93177
578.396	583.21582
578.86	491.0105
579.323	544.1321
579.786	479.89976
580.249	502.00604
580.712	490.04984
581.175	501.09446
581.637	614.22129
582.1	478.91049
582.563	436.79579
583.025	505.0804
583.487	415.73236
583.95	463.87741
584.412	429.78479
584.874	476.02023
585.336	443.94004
585.797	407.77844
586.259	372.77544
586.721	412.86874
587.182	365.75595
587.643	343.70371
588.105	328.71197
588.566	355.66944
589.027	364.80725
589.488	283.58875
589.949	235.5239
590.41	328.58197
590.87	271.55524
591.331	299.57491
591.791	272.56927
592.252	234.49733
592.712	239.5326
593.172	224.46798
593.632	170.33751
594.092	201.41667
594.552	178.35438
595.011	186.4041
595.471	209.43403
595.931	214.44134
596.39	166.37628
596.849	173.37706
597.308	149.30183
597.768	153.36961
598.227	134.30659
598.685	140.29755
599.144	134.29608
599.603	169.37599
600.062	115.22645
600.52	171.35876
600.978	146.33001
601.437	122.26314
601.895	122.24391
602.353	73.15262
602.811	126.26348
603.269	93.2112
603.727	105.23971
604.184	105.22526
604.642	106.24642
605.099	82.18081
605.557	101.2315
606.014	58.11924
606.471	138.33117
606.928	193.40277
607.385	154.36168
607.842	128.28164
608.299	131.28806
608.755	85.19561
609.212	158.33259
609.668	156.32809
610.125	157.35407
610.581	111.24398
611.037	129.27579
611.493	139.30668
611.949	162.36751
612.405	143.27164
612.861	93.2039
613.316	121.27634
613.772	144.31165
614.227	136.30339
614.683	143.28715
615.138	151.3379
615.593	105.22914
616.048	118.25079
616.503	147.33964
616.958	180.4234
617.412	137.30556
617.867	178.37287
618.321	99.18824
618.776	149.30763
619.23	154.34312
619.684	123.25829
620.138	120.25605
620.592	114.26072
621.046	136.29786
621.5	171.38722
621.954	133.2783
622.407	151.31246
622.861	77.17529
623.314	61.1325
623.768	80.17788
624.221	153.28213
624.674	55.11942
625.127	83.18451
625.58	83.17429
626.033	78.15999
626.485	85.19256
626.938	90.20136
627.39	59.13094
627.843	58.12649
628.295	67.14752
628.747	85.19162
629.199	69.15077
629.651	50.10886
630.103	79.17299
630.555	43.08571
631.006	74.16447
631.458	16.03565
631.909	76.1635
632.361	20.04417
632.812	48.10633
633.263	5.01021
633.714	-12.02428
634.165	22.05003
634.616	-39.08936
635.067	-12.02515
635.518	28.06277
635.968	28.05291
636.419	-24.0495
636.869	44.09873
637.319	2.00444
637.769	51.10922
638.219	-15.03391
638.669	-4.00925
639.119	39.0904
639.569	35.08177
640.019	4.00883
640.468	-27.05725
640.918	27.06196
641.367	-2.00433
641.816	61.12996
642.265	-18.0402
642.714	35.07803
643.163	-23.0503
643.612	18.04223
644.061	15.03011
644.51	16.03524
644.958	-17.03612
645.406	28.06471
645.855	11.02587
646.303	-12.02688
646.751	5.01106
647.199	-32.06923
647.647	-9.0203
648.095	-28.06189
648.543	-24.04649
648.99	18.04165
649.438	0
649.885	51.12195
650.333	10.01812
650.78	66.15507
651.227	37.08715
651.674	31.068
652.121	-6.01392
652.568	-3.00706
653.015	-65.15762
653.461	9.02066
653.908	37.08232
654.354	-20.04558
654.801	-23.05259
655.247	8.01676
655.693	-14.03557
656.139	9.02076
656.585	14.03247
657.031	-4.00914
657.477	-15.03164
657.922	21.04695
658.368	-4.0095
658.813	-53.11704
659.259	-19.04453
659.704	21.04755
660.149	5.01125
660.594	63.14319
661.039	39.08583
661.484	21.04833
661.929	-1.00225
662.373	28.06923
662.818	13.0315
663.262	-35.08186
663.707	29.07056
664.151	67.15868
664.595	-2.00469
665.039	-27.0651
665.483	10.02493
665.927	1.00226
666.371	-25.05698
666.814	-13.03005
667.258	-10.0233
667.701	7.01424
668.145	-11.02644
668.588	-13.03116
669.031	-19.04397
669.474	-5.01166
669.917	-28.05974
670.36	-36.08669
670.803	7.01626
671.245	34.06791
671.688	53.12329
672.13	-42.09144
672.573	30.07399
673.015	-37.0863
673.457	9.01906
673.899	-26.06092
674.341	-14.03277
674.783	-11.02581
675.225	-10.02386
675.666	34.07926
676.108	45.09387
676.549	-2.00456
676.991	-42.08966
677.432	-24.04549
677.873	-54.12146
678.314	6.01381
678.755	14.03316
679.196	-8.01788
679.637	5.01169
680.078	23.05151
680.518	-29.06425
680.959	-28.06514
681.399	-23.05506
681.839	-1.00235
682.28	-29.07027
682.72	-29.06412
683.16	-26.06334
683.6	19.0415
684.039	14.02772
684.479	8.01905
684.919	-9.02037
685.358	-18.04416
685.798	-19.04824
686.237	-1.00233
686.676	17.03774
687.115	-8.01817
687.554	-14.03217
687.993	-34.07157
688.432	8.0178
688.871	0
689.309	110.25562
689.748	38.07537
690.186	-26.05951
690.625	31.07111
691.063	27.06303
691.501	17.04065
691.939	-3.00726
692.377	-17.0404
692.815	31.07228
693.253	-10.02296
693.69	-3.00634
694.128	26.06149
694.565	10.02307
695.003	21.05171
695.44	-14.03172
695.877	23.05232
696.314	5.01026
696.751	-12.02618
697.188	15.03339
697.625	2.00436
698.061	-64.1506
698.498	48.11088
698.934	-36.08349
699.371	4.00916
699.807	28.06378
700.243	6.01414
700.679	33.07138
701.115	1.00225
701.551	22.05013
701.987	-39.08388
702.422	-39.0899
702.858	9.02047
703.294	1.00216
703.729	6.01427
704.164	-3.00704
704.599	-20.04264
705.035	14.03021
705.47	41.0971
705.904	-17.03812
706.339	-42.09319
706.774	-37.08355
707.209	-52.11634
707.643	9.02083
708.078	-47.1111
708.512	5.01235
708.946	-2.00459
709.38	-23.05232
709.814	-28.06133
710.248	-13.0302
710.682	1.00232
711.116	-34.07982
711.549	-28.06982
711.983	-39.08659
712.416	-47.10634
712.85	18.04354
713.283	-3.00683
713.716	43.10258
714.149	-27.06134
714.582	24.05152
715.015	-17.04082
715.448	-40.09643
715.881	16.03248
716.313	35.0789
716.746	22.04997
717.178	-57.13285
717.61	8.01958
718.043	-58.13935
718.475	-16.03723
718.907	-52.12574
719.339	-35.07674
719.77	-2.00464
720.202	-16.03902
720.634	-29.069
721.065	-16.03642
721.497	21.0495
721.928	-33.07915
722.359	-20.04747
722.79	-8.01845
723.221	-38.09168
723.652	-63.15655
724.083	-42.09098
724.514	-7.01507
724.945	-24.05447
725.375	-33.07436
725.806	-82.19581
726.236	30.07336
726.666	-32.07236
727.096	-23.05399
727.526	15.03676
727.956	-59.12979
728.386	-47.11002
728.816	-38.09365
729.246	-22.05209
729.675	-31.07464
730.105	-56.13275
730.534	-10.02242
730.964	-52.12574
731.393	-49.11515
731.822	22.0541
732.251	-9.02216
732.68	-85.18911
733.109	-25.0596
733.537	-19.04404
733.966	-38.09074
734.395	-34.07475
734.823	-44.09425
735.251	-57.13317
735.68	-18.04308
736.108	-60.14645
736.536	-41.09296
736.964	-41.09099
737.392	-73.17595
737.82	-50.11504
738.247	-31.07057
738.675	-45.10182
739.102	-2.00486
739.53	15.03699
739.957	-66.16421
740.384	2.00464
740.811	-29.07133
741.238	-42.09806
741.665	6.01348
742.092	-75.17122
742.519	-4.00962
742.945	-27.06211
743.372	-5.01193
743.798	-16.03956
744.225	-34.07742
744.651	-70.16958
745.077	-36.08653
745.503	-41.09545
745.929	-16.03655
746.355	-25.05841
746.781	-39.09293
747.207	-10.02281
747.632	-43.10207
748.058	-61.14575
748.483	-51.11139
748.908	-54.12974
749.334	-52.12322
749.759	-1.00224
750.184	-91.21051
750.609	-63.14863
751.033	-89.19924
751.458	29.06189
751.883	-44.10423
752.307	39.08835
752.732	-23.05621
753.156	-13.03075
753.58	-57.1296
754.005	-4.00983
754.429	-66.14717
754.853	-67.16174
755.277	-14.03192
755.7	-45.10736
756.124	15.03607
756.548	4.00911
756.971	-3.00696
757.394	-27.06707
757.818	-22.05508
758.241	-31.07534
758.664	0
759.087	22.04755
759.51	-41.09834
759.933	-34.07942
760.356	-21.05176
760.778	31.07393
761.201	-79.18246
761.623	-52.11912
762.046	-26.05728
762.468	14.03176
762.89	8.01882
763.312	-31.07202
763.734	-39.09079
764.156	-10.02377
764.578	-41.0891
765	-43.10101
765.421	-11.02746
765.843	1.00253
766.264	-59.136
766.686	35.08446
767.107	-6.01411
767.528	-24.05941
767.949	-48.11808
768.37	-46.10833
768.791	-16.03677
769.212	6.01472
769.632	-73.16423
770.053	0
770.473	-21.04914
770.894	-58.13834
771.314	-14.03143
771.734	-69.15396
772.154	5.01233
772.575	14.03058
772.994	-15.0326
773.414	-53.11943
773.834	-51.12423
774.254	-24.05601
774.673	-22.05098
775.093	-22.05278
775.512	-20.04774
775.931	1.00246
776.351	-49.11663
776.77	-29.06857
777.189	-17.03826
777.607	-18.04446
778.026	-7.01685
778.445	-19.04649
778.864	1.00244
779.282	-30.06847
779.701	-45.10965
780.119	-55.13367
780.537	-42.10087
780.955	-15.03644
781.373	-18.0426
781.791	-40.08661
782.209	9.01973
782.627	10.02548
783.045	-24.05263
783.462	-36.08807
783.88	-19.04771
784.297	-19.04595
784.715	21.05251
785.132	-10.0231
785.549	-6.01459
785.966	-29.06985
786.383	-8.01898
786.8	-4.00883
787.217	-37.08379
787.633	13.03107
788.05	-15.03286
788.466	-21.04668
788.883	-8.01982
789.299	-52.11912
789.715	25.05813
790.131	-57.13598
790.547	-66.15604
790.963	-3.00712
791.379	-24.05852
791.795	-20.04319
792.21	-7.01546
792.626	-50.11357
793.041	-51.12032
793.457	-18.04231
793.872	-11.02467
794.287	33.07664
794.702	-40.09398
795.117	-73.17422
795.532	14.03394
795.947	-62.14163
796.362	-28.06298
796.776	-71.15389
797.191	-49.11466
797.605	-18.04128
798.02	-37.08722
798.434	-28.05834
798.848	-86.20371
799.262	-17.04113
799.676	-24.05527
800.09	-61.14368
800.504	-35.08113
800.918	-46.10134
801.331	-41.10277
801.745	-60.13119
802.158	-7.01667
802.572	-34.07826
802.985	-11.02489
803.398	-4.00905
803.811	-12.02928
804.224	14.03291
804.637	-62.13928
805.05	-21.0461
805.462	-29.06775
805.875	14.03545
806.288	-8.01863
806.7	-11.0264
807.112	-6.01315
807.525	3.00708
807.937	-33.07837
808.349	-33.07885
808.761	-71.16555
809.173	-64.14714
809.584	-19.04446
809.996	-4.00939
810.408	-57.14324
810.819	-26.05841
811.231	-1.00255
811.642	15.03544
812.053	8.01841
812.464	-36.08267
812.875	12.02934
813.286	-74.18378
813.697	-11.02357
814.108	-64.14837
814.519	-34.07091
814.929	-26.0627
815.34	-22.05068
815.75	-20.04869
816.16	-47.11015
816.571	-11.02741
816.981	-74.1646
817.391	-43.09876
817.801	35.08353
818.211	-19.04322
818.62	-43.09864
819.03	-26.05994
819.44	8.01983
819.849	-17.04113
820.259	3.00735
820.668	0
821.077	-6.01426
821.486	-13.02927
821.895	-54.12509
822.304	-29.07415
822.713	0
823.122	-14.03359
823.531	-27.06124
823.939	-37.08641
824.348	-14.03248
824.756	-5.01186
825.164	3.0071
825.573	-19.04559
825.981	15.03525
826.389	-13.03063
826.797	-1.00239
827.205	13.02801
827.612	-38.08879
828.02	-28.06324
828.428	-39.09486
828.835	-26.0661
829.243	-40.0903
829.65	-55.13202
830.057	36.08326
830.464	-5.01172
830.871	2.0045
831.278	-64.14673
831.685	5.01027
832.092	-18.04219
832.499	-29.05923
832.905	-19.04618
833.312	1.00212
833.718	3.00705
834.124	6.01291
834.531	-49.1177
834.937	-44.10728
835.343	-1.00229
835.749	-36.07871
836.155	3.00748
836.561	-100.23284
836.966	1.0023
837.372	-17.0411
837.777	-64.15219
838.183	-70.14358
838.588	-26.06204
838.993	-25.05705
839.399	-45.10463
839.804	8.01872
840.209	3.00735
840.613	1.00211
841.018	-70.16863
841.423	-78.19095
841.828	-31.07489
842.232	-8.01841
842.637	-80.17743
843.041	34.08419
843.445	-29.06871
843.849	-23.05428
844.253	-44.09832
844.657	-4.00969
845.061	-13.0278
845.465	53.12294
845.869	-47.103
846.272	-15.0347
846.676	-8.01838
847.079	28.06811
847.483	-12.02834
847.886	-31.0702
848.289	3.00781
848.692	-46.11136
849.095	-37.08334
849.498	-17.04004
849.901	-42.09004
850.304	-22.0493
850.707	-64.15645
851.109	-59.14005
851.512	23.05382
851.914	14.03429
852.316	-43.1047
852.718	9.02248
853.121	-28.0654
853.523	2.00438
853.925	-25.06278
854.326	-23.05569
854.728	-46.11374
855.13	-8.01991
855.531	45.10265
855.933	15.03369
856.334	-14.03347
856.736	-68.14327
857.137	-14.03071
857.538	-68.16474
857.939	-32.07612
858.34	-19.04353
858.741	-4.00997
859.142	-52.11955
859.542	43.11034
859.943	10.02376
860.343	-24.05714
860.744	8.01852
861.144	-64.14943
861.544	3.00694
861.945	-56.13608
862.345	-51.11662
862.745	-20.04732
863.145	-25.05518
863.544	17.04125
863.944	-24.05334
864.344	-43.10034
864.743	17.03979
865.143	-34.08367
865.542	-26.05666
865.941	14.03311
866.34	42.09416
866.74	-4.01028
867.139	-24.05498
867.537	-29.07006
867.936	-8.0183
868.335	9.02194
868.734	-17.04201
869.132	39.08522
869.531	3.00682
869.929	-16.03478
870.327	1.00226
870.726	-8.01882
871.124	-47.103
871.522	-29.06982
871.92	-23.05375
872.318	-21.04889
872.715	2.00465
873.113	-3.00694
873.511	-17.04039
873.908	0
874.306	-71.17055
874.703	13.03067
875.1	-25.06053
875.497	-18.04052
875.894	-19.04517
876.291	13.03037
876.688	-64.15871
877.085	-33.07461
877.482	-63.14984
877.878	-57.13154
878.275	-38.09196
878.671	-71.14475
879.068	5.01133
879.464	16.0365
879.86	-36.08207
880.256	-38.08792
880.652	-50.12177
881.048	-18.04171
881.444	-85.19044
881.84	-34.08209
882.236	-4.00957
882.631	6.01394
883.027	-13.0292
883.422	-27.06584
883.817	17.04104
884.213	-12.02944
884.608	-13.03065
885.003	12.02736
885.398	-27.06444
885.793	-71.17029
886.188	4.00956
886.582	-47.11299
886.977	26.05755
887.371	-3.00719
887.766	-32.07677
888.16	-6.01422
888.554	-14.03235
888.949	-73.17309
889.343	-29.06615
889.737	-42.11001
890.131	33.07849
890.525	-46.11232
890.918	29.06958
891.312	-19.04201
891.706	19.04788
892.099	-3.00721
892.492	-11.0221
892.886	-43.09947
893.279	-35.08538
893.672	-25.06106
894.065	-12.02838
894.458	-41.09826
894.851	-72.16579
895.244	-48.11786
895.637	15.03406
896.029	-24.05568
896.422	-16.0368
896.814	-34.08079
897.206	10.02271
897.599	-70.16158
897.991	-17.03909
898.383	-35.0779
898.775	-42.08899
899.167	-46.10317
899.559	-86.20842
899.951	-24.05321
900.342	-62.14834
900.734	-7.01692
901.125	-52.12985
901.517	-24.05632
901.908	-52.11711
902.299	-1.00232
902.69	15.03323
903.082	19.04315
903.473	6.01371
903.863	25.0611
904.254	-65.14263
904.645	-15.0348
905.036	24.05564
905.426	-74.15536
905.817	-47.10989
906.207	-18.04084
906.597	-28.0622
906.987	-41.10028
907.378	-80.19352
907.768	-47.12026
908.158	12.02764
908.547	-1.00247
908.937	-19.04623
909.327	-41.09409
909.717	-31.07418
910.106	2.00453
910.495	23.05447
910.885	-55.13091
911.274	2.00476
911.663	20.04847
912.052	-41.0953
912.441	0
912.83	-20.04286
913.219	-38.09406
913.608	-27.06268
913.997	-48.1151
914.385	-55.12318
914.774	-54.12464
915.162	-23.05151
915.55	-7.01598
915.939	-22.05322
916.327	-5.0118
916.715	-22.05408
917.103	-29.06706
917.491	-25.05772
917.878	-34.07789
918.266	8.01967
918.654	9.02211
919.041	-78.19724
919.429	-10.02235
919.816	-30.07205
920.203	-8.01836
920.591	-34.07951
920.978	-37.08576
921.365	-11.02742
921.752	17.03821
922.139	4.00812
922.525	-39.08889
922.912	3.00686
923.299	-16.03799
923.685	-8.01993
924.072	-13.0277
924.458	15.03508
924.844	-30.07051
925.231	-40.08727
925.617	3.00738
926.003	5.01212
926.389	-3.00726
926.774	-7.01694
927.16	-58.13686
927.546	-7.0171
927.931	10.02354
928.317	-36.07645
928.702	-14.03084
929.088	-64.14502
929.473	-2.00484
929.858	-30.0704
930.243	-16.03659
930.628	-45.10377
931.013	20.04741
931.398	3.00636
931.783	-17.04275
932.167	-43.09935
932.552	-52.12256
932.937	-39.09043
933.321	-43.10255
933.705	15.03621
934.09	-5.01176
934.474	-9.02006
934.858	-27.06736
935.242	-2.00443
935.626	-10.02424
936.009	-45.11511
936.393	24.05832
936.777	-14.0345
937.16	-62.15308
937.544	-5.01099
937.927	-32.07787
938.311	-11.0251
938.694	4.01007
939.077	-69.15619
939.46	26.06013
939.843	-34.06457
940.226	-28.06814
940.609	-82.17808
940.991	-29.07046
941.374	-68.1579
941.757	-20.04661
942.139	-41.08575
942.522	-29.06361
942.904	-1.00227
943.286	-27.06466
943.668	6.01475
944.05	-19.04432
944.432	18.04203
944.814	-36.08333
945.196	4.00934
945.578	-3.00682
945.959	-17.0376
946.341	-28.06365
946.722	41.08989
947.104	-19.04243
947.485	-38.08319
947.866	-9.02176
948.247	-22.0529
948.628	-48.1104
949.009	-14.0343
949.39	-29.06709
949.771	9.01936
950.152	-22.05153
950.532	57.13583
950.913	-27.06079
951.293	-1.00261
951.674	-60.137
952.054	-3.00707
952.434	-81.19116
952.814	-20.04397
953.194	56.13852
953.574	-37.08512
953.954	9.02005
954.334	22.05197
954.714	-60.1402
955.093	-53.12226
955.473	-71.16886
955.853	-27.06714
956.232	-13.03423
956.611	-58.12933
956.99	-12.02879
957.37	5.01207
957.749	-48.10735
958.128	-17.04122
958.506	-6.01498
958.885	-25.05971
959.264	-52.12184
959.643	-25.05354
960.021	6.01406
960.4	8.01718
960.778	-33.07549
961.156	-23.05481
961.535	-63.13556
961.913	-51.11021
962.291	-18.0447
962.669	-15.03628
963.047	-41.0986
963.424	0
963.802	-47.10877
964.18	25.05907
964.557	-96.20688
964.935	-44.09816
965.312	-11.02753
965.69	-30.07093
966.067	-16.03648
966.444	-24.05597
966.821	5.01214
967.198	-73.16605
967.575	-12.02752
967.952	-3.00663
968.329	-28.06419
968.705	-13.02534
969.082	-18.04436
969.458	-51.11816
969.835	13.02964
970.211	-26.06379
970.587	29.06783
970.963	-20.04873
971.339	24.06004
971.715	-90.2122
972.091	-43.10034
972.467	-49.1143
972.843	0
973.219	-31.06908
973.594	-17.04257
973.97	-20.04412
974.345	-23.05191
974.721	-32.07277
975.096	-3.00676
975.471	-22.04936
975.846	25.05668
976.221	-19.04602
976.596	-59.13475
976.971	3.00699
977.346	-42.09074
977.72	-53.12896
978.095	2.00493
978.469	36.08028
978.844	6.0142
979.218	-25.05728
979.593	13.02923
979.967	13.02997
980.341	-3.0064
980.715	-46.10993
981.089	-62.14669
981.463	-13.02836
981.837	-4.00931
982.21	-17.03671
982.584	-74.16958
982.957	4.00953
983.331	38.08354
983.704	-29.06818
984.078	-35.08138
984.451	-51.11788
984.824	-10.02324
985.197	-19.04341
985.57	-78.18562
985.943	-69.15898
986.316	0
986.688	11.02473
987.061	-45.09845
987.434	-36.09006
987.806	-47.10747
988.179	-34.07516
988.551	-7.01668
988.923	-48.11207
989.295	-21.04956
989.667	22.0504
990.039	-25.05898
990.411	-22.04806
990.783	7.01493
991.155	-15.03464
991.527	-35.07971
991.898	-22.05163
992.27	-64.15178
992.641	0
993.012	26.05745
993.384	-7.01571
993.755	-61.14825
994.126	-17.03867
994.497	-45.10497
994.868	-21.04544
995.239	-2.00459
995.61	-60.14399
995.98	14.03233
996.351	11.02592
996.722	-46.10185
997.092	-27.06114
997.462	-25.05583
997.833	-3.00663
998.203	-28.0637
998.573	3.00712
998.943	-56.12281
999.313	-8.01817
999.683	-81.18365
1000.053	23.04947
1000.423	-4.00916
1000.792	-10.02474
1001.162	-23.05403
1001.531	6.01404
1001.901	20.04662
1002.27	-19.03995
1002.639	-6.01462
1003.009	9.02038
1003.378	-30.07336
1003.747	-43.09559
1004.116	-14.03181
1004.485	5.01129
1004.853	-9.02164
1005.222	25.0601
1005.591	20.0439
1005.959	-19.04076
1006.328	-48.10126
1006.696	-24.05522
1007.064	7.01666
1007.433	17.04026
1007.801	-42.09702
1008.169	-49.11717
1008.537	9.01856
1008.905	8.01752
1009.273	-31.07254
1009.64	-25.05675
1010.008	-38.08537
1010.375	30.06787
1010.743	-28.0591
1011.11	-15.03354
1011.478	-4.00932
1011.845	-45.0982
1012.212	-85.18054
1012.579	-17.03962
1012.946	-79.17598
1013.313	4.00888
1013.68	13.02685
1014.047	-14.03198
1014.414	-13.02921
1014.78	26.06142
1015.147	1.00223
1015.513	16.03678
1015.88	-30.07191
1016.246	41.09492
1016.612	-12.02537
1016.978	-30.06936
1017.344	-7.01656
1017.71	-22.04946
1018.076	30.06557
1018.442	-50.1225
1018.808	-29.06903
1019.174	-48.11414
1019.539	-19.03956
1019.905	-17.03803
1020.27	-1.00236
1020.636	3.00673
1021.001	-36.08084
1021.366	4.00922
1021.731	-15.03689
1022.096	-33.08023
1022.461	-37.0816
1022.826	13.02897
1023.191	-29.07293
1023.556	-54.11787
1023.92	-27.06204
1024.285	8.01825
1024.649	8.01845
1025.014	39.09022
1025.378	18.0432
1025.742	-16.03756
1026.107	-12.02497
1026.471	-35.07502
1026.835	-38.08845
1027.199	-25.0573
1027.562	-17.03735
1027.926	-18.04138
1028.29	-15.03618
1028.654	-43.09205
1029.017	5.01162
1029.381	-6.01356
1029.744	-19.04647
1030.107	-44.09633
1030.471	-31.06977
1030.834	-29.0606
1031.197	-65.14629
1031.56	-1.00224
1031.923	-63.15626
1032.286	-6.01309
1032.648	33.0729
1033.011	-4.00861
1033.374	-22.04778
1033.736	-54.13645
1034.099	-8.01851
1034.461	-2.00484
1034.823	-42.09903
1035.185	-49.11573
1035.548	-64.14802
1035.91	6.0136
1036.272	-13.0277
1036.634	-26.05925
1036.995	5.01112
1037.357	-9.02072
1037.719	-15.03435
1038.08	-82.18172
1038.442	4.00911
1038.803	-4.00895
1039.165	-40.09647
1039.526	-9.0205
1039.887	-1.00227
1040.248	3.00714
1040.609	-5.01163
1040.97	-31.07165
1041.331	-97.23221
1041.692	3.00662
1042.053	-25.05266
1042.413	-22.04745
1042.774	-38.08701
1043.134	-35.07755
1043.495	-19.04491
1043.855	5.01141
1044.215	0
1044.576	-5.01135
1044.936	53.11267
1045.296	3.00701
1045.656	-16.03705
1046.016	-46.10364
1046.375	36.08237
1046.735	8.01714
1047.095	-18.03966
1047.454	3.00583
1047.814	-54.12216
1048.173	-47.104
1048.533	3.00646
1048.892	-22.05036
1049.251	5.01184
1049.61	-37.08535
1049.969	24.05321
1050.328	-59.11793
1050.687	-41.09435
1051.046	10.02308
1051.405	-13.03012
1051.763	-14.03035
1052.122	-11.02629
1052.48	-10.02296
1052.839	-29.06444
1053.197	1.00221
1053.555	-81.16784
1053.914	-26.05982
1054.272	-36.08194
1054.63	-50.11546
1054.988	-86.19447
1055.345	-69.1374
1055.703	4.00892
1056.061	-7.01713
1056.419	-3.00742
1056.776	-7.01588
1057.134	-31.06722
1057.491	-24.05681
1057.848	-43.10105
1058.206	-56.12441
1058.563	-11.02283
1058.92	3.00636
1059.277	-55.12657
1059.634	-50.10849
1059.991	-2.00452
1060.348	-28.05998
1060.704	-53.12021
1061.061	-33.07015
1061.418	-45.10439
1061.774	7.01654
1062.131	31.0796
1062.487	-45.09845
1062.843	-33.078
1063.199	-8.01894
1063.555	-23.05053
1063.911	-30.07169
1064.267	-68.12838
1064.623	9.0208
1064.979	-51.11087
1065.335	-39.08634
1065.691	15.034
1066.046	-36.07308
1066.402	-20.04247
1066.757	-5.01197
1067.112	-21.04806
1067.468	-14.03171
1067.823	14.03162
1068.178	-12.02753
1068.533	-16.03621
1068.888	-85.19123
1069.243	-39.09197
1069.598	-61.13853
1069.952	-51.1105
1070.307	-34.08147
1070.662	-55.1244
1071.016	-28.05946
1071.371	-32.06792
1071.725	-66.14553
1072.079	18.04037
1072.434	-23.0527
1072.788	-12.02709
1073.142	82.18875
1073.496	-49.11019
1073.85	-20.04336
1074.203	-49.11222
1074.557	-30.0771
1074.911	-35.07774
1075.265	-49.10594
1075.618	21.04823
1075.971	-52.11639
1076.325	-40.09709
1076.678	-13.02783
1077.031	-62.132
1077.385	19.03895
1077.738	-50.10659
1078.091	-31.06737
1078.444	-30.06437
1078.796	-27.06325
1079.149	-64.14972
1079.502	-22.04908
1079.855	22.04806
1080.207	4.00924
1080.56	-54.13362
1080.912	-101.23169
1081.264	10.02254
1081.617	-27.06246
1081.969	-4.00976
1082.321	-4.00921
1082.673	-1.00216
1083.025	-64.14266
1083.377	-301.62619
1083.728	-72.15563
1084.08	-13.03094
1084.432	-78.17494
1084.783	33.0726
1085.135	-8.01929
1085.486	-58.12671
1085.838	2.00464
1086.189	-50.11518
1086.54	-20.04493
1086.891	-13.03169
1087.242	-55.12617
1087.593	-48.10969
1087.944	-64.13608
1088.295	-78.16549
1088.646	-16.03665
1088.996	-29.06588
1089.347	-55.12743
1089.698	-22.04955
1090.048	-31.07616
1090.398	41.08856
1090.749	11.02472
1091.099	-20.04834
1091.449	-10.02335
1091.799	-13.03072
1092.149	33.07734
1092.499	-12.02773
1092.849	-29.07032
1093.199	-14.03298
1093.548	6.01363
1093.898	-30.07153
1094.248	0
1094.597	-18.04448
1094.947	-15.03818
1095.296	-22.05112
1095.645	-8.01968
1095.994	-35.07997
1096.343	-1.00241
1096.692	-19.04829
1097.041	-47.12383
1097.39	-36.08551
1097.739	7.01735
1098.088	-36.09136
1098.437	-29.0734
1098.785	-44.11344
1099.134	-12.02995
1099.482	-50.13158
1099.83	-5.01245
1100.179	-5.01263
1100.527	-49.12415
1100.875	-39.09895
1101.223	24.06108
1101.571	-21.0562
1101.919	-49.12437
1102.267	-5.01374
1102.615	15.04814
1102.962	2.00642
1103.31	10.03209
1103.658	-8.02567
