Data from N3 R6 sample 3_Subt2__5__15-28-00-527.txt Node

Date: Fri Sep 19 15:28:00 PDT 2025
User: uwsun
Spectrometer: HDX01956
Trigger mode: 0
Integration Time (sec): 5.000000E-1
Scans to average: 1
Nonlinearity correction enabled: true
Boxcar width: 0
Storing dark spectrum: false
XAxis mode: Wavelengths
Number of Pixels in Spectrum: 2068
>>>>>Begin Spectral Data<<<<<
194.03	-2.00581
194.578	9.02924
195.127	3.00963
195.676	-8.02568
196.225	-18.04772
196.773	-11.03078
197.321	8.02232
197.87	46.1183
198.418	89.22941
198.966	40.1058
199.513	60.15302
200.061	2.00511
200.609	37.09765
201.156	-8.01744
201.704	-4.01013
202.251	-4.01069
202.798	7.01839
203.345	50.12359
203.892	8.02027
204.438	57.13583
204.985	58.13802
205.532	47.12645
206.078	19.04692
206.624	44.10912
207.17	67.15443
207.716	-15.0365
208.262	28.0551
208.808	7.01757
209.354	-5.01228
209.899	7.01767
210.445	13.03286
210.99	27.0656
211.535	32.07516
212.08	-5.01168
212.625	31.07759
213.17	20.05063
213.715	-4.0091
214.259	58.13531
214.804	23.05653
215.348	25.05717
215.892	12.02904
216.436	71.16398
216.98	2.0044
217.524	30.07093
218.068	31.07796
218.612	12.02999
219.155	36.08442
219.698	-1.00237
220.242	31.07678
220.785	30.0701
221.328	0
221.871	50.12558
222.414	-9.02216
222.956	19.04604
223.499	26.05822
224.041	13.02973
224.583	24.0511
225.126	78.17235
225.668	37.08965
226.21	-13.0328
226.751	-15.0325
227.293	25.0562
227.835	23.05569
228.376	-3.00684
228.918	21.05271
229.459	40.10032
230	21.04973
230.541	15.03417
231.082	23.05558
231.622	13.02986
232.163	72.17404
232.704	18.04436
233.244	27.0666
233.784	15.03625
234.324	40.08849
234.864	-10.02257
235.404	9.02109
235.944	7.01637
236.484	-18.04446
237.023	28.06604
237.563	-1.00231
238.102	19.04462
238.641	32.08103
239.18	49.11434
239.719	62.1551
240.258	-9.02008
240.797	38.09071
241.335	-45.10929
241.874	3.0058
242.412	6.01432
242.95	62.14788
243.488	58.13073
244.026	26.0598
244.564	28.05697
245.102	-5.01123
245.64	4.00958
246.177	17.0376
246.715	27.06352
247.252	33.07418
247.789	-14.02479
248.326	-25.05967
248.863	-14.03052
249.4	58.13158
249.936	28.05684
250.473	4.00934
251.009	15.03459
251.546	6.01325
252.082	27.05925
252.618	9.02016
253.154	8.01917
253.69	34.0756
254.226	31.07313
254.761	-2.00442
255.297	29.06326
255.832	-21.04952
256.367	-15.03515
256.903	30.06479
257.438	10.0231
257.972	13.02851
258.507	63.14435
259.042	5.01056
259.576	19.04087
260.111	36.08194
260.645	47.10083
261.179	-12.02782
261.713	-12.02649
262.247	57.13118
262.781	19.03992
263.315	-15.03684
263.849	-9.02252
264.382	36.08134
264.915	20.04697
265.449	2.0049
265.982	6.01341
266.515	33.07993
267.048	8.01697
267.58	19.04043
268.113	37.07986
268.646	51.12576
269.178	13.02895
269.71	-44.09608
270.243	13.02949
270.775	20.05072
271.307	-45.10727
271.838	32.07466
272.37	27.06631
272.902	52.11759
273.433	5.01081
273.965	59.14366
274.496	9.02204
275.027	10.02459
275.558	18.04338
276.089	63.15649
276.62	-4.01011
277.15	19.04647
277.681	-47.1007
278.211	3.00727
278.741	48.10579
279.272	-13.02976
279.802	50.12395
280.332	16.03765
280.861	43.10247
281.391	-15.03391
281.921	-42.10029
282.45	63.15746
282.98	47.12195
283.509	19.04243
284.038	-15.03361
284.567	-2.00457
285.096	45.10797
285.625	48.10947
286.153	0
286.682	39.08767
287.21	37.08824
287.739	-8.01876
288.267	48.11576
288.795	6.0157
289.323	26.06137
289.851	79.18093
290.378	30.06698
290.906	-4.00977
291.433	48.11877
291.961	33.07363
292.488	24.05952
293.015	88.20571
293.542	27.0678
294.069	27.06601
294.596	29.07125
295.122	54.12772
295.649	90.1967
296.175	21.04993
296.702	10.02391
297.228	-15.0359
297.754	14.03124
298.28	-12.02721
298.806	57.13656
299.332	6.01326
299.857	9.02019
300.383	46.11428
300.908	26.06353
301.433	87.20938
301.958	34.07648
302.483	67.16782
303.008	34.0828
303.533	13.03316
304.058	42.09772
304.582	39.09179
305.107	43.11238
305.631	60.13379
306.155	78.18112
306.679	20.04681
307.203	52.11998
307.727	64.15119
308.251	77.18714
308.775	26.0614
309.298	66.15797
309.822	27.0678
310.345	64.15002
310.868	37.0879
311.391	57.13858
311.914	45.11235
312.437	28.0629
312.96	86.20064
313.482	50.11816
314.005	74.18371
314.527	40.10487
315.049	47.11713
315.571	108.24173
316.093	108.26469
316.615	83.1993
317.137	26.05589
317.659	48.11423
318.18	111.26339
318.702	47.1089
319.223	37.07557
319.744	73.16282
320.265	30.07293
320.786	69.16952
321.307	90.22221
321.828	106.23793
322.348	110.25602
322.869	0
323.389	204.36533
323.909	90.20401
324.43	106.24885
324.95	107.2423
325.47	76.18606
325.989	127.29949
326.509	61.13419
327.029	34.07663
327.548	90.20119
328.067	65.15548
328.587	102.25119
329.106	85.19029
329.625	56.14347
330.144	47.10691
330.662	95.21758
331.181	107.24722
331.7	59.13703
332.218	93.20106
332.736	98.22422
333.255	62.14334
333.773	65.15323
334.291	86.2096
334.808	59.12968
335.326	122.27103
335.844	140.32289
336.361	84.21036
336.879	107.24555
337.396	115.26961
337.913	99.22327
338.43	207.4546
338.947	137.32018
339.464	86.18238
339.981	167.38815
340.497	123.29882
341.014	114.27087
341.53	163.36264
342.046	136.32848
342.562	134.32707
343.078	100.23137
343.594	173.40479
344.11	165.38107
344.626	167.41254
345.141	177.39575
345.657	176.38237
346.172	188.43687
346.687	150.33808
347.202	182.39675
347.717	205.4742
348.232	181.4412
348.747	230.50819
349.261	233.49984
349.776	143.32658
350.29	205.49316
350.805	149.35655
351.319	211.47585
351.833	184.40894
352.347	154.34738
352.861	204.46035
353.374	189.41734
353.888	199.46142
354.401	181.40302
354.915	211.46026
355.428	204.49289
355.941	229.51538
356.454	183.3975
356.967	198.45465
357.48	205.45267
357.993	231.54578
358.505	213.5091
359.018	204.47629
359.53	191.44375
360.042	170.36052
360.554	180.42043
361.066	195.45751
361.578	239.50364
362.09	235.53776
362.602	227.48067
363.113	221.48432
363.625	301.6471
364.136	250.52369
364.647	217.48738
365.158	255.56966
365.669	303.69891
366.18	186.4139
366.691	269.56436
367.201	262.59242
367.712	251.5366
368.222	279.6158
368.733	290.60237
369.243	258.53614
369.753	229.50334
370.263	257.57839
370.773	317.74022
371.282	325.72332
371.792	297.6396
372.301	330.75193
372.811	311.76452
373.32	322.63898
373.829	362.80381
374.338	301.63066
374.847	335.71461
375.356	389.86357
375.865	372.73062
376.373	412.85882
376.882	421.98144
377.39	393.87934
377.898	417.95682
378.407	413.84196
378.915	468.90487
379.423	526.11352
379.93	514.03393
380.438	591.28105
380.946	585.20757
381.453	588.2439
381.96	641.32393
382.468	687.40892
382.975	759.58617
383.482	750.41889
383.989	799.73606
384.495	752.46223
385.002	919.53563
385.509	869.65445
386.015	919.46535
386.521	951.67625
387.028	1028.81001
387.534	1071.74672
388.04	1109.99926
388.546	1175.91501
389.051	1252.96473
389.557	1304.16612
390.063	1449.31114
390.568	1441.36198
391.073	1488.23709
391.578	1456.39529
392.084	1487.1541
392.589	1731.28614
393.093	1804.54955
393.598	2019.51759
394.103	2127.73876
394.607	2405.76666
395.112	2469.9351
395.616	2646.82392
396.12	2888.55478
396.624	3143.53913
397.128	3432.5594
397.632	3847.15047
398.136	4119.97864
398.639	4581.84304
399.143	5176.73116
399.646	5786.02938
400.15	6305.78011
400.653	7180.88247
401.156	8029.58129
401.659	9391.50674
402.162	11835.34363
402.664	16937.34372
403.167	28433.14484
403.67	56869.43532
404.172	55487.84425
404.674	37291.05854
405.176	4428.40989
405.678	533.47942
406.18	0
406.682	0
407.184	6962.89417
407.686	50953.82939
408.187	44675.11672
408.688	28971.21633
409.19	21605.30518
409.691	18026.01588
410.192	15163.06983
410.693	13550.03238
411.194	12519.8659
411.694	11850.10987
412.195	10687.74029
412.696	10074.20015
413.196	9574.76823
413.696	9628.32912
414.196	9648.81358
414.696	9192.97276
415.196	8666.74381
415.696	7344.74999
416.196	5602.77265
416.695	4581.62614
417.195	4249.0192
417.694	4055.24498
418.194	3725.61278
418.693	3487.21385
419.192	3517.45828
419.691	3482.4764
420.19	3302.57841
420.688	3234.81308
421.187	2988.90437
421.685	2791.60694
422.184	2462.66934
422.682	2144.36793
423.18	1937.51588
423.678	1673.3386
424.176	1501.2227
424.674	1466.07065
425.172	1372.18925
425.669	1282.25997
426.167	1173.95436
426.664	1059.79168
427.161	984.70259
427.659	987.87949
428.156	901.47095
428.652	813.67589
429.149	844.6484
429.646	689.23885
430.143	695.39262
430.639	670.32915
431.135	579.22884
431.632	617.18993
432.128	548.14853
432.624	520.15829
433.12	505.00903
433.616	522.98417
434.111	504.05756
434.607	454.96401
435.103	416.76197
435.598	451.81339
436.093	393.81648
436.588	406.81546
437.083	409.8213
437.578	335.69196
438.073	325.7347
438.568	322.71709
439.062	285.55618
439.557	317.67387
440.051	297.6165
440.546	260.55018
441.04	203.4475
441.534	268.63184
442.028	282.62255
442.522	187.42345
443.015	230.4658
443.509	252.57492
444.002	239.54647
444.496	199.3985
444.989	266.60685
445.482	136.3204
445.975	188.40409
446.468	190.38268
446.961	201.3971
447.454	146.30746
447.947	186.42144
448.439	245.56019
448.931	204.4313
449.424	147.34531
449.916	140.31812
450.408	178.38557
450.9	117.27022
451.392	182.43543
451.884	124.2663
452.375	114.26784
452.867	161.34107
453.358	159.33609
453.849	126.25272
454.341	169.35895
454.832	147.29941
455.323	108.25196
455.814	134.28952
456.304	119.25914
456.795	114.24472
457.285	134.27822
457.776	100.21207
458.266	167.37678
458.756	87.19717
459.247	61.13892
459.737	160.36386
460.226	130.2769
460.716	126.28701
461.206	83.18811
461.695	131.31312
462.185	143.32079
462.674	57.12429
463.163	117.24287
463.653	152.30078
464.142	45.10385
464.63	121.28001
465.119	108.24023
465.608	114.24789
466.096	105.21776
466.585	70.15215
467.073	65.14737
467.561	139.32141
468.05	44.0973
468.538	159.37291
469.026	73.16867
469.513	67.13504
470.001	106.22784
470.489	42.09571
470.976	64.14153
471.463	131.31264
471.951	89.21273
472.438	77.1738
472.925	31.06931
473.412	62.14453
473.899	91.20019
474.385	10.02382
474.872	110.24285
475.359	40.09431
475.845	99.19448
476.331	62.12735
476.817	52.12055
477.303	71.15783
477.789	34.07895
478.275	46.11052
478.761	32.0741
479.247	74.15721
479.732	44.1068
480.218	34.08567
480.703	76.18384
481.188	15.03091
481.673	4.00894
482.158	111.2265
482.643	44.10796
483.128	-21.04653
483.612	3.00678
484.097	43.10129
484.581	28.06177
485.066	45.10488
485.55	-19.0403
486.034	42.08864
486.518	1.00229
487.002	-20.04796
487.486	-12.02864
487.969	27.06488
488.453	36.08833
488.936	-29.06366
489.42	15.03224
489.903	26.06356
490.386	46.09529
490.869	-4.00831
491.352	-8.01893
491.835	-6.01188
492.318	-3.00664
492.8	12.02376
493.283	47.11658
493.765	-32.0777
494.247	13.02914
494.73	-29.06267
495.212	67.15468
495.694	0
496.175	-18.04191
496.657	58.1343
497.139	-54.08786
497.62	-28.06568
498.102	31.07506
498.583	-68.16598
499.064	25.05484
499.545	-10.02222
500.026	-19.04155
500.507	-32.07192
500.988	-10.02402
501.469	-30.07323
501.949	-34.0815
502.43	-43.10018
502.91	-47.09499
503.39	-30.07344
503.87	-4.00921
504.35	-37.08447
504.83	-11.02354
505.31	-18.04292
505.79	-16.03746
506.269	-52.11859
506.749	-40.08949
507.228	-37.08532
507.707	-24.05194
508.187	-12.0277
508.666	-49.11779
509.145	-60.13822
509.623	-44.10132
510.102	-25.05905
510.581	-61.14357
511.059	-8.01982
511.538	-9.02267
512.016	19.04442
512.494	-36.08498
512.972	-29.06826
513.45	-75.17453
513.928	-24.0572
514.406	-37.08976
514.884	39.09874
515.361	6.01416
515.839	-55.12303
516.316	-23.05382
516.793	-60.14939
517.27	-21.05014
517.747	-9.02267
518.224	-79.17991
518.701	-43.09452
519.178	18.04436
519.654	-80.18414
520.131	-98.23858
520.607	-18.04369
521.083	-30.0677
521.56	-56.12983
522.036	-33.07138
522.512	-2.00481
522.987	-2.0047
523.463	-15.03508
523.939	-23.05525
524.414	-39.0877
524.89	-51.11831
525.365	-7.01566
525.84	25.05944
526.315	-74.17529
526.79	-45.099
527.265	-74.16481
527.74	-69.16606
528.215	-65.15209
528.689	-30.0662
529.164	-58.1215
529.638	-30.07602
530.112	-31.07285
530.587	1.00211
531.061	-54.12939
531.534	-60.14251
532.008	-14.03316
532.482	-84.187
532.956	-27.06882
533.429	-93.21787
533.903	-39.08385
534.376	-49.10625
534.849	-13.02963
535.322	-40.09292
535.795	-17.0407
536.268	-21.04991
536.741	-33.07776
537.213	-20.04547
537.686	-72.17259
538.158	-85.18982
538.631	-94.22524
539.103	-61.13515
539.575	-45.09187
540.047	-41.08834
540.519	-59.13789
540.991	-56.13388
541.463	-12.0286
541.934	-21.04726
542.406	-84.19959
542.877	-64.14242
543.348	-91.21276
543.82	-32.07685
544.291	-97.22126
544.762	-19.04409
545.233	14.03467
545.703	-74.16317
546.174	-5.01143
546.645	-15.03591
547.115	-30.07134
547.585	3.00683
548.056	-18.04353
548.526	-44.10253
548.996	-24.05665
549.466	-43.1027
549.935	-10.02364
550.405	1.00217
550.875	-53.12358
551.344	-42.10037
551.814	-81.18186
552.283	-51.10851
552.752	-63.14498
553.221	-47.10087
553.69	13.0283
554.159	-18.04423
554.628	-98.21853
555.096	-46.11512
555.565	-13.02831
556.033	-64.14837
556.502	-54.1288
556.97	-68.14843
557.438	-29.06756
557.906	18.04153
558.374	-64.14508
558.842	-58.13739
559.31	-41.08959
559.777	-20.04778
560.245	-57.13044
560.712	-75.16887
561.18	-44.09539
561.647	-39.08529
562.114	-50.11256
562.581	26.06263
563.048	-56.1255
563.514	-34.08265
563.981	-23.05134
564.448	36.07855
564.914	-18.04087
565.381	-24.05268
565.847	-38.08701
566.313	-12.0272
566.779	32.07077
567.245	42.09532
567.711	89.20653
568.176	66.14693
568.642	76.18564
569.108	48.11462
569.573	8.0181
570.038	67.13647
570.504	78.17069
570.969	68.16418
571.434	103.21858
571.899	172.38956
572.363	95.20679
572.828	155.33223
573.293	165.3584
573.757	131.28879
574.222	199.42304
574.686	137.29467
575.15	201.452
575.614	226.48242
576.078	219.48014
576.542	257.54562
577.006	287.60133
577.469	256.58428
577.933	247.50882
578.396	295.65547
578.86	247.53719
579.323	244.5425
579.786	286.56277
580.249	208.44593
580.712	246.55579
581.175	234.54096
581.637	310.66114
582.1	235.47408
582.563	169.32933
583.025	236.53516
583.487	184.34432
583.95	250.49842
584.412	251.47982
584.874	192.43751
585.336	252.55703
585.797	185.37287
586.259	162.35346
586.721	182.40315
587.182	179.38616
587.643	160.34184
588.105	195.43527
588.566	149.29519
589.027	140.32495
589.488	129.27758
589.949	110.25157
590.41	152.28204
590.87	76.16259
591.331	116.23288
591.791	63.13795
592.252	55.12145
592.712	95.21801
593.172	113.24189
593.632	57.11615
594.092	75.15986
594.552	41.08423
595.011	72.16022
595.471	94.20022
595.931	-15.03253
596.39	50.11601
596.849	26.05843
597.308	39.08099
597.768	4.00993
598.227	69.15993
598.685	-18.03957
599.144	16.03622
599.603	72.16341
600.062	-14.02841
600.52	19.0412
600.978	78.17875
601.437	30.06598
601.895	6.01232
602.353	-5.01063
602.811	-5.01076
603.269	-25.05813
603.727	28.06491
604.184	32.06973
604.642	37.08719
605.099	-18.04052
605.557	-37.08715
606.014	-6.01251
606.471	18.04418
606.928	81.17324
607.385	7.01691
607.842	68.15151
608.299	2.00452
608.755	-22.05171
609.212	6.01305
609.668	-13.02836
610.125	-22.05143
610.581	-41.093
611.037	29.06334
611.493	-10.02275
611.949	1.00234
612.405	40.07789
612.861	34.07547
613.316	41.09515
613.772	48.10602
614.227	22.05023
614.683	51.10459
615.138	61.13903
615.593	-37.08317
616.048	-1.00218
616.503	35.08267
616.958	3.0073
617.412	25.05705
617.867	13.02823
618.321	-27.05292
618.776	-5.01068
619.23	49.11155
619.684	-31.06731
620.138	14.03056
620.592	24.05588
621.046	0
621.5	44.10221
621.954	23.0493
622.407	-10.02144
622.861	-59.138
623.314	-13.02868
623.768	-15.03401
624.221	50.09458
624.674	-42.09307
625.127	-12.0272
625.58	-62.13436
626.033	-27.0567
626.485	-31.07188
626.938	14.03181
627.39	-12.02702
627.843	-24.05325
628.295	29.06436
628.747	-21.04837
629.199	20.04415
629.651	-2.0044
630.103	-30.0672
630.555	-69.14112
631.006	-12.02715
631.458	-48.10836
631.909	-41.09042
632.361	-61.13701
632.812	-30.06753
633.263	-35.07213
633.714	-54.11031
634.165	-28.06432
634.616	-78.18011
635.067	-90.19187
635.518	-58.13233
635.968	-11.02099
636.419	-76.15857
636.869	-61.13982
637.319	-29.06479
637.769	-25.05442
638.219	-45.10236
638.669	-65.15215
639.119	-63.14897
639.569	-2.00471
640.019	-72.16148
640.468	-92.19784
640.918	-33.07664
641.367	-16.03473
641.816	-20.04336
642.265	-18.0402
642.714	-31.07006
643.163	-67.14789
643.612	-45.10686
644.061	-72.14742
644.51	-47.10487
644.958	-68.1461
645.406	-17.03964
645.855	-59.14065
646.303	-46.10376
646.751	-24.05341
647.199	-105.2307
647.647	-14.03161
648.095	-70.15609
648.543	-73.14307
648.99	-3.00697
649.438	-13.02958
649.885	-21.0509
650.333	-42.07712
650.78	-10.02384
651.227	-1.00237
651.674	-44.09803
652.121	-111.26288
652.568	-68.16213
653.015	-63.15271
653.461	-77.17982
653.908	-24.05407
654.354	-91.21034
654.801	-21.048
655.247	-52.11038
655.693	-66.16921
656.139	-71.16639
656.585	-31.07254
657.031	-46.10601
657.477	-6.01263
657.922	-5.01124
658.368	-46.11014
658.813	-110.2458
659.259	-17.03983
659.704	-67.15443
660.149	-76.17382
660.594	-28.06481
661.039	2.00444
661.484	-42.09787
661.929	-13.02935
662.373	-4.00995
662.818	-17.04143
663.262	-46.10783
663.707	-93.23143
664.151	3.00719
664.595	-18.04236
665.039	-49.11864
665.483	-18.04511
665.927	-46.10495
666.371	-36.08224
666.814	-46.10702
667.258	-11.02564
667.701	-50.10302
668.145	-50.12109
668.588	1.00239
669.031	-7.01616
669.474	-47.11049
669.917	-15.03192
670.36	-33.07942
670.803	9.0209
671.245	-22.04451
671.688	-64.1523
672.13	-48.10464
672.573	9.02228
673.015	3.00694
673.457	10.02117
673.899	-41.09635
674.341	-27.06335
674.783	-13.03051
675.225	-52.12508
675.666	-46.10892
676.108	-30.06362
676.549	-5.0114
676.991	-41.0875
677.432	-50.09537
677.873	-23.0514
678.314	-33.07655
678.755	17.04025
679.196	1.00223
679.637	-26.06116
680.078	-17.03839
680.518	-64.14283
680.959	-9.02086
681.399	-47.11303
681.839	-19.04486
682.28	11.02645
682.72	-53.11777
683.16	-30.07314
683.6	27.05887
684.039	-80.16187
684.479	-58.13983
684.919	-56.12797
685.358	-41.10103
685.798	-79.20271
686.237	-47.11036
686.676	-12.0268
687.115	11.02489
687.554	-56.12977
687.993	-70.14852
688.432	-33.07406
688.871	-22.04835
689.309	42.09891
689.748	-31.06248
690.186	-58.13361
690.625	-32.07433
691.063	-2.0047
691.501	-46.11132
691.939	-7.01696
692.377	0
692.815	-19.04474
693.253	-56.12977
693.69	-52.111
694.128	7.01662
694.565	-42.09791
695.003	-24.05958
695.44	-54.12335
695.877	-21.04819
696.314	-10.02059
696.751	-41.09001
697.188	-13.0291
697.625	-55.12135
698.061	-71.1673
698.498	4.00932
698.934	-27.06251
699.371	-41.09473
699.807	-26.05987
700.243	-9.02127
700.679	-16.03497
701.115	-26.05875
701.551	13.02968
701.987	-34.07305
702.422	-42.09687
702.858	-56.12905
703.294	-27.05862
703.729	39.09219
704.164	-1.00235
704.599	-12.02554
705.035	-61.13374
705.47	11.0262
705.904	-35.07877
706.339	-23.05083
706.774	-47.10634
707.209	-84.18917
707.643	-67.15739
708.078	-47.1111
708.512	-24.05958
708.946	-42.09706
709.38	-72.1654
709.814	-82.18164
710.248	-59.13832
710.682	-26.06054
711.116	-6.01401
711.549	-28.06982
711.983	-24.05312
712.416	-28.06311
712.85	-14.03407
713.283	-33.07564
713.716	-57.13858
714.149	-25.05677
714.582	-26.05642
715.015	-35.08433
715.448	-55.13297
715.881	-64.13229
716.313	-30.06853
716.746	-38.08736
717.178	-87.20397
717.61	-27.0665
718.043	-50.11995
718.475	-26.06061
718.907	-47.11354
719.339	-57.12555
719.77	12.02774
720.202	-36.08813
720.634	-54.1291
721.065	-44.10071
721.497	-11.02609
721.928	-19.04545
722.359	-44.10491
722.79	-1.0023
723.221	-75.18221
723.652	-11.02707
724.083	-22.04745
724.514	-89.19497
724.945	-17.03853
725.375	-72.16354
725.806	-55.13066
726.236	-10.02464
726.666	-45.10203
727.096	-34.07998
727.526	1.00246
727.956	-73.16106
728.386	-73.17175
728.816	-20.04913
729.246	-47.11183
729.675	-12.02879
730.105	-29.06839
730.534	-37.08341
730.964	-94.2291
731.393	-35.08203
731.822	8.01972
732.251	-29.07167
732.68	-23.05051
733.109	-31.07398
733.537	-65.15203
733.966	-78.18769
734.395	-93.20699
734.823	-59.12679
735.251	-69.16158
735.68	-17.04068
736.108	-28.06794
736.536	-37.08382
736.964	-35.07758
737.392	-86.2078
737.82	-58.13366
738.247	-56.12813
738.675	-58.13158
739.102	-6.0146
739.53	-31.07709
739.957	-52.12905
740.384	-34.07951
740.811	1.00245
741.238	-100.23614
741.665	16.03587
742.092	-34.07698
742.519	-10.02409
742.945	-59.13659
743.372	18.04275
743.798	-31.07686
744.225	-56.12808
744.651	-21.05041
745.077	-55.13267
745.503	-42.09779
745.929	-36.08257
746.355	-37.08664
746.781	-37.08814
747.207	-52.1196
747.632	-77.18398
748.058	-78.18697
748.483	-43.09376
748.908	-31.07415
749.334	-40.09457
749.759	-75.17039
750.184	-40.09159
750.609	-50.11766
751.033	-50.11103
751.458	8.01715
751.883	-40.09468
752.307	-10.02288
752.732	-22.05376
753.156	-39.09272
753.58	-39.08835
754.005	16.03916
754.429	-76.16982
754.853	-28.06709
755.277	17.03851
755.7	-29.06897
756.124	-7.0169
756.548	-55.12672
756.971	-27.0629
757.394	-27.06707
757.818	-24.0601
758.241	-56.13674
758.664	-32.07889
759.087	14.03031
759.51	-22.05258
759.933	-23.05361
760.356	-50.1239
760.778	45.10703
761.201	-75.17308
761.623	-91.21009
762.046	-71.1579
762.468	-14.03194
762.89	6.01412
763.312	-20.04637
763.734	-16.03708
764.156	-89.21476
764.578	-47.10226
765	18.04178
765.421	-4.00997
765.843	-7.01777
766.264	5.01138
766.686	2.00486
767.107	22.05147
767.528	-26.06438
767.949	-36.08836
768.37	-86.20411
768.791	-17.03908
769.212	20.04893
769.632	-68.15283
770.053	-16.04082
770.473	4.00931
770.894	-60.14317
771.314	-9.02018
771.734	-64.14266
772.154	-20.04954
772.575	-14.03077
772.994	-38.08298
773.414	-98.22287
773.834	-25.0606
774.254	-61.1434
774.673	-14.03239
775.093	-21.05037
775.512	-2.00476
775.931	10.02456
776.351	-57.13588
776.77	-55.13071
777.189	-60.13623
777.607	-19.04694
778.026	10.024
778.445	-48.11808
778.864	10.02439
779.282	-59.13545
779.701	-3.00725
780.119	-52.12631
780.537	-56.13485
780.955	7.01694
781.373	-30.07117
781.791	-13.02799
782.209	7.01535
782.627	9.02293
783.045	-40.08801
783.462	-45.11027
783.88	-24.06032
784.297	-61.1487
784.715	8.02005
785.132	-51.11877
785.549	2.00486
785.966	-37.08925
786.383	-21.04995
786.8	-23.051
787.217	-56.1273
787.633	-25.06019
788.05	-57.12597
788.466	-3.00664
788.883	-36.08963
789.299	-39.08911
789.715	21.04887
790.131	-45.10711
790.547	-100.23797
790.963	-26.06197
791.379	-40.09782
791.795	-4.00861
792.21	-23.05098
792.626	-26.05877
793.041	-31.07285
793.457	-36.08491
793.872	-4.00896
794.287	21.04889
794.702	-44.10346
795.117	-51.1212
795.532	30.07252
795.947	-29.0658
796.362	-61.13813
796.776	-113.24712
797.191	23.05306
797.605	-27.06204
798.02	-39.09197
798.434	-38.07936
798.848	-44.10338
799.262	-1.00241
799.676	-37.08542
800.09	-36.08439
800.504	-34.07879
800.918	-100.22281
801.331	-55.13821
801.745	-35.07612
802.158	-42.10068
802.572	-46.10614
802.985	-45.10252
803.398	-6.01358
803.811	-36.08823
804.224	-2.00472
804.637	-113.25651
805.05	-19.04169
805.462	-11.02561
805.875	24.06067
806.288	-59.13876
806.7	-46.11115
807.112	-4.00876
807.525	-14.03314
807.937	-23.05451
808.349	-35.08366
808.761	-63.14666
809.173	-21.04786
809.584	-59.13914
809.996	-21.04945
810.408	-81.20442
810.819	-55.12429
811.231	-2.0051
811.642	1.00237
812.053	-52.12108
812.464	-24.05498
812.875	-30.07393
813.286	-67.16618
813.697	-22.04725
814.108	-32.07372
814.519	-78.16426
814.929	-28.06755
815.34	-12.02759
815.75	-24.05847
816.16	-81.19109
816.571	5.01242
816.981	-50.11066
817.391	-30.06872
817.801	-14.03373
818.211	11.02487
818.62	-60.13811
819.03	-100.23394
819.44	-35.08745
819.849	4.00964
820.259	-1.00245
820.668	-24.0572
821.077	-18.04288
821.486	-37.08372
821.895	-35.08077
822.304	-16.04082
822.713	-77.17387
823.122	-37.08915
823.531	34.07616
823.939	-35.0817
824.348	9.02079
824.756	-31.07387
825.164	-46.10997
825.573	-26.06247
825.981	-27.06397
826.389	-69.16436
826.797	-31.07449
827.205	-22.04776
827.612	-17.03956
828.02	-5.01124
828.428	-26.06308
828.835	-27.06865
829.243	-57.12913
829.65	-63.15145
830.057	24.05564
830.464	-1.00234
830.871	-31.07017
831.278	-59.13513
831.685	-30.06212
832.092	24.05579
832.499	-23.04691
832.905	-33.08041
833.312	-33.07046
833.718	-16.03772
834.124	-45.09787
834.531	-2.00476
834.937	-103.25389
835.343	7.01597
835.749	-29.06331
836.155	-16.04003
836.561	-94.21861
836.966	-37.0859
837.372	-54.13146
837.777	-87.20779
838.183	-72.14775
838.588	-33.07885
838.993	-65.14953
839.399	-57.13285
839.804	-38.0897
840.209	-26.06408
840.613	14.02944
841.018	-77.18574
841.423	-89.21833
841.828	-16.03854
842.232	-28.06468
842.637	-45.09908
843.041	43.1063
843.445	-40.09497
843.849	-53.12581
844.253	-24.05341
844.657	-46.11236
845.061	-23.0493
845.465	20.0467
845.869	-39.08533
846.272	-26.06028
846.676	-7.01608
847.079	-5.01224
847.483	-28.06633
847.886	-28.06337
848.289	12.03121
848.692	-37.08942
849.095	-40.09016
849.498	-40.09464
849.901	-87.18833
850.304	-30.06734
850.707	-22.05336
851.109	-46.10892
851.512	28.06545
851.914	6.01472
852.316	-27.06555
852.718	-39.09825
853.121	-17.03962
853.523	-64.14206
853.925	-42.10579
854.326	6.01445
854.728	0
855.13	-8.01991
855.531	9.02068
855.933	-2.00451
856.334	-16.03827
856.736	-55.11555
857.137	-31.06825
857.538	-21.05043
857.939	-12.02844
858.34	-25.05735
858.741	-28.0701
859.142	-13.02965
859.542	46.11797
859.943	-2.00476
860.343	-28.06671
860.744	-11.02556
861.144	-36.08359
861.544	-34.07923
861.945	-84.20518
862.345	-31.0706
862.745	-19.04495
863.145	-62.13791
863.544	0
863.944	-17.03773
864.344	-70.16421
864.743	24.0561
865.143	-17.0417
865.542	-89.19653
865.941	-6.01425
866.34	49.1097
866.74	-40.10348
867.139	-4.00913
867.537	0
867.936	20.04548
868.335	13.03167
868.734	33.0808
869.132	4.00881
869.531	-16.03649
869.929	-12.02606
870.327	-21.04769
870.726	-15.03533
871.124	-12.0261
871.522	-32.07709
871.92	-20.04672
872.318	-1.00232
872.715	18.04173
873.113	-22.05106
873.511	-18.04277
873.908	16.03936
874.306	-38.09071
874.703	3.00709
875.1	-68.16598
875.497	-33.07452
875.894	24.05659
876.291	17.03968
876.688	-29.07146
877.085	-58.1318
877.482	-5.01176
877.878	-7.01599
878.275	-46.11148
878.671	-46.09325
879.068	-8.01818
879.464	-4.00916
879.86	13.02934
880.256	-32.07395
880.652	-45.10949
881.048	-40.0931
881.444	-57.12697
881.84	-52.12598
882.236	23.05474
882.631	-21.04906
883.027	-57.12918
883.422	-73.17954
883.817	-22.0535
884.213	-19.04668
884.608	-28.0662
885.003	-41.09447
885.398	-35.08366
885.793	-46.1098
886.188	-6.01437
886.582	-31.0743
886.977	-20.04469
887.371	-50.1209
887.766	-44.10579
888.16	7.01655
888.554	-19.04395
888.949	-64.15148
889.343	-40.09145
889.737	5.01299
890.131	27.06429
890.525	-37.09019
890.918	25.06003
891.312	-94.21109
891.706	42.10541
892.099	-32.07738
892.492	-22.04431
892.886	-43.09947
893.279	-26.06332
893.672	-50.12268
894.065	-17.04025
894.458	-51.12246
894.851	-32.0731
895.244	-43.10548
895.637	-40.09185
896.029	-50.11661
896.422	5.01145
896.814	-55.13121
897.206	-8.01824
897.599	-29.06639
897.991	-45.10406
898.383	-60.13424
898.775	-46.09755
899.167	-8.0178
899.559	-8.0191
899.951	-6.01325
900.342	-49.11694
900.734	-6.0145
901.125	-3.00742
901.517	-5.01169
901.908	-16.03577
902.299	-51.11971
902.69	35.07722
903.082	-22.05038
903.473	-14.03212
903.863	25.0611
904.254	-62.13596
904.645	-21.04877
905.036	-8.01866
905.426	-76.15963
905.817	7.01619
906.207	-61.1396
906.597	-43.09583
906.987	-37.09043
907.378	-55.13242
907.768	-17.04327
908.158	-2.00462
908.547	-24.05958
908.937	-44.10756
909.327	-50.11495
909.717	-17.04057
910.106	-30.06834
910.495	-8.01906
910.885	-65.15501
911.274	-3.00715
911.663	12.02913
912.052	-78.18262
912.441	7.01707
912.83	-47.10131
913.219	-39.09656
913.608	-36.08372
913.997	-56.13449
914.385	-51.11413
914.774	-44.10136
915.162	-70.15829
915.55	-4.00913
915.939	3.00722
916.327	-27.06402
916.715	-30.07385
917.103	-31.07171
917.491	-51.11835
917.878	-61.14049
918.266	-18.04446
918.654	24.0588
919.041	-47.11819
919.429	-5.01117
919.816	-29.06964
920.203	-47.10868
920.591	-46.10783
920.978	-18.04156
921.365	-35.08764
921.752	-24.0544
922.139	-9.01833
922.525	-43.09809
922.912	-21.04825
923.299	-15.03561
923.685	-33.0826
924.072	-29.062
924.458	-20.0471
924.844	-63.14903
925.231	-31.06751
925.617	-10.02467
926.003	-14.03404
926.389	-13.03152
926.774	20.04816
927.16	-59.13924
927.546	-49.1206
927.931	-7.01653
928.317	-59.12592
928.702	-5.01099
929.088	-39.08792
929.473	-17.04127
929.858	22.0511
930.243	-4.00913
930.628	-50.11541
931.013	11.02612
931.398	-27.05765
931.783	-41.10355
932.167	-67.15554
932.552	-71.16795
932.937	-24.05549
933.321	-75.17995
933.705	9.02175
934.09	-52.12346
934.474	9.01998
934.858	-57.14298
935.242	0
935.626	-53.12949
936.009	-40.10223
936.393	-14.03426
936.777	18.0441
937.16	-66.16307
937.544	-12.02643
937.927	-4.00968
938.311	-8.01825
938.694	-5.01261
939.077	-64.14472
939.46	11.02552
939.843	-27.05119
940.226	-29.07059
940.609	-16.03426
940.991	-12.02906
941.374	-52.12036
941.757	10.02316
942.139	-49.10267
942.522	-55.1213
942.904	-4.00909
943.286	-29.06948
943.668	-52.12919
944.05	-25.05838
944.432	-32.07545
944.814	-43.09967
945.196	-28.06579
945.578	-22.05019
945.959	-11.0243
946.341	-35.07968
946.722	29.06374
947.104	-36.08068
947.485	-6.01305
947.866	-25.06062
948.247	5.01196
948.628	-35.08029
949.009	-6.01468
949.39	-35.08106
949.771	-28.0607
950.152	-15.03508
950.532	19.04561
950.913	-46.10398
951.293	-39.10262
951.674	-43.09785
952.054	-29.06865
952.434	-37.08658
952.814	-58.12853
953.194	-25.06276
953.574	-78.1809
953.954	-4.00893
954.334	-20.04763
954.714	-53.12367
955.093	-29.06658
955.473	-58.1376
955.853	-34.08466
956.232	-12.03159
956.611	-48.10681
956.99	-13.03119
957.37	-11.02664
957.749	-54.12091
958.128	10.02413
958.506	-4.00998
958.885	-28.06691
959.264	-24.05593
959.643	6.01276
960.021	-12.02823
960.4	28.05987
960.778	-3.00682
961.156	-58.13914
961.535	-60.12902
961.913	-85.18503
962.291	-24.05967
962.669	-42.1021
963.047	-48.11559
963.424	-42.10305
963.802	-25.0576
964.18	-44.10535
964.557	-32.06801
964.935	-25.05555
965.312	-1.0025
965.69	1.00235
966.067	-65.14965
966.444	-26.06066
966.821	1.00243
967.198	-48.10863
967.575	-14.03212
967.952	42.09199
968.329	-22.05038
968.705	-71.14033
969.082	-10.02461
969.458	-57.13222
969.835	-49.11313
970.211	-19.04656
970.587	-8.01885
970.963	4.0097
971.339	-15.03779
971.715	-45.10517
972.091	6.01387
972.467	-51.11901
972.843	-23.05424
973.219	-43.09606
973.594	-21.05262
973.97	-51.11323
974.345	-44.09974
974.721	17.03828
975.096	-28.06339
975.471	-3.0067
975.846	39.08817
976.221	-30.07282
976.596	-11.02488
976.971	-24.05619
977.346	-42.09074
977.72	-47.11423
978.095	-30.07434
978.469	24.05365
978.844	30.07065
979.218	-24.05498
979.593	-21.04755
979.967	38.08715
980.341	-31.06656
980.715	-32.07627
981.089	-58.13712
981.463	-3.00653
981.837	7.01626
982.21	16.0343
982.584	-67.15333
982.957	-39.09372
983.331	-6.01331
983.704	18.04193
984.078	-31.07202
984.451	-76.17654
984.824	11.02546
985.197	-24.05489
985.57	-12.02819
985.943	-42.09625
986.316	38.08712
986.688	-33.07485
987.061	-48.10508
987.434	-3.00746
987.806	-31.07066
988.179	-40.08853
988.551	24.05685
988.923	-29.06746
989.295	5.01174
989.667	24.05496
990.039	10.02343
990.411	11.02386
990.783	12.02556
991.155	-34.07882
991.527	-17.03857
991.898	-67.15861
992.27	-18.04231
992.641	-20.04727
993.012	46.10122
993.384	-47.10634
993.755	-73.17782
994.126	2.00453
994.497	-47.10967
994.868	1.00215
995.239	3.00688
995.61	-78.18783
995.98	-55.12874
996.351	5.0118
996.722	-39.08623
997.092	6.0135
997.462	-42.09412
997.833	23.05056
998.203	-13.02949
998.573	9.02134
998.943	-53.11615
999.313	4.00906
999.683	-57.1286
1000.053	13.02802
1000.423	12.02738
1000.792	-18.04459
1001.162	-9.02108
1001.531	19.04434
1001.901	-22.05171
1002.27	15.0313
1002.639	15.03641
1003.009	-14.03185
1003.378	-13.03169
1003.747	-38.08439
1004.116	-46.10521
1004.485	-15.03402
1004.853	-14.0337
1005.222	4.00965
1005.591	-21.04649
1005.959	-27.05802
1006.328	-41.08636
1006.696	8.01829
1007.064	-9.02149
1007.433	1.00238
1007.801	2.00458
1008.169	-30.07147
1008.537	19.03909
1008.905	-13.0286
1009.273	-19.04435
1009.64	-11.0249
1010.008	2.00446
1010.375	10.02271
1010.743	-43.09105
1011.11	-20.04476
1011.478	-15.03503
1011.845	-48.10482
1012.212	-44.09262
1012.579	17.03936
1012.946	-61.13538
1013.313	-12.02673
1013.68	-13.02701
1014.047	-11.02511
1014.414	-15.03372
1014.78	1.00237
1015.147	-24.05387
1015.513	37.08471
1015.88	-48.11546
1016.246	15.03491
1016.612	-13.02749
1016.978	-36.08333
1017.344	-13.03079
1017.71	-53.11992
1018.076	-7.01542
1018.442	-35.08551
1018.808	-19.04514
1019.174	-73.17442
1019.539	2.00415
1019.905	-20.04476
1020.27	-5.01179
1020.636	3.00673
1021.001	-13.02905
1021.366	41.09379
1021.731	13.03181
1022.096	-10.02421
1022.461	-47.10387
1022.826	-8.01791
1023.191	-32.08051
1023.556	-50.10905
1023.92	-44.10144
1024.285	-29.06663
1024.649	-13.03011
1025.014	-22.05151
1025.378	4.00962
1025.742	-1.00234
1026.107	-7.01455
1026.471	1.00213
1026.835	-27.06271
1027.199	-34.07807
1027.562	25.05444
1027.926	0
1028.29	-39.0945
1028.654	-59.12674
1029.017	8.01858
1029.381	-10.02262
1029.744	-16.03911
1030.107	-41.0897
1030.471	-27.06072
1030.834	-83.17552
1031.197	-66.14857
1031.56	-14.03144
1031.923	-47.11624
1032.286	-34.07459
1032.648	-12.02676
1033.011	-26.05625
1033.374	-42.0916
1033.736	-48.12116
1034.099	-9.02083
1034.461	7.0169
1034.823	-36.08478
1035.185	-30.0706
1035.548	-28.0643
1035.91	-24.05474
1036.272	-11.02343
1036.634	-25.05696
1036.995	-22.0492
1037.357	-31.07168
1037.719	-39.08975
1038.08	-76.16821
1038.442	21.04765
1038.803	-56.12658
1039.165	-60.14525
1039.526	-1.00227
1039.887	-27.06149
1040.248	-7.01669
1040.609	-39.09129
1040.97	-50.11601
1041.331	-47.11144
1041.692	11.02425
1042.053	-66.14028
1042.413	-35.0757
1042.774	-30.06858
1043.134	-24.05305
1043.495	-75.1792
1043.855	-17.03895
1044.215	-70.16549
1044.576	-30.06842
1044.936	33.07046
1045.296	-21.04933
1045.656	5.01153
1046.016	-78.17688
1046.375	3.00691
1046.735	-23.0496
1047.095	38.08273
1047.454	-22.04302
1047.814	-30.06753
1048.173	-31.06837
1048.533	-39.08468
1048.892	-53.12207
1049.251	9.0213
1049.61	-80.18613
1049.969	21.04659
1050.328	-34.06756
1050.687	-28.06427
1051.046	1.00231
1051.405	-51.11905
1051.763	-25.05433
1052.122	14.0333
1052.48	-46.10639
1052.839	-36.08011
1053.197	-44.09808
1053.555	-53.10913
1053.914	-29.06677
1054.272	9.0203
1054.63	-75.17405
1054.988	-57.12813
1055.345	-27.05324
1055.703	-27.06062
1056.061	-19.04659
1056.419	-29.07211
1056.776	-41.09364
1057.134	-54.11767
1057.491	-39.09258
1057.848	-65.1534
1058.206	-34.07519
1058.563	1.00207
1058.92	-32.06837
1059.277	-64.14755
1059.634	-62.13487
1059.991	43.09626
1060.348	-32.06861
1060.704	-53.12021
1061.061	-18.03814
1061.418	-16.0369
1061.774	18.04244
1062.131	34.08726
1062.487	-59.12947
1062.843	-33.078
1063.199	-18.0427
1063.555	-2.00437
1063.911	-8.01904
1064.267	-39.07311
1064.623	-10.0232
1064.979	-59.12848
1065.335	-26.0574
1065.691	20.04528
1066.046	-22.04451
1066.402	22.04629
1066.757	-5.01197
1067.112	-19.04346
1067.468	-7.01583
1067.823	-22.05005
1068.178	24.05467
1068.533	-1.00226
1068.888	-22.04886
1069.243	-27.06352
1069.598	-66.15003
1069.952	-40.08646
1070.307	20.04743
1070.662	4.00894
1071.016	9.01896
1071.371	-15.03172
1071.725	-61.13436
1072.079	-24.05429
1072.434	-36.0827
1072.788	18.04039
1073.142	48.11124
1073.496	-33.07397
1073.85	-31.06737
1074.203	-16.0364
1074.557	12.03061
1074.911	-24.05319
1075.265	-18.03866
1075.618	17.03908
1075.971	-63.14133
1076.325	-64.15604
1076.678	-41.0883
1077.031	-27.05705
1077.385	30.06134
1077.738	-62.13252
1078.091	-37.08051
1078.444	-56.12084
1078.796	-31.07268
1079.149	-52.12136
1079.502	-25.05581
1079.855	-11.0242
1080.207	-15.03477
1080.56	-35.0863
1080.912	-68.15496
1081.264	-59.13486
1081.617	-34.07876
1081.969	22.05342
1082.321	9.02066
1082.673	-64.14029
1083.025	-42.09319
1083.377	-292.60625
1083.728	-28.05995
1084.08	28.06612
1084.432	-97.2184
1084.783	50.1096
1085.135	8.01923
1085.486	-26.05642
1085.838	-44.10302
1086.189	-23.0527
1086.54	-12.02691
1086.891	-5.01217
1087.242	-38.08687
1087.593	-6.0136
1087.944	-41.08674
1088.295	-57.12038
1088.646	-12.02747
1088.996	-85.1953
1089.347	-43.09939
1089.698	-48.10867
1090.048	-46.11332
1090.398	27.0585
1090.749	8.01799
1091.099	-4.00964
1091.449	-57.13431
1091.799	-18.04257
1092.149	-15.03548
1092.499	-9.02079
1092.849	-38.0923
1093.199	14.0328
1093.548	-8.01822
1093.898	-9.02137
1094.248	-12.02927
1094.597	-44.10923
1094.947	-53.13581
1095.296	-55.12864
1095.645	-36.08902
1095.994	-23.05242
1096.343	19.04562
1096.692	24.06054
1097.041	-41.10792
1097.39	-12.02837
1097.739	26.06422
1098.088	2.00504
1098.437	-39.09888
1098.785	-31.07974
1099.134	-29.07261
1099.482	-20.05237
1099.83	-28.06999
1100.179	-9.02275
1100.527	-41.10373
1100.875	-43.10918
1101.223	-4.01023
1101.571	-30.08041
1101.919	-54.13718
1102.267	-9.02475
1102.615	6.01928
1102.962	7.02245
1103.31	10.03209
1103.658	-3.00962
