Data from N3 R6 sample 7_Subt2__0__15-23-24-033.txt Node

Date: Fri Sep 19 15:23:24 PDT 2025
User: uwsun
Spectrometer: HDX01956
Trigger mode: 0
Integration Time (sec): 5.000000E-1
Scans to average: 1
Nonlinearity correction enabled: true
Boxcar width: 0
Storing dark spectrum: false
XAxis mode: Wavelengths
Number of Pixels in Spectrum: 2068
>>>>>Begin Spectral Data<<<<<
194.03	-10.02908
194.578	-5.01627
195.127	5.01604
195.676	-17.05463
196.225	-21.0557
196.773	-25.07012
197.321	-5.01398
197.87	13.03363
198.418	59.15287
198.966	56.14772
199.513	64.1631
200.061	9.02299
200.609	47.12383
201.156	-64.14118
201.704	-26.06607
202.251	28.07446
202.798	53.13813
203.345	24.0596
203.892	47.11823
204.438	53.12639
204.985	37.08841
205.532	67.17967
206.078	28.06903
206.624	34.08447
207.17	34.07889
207.716	-11.02674
208.262	-12.02384
208.808	22.05508
209.354	-8.01967
209.899	37.09291
210.445	40.10061
210.99	28.06801
211.535	49.1147
212.08	23.05344
212.625	23.05765
213.17	41.1034
213.715	10.0227
214.259	24.05637
214.804	18.04428
215.348	31.0708
215.892	34.08194
216.436	54.12514
216.98	19.04164
217.524	24.05681
218.068	-7.01772
218.612	-9.02258
219.155	8.01886
219.698	-7.01659
220.242	34.08416
220.785	-7.01648
221.328	43.10685
221.871	64.16033
222.414	35.08548
222.956	21.05087
223.499	-30.06795
224.041	-29.06687
224.583	-5.01071
225.126	69.15275
225.668	9.02192
226.21	9.02262
226.751	-38.08273
227.293	-17.03854
227.835	-19.04637
228.376	13.02956
228.918	20.05021
229.459	52.13013
230	-2.00476
230.541	13.02963
231.082	21.05077
231.622	36.0823
232.163	38.09244
232.704	16.03945
233.244	8.0198
233.784	41.0986
234.324	38.08411
234.864	38.08491
235.404	9.02109
235.944	10.02337
236.484	1.00246
237.023	24.05665
237.563	19.04364
238.102	31.07262
238.641	69.17358
239.18	49.11434
239.719	56.14024
240.258	8.01779
240.797	69.16373
241.335	-18.04349
241.874	39.07481
242.412	5.01193
242.95	47.11243
243.488	0
244.026	-8.01852
244.564	16.03264
245.102	28.06249
245.64	34.08094
246.177	-7.01556
246.715	53.12406
247.252	33.07418
247.789	-6.0106
248.326	-23.05487
248.863	3.00652
249.4	80.18068
249.936	41.08298
250.473	64.14767
251.009	70.15964
251.546	81.17602
252.082	60.13075
252.618	67.14832
253.154	25.05971
253.69	46.10202
254.226	34.08016
254.761	-31.06886
255.297	-4.00879
255.832	9.0211
256.367	47.10881
256.903	2.00435
257.438	26.05987
257.972	11.02414
258.507	55.12622
259.042	-59.12641
259.576	23.04943
260.111	-21.04835
260.645	33.07101
261.179	-11.0255
261.713	30.06565
262.247	68.15615
262.781	-17.036
263.315	37.08999
263.849	-13.03255
264.382	34.07685
264.915	47.1098
265.449	37.09003
265.982	31.06891
266.515	50.12072
267.048	69.14445
267.58	5.01067
268.113	44.09482
268.646	70.172
269.178	9.02006
269.71	28.06021
270.243	13.02949
270.775	34.08601
271.307	-2.00473
271.838	-3.00705
272.37	50.12227
272.902	86.19312
273.433	-32.06973
273.965	95.22976
274.496	18.044
275.027	18.0442
275.558	15.03617
276.089	42.10473
276.62	31.07787
277.15	32.07808
277.681	23.04853
278.211	8.01937
278.741	63.13842
279.272	58.13089
279.802	73.1802
280.332	54.12613
280.861	32.07642
281.391	37.08276
281.921	28.06597
282.45	110.27259
282.98	59.15277
283.509	9.02014
284.038	-58.1311
284.567	18.04094
285.096	37.08891
285.625	122.27407
286.153	50.11555
286.682	10.02261
287.21	40.09534
287.739	29.06751
288.267	64.15388
288.795	50.12989
289.323	59.13838
289.851	15.0348
290.378	46.10236
290.906	61.1472
291.433	24.05965
291.961	1.00225
292.488	83.20361
293.015	82.19191
293.542	50.12504
294.069	52.12655
294.596	60.14656
295.122	76.17898
295.649	86.18812
296.175	52.12289
296.702	20.04772
297.228	50.11816
297.754	79.17394
298.28	16.03608
298.806	60.14366
299.332	28.06161
299.857	26.05812
300.383	55.13642
300.908	72.17443
301.433	103.24713
301.958	27.06082
302.483	78.19498
303.008	34.0828
303.533	13.03316
304.058	73.1688
304.582	69.16145
305.107	81.21031
305.631	54.12056
306.155	81.18797
306.679	78.18047
307.203	64.14731
307.727	85.19998
308.251	56.13664
308.775	36.08485
309.298	103.24478
309.822	24.0603
310.345	74.17312
310.868	67.15825
311.391	110.26478
311.914	73.18133
312.437	35.07852
312.96	110.25542
313.482	84.19721
314.005	84.20816
314.527	71.18517
315.049	81.20061
315.571	154.34141
316.093	115.28148
316.615	93.22289
317.137	96.20324
317.659	73.17289
318.18	116.27499
318.702	153.34703
319.223	34.06949
319.744	118.26073
320.265	113.27041
320.786	126.30628
321.307	121.29704
321.828	141.31422
322.348	123.28555
322.869	38.08792
323.389	319.55438
323.909	79.17948
324.43	89.20964
324.95	155.34756
325.47	112.27235
325.989	169.39528
326.509	138.29867
327.029	108.23973
327.548	101.22527
328.067	108.25622
328.587	136.33281
329.106	96.21443
329.625	134.33859
330.144	122.27329
330.662	128.29121
331.181	160.36578
331.7	136.31104
332.218	210.44263
332.736	114.25999
333.255	143.32527
333.773	165.38138
334.291	140.33776
334.808	126.27305
335.326	204.44547
335.844	211.47974
336.361	210.51389
336.879	160.36327
337.396	117.27419
337.913	136.30439
338.43	216.47347
338.947	179.41489
339.464	138.28934
339.981	196.45294
340.497	187.44884
341.014	194.45383
341.53	221.48575
342.046	246.58178
342.562	226.54213
343.078	201.45571
343.594	243.56076
344.11	215.4916
344.626	236.57557
345.141	252.5547
345.657	213.45911
346.172	201.46587
346.687	228.50567
347.202	241.51879
347.717	256.58616
348.232	243.58545
348.747	217.48077
349.261	343.71833
349.776	262.58397
350.29	240.57351
350.805	263.61559
351.319	244.54655
351.833	286.62213
352.347	187.41897
352.861	290.64289
353.374	298.643
353.888	229.52782
354.401	258.56528
354.915	330.70165
355.428	332.78269
355.941	308.68193
356.454	337.70795
356.967	302.67896
357.48	327.7036
357.993	326.756
358.505	320.74913
359.018	319.72789
359.53	297.67552
360.042	273.56592
360.554	310.70551
361.066	301.69153
361.578	327.67574
362.09	348.77819
362.602	329.68109
363.113	255.55482
363.625	348.74057
364.136	321.66185
364.647	319.70143
365.158	323.71141
365.669	397.89852
366.18	275.60062
366.691	380.77768
367.201	336.74826
367.712	342.71671
368.222	397.85456
368.733	458.91566
369.243	344.70114
369.753	355.75957
370.263	384.84167
370.773	449.01907
371.282	385.84617
371.792	429.89763
372.301	444.9883
372.811	474.1277
373.32	411.79865
373.829	458.99663
374.338	530.05246
374.847	511.04654
375.356	535.14963
375.865	582.08496
376.373	574.15168
376.882	619.38453
377.39	616.31288
377.898	670.45712
378.407	636.22928
378.915	703.28154
379.423	721.4621
379.93	772.46201
380.438	834.71499
380.946	810.58863
381.453	822.65087
381.96	888.73364
382.468	1009.92053
382.975	1072.08502
383.482	1037.82637
383.989	1070.19025
384.495	1110.97717
385.002	1223.87761
385.509	1248.15995
386.015	1376.91728
386.521	1396.18134
387.028	1409.23923
387.534	1576.21979
388.04	1549.48597
388.546	1558.27553
389.051	1729.35444
389.557	1854.63455
390.063	2012.7214
390.568	1974.77906
391.073	2129.62474
391.578	2131.88572
392.084	2224.54044
392.589	2365.5181
393.093	2612.83638
393.598	2831.64379
394.103	3075.84381
394.607	3374.70111
395.112	3577.83085
395.616	3882.53614
396.12	4101.11231
396.624	4538.90779
397.128	4925.80567
397.632	5326.35031
398.136	5973.06963
398.639	6547.08762
399.143	7480.4837
399.646	8314.12468
400.15	9146.73179
400.653	10256.28362
401.156	11778.45379
401.659	13604.51138
402.162	17630.65096
402.664	25923.49062
403.167	47096.25405
403.67	58909.86304
404.172	55487.84425
404.674	37291.05854
405.176	4428.40989
405.678	533.47942
406.18	0
406.682	0
407.184	6962.89417
407.686	50953.82939
408.187	56739.35455
408.688	37763.64362
409.19	28817.71002
409.691	23854.3222
410.192	20380.25613
410.693	18243.72603
411.194	17189.36038
411.694	16291.28609
412.195	14457.37819
412.696	13592.75132
413.196	13383.44108
413.696	13633.22409
414.196	13477.50166
414.696	12799.18439
415.196	11776.58465
415.696	9720.73896
416.196	7348.96777
416.695	6212.93755
417.195	5912.18762
417.694	5589.49262
418.194	5180.82743
418.693	4997.41821
419.192	5023.6757
419.691	4729.84534
420.19	4626.95007
420.688	4519.25453
421.187	4183.34435
421.685	3911.25944
422.184	3398.56079
422.682	2929.38691
423.18	2595.69262
423.678	2353.63318
424.176	2185.60906
424.674	2036.39111
425.172	1871.5812
425.669	1807.76572
426.167	1637.39171
426.664	1509.25082
427.161	1394.15564
427.659	1244.22222
428.156	1218.8168
428.652	1072.08108
429.149	1106.02647
429.646	1020.68131
430.143	974.82736
430.639	929.73296
431.135	849.69693
431.632	790.46121
432.128	774.54221
432.624	731.55793
433.12	753.41937
433.616	686.24007
434.111	682.37567
434.607	677.36588
435.103	638.10209
435.598	561.98342
436.093	560.11836
436.588	541.0511
437.083	471.93227
437.578	485.96807
438.073	477.04282
438.568	459.99308
439.062	434.81702
439.557	366.76972
440.051	390.79272
440.546	383.78861
441.04	315.67807
441.534	405.92929
442.028	371.80375
442.522	333.73159
443.015	380.74316
443.509	349.78059
444.002	344.76988
444.496	311.60663
444.989	366.81809
445.482	292.66697
445.975	343.71261
446.468	313.61256
446.961	317.60922
447.454	253.52024
447.947	320.70525
448.439	294.66558
448.931	238.49944
449.424	276.63195
449.916	274.60565
450.408	324.67989
450.9	220.49766
451.392	250.59032
451.884	193.40832
452.375	223.51276
452.867	272.56221
453.358	145.30744
453.849	252.49072
454.341	252.52554
454.832	213.42732
455.323	182.41841
455.814	201.42803
456.304	179.38483
456.795	179.37886
457.285	203.41498
457.776	138.29023
458.266	228.50798
458.756	159.35506
459.247	165.36785
459.737	213.47918
460.226	211.44151
460.716	217.48518
461.206	152.33964
461.695	235.55049
462.185	201.44551
462.674	151.32268
463.163	104.21651
463.653	169.33309
464.142	133.30154
464.63	199.45337
465.119	181.3965
465.608	103.22449
466.096	124.25607
466.585	72.15643
467.073	97.21849
467.561	187.42827
468.05	132.28654
468.538	156.36609
469.026	154.35007
469.513	127.25243
470.001	156.3317
470.489	110.24722
470.976	162.35091
471.463	188.44376
471.951	116.27583
472.438	121.27065
472.925	60.13335
473.412	89.20637
473.899	79.17423
474.385	98.22953
474.872	55.12282
475.359	87.20325
475.845	88.17332
476.331	60.1233
476.817	55.12743
477.303	97.21446
477.789	102.23365
478.275	71.16977
478.761	22.05104
479.247	28.06008
479.732	85.20472
480.218	76.19005
480.703	98.23608
481.188	53.1083
481.673	84.1846
482.158	59.12182
482.643	49.12011
483.128	76.16498
483.612	43.09634
484.097	53.1246
484.581	29.06396
485.066	50.11642
485.55	-3.00634
486.034	91.18999
486.518	71.16052
487.002	23.0547
487.486	15.03562
487.969	75.17858
488.453	67.16345
488.936	35.0758
489.42	34.07277
489.903	43.10478
490.386	74.15234
490.869	-8.01662
491.352	26.06111
491.835	-28.05572
492.318	19.04189
492.8	30.05914
493.283	40.09934
493.765	-3.00724
494.247	29.06479
494.73	19.04064
495.212	9.02102
495.694	26.05891
496.175	-36.08412
496.657	71.16398
497.139	-64.10442
497.62	-9.02103
498.102	47.11346
498.583	-32.07758
499.064	22.04829
499.545	-7.01554
500.026	-17.03716
500.507	-38.08551
500.988	-13.03124
501.469	-27.06587
501.949	-27.06464
502.43	-25.05804
502.91	-38.07664
503.39	34.08225
503.87	-1.0023
504.35	-64.1469
504.83	-9.01925
505.31	15.03554
505.79	-8.0187
506.269	-7.01582
506.749	-45.10078
507.228	-5.01146
507.707	3.00646
508.187	-1.0023
508.666	-43.10325
509.145	-41.09409
509.623	-17.03893
510.102	6.01409
510.581	-11.02564
511.059	1.00247
511.538	-12.03025
512.016	19.04442
512.494	-36.08498
512.972	3.00702
513.45	-32.07383
513.928	-8.01901
514.406	5.01203
514.884	46.11632
515.361	-21.04983
515.839	-34.07572
516.316	-19.04442
516.793	-43.10673
517.27	41.09673
517.747	-39.09878
518.224	-61.13842
518.701	1.00218
519.178	-7.01733
519.654	-105.24289
520.131	-56.13526
520.607	-2.00484
521.083	-57.12934
521.56	-46.10643
522.036	3.00644
522.512	-34.08225
522.987	-21.04956
523.463	-17.03978
523.939	-31.07458
524.414	-17.03806
524.89	-50.11596
525.365	-18.04035
525.84	12.0286
526.315	-64.15131
526.79	-34.07462
527.265	-59.13099
527.74	-58.1393
528.215	14.03225
528.689	-14.03079
529.164	-47.09822
529.638	-7.01767
530.112	-23.05397
530.587	-9.01904
531.061	-20.04761
531.534	-32.0756
532.008	-15.03554
532.482	-40.08824
532.956	25.06314
533.429	-87.20357
533.903	-25.05359
534.376	-23.0496
534.849	-12.02735
535.322	-59.13757
535.795	-61.14725
536.268	-20.04752
536.741	-38.08963
537.213	16.03611
537.686	-25.05939
538.158	-53.11757
538.631	-62.14766
539.103	-42.09269
539.575	-34.06924
540.047	-31.06665
540.519	-44.10253
540.991	-43.10255
541.463	-75.18091
541.934	-32.07218
542.406	-40.09424
542.877	-21.04631
543.348	-78.1819
543.82	-32.07685
544.291	-54.12211
544.762	-67.15696
545.233	-14.03485
545.703	-23.05017
546.174	-2.00457
546.645	-44.10591
547.115	-12.02844
547.585	-24.05496
548.056	14.03365
548.526	-13.03011
548.996	17.03981
549.466	-28.06668
549.935	-22.05213
550.405	2.00434
550.875	-39.09068
551.344	-14.03328
551.814	-67.14999
552.283	-46.09777
552.752	-77.1777
553.221	-37.07924
553.69	-15.03285
554.159	10.02445
554.628	-48.10593
555.096	-11.02735
555.565	-39.0854
556.033	-28.06445
556.502	-40.09515
556.97	-25.05407
557.438	-20.04651
557.906	-35.08161
558.374	-47.10617
558.842	-14.03288
559.31	-46.10062
559.777	-45.10801
560.245	-19.04315
560.712	-52.11653
561.18	21.0449
561.647	-35.07648
562.114	-6.01339
562.581	39.09372
563.048	1.00221
563.514	11.02651
563.981	-3.00667
564.448	47.10231
564.914	55.12303
565.381	47.10161
565.847	63.14133
566.313	98.21717
566.779	160.34436
567.245	80.18016
567.711	126.29025
568.176	134.2941
568.642	158.38003
569.108	137.32157
569.573	167.36552
570.038	216.42503
570.504	167.35857
570.969	213.50013
571.434	215.44509
571.899	277.61395
572.363	291.60701
572.828	311.64412
573.293	335.70127
573.757	355.74576
574.222	436.87895
574.686	363.74272
575.15	395.85281
575.614	389.80097
576.078	462.96089
576.542	496.99806
577.006	524.03859
577.469	525.13101
577.933	461.90393
578.396	542.14044
578.86	470.97361
579.323	513.07482
579.786	560.02941
580.249	540.07286
580.712	515.09756
581.175	497.08663
581.637	558.12416
582.1	557.03904
582.563	462.83771
583.025	510.08994
583.487	486.84182
583.95	446.8487
584.412	478.86364
584.874	462.99509
585.336	509.06266
585.797	447.84667
586.259	410.84743
586.721	423.88977
587.182	351.72923
587.643	358.732
588.105	394.84318
588.566	355.66944
589.027	403.88646
589.488	336.69075
589.949	304.66803
590.41	354.62387
590.87	272.55717
591.331	254.49368
591.791	225.47581
592.252	246.52147
592.712	243.54106
593.172	246.51144
593.632	230.45023
594.092	230.47369
594.552	195.38669
595.011	184.39992
595.471	224.46362
595.931	204.42166
596.39	210.47175
596.849	150.32852
597.308	156.3155
597.768	129.31304
598.227	187.42328
598.685	153.32426
599.144	140.30895
599.603	197.43573
600.062	136.26647
600.52	117.2484
600.978	130.2948
601.437	153.3278
601.895	150.29794
602.353	73.15262
602.811	137.28578
603.269	142.31926
603.727	67.15413
604.184	125.267
604.642	112.26006
605.099	112.2454
605.557	67.15462
606.014	87.17769
606.471	137.32883
606.928	203.4227
607.385	96.22801
607.842	117.25803
608.299	111.24511
608.755	101.23169
609.212	166.34881
609.668	117.24818
610.125	118.26824
610.581	104.22893
611.037	108.23194
611.493	119.26365
611.949	107.24545
612.405	90.17317
612.861	112.24457
613.316	140.31851
613.772	113.24618
614.227	122.27295
614.683	139.27938
615.138	144.3227
615.593	117.25468
616.048	89.19035
616.503	125.29007
616.958	140.33188
617.412	121.27077
617.867	126.26698
618.321	7.01361
618.776	113.23519
619.23	119.26706
619.684	125.26237
620.138	104.22268
620.592	61.141
621.046	100.22068
621.5	111.25442
621.954	93.19632
622.407	112.23379
622.861	16.03687
623.314	148.31551
623.768	84.18661
624.221	138.25543
624.674	55.11942
625.127	51.11413
625.58	32.06795
626.033	23.04776
626.485	44.10051
626.938	63.14173
627.39	85.18762
627.843	74.16084
628.295	58.12794
628.747	69.15606
629.199	56.1227
629.651	15.0329
630.103	53.11669
630.555	22.04407
631.006	21.04719
631.458	-41.09243
631.909	50.10817
632.361	-11.02445
632.812	12.02678
633.263	35.071
633.714	-42.08557
634.165	4.00913
634.616	-38.08705
635.067	-13.02725
635.518	-16.0362
635.968	67.12541
636.419	8.01638
636.869	-56.12823
637.319	9.01995
637.769	14.03022
638.219	-42.09548
638.669	-19.04407
639.119	-16.03749
639.569	-6.01413
640.019	7.01544
640.468	-80.17159
640.918	45.1029
641.367	32.06875
641.816	59.12575
642.265	-5.01114
642.714	20.04473
643.163	-54.11887
643.612	-19.04489
644.061	-60.12252
644.51	3.00662
644.958	-37.07896
645.406	-25.05838
645.855	-28.06635
646.303	1.00223
646.751	-5.01108
647.199	-22.04749
647.647	12.02695
648.095	-1.0022
648.543	-55.10733
648.99	-2.00465
649.438	-13.02958
649.885	-8.01934
650.333	-50.09199
650.78	33.07803
651.227	0
651.674	28.06145
652.121	-86.20269
652.568	-22.05199
653.015	-61.14781
653.461	-50.11615
653.908	18.0402
654.354	-42.09613
654.801	-39.08946
655.247	-33.06976
655.693	-36.09181
656.139	-3.00694
656.585	1.00233
657.031	-28.0643
657.477	-3.00631
657.922	-12.02701
658.368	-64.15377
658.813	-23.05047
659.259	0
659.704	-18.04108
660.149	-37.08396
660.594	-39.09047
661.039	-3.00666
661.484	8.01846
661.929	-5.01127
662.373	24.05939
662.818	20.0484
663.262	-53.1244
663.707	-64.15842
664.151	37.08814
664.595	-53.12557
665.039	-33.07966
665.483	-2.005
665.927	-53.12109
666.371	-27.06156
666.814	-38.08827
667.258	-30.07018
667.701	-32.06567
668.145	-24.05784
668.588	-23.05523
669.031	-7.01616
669.474	-42.09864
669.917	-37.0791
670.36	-27.06491
670.803	-53.1246
671.245	-16.03233
671.688	-28.06617
672.13	-34.0739
672.573	15.0371
673.015	-5.01159
673.457	29.06114
673.899	-7.01634
674.341	5.01166
674.783	-39.09201
675.225	-46.11052
675.666	2.00469
676.108	-17.03595
676.549	1.00228
676.991	-14.0297
677.432	-59.11278
677.873	-46.1033
678.314	-13.03004
678.755	-1.00238
679.196	-12.02685
679.637	-40.09435
680.078	-39.08846
680.518	-49.10902
680.959	-42.09799
681.399	-76.18377
681.839	3.00705
682.28	3.00723
682.72	-79.17649
683.16	-14.03403
683.6	-9.01977
684.039	2.00397
684.479	-18.04307
684.919	-35.07964
685.358	-42.10351
685.798	-21.05334
686.237	-18.04203
686.676	21.04659
687.115	-63.14469
687.554	14.03199
687.993	-52.10989
688.432	-7.01563
688.871	-32.07047
689.309	66.15471
689.748	1.002
690.186	-15.03426
690.625	25.05742
691.063	-15.0353
691.501	5.01198
691.939	-36.08771
692.377	-33.07867
692.815	2.00469
693.253	-40.0924
693.69	-42.08946
694.128	18.04264
694.565	14.03228
695.003	-10.02476
695.44	-15.034
695.877	-8.01831
696.314	-66.13758
696.751	-2.00435
697.188	-11.02462
697.625	-6.0131
698.061	-70.16492
698.498	-11.02571
698.934	-17.03928
699.371	-30.06916
699.807	-9.02065
700.243	25.05868
700.679	21.04554
701.115	-32.07239
701.551	12.0274
701.987	-32.06872
702.422	-69.16
702.858	-50.11509
703.294	-52.1135
703.729	24.05689
704.164	-3.00704
704.599	-23.04907
705.035	19.04095
705.47	-18.04312
705.904	-29.06519
706.339	-63.1404
706.774	-43.09722
707.209	-68.15264
707.643	-9.0209
708.078	-21.04939
708.512	5.01235
708.946	-26.05989
709.38	-55.12592
709.814	-61.13453
710.248	-37.08637
710.682	5.01157
711.116	-33.07746
711.549	-68.17078
711.983	-82.18368
712.416	-30.06764
712.85	7.01697
713.283	-52.11964
713.716	-7.01686
714.149	-24.05449
714.582	-8.01729
715.015	-20.04805
715.448	-63.15254
715.881	-33.06774
716.313	-21.04788
716.746	33.07479
717.178	-53.12343
717.61	-4.00981
718.043	-49.11753
718.475	-43.10058
718.907	-39.09407
719.339	-19.04152
719.77	-37.08637
720.202	-55.13512
720.634	11.02597
721.065	-11.02501
721.497	1.00237
721.928	19.04512
722.359	-72.17259
722.79	-51.11863
723.221	-21.0505
723.652	-26.06417
724.083	-18.03879
724.514	-84.18382
724.945	-111.25636
725.375	-20.04495
725.806	-65.15471
726.236	-30.07418
726.666	-47.1066
727.096	-56.13229
727.526	-45.11149
727.956	-57.12534
728.386	-71.16698
728.816	-55.13597
729.246	-10.02362
729.675	-45.10863
730.105	-45.10645
730.534	-1.00224
730.964	-62.1502
731.393	-61.14368
731.822	20.0492
732.251	-23.05678
732.68	-49.1082
733.109	-17.04046
733.537	-48.1119
733.966	-50.11967
734.395	-84.18661
734.823	-45.09641
735.251	-23.05337
735.68	2.00477
736.108	-53.1292
736.536	-14.03157
736.964	-53.11792
737.392	-42.10064
737.82	-52.11969
738.247	-62.14203
738.675	-47.10639
739.102	-18.04389
739.53	-28.06959
739.957	-39.09656
740.384	-51.11966
740.811	-9.02205
741.238	-55.12874
741.665	4.00899
742.092	-21.04742
742.519	-8.01926
742.945	-49.11322
743.372	-26.06228
743.798	-48.11938
744.225	-41.09349
744.651	-61.14753
745.077	-51.12293
745.503	-15.03474
745.929	-13.02968
746.355	-16.03731
746.781	-12.02845
747.207	-9.02052
747.632	-14.03305
748.058	-43.10239
748.483	-45.09816
748.908	-39.09343
749.334	-32.07554
749.759	-47.10617
750.184	-63.14493
750.609	-42.09868
751.033	-53.11777
751.458	38.08094
751.883	-42.09945
752.307	16.03642
752.732	-3.0073
753.156	-42.09991
753.58	-9.02026
754.005	8.01961
754.429	-72.16075
754.853	-6.01432
755.277	-1.00227
755.7	-30.07136
756.124	8.01926
756.548	-23.05266
756.971	-47.10993
757.394	-14.03469
757.818	-16.04001
758.241	-49.11949
758.664	2.0049
759.087	12.02599
759.51	-23.05498
759.933	-34.07942
760.356	-52.12891
760.778	27.06444
761.201	-66.15204
761.623	-61.13999
762.046	-88.19639
762.468	-37.08481
762.89	-28.06633
763.312	-55.12839
763.734	-24.05571
764.156	-30.07158
764.578	-2.00431
765	7.01628
765.421	-15.03748
765.843	13.03288
766.264	-16.03656
766.686	-9.0219
767.107	-16.03771
767.528	-25.0619
767.949	-51.12553
768.37	-38.08935
768.791	-2.00458
769.212	-32.07904
769.632	-76.17109
770.053	-10.02549
770.473	11.02558
770.894	-44.10467
771.314	-46.10393
771.734	-66.14717
772.154	-1.00247
772.575	-26.05728
772.994	-43.094
773.414	-63.14226
773.834	-1.00241
774.254	-16.03728
774.673	-45.10476
775.093	-55.13277
775.512	-5.0119
775.931	24.0588
776.351	-30.07115
776.77	-54.12831
777.189	-68.15464
777.607	0
778.026	5.01201
778.445	-24.05878
778.864	-12.02939
779.282	-44.10071
779.701	-21.05094
780.119	-76.18544
780.537	-48.11541
780.955	0
781.373	-33.07834
781.791	12.02569
782.209	21.04593
782.627	-28.07181
783.045	-17.03723
783.462	-55.13502
783.88	-35.08814
784.297	-44.10692
784.715	-7.01759
785.132	-72.16837
785.549	8.0194
785.966	-27.06501
786.383	0
786.8	-6.01326
787.217	-59.1342
787.633	-14.03364
788.05	-44.09698
788.466	-14.03108
788.883	-18.04467
789.299	-53.12143
789.715	-15.03515
790.131	-50.11912
790.547	-76.18003
790.963	-37.08837
791.379	-43.10521
791.795	-14.0302
792.21	-21.04653
792.626	-22.04969
793.041	-62.14658
793.457	-9.02112
793.872	-31.0698
794.287	-6.01404
794.702	-49.11533
795.117	-45.10682
795.532	-1.00243
795.947	-43.09785
796.362	-42.09474
796.776	-81.17594
797.191	-44.10285
797.605	-40.09215
798.02	8.01869
798.434	-46.09623
798.848	-23.05382
799.262	-18.04356
799.676	-20.04602
800.09	-56.13178
800.504	-32.07413
800.918	-76.16849
801.331	-36.09016
801.745	-33.07174
802.158	-56.1346
802.572	0
802.985	-49.11173
803.398	-20.04539
803.811	6.01459
804.224	-40.09501
804.637	-105.23796
805.05	5.01092
805.462	-6.01395
805.875	-1.00254
806.288	17.03939
806.7	-20.04809
807.112	-15.03293
807.525	30.0704
807.937	-22.05213
808.349	-59.14167
808.761	-55.12784
809.173	-48.11
809.584	-1.00233
809.996	-11.02585
810.408	-18.04492
810.819	-47.10604
811.231	9.02289
811.642	42.09872
812.053	-18.04163
812.464	-36.08267
812.875	-38.09379
813.286	-67.16618
813.697	-57.12334
814.108	-48.11093
814.519	8.01653
814.929	-19.04576
815.34	-40.09248
815.75	-16.03892
816.16	-38.0889
816.571	-26.06497
816.981	-65.14431
817.391	-27.06181
817.801	6.0144
818.211	-29.0661
818.62	-45.10327
819.03	-81.18879
819.44	3.00744
819.849	16.03847
820.259	-17.0418
820.668	0
821.077	-52.1247
821.486	-39.08828
821.895	-41.09473
822.304	-40.10248
822.713	-3.00667
823.122	-10.02397
823.531	15.03373
823.939	-6.01393
824.348	11.0254
824.756	-29.06908
825.164	-21.04997
825.573	-5.01197
825.981	-21.0497
826.389	-45.1067
826.797	-12.02873
827.205	7.0151
827.612	-44.10294
828.02	-22.04963
828.428	-8.01934
828.835	-26.0661
829.243	-38.08575
829.65	-25.05967
830.057	-13.03036
830.464	46.10677
830.871	-41.093
831.278	-48.10969
831.685	-68.14201
832.092	7.01633
832.499	-24.04896
832.905	2.00484
833.312	-10.02124
833.718	-42.09953
834.124	12.02578
834.531	-46.11043
834.937	-49.11958
835.343	19.04325
835.749	-1.00217
836.155	-25.06264
836.561	-84.19497
836.966	-8.01847
837.372	-49.11918
837.777	-32.07562
838.183	-100.20651
838.588	-23.05485
838.993	-24.05476
839.399	-32.07422
839.804	-58.13744
840.209	-27.06655
840.613	-7.01479
841.018	-74.1784
841.423	-62.15133
841.828	-54.13102
842.232	-57.13243
842.637	-91.20229
843.041	-1.00249
843.445	-48.11414
843.849	-59.14022
844.253	-43.09606
844.657	-44.10744
845.061	-13.0278
845.465	56.12983
845.869	-29.06331
846.272	-67.15659
846.676	-10.02299
847.079	-17.0417
847.483	-7.01651
847.886	-14.03159
848.289	7.01822
848.692	-19.04576
849.095	-8.01791
849.498	-62.14732
849.901	-66.14223
850.304	-47.10587
850.707	-66.1614
851.109	-54.12806
851.512	-22.05193
851.914	3.00736
852.316	2.00483
852.718	13.03244
853.121	-45.10546
853.523	-37.08167
853.925	-53.13376
854.326	-9.02173
854.728	-49.12123
855.13	-27.06743
855.531	-6.01383
855.933	-2.00451
856.334	-26.0623
856.736	-44.09221
857.137	33.07168
857.538	1.00239
857.939	23.05413
858.34	-30.06889
858.741	-22.05502
859.142	-3.00683
859.542	21.05409
859.943	11.02613
860.343	-10.02374
860.744	4.00927
861.144	24.05507
861.544	14.03232
861.945	-58.14099
862.345	-83.19101
862.745	-15.03546
863.145	-13.02862
863.544	16.03884
863.944	-31.069
864.344	-31.07217
864.743	-2.0047
865.143	-26.06389
865.542	-58.12725
865.941	35.08244
866.34	10.02257
866.74	-31.08007
867.139	-18.04118
867.537	-53.12862
867.936	-11.02517
868.335	-11.02691
868.734	0
869.132	13.02856
869.531	-11.02506
869.929	1.00217
870.327	-54.12345
870.726	-32.07562
871.124	-22.04796
871.522	-47.11354
871.92	-10.02331
872.318	23.05308
872.715	32.07398
873.113	8.01846
873.511	-22.05231
873.908	23.05651
874.306	-10.02374
874.703	-7.01658
875.1	-65.15857
875.497	-36.08134
875.894	-22.05233
876.291	-21.04939
876.688	-28.06898
877.085	14.03135
877.482	-42.09949
877.878	17.03865
878.275	-50.12127
878.671	-43.08711
879.068	-19.04327
879.464	-40.09229
879.86	3.00679
880.256	-41.09492
880.652	-29.07035
881.048	-20.04637
881.444	-16.03534
881.84	-28.06753
882.236	-27.06488
882.631	-26.0608
883.027	-59.13377
883.422	-53.12987
883.817	-23.05594
884.213	-15.03682
884.608	-31.07333
885.003	-30.06897
885.398	-48.11502
885.793	-43.10258
886.188	-47.11341
886.582	-59.14216
886.977	-13.02901
887.371	-19.04568
887.766	-31.07435
888.16	-1.00237
888.554	-49.11403
888.949	-59.13951
889.343	-44.10067
889.737	-32.08367
890.131	-20.04805
890.525	-15.03641
890.918	-2.00483
891.312	-84.18824
891.706	45.11288
892.099	-17.04099
892.492	-24.04836
892.886	-13.02989
893.279	-58.1421
893.672	-37.09056
894.065	-29.06881
894.458	-6.01428
894.851	-48.11
895.244	-34.08327
895.637	9.02046
896.029	-17.03939
896.422	-31.07151
896.814	1.00236
897.206	0
897.599	-55.12657
897.991	-5.01147
898.383	-34.07566
898.775	-52.11042
899.167	-29.06481
899.559	-32.07677
899.951	11.02421
900.342	-83.19938
900.734	41.09819
901.125	-41.10218
901.517	-1.00234
901.908	-39.0876
902.299	6.01393
902.69	-1.00222
903.082	-4.00913
903.473	-9.02063
903.863	-2.00491
904.254	-75.16492
904.645	-22.0511
905.036	5.01164
905.426	-91.19177
905.817	-31.07225
906.207	-57.13034
906.597	-18.03991
906.987	-50.1225
907.378	-26.06225
907.768	15.03796
908.158	-23.05335
908.547	-67.16764
908.937	-15.03647
909.327	-20.0457
909.717	-23.05495
910.106	-18.0409
910.495	15.03558
910.885	-40.09493
911.274	-5.01192
911.663	18.04364
912.052	-28.06491
912.441	9.02194
912.83	-41.08826
913.219	-42.10404
913.608	13.02994
913.997	-44.10543
914.385	-39.08706
914.774	-34.07817
915.162	-81.18357
915.55	2.00456
915.939	-17.04108
916.327	15.03528
916.715	-23.05655
917.103	-17.03922
917.491	-51.11835
917.878	-31.07097
918.266	-21.0519
918.654	38.09286
919.041	-11.02748
919.429	-11.0246
919.816	5.01193
920.203	-44.10168
920.591	-15.03495
920.978	-64.14914
921.365	-49.123
921.752	-27.06124
922.139	-10.02037
922.525	-45.10269
922.912	-29.06674
923.299	-19.04514
923.685	-46.11541
924.072	-44.09437
924.458	-36.08504
924.844	-34.07998
925.231	-74.16262
925.617	-16.03952
926.003	-24.05847
926.389	-37.09013
926.774	-29.07048
927.16	-3.007
927.546	-38.09334
927.931	-22.05211
928.317	-90.19337
928.702	-23.05077
929.088	-55.1244
929.473	-41.09998
929.858	13.03025
930.243	-22.05038
930.628	-44.10144
931.013	20.04741
931.398	-5.01062
931.783	18.04498
932.167	-66.15319
932.552	-51.12018
932.937	-37.08576
933.321	-58.13871
933.705	4.00968
934.09	-8.01883
934.474	5.01111
934.858	-72.18109
935.242	5.01105
935.626	-70.17156
936.009	-45.11511
936.393	49.11851
936.777	8.01964
937.16	-100.24862
937.544	-31.06854
937.927	-59.14431
938.311	-11.0251
938.694	-21.05309
939.077	-30.06737
939.46	18.0417
939.843	-13.02456
940.226	-23.05592
940.609	-45.09696
940.991	-23.05582
941.374	-48.11102
941.757	-19.04427
942.139	-65.13667
942.522	-30.06582
942.904	-6.01364
943.286	-34.08153
943.668	-41.10166
944.05	5.01161
944.432	-7.01642
944.814	-34.07867
945.196	-53.12513
945.578	11.02493
945.959	12.02638
946.341	-27.06137
946.722	19.04185
947.104	-100.22705
947.485	-34.07437
947.866	13.0313
948.247	-41.09894
948.628	5.01138
949.009	-27.06631
949.39	-55.12789
949.771	13.02794
950.152	30.06955
950.532	4.00963
950.913	-13.02919
951.293	-20.05246
951.674	-33.07494
952.054	-29.06865
952.434	-48.11256
952.814	-34.07497
953.194	-14.03507
953.574	-4.00914
953.954	15.03337
954.334	1.00237
954.714	-41.09545
955.093	-54.12459
955.473	-91.21726
955.853	-25.06214
956.232	-30.07922
956.611	-54.12032
956.99	-46.11106
957.37	-21.05096
957.749	-36.08031
958.128	0
958.506	-1.00249
958.885	-32.07653
959.264	-65.15269
959.643	-3.00639
960.021	-44.10415
960.4	-2.0043
960.778	-36.0824
961.156	-8.01901
961.535	-56.12032
961.913	-88.19168
962.291	4.00989
962.669	-15.03628
963.047	-36.08649
963.424	21.05092
963.802	-59.13686
964.18	7.0166
964.557	-63.1348
964.935	-6.01328
965.312	-3.0075
965.69	-9.02119
966.067	-30.06858
966.444	-34.07945
966.821	-80.19737
967.198	8.0179
967.575	-27.06211
967.952	15.03304
968.329	15.03409
968.705	-65.12829
969.082	9.02207
969.458	-28.06458
969.835	1.00229
970.211	-35.08602
970.587	-9.02121
970.963	-16.03895
971.339	8.02007
971.715	-86.20261
972.091	-31.07217
972.467	-39.09079
972.843	-41.09703
973.219	-20.04447
973.594	-16.04005
973.97	-29.06409
974.345	-16.03606
974.721	-35.07964
975.096	-78.17839
975.471	-20.04486
975.846	17.03861
976.221	-39.09482
976.596	-44.10019
976.971	-29.06796
977.346	-53.11478
977.72	-15.03624
978.095	2.00493
978.469	33.07363
978.844	9.02128
979.218	-36.08267
979.593	-42.09552
979.967	10.02306
980.341	-50.1078
980.715	-8.01898
981.089	-65.15388
981.463	-8.01743
981.837	-43.10089
982.21	-19.04104
982.584	-59.1348
982.957	-22.0527
983.331	28.06169
983.704	8.01867
984.078	-40.0931
984.451	-60.13893
984.824	-6.01393
985.197	-4.00911
985.57	-29.06836
985.943	-65.14965
986.316	-13.03011
986.688	-28.06344
987.061	-21.04571
987.434	-18.04488
987.806	-25.05691
988.179	-68.15138
988.551	-15.0358
988.923	-6.01389
989.295	-17.04009
989.667	19.04355
990.039	-19.04477
990.411	16.03467
990.783	-42.09051
991.155	-11.02539
991.527	-57.13039
991.898	-41.09657
992.27	-8.01877
992.641	-49.11645
993.012	24.05305
993.384	-9.02021
993.755	-49.11882
994.126	-17.03867
994.497	-66.15458
994.868	-4.00862
995.239	-26.06001
995.61	-37.08841
995.98	-38.08865
996.351	-17.04028
996.722	-64.14224
997.092	-25.05659
997.462	-33.07382
997.833	11.02424
998.203	-32.07286
998.573	-8.01903
998.943	-71.15619
999.313	-12.02728
999.683	-74.16754
1000.053	9.01942
1000.423	-20.04593
1000.792	-35.08697
1001.162	18.04194
1001.531	6.01404
1001.901	-41.09673
1002.27	-7.01468
1002.639	-23.05623
1003.009	24.05418
1003.378	-29.0709
1003.747	-16.03537
1004.116	-19.04322
1004.485	-51.11652
1004.853	-30.07243
1005.222	34.08159
1005.591	-33.07324
1005.959	-9.01927
1006.328	-25.05247
1006.696	-5.01146
1007.064	-14.03346
1007.433	25.05912
1007.801	28.06378
1008.169	-57.1365
1008.537	24.04932
1008.905	-29.06401
1009.273	-12.02797
1009.64	-64.14643
1010.008	0
1010.375	8.01818
1010.743	-29.06122
1011.11	-50.1126
1011.478	-29.06791
1011.845	-62.13579
1012.212	-32.06718
1012.579	-32.0748
1012.946	-67.14888
1013.313	-13.02896
1013.68	-31.06467
1014.047	-24.05493
1014.414	10.02236
1014.78	-1.00237
1015.147	-56.12653
1015.513	-5.01154
1015.88	-21.05025
1016.246	16.03723
1016.612	12.02524
1016.978	-30.06936
1017.344	18.04237
1017.71	-68.15433
1018.076	3.00659
1018.442	-24.05852
1018.808	-18.04275
1019.174	-58.13818
1019.539	-34.07103
1019.905	-30.06729
1020.27	-14.03307
1020.636	-16.03602
1021.001	-32.0718
1021.366	4.00922
1021.731	-10.02457
1022.096	2.00483
1022.461	-59.13072
1022.826	-30.06745
1023.191	1.0025
1023.556	-66.14443
1023.92	-20.04589
1024.285	-54.12469
1024.649	-1.00231
1025.014	8.01862
1025.378	19.04559
1025.742	-17.03992
1026.107	-34.0711
1026.471	-61.13148
1026.835	-33.07673
1027.199	-14.03202
1027.562	-2.00438
1027.926	-26.05987
1028.29	-35.08474
1028.654	-37.0791
1029.017	0
1029.381	-11.02489
1029.744	-2.00488
1030.107	-50.1096
1030.471	24.05341
1030.834	-83.17552
1031.197	-23.05132
1031.56	-21.04723
1031.923	-16.03934
1032.286	-21.04595
1032.648	12.02663
1033.011	-46.09994
1033.374	-53.11586
1033.736	-80.20309
1034.099	-12.02779
1034.461	-43.10482
1034.823	-66.15634
1035.185	-45.1062
1035.548	-18.04125
1035.91	-43.09844
1036.272	-18.03839
1036.634	-20.04552
1036.995	0
1037.357	-41.095
1037.719	-26.05968
1038.08	-51.11229
1038.442	-12.02741
1038.803	-49.1106
1039.165	-17.04082
1039.526	17.03853
1039.887	16.03612
1040.248	7.01665
1040.609	-6.01395
1040.97	-83.19383
1041.331	-69.1643
1041.692	11.02425
1042.053	-40.08453
1042.413	-40.08661
1042.774	-8.01821
1043.134	-6.01321
1043.495	-78.18647
1043.855	-16.03665
1044.215	-63.14874
1044.576	7.01585
1044.936	2.0043
1045.296	-25.05877
1045.656	-5.01155
1046.016	-16.03583
1046.375	5.01151
1046.735	-9.01935
1047.095	-2.00439
1047.454	-21.04106
1047.814	-28.06301
1048.173	-46.10177
1048.533	-25.05412
1048.892	-75.1735
1049.251	14.0331
1049.61	-61.14139
1049.969	1.00223
1050.328	-64.12807
1050.687	2.00456
1051.046	-36.08386
1051.405	-49.11434
1051.763	-13.02818
1052.122	-9.0215
1052.48	-29.06685
1052.839	-34.07563
1053.197	-44.09808
1053.555	-65.1342
1053.914	-52.12027
1054.272	10.02255
1054.63	-53.12246
1054.988	-85.19217
1055.345	-60.11923
1055.703	-33.07418
1056.061	-5.01223
1056.419	-31.07712
1056.776	-19.0432
1057.134	-54.11767
1057.491	-54.12856
1057.848	-50.11766
1058.206	-9.0198
1058.563	5.01034
1058.92	-44.09425
1059.277	-62.14288
1059.634	-48.10411
1059.991	-26.05903
1060.348	-74.16009
1060.704	-41.09277
1061.061	-11.02327
1061.418	-12.02765
1061.774	36.08458
1062.131	2.00516
1062.487	-29.06323
1062.843	-23.05426
1063.199	-3.0071
1063.555	11.024
1063.911	-44.10543
1064.267	-71.13414
1064.623	-43.10042
1064.979	-79.17277
1065.335	-34.07519
1065.691	1.00227
1066.046	-64.13074
1066.402	-29.0617
1066.757	-27.06488
1067.112	-41.0942
1067.468	15.03377
1067.823	4.00905
1068.178	2.00458
1068.533	-32.07266
1068.888	-28.06226
1069.243	8.01869
1069.598	-84.19165
1069.952	-33.07122
1070.307	-7.01669
1070.662	-42.09474
1071.016	-35.07444
1071.371	-50.10655
1071.725	-81.17916
1072.079	-35.07935
1072.434	-63.1455
1072.788	-9.02031
1073.142	18.04196
1073.496	-45.10111
1073.85	-21.04554
1074.203	-46.10529
1074.557	-23.05904
1074.911	-39.0867
1075.265	-37.07979
1075.618	10.02302
1075.971	-19.04224
1076.325	-16.03866
1076.678	-46.09917
1077.031	-24.05068
1077.385	33.06743
1077.738	-29.06154
1078.091	5.01078
1078.444	-64.13834
1078.796	-42.09868
1079.149	-79.18536
1079.502	-38.08505
1079.855	-41.09076
1080.207	-39.09083
1080.56	-27.06648
1080.912	-45.10207
1081.264	-50.11408
1081.617	-3.00691
1081.969	2.00487
1082.321	-63.14672
1082.673	-21.04562
1083.025	-75.16755
1083.377	-340.71347
1083.728	-64.1381
1084.08	-12.02856
1084.432	-113.25526
1084.783	6.01327
1085.135	0
1085.486	-16.03464
1085.838	-11.02559
1086.189	-34.07807
1086.54	24.05343
1086.891	-32.07828
1087.242	-84.19381
1087.593	-15.03405
1087.944	-29.06119
1088.295	-18.03769
1088.646	-7.01601
1088.996	-41.09337
1089.347	-40.0924
1089.698	-30.06767
1090.048	-38.09348
1090.398	14.03042
1090.749	-12.02709
1091.099	-17.04107
1091.449	-35.08212
1091.799	-8.01888
1092.149	-2.00472
1092.499	-12.02773
1092.849	-28.06789
1093.199	-3.00705
1093.548	-37.08477
1093.898	-28.06674
1094.248	-8.0195
1094.597	-9.0222
1094.947	-13.03308
1095.296	-38.08859
1095.645	-40.09898
1095.994	-9.02046
1096.343	-9.02173
1096.692	-21.0534
1097.041	-46.12118
1097.39	-55.13111
1097.739	-12.02985
1098.088	-69.17612
1098.437	-70.17846
1098.785	-57.14728
1099.134	-85.21498
1099.482	-67.17683
1099.83	-71.17886
1100.179	-41.10425
1100.527	-38.09609
1100.875	-68.17342
1101.223	-19.04872
1101.571	-35.09389
1101.919	-70.17833
1102.267	-17.04681
1102.615	0
1102.962	3.00963
1103.31	-1.00321
1103.658	-2.00641
