Data from N3 R6 sample 10_Subt2__4__15-26-17-521.txt Node

Date: Fri Sep 19 15:26:17 PDT 2025
User: uwsun
Spectrometer: HDX01956
Trigger mode: 0
Integration Time (sec): 5.000000E-1
Scans to average: 1
Nonlinearity correction enabled: true
Boxcar width: 0
Storing dark spectrum: false
XAxis mode: Wavelengths
Number of Pixels in Spectrum: 2068
>>>>>Begin Spectral Data<<<<<
194.03	3.00871
194.578	12.03898
195.127	9.02886
195.676	-1.00321
196.225	-20.05304
196.773	-15.04201
197.321	16.04458
197.87	46.1183
198.418	73.18869
198.966	60.15816
199.513	94.23829
200.061	40.10162
200.609	44.11599
201.156	19.04118
201.704	22.05543
202.251	44.11669
202.798	75.19473
203.345	53.13093
203.892	50.12571
204.438	60.14289
204.985	50.11917
205.532	111.2955
206.078	49.12034
206.624	35.08694
207.17	23.05348
207.716	-6.01457
208.262	29.05705
208.808	47.11713
209.354	33.0805
209.899	69.17227
210.445	68.17017
210.99	26.06318
211.535	95.22037
212.08	52.12012
212.625	27.06763
213.17	27.06826
213.715	7.0159
214.259	35.08203
214.804	30.07363
215.348	64.14519
215.892	46.1106
216.436	50.11596
216.98	41.08944
217.524	8.01899
218.068	62.15504
218.612	33.08215
219.155	57.13311
219.698	15.0354
220.242	43.10627
220.785	119.2732
221.328	61.15108
221.871	76.18998
222.414	13.03188
222.956	4.00972
223.499	29.0649
224.041	23.05249
224.583	42.08907
225.126	78.17235
225.668	60.14476
226.21	29.07261
226.751	-21.04556
227.293	23.05172
227.835	-4.00973
228.376	39.08821
228.918	82.20357
229.459	68.16968
230	33.07797
230.541	49.11087
231.082	33.0796
231.622	45.10269
232.163	48.11655
232.704	25.06153
233.244	-13.0323
233.784	26.0627
234.324	19.04222
234.864	14.03144
235.404	46.10702
235.944	12.02803
236.484	47.1147
237.023	36.08478
237.563	32.0733
238.102	14.03291
238.641	89.22308
239.18	39.09118
239.719	73.18225
240.258	41.09054
240.797	55.13086
241.335	39.09322
241.874	52.09943
242.412	16.03811
242.95	27.06483
243.488	39.08824
244.026	38.08719
244.564	48.09721
245.102	40.08905
245.64	43.10219
246.177	36.07931
246.715	26.06118
247.252	20.04508
247.789	3.00529
248.326	24.05674
248.863	32.06908
249.4	90.20285
249.936	45.09099
250.473	58.13398
251.009	62.14163
251.546	8.01765
252.082	98.21183
252.618	44.09787
253.154	29.06921
253.69	24.05347
254.226	62.14539
254.761	-10.02211
255.297	33.07193
255.832	40.09321
256.367	47.10881
256.903	31.06693
257.438	6.01387
257.972	35.07641
258.507	42.09664
259.042	-23.04889
259.576	19.04087
260.111	37.0842
260.645	55.11779
261.179	22.05066
261.713	60.13047
262.247	78.17875
262.781	64.13312
263.315	55.13332
263.849	56.13847
264.382	22.04985
264.915	59.13751
265.449	38.09244
265.982	92.20192
266.515	73.17549
267.048	62.12999
267.58	49.10358
268.113	87.18575
268.646	91.22274
269.178	26.05774
269.71	72.15336
270.243	36.08127
270.775	36.09103
271.307	-18.04269
271.838	59.13692
272.37	38.09313
272.902	38.08617
273.433	61.1303
273.965	107.2582
274.496	0
275.027	38.09296
275.558	94.22326
276.089	58.1442
276.62	42.1053
277.15	62.15043
277.681	-10.02125
278.211	23.05552
278.741	42.09269
279.272	43.09733
279.802	34.08453
280.332	30.0704
280.861	62.1472
281.391	26.05829
281.921	13.03072
282.45	89.22139
282.98	80.20639
283.509	24.05354
284.038	7.01561
284.567	105.23458
285.096	87.20708
285.625	59.13426
286.153	31.07191
286.682	27.06084
287.21	36.08587
287.739	51.11821
288.267	81.19413
288.795	105.27018
289.323	88.20522
289.851	58.1334
290.378	48.10677
290.906	59.14243
291.433	71.17495
291.961	74.16371
292.488	70.17213
293.015	116.26967
293.542	59.1473
294.069	94.22696
294.596	77.18749
295.122	91.21368
295.649	110.23939
296.175	60.14158
296.702	68.16076
297.228	84.19721
297.754	37.08218
298.28	42.0942
298.806	70.16729
299.332	56.12249
299.857	84.18553
300.383	84.20724
300.908	115.27635
301.433	123.294
301.958	58.12982
302.483	111.27582
303.008	78.1884
303.533	33.08388
304.058	74.17108
304.582	77.17989
305.107	84.21799
305.631	31.06954
306.155	115.26507
306.679	128.29321
307.203	111.2531
307.727	93.21846
308.251	91.22058
308.775	63.1477
309.298	96.22845
309.822	41.1027
310.345	118.27367
310.868	76.17919
311.391	121.29065
311.914	108.26655
312.437	106.23431
312.96	119.27582
313.482	115.26835
314.005	120.29541
314.527	113.29258
315.049	102.25165
315.571	149.33067
316.093	187.45157
316.615	119.28378
317.137	126.265
317.659	118.27702
318.18	122.28887
318.702	141.32059
319.223	126.25214
319.744	139.30578
320.265	147.34948
320.786	122.29678
321.307	163.39703
321.828	147.32718
322.348	157.36202
322.869	85.19483
323.389	300.52398
323.909	153.34237
324.43	141.32876
324.95	187.41655
325.47	130.31506
325.989	206.47831
326.509	153.33007
327.029	137.30227
327.548	128.28389
328.067	161.37804
328.587	192.46495
329.106	196.42872
329.625	183.45835
330.144	135.3016
330.662	203.45481
331.181	237.53339
331.7	169.38394
332.218	223.46868
332.736	172.38766
333.255	193.43455
333.773	191.43919
334.291	170.40781
334.808	178.38145
335.326	247.53445
335.844	199.45355
336.361	231.56306
336.879	193.43526
337.396	191.44112
337.913	189.41839
338.43	253.55024
338.947	233.53425
339.464	209.43132
339.981	260.59317
340.497	279.65789
341.014	230.53424
341.53	292.63221
342.046	315.73497
342.562	286.67819
343.078	263.58874
343.594	302.68869
344.11	311.69733
344.626	274.66349
345.141	302.65777
345.657	279.59284
346.172	285.64954
346.687	329.71429
347.202	286.60969
347.717	365.81737
348.232	291.6947
348.747	309.67144
349.261	341.71446
349.776	326.71697
350.29	323.75955
350.805	321.74278
351.319	309.68286
351.833	335.72112
352.347	301.65851
352.861	379.82458
353.374	344.73492
353.888	347.78091
354.401	342.73603
354.915	397.83178
355.428	330.77828
355.941	380.82869
356.454	354.74088
356.967	391.86296
357.48	348.7454
357.993	350.80778
358.505	389.8983
359.018	430.95913
359.53	381.85179
360.042	349.71117
360.554	380.85253
361.066	365.8278
361.578	453.90965
362.09	430.94525
362.602	425.86091
363.113	394.83188
363.625	484.99947
364.136	420.84669
364.647	400.86453
365.158	463.98975
365.669	454.01355
366.18	358.76814
366.691	474.9494
367.201	448.97446
367.712	489.99145
368.222	463.98247
368.733	466.92993
369.243	464.91992
369.753	520.07102
370.263	517.09944
370.773	494.11118
371.282	532.13115
371.792	470.97448
372.301	524.14503
372.811	537.26239
373.32	544.02202
373.829	576.22007
374.338	601.17401
374.847	562.13795
375.356	697.44618
375.865	735.31903
376.373	734.41904
376.882	733.60134
377.39	780.60384
377.898	754.61081
378.407	742.39825
378.915	776.38885
379.423	872.70799
379.93	896.64614
380.438	1012.99842
380.946	1058.95514
381.453	1025.96329
381.96	1139.09183
382.468	1193.1695
382.975	1282.3712
383.482	1284.11757
383.989	1385.63637
384.495	1388.29774
385.002	1477.10274
385.509	1439.36778
386.015	1668.1165
386.521	1685.42106
387.028	1791.54899
387.534	1904.41849
388.04	1936.78225
388.546	2003.54864
389.051	2105.53856
389.557	2279.83614
390.063	2445.87644
390.568	2506.98239
391.073	2565.72202
391.578	2740.04385
392.084	2742.59239
392.589	2964.50692
393.093	3114.81081
393.598	3428.51071
394.103	3697.66426
394.607	4109.39288
395.112	4323.49149
395.616	4718.09165
396.12	5102.55571
396.624	5643.33297
397.128	6095.28537
397.632	6592.01706
398.136	7302.18527
398.639	7789.59117
399.143	8984.34285
399.646	10128.59713
400.15	11083.77085
400.653	12597.04433
401.156	14142.8501
401.659	16566.23345
402.162	21018.02156
402.664	30409.91507
403.167	52981.30898
403.67	59536.25369
404.172	55487.84425
404.674	37291.05854
405.176	4428.40989
405.678	533.47942
406.18	0
406.682	0
407.184	6962.89417
407.686	50953.82939
408.187	59237.6763
408.688	49775.15568
409.19	37354.97982
409.691	31086.22437
410.192	26312.89534
410.693	23264.75398
411.194	21913.9564
411.694	20485.05407
412.195	18750.10147
412.696	17308.53263
413.196	16586.76081
413.696	16838.25063
414.196	16800.2681
414.696	15984.63877
415.196	14858.13045
415.696	12556.97859
416.196	9552.89202
416.695	7915.62471
417.195	7419.31464
417.694	7180.70046
418.194	6530.55585
418.693	6273.94904
419.192	6104.21552
419.691	5933.26898
420.19	5750.37661
420.688	5692.63052
421.187	5298.7567
421.685	4861.73846
422.184	4404.08952
422.682	3754.10101
423.18	3197.63125
423.678	2915.65094
424.176	2753.686
424.674	2480.48333
425.172	2452.80213
425.669	2238.01604
426.167	2118.66593
426.664	1901.51741
427.161	1744.43263
427.659	1696.68846
428.156	1588.11406
428.652	1436.55106
429.149	1517.49982
429.646	1265.94708
430.143	1264.2039
430.639	1203.09324
431.135	1096.06539
431.632	1042.80803
432.128	983.86463
432.624	963.94989
433.12	972.7352
433.616	901.54086
434.111	925.76294
434.607	847.64294
435.103	706.19786
435.598	763.26588
436.093	723.39007
436.588	693.29841
437.083	659.24553
437.578	592.15065
438.073	590.25957
438.568	550.16492
439.062	534.98064
439.557	577.15531
440.051	527.03602
440.546	476.95958
441.04	440.92166
441.534	492.10713
442.028	479.01186
442.522	445.95457
443.015	439.84656
443.509	460.00326
444.002	492.06547
444.496	349.67461
444.989	453.99433
445.482	421.93654
445.975	449.91077
446.468	383.73714
446.961	403.75847
447.454	329.66492
447.947	394.85484
448.439	414.91429
448.931	309.63825
449.424	325.7368
449.916	331.72292
450.408	368.76472
450.9	308.68421
451.392	316.73658
451.884	330.67719
452.375	289.65573
452.867	308.63148
453.358	236.49043
453.849	251.48889
454.341	341.69708
454.832	320.62611
455.323	264.59694
455.814	285.59582
456.304	246.52124
456.795	304.62581
457.285	286.57364
457.776	253.5186
458.266	253.56076
458.756	285.61983
459.247	212.46803
459.737	219.49207
460.226	275.56726
460.716	289.63654
461.206	197.4361
461.695	238.55719
462.185	271.59189
462.674	212.44704
463.163	204.41523
463.653	189.37076
464.142	183.41068
464.63	231.52286
465.119	220.47796
465.608	193.41261
466.096	186.37876
466.585	233.48884
467.073	140.31257
467.561	235.533
468.05	169.36396
468.538	265.60859
469.026	206.46334
469.513	189.37023
470.001	130.27798
470.489	152.33866
470.976	146.31733
471.463	204.48003
471.951	171.40231
472.438	137.30543
472.925	109.23979
473.412	127.29226
473.899	203.43605
474.385	173.39923
474.872	111.24501
475.359	121.28079
475.845	94.18488
476.331	119.24128
476.817	134.3056
477.303	124.27261
477.789	115.26275
478.275	90.21442
478.761	109.24854
479.247	121.25442
479.732	130.31043
480.218	115.28555
480.703	172.40852
481.188	70.14248
481.673	100.21902
482.158	98.20056
482.643	47.11525
483.128	53.11561
483.612	104.23008
484.097	149.34371
484.581	47.10326
485.066	66.15319
485.55	42.0879
486.034	90.18795
486.518	101.22694
487.002	77.18123
487.486	77.18067
487.969	77.18327
488.453	60.14656
488.936	40.08653
489.42	58.12349
489.903	83.20074
490.386	94.19264
490.869	22.04541
491.352	46.1077
491.835	27.05304
492.318	97.21034
492.8	30.05914
493.283	96.23598
493.765	58.13845
494.247	64.14195
494.73	32.06825
495.212	79.18195
495.694	40.09038
496.175	42.09664
496.657	98.22512
497.139	-57.09282
497.62	27.06266
498.102	63.15162
498.583	26.06235
499.064	91.19682
499.545	-1.00222
500.026	54.11627
500.507	9.02006
500.988	14.03347
501.469	-21.05117
501.949	3.00714
502.43	5.01154
502.91	-14.02808
503.39	24.05817
503.87	19.04357
504.35	5.01132
504.83	16.03404
505.31	15.03554
505.79	10.02329
506.269	-12.02715
506.749	24.05299
507.228	0
507.707	39.08327
508.187	11.02527
508.666	-30.07186
509.145	-13.02967
509.623	11.02505
510.102	2.0047
510.581	17.0394
511.059	42.10313
511.538	-7.01763
512.016	44.10237
512.494	-65.1543
512.972	45.10439
513.45	25.05703
513.928	6.01422
514.406	8.01924
514.884	31.0786
515.361	43.10077
515.839	-55.12303
516.316	-56.13188
516.793	27.06616
517.27	65.15263
517.747	-15.03783
518.224	-20.045
518.701	48.10349
519.178	37.09087
519.654	-71.16313
520.131	-79.19164
520.607	-16.03882
521.083	18.04022
521.56	-29.06687
522.036	-26.05615
522.512	27.06456
522.987	9.02112
523.463	-18.04213
523.939	1.00239
524.414	-31.0696
524.89	-33.07628
525.365	15.0334
525.84	33.07834
526.315	-35.08228
526.79	-2.00436
527.265	-65.14449
527.74	-20.04769
528.215	-23.05337
528.689	35.07619
529.164	-50.10455
529.638	-17.04298
530.112	14.03261
530.587	29.06084
531.061	-4.00949
531.534	-3.00705
532.008	-4.00946
532.482	-55.12171
532.956	20.05056
533.429	-69.16088
533.903	-15.03208
534.376	-35.07567
534.849	1.00227
535.322	-17.03931
535.795	-27.06476
536.268	6.01419
536.741	7.01637
537.213	0
537.686	-36.0857
538.158	-56.12431
538.631	-12.0283
539.103	-59.13067
539.575	-31.06308
540.047	-2.00427
540.519	9.02075
540.991	-45.10736
541.463	-14.03338
541.934	-1.00224
542.406	-50.11803
542.877	-6.01319
543.348	-55.12768
543.82	18.04282
544.291	-48.10841
544.762	-32.07445
545.233	5.0124
545.703	18.03892
546.174	12.02735
546.645	42.09945
547.115	14.03301
547.585	80.17935
548.056	54.1288
548.526	20.04602
548.996	20.04681
549.466	-13.03087
549.935	42.0983
550.405	37.07965
550.875	29.06653
551.344	39.09176
551.814	-2.00442
552.283	-1.0021
552.752	49.11024
553.221	-10.02129
553.69	40.08657
554.159	84.20251
554.628	5.01091
555.096	15.03712
555.565	27.0583
556.033	53.12002
556.502	56.13075
556.97	18.03857
557.438	54.12375
557.906	59.13502
558.374	65.14347
558.842	69.15943
559.31	89.18912
559.777	69.16202
560.245	108.23893
560.712	31.06828
561.18	106.22244
561.647	128.27003
562.114	121.26283
562.581	154.36196
563.048	159.34051
563.514	185.43117
563.981	151.32492
564.448	129.27591
564.914	150.32894
565.381	189.39618
565.847	257.55347
566.313	203.44
566.779	267.5614
567.245	290.62493
567.711	293.65238
568.176	362.75628
568.642	323.75245
569.108	314.71143
569.573	303.64411
570.038	352.67046
570.504	382.78213
570.969	329.75494
571.434	432.85087
571.899	407.87759
572.363	442.89104
572.828	393.799
573.293	410.84401
573.757	467.9568
574.222	478.95432
574.686	430.86645
575.15	507.06644
575.614	456.92476
576.078	438.91585
576.542	512.0247
577.006	499.99647
577.469	517.11566
577.933	460.90218
578.396	496.05402
578.86	451.93822
579.323	483.01854
579.786	477.89644
580.249	436.88864
580.712	434.94281
581.175	435.96527
581.637	424.88186
582.1	460.88003
582.563	341.63735
583.025	397.8707
583.487	335.60352
583.95	408.78356
584.412	373.69199
584.874	350.772
585.336	333.72359
585.797	299.58683
586.259	286.60758
586.721	282.61161
587.182	297.62448
587.643	280.58264
588.105	267.5871
588.566	255.49267
589.027	258.5848
589.488	175.37283
589.949	230.51329
590.41	229.41677
590.87	188.39242
591.331	155.30837
591.791	138.29739
592.252	159.34345
592.712	168.37989
593.172	213.44609
593.632	141.28183
594.092	142.29825
594.552	138.27731
595.011	156.34109
595.471	171.35813
595.931	105.22185
596.39	170.38504
596.849	172.37496
597.308	89.18276
597.768	149.36022
598.227	151.3443
598.685	117.24992
599.144	126.27887
599.603	104.2345
600.062	73.14517
600.52	123.26079
600.978	142.32123
601.437	122.26314
601.895	78.15753
602.353	36.07588
602.811	79.16692
603.269	82.18663
603.727	86.19708
604.184	62.13424
604.642	92.21447
605.099	115.25182
605.557	61.14094
606.014	115.23338
606.471	162.38699
606.928	186.38877
607.385	139.32741
607.842	146.32003
608.299	132.2902
608.755	120.27422
609.212	144.30405
609.668	127.2688
610.125	92.21024
610.581	130.2846
611.037	156.33156
611.493	88.19623
611.949	127.29016
612.405	153.28992
612.861	121.26372
613.316	172.38877
613.772	176.3783
614.227	143.31854
614.683	179.35645
615.138	144.3227
615.593	105.22914
616.048	132.27969
616.503	198.45282
616.958	123.29254
617.412	127.28384
617.867	128.2711
618.321	99.18824
618.776	116.24128
619.23	141.315
619.684	189.39109
620.138	127.27057
620.592	87.20005
621.046	81.17946
621.5	101.23197
621.954	143.29856
622.407	182.37399
622.861	33.07579
623.314	139.29691
623.768	112.24737
624.221	144.26613
624.674	53.11512
625.127	94.20848
625.58	57.12038
626.033	80.16402
626.485	58.13212
626.938	35.07919
627.39	116.25438
627.843	90.19495
628.295	38.08418
628.747	53.12026
629.199	106.22981
629.651	4.00879
630.103	95.20732
630.555	34.06791
631.006	5.01127
631.458	6.0134
631.909	42.09102
632.361	-24.0535
632.812	17.0379
633.263	-14.02872
633.714	14.02816
634.165	-4.00914
634.616	1.00227
635.067	29.06022
635.518	2.00451
635.968	32.06041
636.419	0
636.869	29.06527
637.319	20.04423
637.769	16.03452
638.219	3.00676
638.669	17.03915
639.119	9.02098
639.569	20.04686
640.019	29.06369
640.468	-27.05725
640.918	12.02762
641.367	39.08367
641.816	8.01724
642.265	24.05314
642.714	36.08024
643.163	-46.10109
643.612	-2.00471
644.061	-45.09157
644.51	-12.02658
644.958	-10.02122
645.406	-63.14822
645.855	-16.03783
646.303	-7.01566
646.751	-3.00665
647.199	4.00859
647.647	-19.04294
648.095	8.01755
648.543	-37.0719
648.99	-18.04194
649.438	15.03394
649.885	32.0768
650.333	9.01631
650.78	37.08742
651.227	16.03784
651.674	35.07671
652.121	-49.11466
652.568	-20.04725
653.015	-43.10384
653.461	-25.05779
653.908	4.00896
654.354	-31.0708
654.801	-12.02738
655.247	-14.02947
655.693	-13.03302
656.139	-34.0791
656.585	18.04171
657.031	-4.00914
657.477	-12.02529
657.922	21.04695
658.368	-51.12223
658.813	-76.16863
659.259	-23.05394
659.704	-33.07555
660.149	12.02696
660.594	-16.03695
661.039	-17.03785
661.484	1.00231
661.929	12.02696
662.373	-7.01742
662.818	-6.01459
663.262	-35.08186
663.707	-34.0837
664.151	6.01438
664.595	-16.03764
665.039	-39.09425
665.483	19.0473
665.927	-50.11417
666.371	-70.161
666.814	-15.03469
667.258	9.02089
667.701	-9.01837
668.145	-8.01922
668.588	10.02386
669.031	-54.12583
669.474	-47.11049
669.917	-15.03192
670.36	-7.01676
670.803	-22.05141
671.245	-4.00806
671.688	-37.08759
672.13	-57.1245
672.573	5.01239
673.015	-24.05584
673.457	-42.08993
673.899	-22.05151
674.341	-27.06335
674.783	26.06056
675.225	-2.00476
675.666	-59.14005
676.108	-10.02111
676.549	-32.07333
676.991	-84.18094
677.432	-83.15959
677.873	-71.16026
678.314	-8.01847
678.755	41.09661
679.196	-18.04032
679.637	-48.11339
680.078	-23.052
680.518	-43.09555
680.959	-45.10505
681.399	-55.13247
681.839	-5.01177
682.28	-18.04353
682.72	-42.09311
683.16	-21.05111
683.6	-21.04626
684.039	-48.09641
684.479	-48.1155
684.919	-6.01357
685.358	-43.10599
685.798	-54.13796
686.237	-32.07492
686.676	4.0089
687.115	-19.04325
687.554	2.00458
687.993	-78.16578
688.432	1.00223
688.871	-27.0594
689.309	50.11757
689.748	5.00999
690.186	-41.09413
690.625	46.10521
691.063	-20.04712
691.501	37.08814
691.939	-24.05834
692.377	-21.04995
692.815	-15.03529
693.253	-44.10172
693.69	-31.06587
694.128	-15.03576
694.565	4.00924
695.003	-14.03469
695.44	-78.17904
695.877	-1.00229
696.314	-33.06829
696.751	-31.06791
697.188	-14.03135
697.625	-40.08798
698.061	-36.08425
698.498	19.04414
698.934	-29.06717
699.371	-33.07613
699.807	-47.10868
700.243	15.03528
700.679	36.07781
701.115	-8.01801
701.551	35.07955
701.987	-44.09474
702.422	-23.05285
702.858	-62.14305
703.294	-26.05644
703.729	2.00476
704.164	-7.01644
704.599	-31.06625
705.035	-55.12043
705.47	-10.02392
705.904	-54.12201
706.339	-12.02646
706.774	-84.19149
707.209	-75.16859
707.643	-9.0209
708.078	-49.11587
708.512	16.03943
708.946	-28.06453
709.38	-44.10051
709.814	-24.05252
710.248	-56.13121
710.682	-28.06522
711.116	-21.04918
711.549	-56.14034
711.983	-62.13831
712.416	-31.06991
712.85	0
713.283	-48.11035
713.716	-11.02651
714.149	-38.08652
714.582	-10.02162
715.015	-8.01918
715.448	-79.19186
715.881	-23.0471
716.313	-1.00227
716.746	-3.00685
717.178	-69.1612
717.61	-31.07641
718.043	25.05912
718.475	-71.16698
718.907	-65.15756
719.339	-16.03494
719.77	-22.05121
720.202	-51.1252
720.634	-21.04989
721.065	-49.11227
721.497	-24.05707
721.928	-17.04065
722.359	-11.02606
722.79	-26.06018
723.221	-78.1896
723.652	-17.04189
724.083	-22.04745
724.514	-59.12843
724.945	-53.12099
725.375	-19.04269
725.806	-89.21281
726.236	-42.10408
726.666	-37.08375
727.096	-44.1037
727.526	-28.06916
727.956	-32.07
728.386	-82.19326
728.816	-46.11353
729.246	29.06799
729.675	-21.05046
730.105	-7.01644
730.534	-4.00896
730.964	-27.06498
731.393	-42.09856
731.822	23.05655
732.251	-28.06918
732.68	-36.07928
733.109	-37.08841
733.537	2.00462
733.966	-37.08834
734.395	-45.09916
734.823	-43.09209
735.251	-26.06037
735.68	-37.08888
736.108	-75.18357
736.536	11.02468
736.964	-67.1495
737.392	-37.08857
737.82	-9.02054
738.247	-55.12581
738.675	-48.10867
739.102	-24.05858
739.53	-38.09461
739.957	-35.08659
740.384	-8.01861
740.811	-32.07875
741.238	-55.12874
741.665	-4.009
742.092	-68.15502
742.519	-30.07254
742.945	-49.11322
743.372	-12.02867
743.798	-43.10685
744.225	-51.11652
744.651	-35.08423
745.077	-13.03111
745.503	-56.13075
745.929	14.03179
746.355	-48.11265
746.781	-41.09774
747.207	-18.04112
747.632	-19.04489
748.058	-55.13126
748.483	-15.03251
748.908	-32.07656
749.334	-34.08029
749.759	-23.0517
750.184	-49.1124
750.609	-39.09158
751.033	-39.08641
751.458	27.05765
751.883	-32.07562
752.307	29.06583
752.732	0
753.156	-23.05451
753.58	-35.07923
754.005	39.09503
754.429	-53.11787
754.853	-9.02149
755.277	10.02269
755.7	-52.12422
756.124	-7.0169
756.548	-32.07339
756.971	-33.07697
757.394	-50.12472
757.818	17.04226
758.241	-14.03392
758.664	24.05856
759.087	-7.01522
759.51	-46.11043
759.933	0
760.356	-25.06167
760.778	55.13056
761.201	-45.10323
761.623	-12.02727
762.046	-83.18504
762.468	-7.01595
762.89	-2.00471
763.312	-4.00924
763.734	3.00693
764.156	-20.04763
764.578	-45.09787
765	5.01164
765.421	-9.02246
765.843	18.04548
766.264	-12.0274
766.686	19.04599
767.107	58.13473
767.528	42.10271
767.949	-23.05632
768.37	-10.02339
768.791	-13.02986
769.212	9.02206
769.632	-27.06017
770.053	-13.03315
770.473	27.06258
770.894	-55.13111
771.314	-39.08799
771.734	-59.13137
772.154	1.00247
772.575	9.01968
772.994	-20.04351
773.414	-38.08537
773.834	2.00482
774.254	-23.05367
774.673	-4.00924
775.093	13.03098
775.512	-16.03816
775.931	19.04659
776.351	-57.13588
776.77	-10.02356
777.189	-58.13163
777.607	6.01475
778.026	9.0216
778.445	-28.06862
778.864	-44.1084
779.282	-50.11458
779.701	-56.13674
780.119	-51.12386
780.537	-50.12027
780.955	-8.01941
781.373	-37.0879
781.791	-43.09316
782.209	49.10653
782.627	13.0331
783.045	-48.10579
783.462	-12.02922
783.88	1.0025
784.297	-39.09468
784.715	-14.03523
785.132	-36.08359
785.549	47.11316
785.966	17.04059
786.383	57.13353
786.8	-18.03987
787.217	-36.08151
787.633	-23.05535
788.05	-56.12374
788.466	-30.06681
788.883	6.01483
789.299	-44.10063
789.715	24.05582
790.131	-8.01891
790.547	-44.10358
790.963	-1.00237
791.379	-22.05362
791.795	-38.08238
792.21	-18.03986
792.626	-2.0045
793.041	-67.15855
793.457	-37.08729
793.872	7.01564
794.287	-10.02342
794.702	-32.07507
795.117	-44.10443
795.532	-2.00486
795.947	-25.05668
796.362	-17.03815
796.776	-85.18479
797.191	-31.07228
797.605	25.05684
798.02	30.0698
798.434	-2.00414
798.848	-56.13188
799.262	21.05044
799.676	-21.04833
800.09	-11.02566
800.504	-15.03463
800.918	-1.00218
801.331	-17.04243
801.745	-46.10028
802.158	-29.06934
802.572	12.02737
802.985	-35.07958
803.398	8.01805
803.811	-19.04642
804.224	1.00236
804.637	-113.25651
805.05	-7.01532
805.462	-26.06071
805.875	1.00254
806.288	-14.03264
806.7	-41.09897
807.112	-19.04175
807.525	29.06807
807.937	-50.11912
808.349	-30.07164
808.761	-85.19873
809.173	-72.16579
809.584	-27.06328
809.996	-40.09453
810.408	-32.08005
810.819	13.02897
811.231	2.00509
811.642	7.01657
812.053	-27.06256
812.464	-33.07573
812.875	-3.00736
813.286	-49.12114
813.697	-57.12334
814.108	-12.02753
814.519	-17.03532
814.929	-56.13582
815.34	-23.05299
815.75	-32.07808
816.16	-65.15287
816.571	10.02483
816.981	-22.04841
817.391	-32.07333
817.801	25.05978
818.211	-18.04094
818.62	-65.14977
819.03	-41.09481
819.44	-72.18109
819.849	-17.04113
820.259	19.0464
820.668	1.00237
821.077	-33.07885
821.486	-24.05416
821.895	-31.07148
822.304	-16.04082
822.713	-8.01781
823.122	-1.00239
823.531	3.00676
823.939	-2.00464
824.348	-13.03016
824.756	-40.09548
825.164	-30.0715
825.573	-6.01436
825.981	-11.02598
826.389	-27.0638
826.797	1.00239
827.205	-33.0718
827.612	-53.12421
828.02	-12.02701
828.428	-39.09486
828.835	-38.09681
829.243	-16.03594
829.65	-21.05008
830.057	-4.00932
830.464	-21.04939
830.871	-4.009
831.278	-68.15602
831.685	-41.08511
832.092	9.02098
832.499	-39.07983
832.905	-22.0535
833.312	-45.09633
833.718	-43.10192
834.124	11.02364
834.531	-5.01191
834.937	-44.10728
835.343	0
835.749	-21.04577
836.155	-26.06516
836.561	-120.28051
836.966	-53.12343
837.372	-36.08735
837.777	-66.157
838.183	-42.08561
838.588	2.00475
838.993	-31.07083
839.399	-58.13521
839.804	-58.13744
840.209	-8.01965
840.613	-5.01056
841.018	-74.1784
841.423	-66.16122
841.828	-57.13838
842.232	-19.04381
842.637	-55.12135
843.041	10.02487
843.445	-71.16958
843.849	-54.12821
844.253	-9.01997
844.657	9.02176
845.061	-20.04284
845.465	26.06063
845.869	-4.00869
846.272	-29.06727
846.676	-10.02299
847.079	-26.06389
847.483	-10.02361
847.886	-52.11826
848.289	-29.07594
848.692	-39.09429
849.095	-70.15874
849.498	-58.13771
849.901	-10.02129
850.304	-22.0493
850.707	-36.08754
851.109	-79.18825
851.512	-8.01883
851.914	-12.02953
852.316	10.02411
852.718	-32.08051
853.121	-6.01395
853.523	-42.0928
853.925	-54.13631
854.326	15.03606
854.728	-5.01227
855.13	-5.01244
855.531	20.04585
855.933	-54.123
856.334	-35.08401
856.736	-76.1604
857.137	-9.01972
857.538	-50.12072
857.939	8.01888
858.34	-25.05735
858.741	18.04469
859.142	-20.04569
859.542	40.10269
859.943	14.03324
860.343	-44.10515
860.744	9.02083
861.144	2.00461
861.544	5.01156
861.945	-33.07984
862.345	-63.1444
862.745	-17.0402
863.145	-52.11543
863.544	32.07744
863.944	-29.06452
864.344	-52.12156
864.743	11.02578
865.143	-23.05648
865.542	-44.09625
865.941	18.04254
866.34	19.0428
866.74	-14.03606
867.139	-41.09424
867.537	-35.08465
867.936	25.0568
868.335	17.04138
868.734	2.00493
869.132	-31.06874
869.531	-8.01822
869.929	-15.0326
870.327	-10.02266
870.726	-22.05189
871.124	-9.01957
871.522	-80.19447
871.92	-3.00698
872.318	15.03467
872.715	-41.09616
873.113	-18.04175
873.511	-16.038
873.908	6.01479
874.306	-8.01899
874.703	-23.05464
875.1	-50.12163
875.497	-62.14083
875.894	-17.0404
876.291	-6.01407
876.688	-13.03194
877.085	-39.08828
877.482	-46.10905
877.878	-13.02974
878.275	-66.16056
878.671	-55.11172
879.068	7.01586
879.464	20.04559
879.86	-6.0136
880.256	-34.0786
880.652	-41.09968
881.048	-65.15203
881.444	-51.11347
881.84	-64.1554
882.236	-29.06971
882.631	5.01162
883.027	-38.08579
883.422	-37.0904
883.817	-15.03643
884.213	3.00734
884.608	-8.01884
885.003	-1.00229
885.398	-65.15626
885.793	-24.05705
886.188	12.02863
886.582	-55.13242
886.977	-19.04245
887.371	-52.12579
887.766	-29.06953
888.16	-36.08584
888.554	-67.15647
888.949	-82.19476
889.343	-7.0159
889.737	-48.12585
890.131	-24.05771
890.525	6.01451
890.918	16.03849
891.312	-74.16549
891.706	23.05792
892.099	-36.08712
892.492	2.00401
892.886	-65.15102
893.279	-13.03158
893.672	6.01457
894.065	-27.06404
894.458	2.00475
894.851	-14.03186
895.244	-36.0882
895.637	15.03406
896.029	-56.13075
896.422	16.03656
896.814	-14.03314
897.206	4.0091
897.599	-40.09178
897.991	0
898.383	-61.1365
898.775	-27.05702
899.167	-28.06257
899.559	-27.06471
899.951	11.02421
900.342	-52.12417
900.734	-11.0266
901.125	-21.05214
901.517	-4.00935
901.908	-14.03128
902.299	-23.05369
902.69	34.07503
903.082	23.05219
903.473	-13.02982
903.863	-7.01721
904.254	-45.09833
904.645	-37.0862
905.036	3.00698
905.426	-92.19392
905.817	-64.15013
906.207	-56.12802
906.597	-47.10483
906.987	-29.07077
907.378	-44.10571
907.768	-23.05861
908.158	-12.02778
908.547	-42.10461
908.937	-12.02916
909.327	-38.08715
909.717	-35.08382
910.106	-31.07063
910.495	38.08973
910.885	-84.20105
911.274	-4.00953
911.663	46.11094
912.052	-23.05327
912.441	-7.01711
912.83	-51.11002
913.219	-87.21728
913.608	-44.10249
913.997	-45.10785
914.385	-46.10283
914.774	-43.09904
915.162	-67.15141
915.55	-26.05958
915.939	-21.05079
916.327	-29.06879
916.715	-4.0098
917.103	15.03438
917.491	-18.0415
917.878	-59.13583
918.266	-7.01725
918.654	-2.00492
919.041	-71.17931
919.429	13.02892
919.816	-50.12054
920.203	-15.03446
920.591	-58.13627
920.978	-14.0323
921.365	-6.01494
921.752	-9.02034
922.139	12.02433
922.525	-72.1652
922.912	-27.06211
923.299	-14.03323
923.685	-42.1053
924.072	-32.06846
924.458	-18.04237
924.844	-51.12036
925.231	-71.15593
925.617	-31.07678
926.003	-43.10513
926.389	-20.04856
926.774	19.04576
927.16	-49.11542
927.546	-24.0588
927.931	-8.0189
928.317	-82.17588
928.702	-29.06409
929.088	-70.15881
929.473	-21.05102
929.858	-19.04449
930.243	-31.07111
930.628	-5.01144
931.013	16.03796
931.398	-43.09213
931.783	15.0375
932.167	-28.0645
932.552	-39.09169
932.937	-62.14442
933.321	-69.16537
933.705	28.06743
934.09	-32.07568
934.474	-1.00222
934.858	-17.04234
935.242	6.01326
935.626	-48.11716
936.009	-74.19025
936.393	28.06799
936.777	-14.0345
937.16	-61.15058
937.544	-7.0154
937.927	-17.04125
938.311	-10.02282
938.694	10.02514
939.077	-36.08094
939.46	-7.0163
939.843	-33.06265
940.226	-67.16424
940.609	4.00853
940.991	-47.11457
941.374	-39.09004
941.757	0
942.139	-36.07521
942.522	-40.08794
942.904	-31.07083
943.286	-31.0743
943.668	-32.07921
944.05	-3.00698
944.432	-9.02113
944.814	-58.13484
945.196	-49.1156
945.578	-5.01137
945.959	3.00661
946.341	-13.02946
946.722	-16.0355
947.104	-23.0514
947.485	-16.03487
947.866	-6.0145
948.247	-51.1233
948.628	-10.02282
949.009	-39.09599
949.39	-75.17508
949.771	-17.03677
950.152	-6.01401
950.532	-7.01689
950.913	-55.12455
951.293	1.00261
951.674	-61.13931
952.054	-9.02122
952.434	-37.08658
952.814	-41.09054
953.194	29.07209
953.574	-47.10834
953.954	-37.08321
954.334	9.02131
954.714	-49.11425
955.093	-33.07582
955.473	-80.1906
955.853	-6.01486
956.232	-34.08984
956.611	-62.13837
956.99	-31.07464
957.37	-1.00242
957.749	-37.08256
958.128	-13.0315
958.506	-15.03752
958.885	-42.10064
959.264	-29.06764
959.643	6.01276
960.021	-6.0141
960.4	44.09376
960.778	-46.1055
961.156	-30.07158
961.535	-100.21689
961.913	-61.13211
962.291	10.02471
962.669	-7.0169
963.047	-65.15703
963.424	-3.00731
963.802	-28.06455
964.18	-40.0957
964.557	-24.05092
964.935	-8.01771
965.312	-13.03255
965.69	-16.03772
966.067	-43.09856
966.444	-35.0818
966.821	-41.10043
967.198	-21.04726
967.575	-75.17418
967.952	11.02425
968.329	-51.11746
968.705	-54.10631
969.082	3.00736
969.458	-59.13692
969.835	12.02737
970.211	-31.07613
970.587	16.03752
970.963	-8.01945
971.339	14.03509
971.715	-88.2074
972.091	-24.05579
972.467	-40.09314
972.843	-6.0141
973.219	-23.05117
973.594	-16.04005
973.97	-4.00879
974.345	-20.04511
974.721	-11.02491
975.096	-72.16447
975.471	29.06439
975.846	31.0702
976.221	-43.10462
976.596	-58.13244
976.971	-18.04209
977.346	-19.04085
977.72	-51.12404
978.095	9.02214
978.469	14.03136
978.844	14.03307
979.218	-55.12678
979.593	-11.02486
979.967	21.04833
980.341	-23.0493
980.715	-38.09067
981.089	-61.1443
981.463	2.00435
981.837	-42.09853
982.21	-11.02372
982.584	-72.16493
982.957	-3.00716
983.331	-56.12555
983.704	0
984.078	-52.12132
984.451	-52.12022
984.824	-18.0419
985.197	-27.06179
985.57	-61.14469
985.943	-61.14032
986.316	36.08257
986.688	-4.00902
987.061	-60.13169
987.434	-21.05239
987.806	-41.09364
988.179	-38.08407
988.551	-40.09592
988.923	-17.03945
989.295	-26.06142
989.667	31.07088
990.039	-14.03296
990.411	31.06696
990.783	-27.058
991.155	-30.06949
991.527	-32.07283
991.898	-38.08946
992.27	-53.12542
992.641	8.0188
993.012	60.13163
993.384	-56.12694
993.755	-49.11882
994.126	-2.00454
994.497	-32.07445
994.868	10.02149
995.239	-6.01379
995.61	-44.10527
995.98	-17.0395
996.351	-28.06648
996.722	-18.03962
997.092	-9.02031
997.462	-3.00667
997.833	-6.01327
998.203	-27.06142
998.573	-27.06446
998.943	-48.10508
999.313	0
999.683	-50.11265
1000.053	-5.01082
1000.423	-23.05285
1000.792	-19.04708
1001.162	-30.07057
1001.531	0
1001.901	-30.07062
1002.27	-2.00419
1002.639	-8.01951
1003.009	15.03393
1003.378	-30.07336
1003.747	-23.05092
1004.116	-28.06381
1004.485	-15.03402
1004.853	-17.04094
1005.222	23.05531
1005.591	-5.01103
1005.959	33.07
1006.328	-38.07999
1006.696	-20.04598
1007.064	10.02379
1007.433	19.04498
1007.801	-38.08771
1008.169	-76.18266
1008.537	22.04523
1008.905	-67.14906
1009.273	-57.13405
1009.64	-39.08878
1010.008	-38.08537
1010.375	41.09254
1010.743	-23.04849
1011.11	-11.02457
1011.478	-47.11045
1011.845	-29.06307
1012.212	-38.07988
1012.579	21.04858
1012.946	-53.11743
1013.313	0
1013.68	-32.06677
1014.047	16.03633
1014.414	-7.01571
1014.78	-1.00237
1015.147	-43.0969
1015.513	29.0665
1015.88	-28.06709
1016.246	-7.01636
1016.612	-13.02749
1016.978	-52.12074
1017.344	7.01651
1017.71	-54.12221
1018.076	1.0022
1018.442	-23.05607
1018.808	-61.14608
1019.174	-34.08063
1019.539	-11.02286
1019.905	-9.0201
1020.27	-32.07586
1020.636	-17.03828
1021.001	-39.08763
1021.366	17.03908
1021.731	-20.04924
1022.096	-55.13427
1022.461	-22.04837
1022.826	-60.13573
1023.191	-14.03511
1023.556	-57.1245
1023.92	-53.12241
1024.285	-16.03667
1024.649	-17.0394
1025.014	11.02559
1025.378	20.04798
1025.742	-27.06352
1026.107	-62.13045
1026.471	-25.05347
1026.835	-74.17346
1027.199	-28.06422
1027.562	14.03056
1027.926	-46.10635
1028.29	4.00961
1028.654	-39.08341
1029.017	27.06246
1029.381	-10.02262
1029.744	-8.01953
1030.107	-20.04356
1030.471	-45.10157
1030.834	-44.09225
1031.197	-50.11219
1031.56	49.10861
1031.923	-26.06405
1032.286	-12.0262
1032.648	-52.11692
1033.011	-11.02372
1033.374	-11.02383
1033.736	-20.05023
1034.099	-11.02547
1034.461	6.01449
1034.823	-31.07293
1035.185	-22.05169
1035.548	-17.03895
1035.91	36.08111
1036.272	-9.01916
1036.634	-36.0822
1036.995	13.02886
1037.357	11.02522
1037.719	-43.09904
1038.08	-52.11451
1038.442	28.06344
1038.803	-3.00671
1039.165	-24.05771
1039.526	15.03401
1039.887	-11.02497
1040.248	37.08749
1040.609	-23.05367
1040.97	10.02293
1041.331	-32.07565
1041.692	6.01324
1042.053	7.01464
1042.413	32.06822
1042.774	2.00454
1043.134	-29.06417
1043.495	-13.03069
1043.855	19.04322
1044.215	-16.03743
1044.576	-7.01589
1044.936	21.04495
1045.296	10.02335
1045.656	14.03223
1046.016	-48.10819
1046.375	-14.03235
1046.735	-3.00644
1047.095	-34.07516
1047.454	5.00972
1047.814	-65.14737
1048.173	-63.13987
1048.533	6.0129
1048.892	-44.10116
1049.251	14.0331
1049.61	-84.19559
1049.969	1.00223
1050.328	-61.12198
1050.687	-51.1176
1051.046	-4.00926
1051.405	-72.16877
1051.763	-53.11586
1052.122	-2.00477
1052.48	-41.09473
1052.839	-36.08011
1053.197	-36.08011
1053.555	-59.12165
1053.914	2.00458
1054.272	-13.02945
1054.63	-46.10614
1054.988	-38.08509
1055.345	-29.05721
1055.703	-34.07644
1056.061	-31.07619
1056.419	-13.03223
1056.776	-35.07984
1057.134	-30.06504
1057.491	-26.06156
1057.848	-35.08212
1058.206	-60.13341
1058.563	-29.06044
1058.92	-35.07483
1059.277	-58.13356
1059.634	-99.21706
1059.991	4.00903
1060.348	1.00213
1060.704	-50.11334
1061.061	-2.00422
1061.418	-29.06706
1061.774	38.08925
1062.131	11.02834
1062.487	-45.09845
1062.843	-39.09229
1063.199	-15.03557
1063.555	-17.0373
1063.911	-56.13449
1064.267	2.00371
1064.623	15.03463
1064.979	-47.10209
1065.335	-117.26322
1065.691	15.034
1066.046	-75.1536
1066.402	-44.09392
1066.757	-2.00478
1067.112	-52.11974
1067.468	-11.0249
1067.823	14.03162
1068.178	-14.03213
1068.533	-69.15784
1068.888	-49.10942
1069.243	3.00702
1069.598	-55.12475
1069.952	-30.06471
1070.307	-22.0526
1070.662	-45.10157
1071.016	-15.03176
1071.371	-10.02112
1071.725	-68.15
1072.079	-40.09078
1072.434	-79.18304
1072.788	-11.02483
1073.142	14.03266
1073.496	1.00223
1073.85	6.01294
1074.203	2.00453
1074.557	7.01787
1074.911	1.0022
1075.265	-48.10375
1075.618	3.00692
1075.971	-42.09381
1076.325	-35.08487
1076.678	-40.08613
1077.031	-20.04219
1077.385	0
1077.738	-16.03386
1078.091	5.01078
1078.444	-42.09036
1078.796	-21.04914
1079.149	-63.14736
1079.502	-48.10766
1079.855	-26.05738
1080.207	-31.07208
1080.56	-75.1863
1080.912	-41.09292
1081.264	-8.0181
1081.617	-39.09043
1081.969	0
1082.321	-54.12554
1082.673	-14.03036
1083.025	-31.06863
1083.377	-319.6663
1083.728	-78.16881
1084.08	4.00949
1084.432	-85.19091
1084.783	83.18067
1085.135	23.05512
1085.486	-52.11346
1085.838	-46.10774
1086.189	-40.09196
1086.54	-40.09023
1086.891	-3.0073
1087.242	-41.09379
1087.593	-28.06373
1087.944	-16.03367
1088.295	-36.07568
1088.646	-33.07585
1088.996	-77.17663
1089.347	-48.11106
1089.698	-20.04502
1090.048	-36.08853
1090.398	21.04556
1090.749	1.00225
1091.099	-1.00241
1091.449	-53.12479
1091.799	-5.0118
1092.149	-2.00472
1092.499	-33.07658
1092.849	-54.13156
1093.199	-56.13301
1093.548	-52.1195
1093.898	-7.01662
1094.248	-25.06112
1094.597	-34.08425
1094.947	-52.13322
1095.296	-91.21435
1095.645	-46.11395
1095.994	-3.00681
1096.343	31.07427
1096.692	-35.08921
1097.041	-46.12118
1097.39	-13.03074
1097.739	-7.01739
1098.088	-45.11438
1098.437	-46.11678
1098.785	-32.08233
1099.134	-62.15616
1099.482	-51.13424
1099.83	-33.08257
1100.179	-6.01516
1100.527	-35.08846
1100.875	-28.0709
1101.223	3.00766
1101.571	-43.1155
1101.919	-60.15259
1102.267	-7.01924
1102.615	2.00643
1102.962	3.00963
1103.31	6.01926
1103.658	-5.01604
