Data from N3 R6 sample 7_Subt2__1__15-23-25-033.txt Node

Date: Fri Sep 19 15:23:25 PDT 2025
User: uwsun
Spectrometer: HDX01956
Trigger mode: 0
Integration Time (sec): 5.000000E-1
Scans to average: 1
Nonlinearity correction enabled: true
Boxcar width: 0
Storing dark spectrum: false
XAxis mode: Wavelengths
Number of Pixels in Spectrum: 2068
>>>>>Begin Spectral Data<<<<<
194.03	-1.0029
194.578	8.026
195.127	12.03846
195.676	-6.01925
196.225	-33.08771
196.773	0
197.321	19.05291
197.87	26.0671
198.418	68.17592
198.966	89.23346
199.513	79.2008
200.061	11.02809
200.609	25.06611
201.156	-2.00435
201.704	42.10545
202.251	53.14035
202.798	42.10967
203.345	52.12848
203.892	37.09324
204.438	-3.00723
204.985	34.08128
205.532	67.17967
206.078	48.1179
206.624	46.11403
207.17	50.11564
207.716	-23.05605
208.262	-25.04981
208.808	41.10229
209.354	11.02694
209.899	31.07793
210.445	44.11059
210.99	0
211.535	24.05645
212.08	27.06268
212.625	-4.01008
213.17	48.1209
213.715	16.03627
214.259	52.12146
214.804	-3.00741
215.348	42.09571
215.892	40.09629
216.436	83.19124
216.98	22.04818
217.524	33.07797
218.068	54.13523
218.612	18.04493
219.155	32.0751
219.698	16.03775
220.242	46.11362
220.785	22.05149
221.328	67.16576
221.871	82.20476
222.414	28.06847
222.956	18.04362
223.499	27.06044
224.041	-4.00918
224.583	46.09747
225.126	76.168
225.668	34.08243
226.21	43.10739
226.751	2.00432
227.293	11.0248
227.835	25.06051
228.376	48.10836
228.918	41.10255
229.459	74.18445
230	54.12707
230.541	21.04779
231.082	57.13687
231.622	19.04359
232.163	64.15493
232.704	64.15639
233.244	43.10576
233.784	25.0603
234.324	7.01559
234.864	-20.04523
235.404	-22.05187
235.944	-9.02111
236.484	4.00984
237.023	35.08244
237.563	51.11638
238.102	11.02587
238.641	68.17109
239.18	-39.09258
239.719	67.16746
240.258	49.10802
240.797	37.08834
241.335	2.00481
241.874	46.08808
242.412	15.03573
242.95	24.05766
243.488	72.16182
244.026	30.06894
244.564	61.12317
245.102	28.06249
245.64	21.05012
246.177	-1.00222
246.715	-1.00237
247.252	33.07418
247.789	-73.13123
248.326	-22.05248
248.863	-17.03708
249.4	43.09785
249.936	-18.03692
250.473	49.1134
251.009	57.13034
251.546	2.00442
252.082	32.07015
252.618	34.07579
253.154	15.0359
253.69	41.09103
254.226	-8.01902
254.761	12.02642
255.297	21.04589
255.832	42.09783
256.367	41.09503
256.903	31.06693
257.438	-25.05815
257.972	46.1002
258.507	35.08064
259.042	-57.12207
259.576	19.04087
260.111	-6.01377
260.645	60.12836
261.179	7.01617
261.713	-23.0509
262.247	72.1652
262.781	90.18611
263.315	46.11169
263.849	32.07947
264.382	4.0091
264.915	35.08196
265.449	25.06096
265.982	3.00671
266.515	32.07752
267.048	67.14032
267.58	31.06579
268.113	33.07128
268.646	73.17928
269.178	34.07538
269.71	40.08579
270.243	63.14144
270.775	20.05072
271.307	-26.06175
271.838	33.07697
272.37	43.10529
272.902	70.15771
273.433	-17.03693
273.965	74.17968
274.496	12.02937
275.027	10.02459
275.558	41.09838
276.089	65.1614
276.62	16.0403
277.15	62.15043
277.681	-15.03192
278.211	43.10341
278.741	27.05977
279.272	39.08835
279.802	35.087
280.332	54.12613
280.861	56.13311
281.391	19.04266
281.921	-3.00711
282.45	52.13022
282.98	69.17835
283.509	40.08894
284.038	-3.0067
284.567	43.09729
285.096	90.21409
285.625	57.12976
286.153	13.03026
286.682	8.0181
287.21	76.17989
287.739	11.0257
288.267	45.10859
288.795	55.14275
289.323	74.17305
289.851	45.10377
290.378	59.13094
290.906	14.03408
291.433	57.14081
291.961	-8.018
292.488	63.15512
293.015	28.06622
293.542	47.1176
294.069	60.1458
294.596	76.18509
295.122	60.14174
295.649	86.18812
296.175	26.06175
296.702	63.14909
297.228	2.00477
297.754	85.18691
298.28	19.04282
298.806	53.12707
299.332	23.05066
299.857	40.08916
300.383	42.10442
300.908	47.1144
301.433	100.24007
301.958	29.0653
302.483	66.16534
303.008	48.11659
303.533	27.0687
304.058	65.15054
304.582	43.10113
305.107	98.2537
305.631	71.15796
306.155	98.22665
306.679	65.15078
307.203	100.22852
307.727	134.31225
308.251	71.17275
308.775	50.11752
309.298	84.20036
309.822	41.1027
310.345	67.15696
310.868	41.09733
311.391	83.20081
311.914	69.17152
312.437	64.14271
312.96	100.23266
313.482	47.11114
314.005	75.18616
314.527	119.3078
315.049	73.18106
315.571	145.32206
316.093	131.31969
316.615	109.26044
317.137	22.04733
317.659	76.17989
318.18	120.28425
318.702	105.24048
319.223	98.19738
319.744	140.30792
320.265	103.24695
320.786	98.23947
321.307	142.34724
321.828	135.30122
322.348	119.27648
322.869	55.12683
323.389	307.53522
323.909	153.34237
324.43	78.18412
324.95	108.24451
325.47	126.30559
325.989	152.3567
326.509	109.23737
327.029	74.16542
327.548	141.31187
328.067	110.26086
328.587	149.36375
329.106	130.28833
329.625	124.31389
330.144	76.17186
330.662	110.25117
331.181	182.41422
331.7	103.23713
332.218	176.37374
332.736	151.34179
333.255	149.3385
333.773	151.34999
334.291	120.2906
334.808	93.20296
335.326	131.29048
335.844	137.31616
336.361	143.35429
336.879	186.42007
337.396	172.39874
337.913	175.38853
338.43	266.57691
338.947	148.34514
339.464	183.37987
339.981	188.43514
340.497	177.42565
341.014	201.46956
341.53	215.47316
342.046	174.41724
342.562	226.54213
343.078	186.42298
343.594	232.53655
344.11	225.51343
344.626	227.55455
345.141	260.57135
345.657	216.46528
346.172	240.55196
346.687	192.42902
347.202	251.53915
347.717	248.56876
348.232	258.61982
348.747	219.485
349.261	247.52827
349.776	254.56708
350.29	281.66621
350.805	262.61337
351.319	292.64759
351.833	282.61395
352.347	219.48743
352.861	236.52907
353.374	275.5963
353.888	249.57162
354.401	291.63314
354.915	270.58159
355.428	352.8266
355.941	291.64658
356.454	291.61752
356.967	309.6937
357.48	311.67148
357.993	315.73208
358.505	292.68734
359.018	337.76617
359.53	279.63689
360.042	315.64685
360.554	281.64327
361.066	312.71522
361.578	346.71195
362.09	318.71551
362.602	361.74198
363.113	273.59171
363.625	395.83198
364.136	360.73575
364.647	332.72801
365.158	391.84888
365.669	405.91513
366.18	286.62319
366.691	359.7382
367.201	363.80386
367.712	357.74567
368.222	430.91902
368.733	429.86345
369.243	373.75523
369.753	349.7477
370.263	371.8154
370.773	444.00872
371.282	393.8623
371.792	421.88245
372.301	445.99032
372.811	429.02925
373.32	449.8646
373.829	511.09751
374.338	511.01915
374.847	510.04473
375.356	551.18
375.865	540.01698
376.373	585.17081
376.882	568.28363
377.39	597.27756
377.898	636.39306
378.407	652.25545
378.915	624.15997
379.423	733.4824
379.93	740.41223
380.438	867.76972
380.946	795.56467
381.453	861.7138
381.96	926.79172
382.468	989.8915
382.975	1076.09084
383.482	1022.8069
383.989	1082.20888
384.495	1114.98228
385.002	1133.78464
385.509	1201.10398
386.015	1364.90763
386.521	1390.17563
387.028	1512.33442
387.534	1457.12699
388.04	1529.46736
388.546	1593.30257
389.051	1751.36811
389.557	1870.64456
390.063	1948.68716
390.568	1984.78475
391.073	2106.61609
391.578	2149.89401
392.084	2189.53089
392.589	2394.52228
393.093	2600.83528
393.598	2785.64706
394.103	3051.84741
394.607	3372.70171
395.112	3614.81773
395.616	3858.54713
396.12	4096.11495
396.624	4492.93384
397.128	4906.81629
397.632	5371.32879
398.136	5924.08343
398.639	6581.08754
399.143	7413.44767
399.646	8330.14822
400.15	9165.77834
400.653	10320.5352
401.156	11632.56889
401.659	13668.05789
402.162	17433.08108
402.664	25583.40085
403.167	46704.15722
403.67	58858.05428
404.172	55487.84425
404.674	37291.05854
405.176	4428.40989
405.678	533.47942
406.18	0
406.682	0
407.184	6962.89417
407.686	50953.82939
408.187	56834.77229
408.688	37495.19284
409.19	28754.05225
409.691	23692.0673
410.192	20496.94831
410.693	18351.21124
411.194	17173.15014
411.694	15859.16751
412.195	14654.33738
412.696	13652.27729
413.196	13315.84928
413.696	13679.62857
414.196	13500.70586
414.696	12893.90136
415.196	11818.84826
415.696	9657.52164
416.196	7467.05673
416.695	6327.92414
417.195	5827.2156
417.694	5591.49202
418.194	5177.82881
418.693	4984.4252
419.192	4893.74754
419.691	4718.85158
420.19	4593.96881
420.688	4424.3074
421.187	4206.33134
421.685	3814.30597
422.184	3413.5558
422.682	2954.38213
423.18	2594.69256
423.678	2285.61817
424.176	2174.60554
424.674	2036.39111
425.172	1863.57647
425.669	1744.71705
426.167	1615.37492
426.664	1467.21503
427.161	1378.14059
427.659	1292.28003
428.156	1214.81297
428.652	1118.14697
429.149	1102.02114
429.646	983.63666
430.143	964.813
430.639	928.73151
431.135	843.68726
431.632	737.381
432.128	811.60219
432.624	755.60077
433.12	797.4863
433.616	710.27571
434.111	725.44813
434.607	652.3229
435.103	581.01861
435.598	627.07873
436.093	549.09915
436.588	562.08653
437.083	489.96382
437.578	509.00856
438.073	428.94717
438.568	400.87636
439.062	422.79677
439.557	389.81394
440.051	447.89677
440.546	347.72028
441.04	378.80265
441.534	383.88269
442.028	375.81172
442.522	367.80051
443.015	432.83446
443.509	388.86082
444.002	349.78026
444.496	280.55018
444.989	375.83665
445.482	272.62379
445.975	313.65464
446.468	265.52452
446.961	301.58071
447.454	260.53379
447.947	351.76854
448.439	322.72481
448.931	275.57236
449.424	271.62113
449.916	235.52368
450.408	318.66819
450.9	220.49766
451.392	231.54747
451.884	199.42046
452.375	206.47529
452.867	286.58929
453.358	213.4449
453.849	199.39241
454.341	237.49591
454.832	245.48789
455.323	256.5798
455.814	232.49072
456.304	211.4505
456.795	158.33595
457.285	158.32629
457.776	170.35501
458.266	237.52705
458.756	190.42157
459.247	185.41073
459.737	190.42946
460.226	206.43152
460.716	221.49371
461.206	134.30054
461.695	193.45583
462.185	203.44975
462.674	178.37815
463.163	183.37427
463.653	118.23536
464.142	168.37818
464.63	145.33395
465.119	182.39861
465.608	94.20527
466.096	129.2661
466.585	118.25385
467.073	122.2734
467.561	242.5481
468.05	106.23137
468.538	188.43842
469.026	118.2702
469.513	136.26975
470.001	124.2655
470.489	138.30836
470.976	129.2814
471.463	161.38202
471.951	179.42047
472.438	165.36572
472.925	96.21177
473.412	82.1904
473.899	149.32378
474.385	117.27301
474.872	72.16022
475.359	126.29211
475.845	91.1791
476.331	97.19766
476.817	87.20029
477.303	99.21879
477.789	69.15911
478.275	87.20739
478.761	92.21049
479.247	53.11311
479.732	101.24252
480.218	105.26119
480.703	94.22661
481.188	29.05958
481.673	49.10847
482.158	56.1157
482.643	69.16851
483.128	68.14786
483.612	52.11629
484.097	60.14086
484.581	30.06615
485.066	73.1692
485.55	43.08998
486.034	84.17565
486.518	70.15829
487.002	33.07834
487.486	67.15751
487.969	64.15271
488.453	69.16826
488.936	39.08439
489.42	82.17367
489.903	80.19359
490.386	45.09324
490.869	42.08631
491.352	2.00472
491.835	10.01972
492.318	72.15696
492.8	20.03952
493.283	43.10673
493.765	40.09581
494.247	14.03137
494.73	-6.0129
495.212	35.08132
495.694	37.08365
496.175	1.00232
496.657	109.24984
497.139	-66.10774
497.62	15.03489
498.102	16.03885
498.583	-9.02173
499.064	30.06573
499.545	72.15723
500.026	-18.03936
500.507	-46.10368
500.988	5.01197
501.469	-57.13983
501.949	-5.01192
502.43	-23.05337
502.91	-5.01001
503.39	-31.07591
503.87	11.02526
504.35	-44.10059
504.83	35.07415
505.31	-18.04292
505.79	8.01864
506.269	-38.08642
506.749	-67.15073
507.228	-13.02983
507.707	-11.02374
508.187	-15.03464
508.666	-37.08874
509.145	-11.02509
509.623	-16.03664
510.102	7.01643
510.581	-8.01863
511.059	-32.07965
511.538	-67.17054
512.016	9.02108
512.494	-23.05416
512.972	-28.06589
513.45	13.02973
513.928	-18.04285
514.406	-10.02414
514.884	28.07103
515.361	5.0118
515.839	-8.01772
516.316	-41.09627
516.793	-29.0718
517.27	-10.02382
517.747	-3.00755
518.224	-47.10634
518.701	-35.0768
519.178	-4.0099
519.654	-76.1748
520.131	-62.14992
520.607	-43.10486
521.083	-27.06089
521.56	-67.15567
522.036	-32.0692
522.512	-15.03616
522.987	-15.03536
523.463	22.05108
523.939	-11.02636
524.414	-28.06283
524.89	-81.18901
525.365	36.07981
525.84	14.03335
526.315	-61.14413
526.79	-31.068
527.265	-51.11304
527.74	-67.16119
528.215	-9.02083
528.689	12.02625
529.164	-70.14703
529.638	-45.11434
530.112	-19.04455
530.587	10.02107
531.061	-15.03568
531.534	-31.07322
532.008	-31.07367
532.482	-71.15764
532.956	-17.04326
533.429	-84.19644
533.903	-27.0579
534.376	-49.10625
534.849	-29.06631
535.322	-16.03699
535.795	-59.14237
536.268	9.02127
536.741	-31.07302
537.213	-17.03862
537.686	-43.10251
538.158	-65.14455
538.631	-74.17664
539.103	-43.09491
539.575	-1.00202
540.047	-40.08616
540.519	-52.12136
540.991	-31.07376
541.463	-40.09585
541.934	-84.19149
542.406	-71.16828
542.877	-68.15145
543.348	-99.23183
543.82	-24.05755
544.291	-56.12668
544.762	-20.04642
545.233	26.06424
545.703	-26.05675
546.174	-23.05278
546.645	-21.05033
547.115	-29.06895
547.585	10.02274
548.056	1.00241
548.526	-53.12372
548.996	-35.08279
549.466	-59.14135
549.935	15.03529
550.405	-28.06112
550.875	-23.05331
551.344	-18.04282
551.814	-78.17501
552.283	-29.06141
552.752	-72.16599
553.221	-71.15317
553.69	-10.02187
554.159	-5.01226
554.628	26.05649
555.096	-45.11259
555.565	-15.03268
556.033	-23.05289
556.502	-33.0784
556.97	-67.14622
557.438	4.00926
557.906	1.00232
558.374	-8.01793
558.842	-14.03288
559.31	-62.13608
559.777	37.08742
560.245	10.02258
560.712	-74.16658
561.18	5.01073
561.647	-22.04794
562.114	-14.03128
562.581	38.09133
563.048	-15.03333
563.514	51.122
563.981	41.09031
564.448	45.098
564.914	77.17145
565.381	6.01309
565.847	48.10801
566.313	85.18887
566.779	113.24566
567.245	96.21549
567.711	86.19969
568.176	176.38286
568.642	128.30963
569.108	117.2757
569.573	122.26957
570.038	126.25319
570.504	258.54308
570.969	184.43449
571.434	235.48432
571.899	271.6014
572.363	251.52823
572.828	254.53278
573.293	333.69739
573.757	330.69707
574.222	305.63339
574.686	345.70877
575.15	340.74273
575.614	426.86984
576.078	406.85496
576.542	478.96583
577.006	470.94488
577.469	455.99662
577.933	445.87586
578.396	509.07864
578.86	499.02515
579.323	464.98438
579.786	470.88481
580.249	477.96315
580.712	512.09186
581.175	500.09251
581.637	562.13119
582.1	504.95396
582.563	444.80875
583.025	476.02462
583.487	423.74492
583.95	407.78183
584.412	449.81724
584.874	480.02793
585.336	438.93044
585.797	434.82466
586.259	370.77162
586.721	373.79324
587.182	370.76545
587.643	369.75261
588.105	371.79792
588.566	371.69686
589.027	372.82361
589.488	310.64104
589.949	282.62255
590.41	314.55916
590.87	266.54562
591.331	223.43663
591.791	251.52776
592.252	247.52347
592.712	242.53895
593.172	239.49766
593.632	232.45393
594.092	240.49318
594.552	201.39803
595.011	204.4415
595.471	219.45378
595.931	209.43151
596.39	189.42641
596.849	182.39591
597.308	188.37743
597.768	139.33668
598.227	162.36856
598.685	153.32426
599.144	145.31965
599.603	170.37814
600.062	85.16856
600.52	110.23389
600.978	143.32342
601.437	126.27153
601.895	97.19505
602.353	121.25027
602.811	103.21648
603.269	89.20228
603.727	87.19933
604.184	80.17255
604.642	82.19153
605.099	69.15256
605.557	59.13637
606.014	107.21754
606.471	128.30776
606.928	147.30991
607.385	108.25592
607.842	162.35391
608.299	82.18217
608.755	106.24291
609.212	134.28356
609.668	102.21707
610.125	122.27711
610.581	91.20086
611.037	130.27786
611.493	71.15888
611.949	44.10221
612.405	92.17693
612.861	70.15422
613.316	93.21359
613.772	133.28852
614.227	113.25328
614.683	111.22454
615.138	120.27024
615.593	92.20133
616.048	59.12701
616.503	93.21718
616.958	105.25059
617.412	115.25766
617.867	89.19011
618.321	58.11138
618.776	102.21282
619.23	103.23191
619.684	105.22136
620.138	63.13609
620.592	45.10435
621.046	48.10708
621.5	111.25442
621.954	73.15478
622.407	66.13917
622.861	19.04376
623.314	79.17094
623.768	88.19534
624.221	85.15941
624.674	-5.01099
625.127	57.12739
625.58	29.06162
626.033	55.1134
626.485	31.071
626.938	102.22764
627.39	48.10677
627.843	38.08323
628.295	97.21222
628.747	46.10453
629.199	58.12703
629.651	-27.05975
630.103	28.06197
630.555	19.03808
631.006	23.05166
631.458	-20.04489
631.909	24.05221
632.361	-26.05798
632.812	3.00671
633.263	-31.06383
633.714	-29.05891
634.165	-29.06663
634.616	-51.11713
635.067	-17.03567
635.518	11.02475
635.968	45.08469
636.419	-18.03707
636.869	-36.0821
637.319	-41.09182
637.769	-2.00433
638.219	6.01351
638.669	-19.04407
639.119	40.0927
639.569	36.08409
640.019	2.00442
640.468	-67.1433
640.918	-5.01155
641.367	-8.01734
641.816	-5.01081
642.265	10.02221
642.714	10.02241
643.163	-24.0525
643.612	-14.03305
644.061	-88.18083
644.51	11.02425
644.958	-26.05536
645.406	-8.01862
645.855	-48.11418
646.303	24.05336
646.751	37.08129
647.199	-67.14603
647.647	33.07379
648.095	-49.10879
648.543	-69.1351
648.99	7.01623
649.438	-21.04786
649.885	-17.04118
650.333	-42.07712
650.78	6.01426
651.227	14.03312
651.674	-12.02656
652.121	-99.23392
652.568	-22.05199
653.015	-80.19454
653.461	-41.09507
653.908	-16.03599
654.354	-89.20564
654.801	-50.11495
655.247	-20.04216
655.693	-43.1098
656.139	0
656.585	26.06016
657.031	-34.07817
657.477	-30.06348
657.922	7.0157
658.368	-28.06681
658.813	-41.09031
659.259	21.04883
659.704	-17.03879
660.149	-6.01353
660.594	14.03213
661.039	-2.00444
661.484	-13.03012
661.929	4.009
662.373	2.00497
662.818	-4.00972
663.262	-58.13627
663.707	-49.12096
664.151	52.12351
664.595	-33.07788
665.039	-69.1677
665.483	-17.0426
665.927	-36.08197
666.371	-8.01817
666.814	-53.12348
667.258	-19.04435
667.701	2.00407
668.145	-51.12353
668.588	-61.14753
669.031	-20.04629
669.474	-14.0327
669.917	-27.0576
670.36	-46.11098
670.803	-14.03266
671.245	-16.03233
671.688	-60.14267
672.13	-32.06952
672.573	13.03216
673.015	-46.10749
673.457	0
673.899	13.03023
674.341	-32.07516
674.783	9.02103
675.225	-8.01908
675.666	-34.08032
676.108	-22.04658
676.549	-29.06642
676.991	-9.01907
677.432	-30.05694
677.873	-49.1101
678.314	-33.07655
678.755	40.09427
679.196	-20.04482
679.637	-66.15646
680.078	-15.03386
680.518	-75.16776
680.959	-54.12628
681.399	-46.1106
681.839	-48.11396
682.28	-14.03383
682.72	-58.12901
683.16	19.0459
683.6	-44.09738
684.039	-28.05598
684.479	12.02855
684.919	-55.12566
685.358	-22.05402
685.798	-36.09168
686.237	-13.03032
686.676	-4.00892
687.115	-21.04783
687.554	-10.02296
687.993	-52.10989
688.432	-5.01116
688.871	-20.04393
689.309	62.14544
689.748	-8.01604
690.186	-29.06642
690.625	33.07567
691.063	-13.03059
691.501	-17.04091
691.939	-62.15178
692.377	-54.12925
692.815	4.00938
693.253	-43.09939
693.69	-30.06373
694.128	-36.08616
694.565	11.02538
695.003	-7.01732
695.44	-43.09801
695.877	7.01597
696.314	15.03071
696.751	4.0087
697.188	37.08198
697.625	-6.0131
698.061	-45.1055
698.498	23.0534
698.934	-13.03001
699.371	-33.07613
699.807	-22.05062
700.243	24.05634
700.679	25.05416
701.115	-17.03834
701.551	9.02056
701.987	-73.15816
702.422	-30.06903
702.858	-38.08726
703.294	-35.07612
703.729	21.04981
704.164	16.03742
704.599	1.00212
705.035	-20.04347
705.47	50.11821
705.904	-8.01791
706.339	-32.07085
706.774	-27.06084
707.209	-6.0133
707.643	-35.0817
708.078	-35.08254
708.512	-13.03221
708.946	-22.05064
709.38	-43.09821
709.814	-45.09891
710.248	-56.13121
710.682	-26.06054
711.116	-27.0633
711.549	-19.0473
711.983	-58.12928
712.416	-41.09266
712.85	-15.03651
713.283	-14.03197
713.716	15.03598
714.149	-18.04082
714.582	-19.04117
715.015	-6.01438
715.448	-20.04803
715.881	-12.02451
716.313	-20.04559
716.746	-36.08273
717.178	-80.1873
717.61	13.03178
718.043	-40.09577
718.475	-19.04423
718.907	-14.03361
719.339	-40.08779
719.77	8.01851
720.202	-34.08321
720.634	-41.09778
721.065	1.00227
721.497	-8.01896
721.928	-50.12031
722.359	-8.01894
722.79	-30.06949
723.221	-30.07227
723.652	14.0343
724.083	-85.18581
724.514	-80.17492
724.945	-71.16268
725.375	-39.08799
725.806	-64.1523
726.236	-23.0568
726.666	-34.07691
727.096	-34.07998
727.526	-30.07413
727.956	-64.14094
728.386	-57.13369
728.816	-21.05159
729.246	-1.00236
729.675	-11.02638
730.105	-19.04472
730.534	-28.06301
730.964	-36.08679
731.393	-48.11278
731.822	28.06878
732.251	-15.03697
732.68	-97.21635
733.109	-31.07398
733.537	-34.07904
733.966	-54.12934
734.395	-47.10361
734.823	-53.11375
735.251	-47.10959
735.68	-11.02629
736.108	-53.1292
736.536	-2.0045
736.964	-54.12017
737.392	-58.1394
737.82	-28.06414
738.247	-49.11195
738.675	-33.07449
739.102	-4.00973
739.53	-31.07709
739.957	-79.19702
740.384	-39.09129
740.811	6.01466
741.238	-47.10985
741.665	-1.00225
742.092	-36.08154
742.519	-26.06282
742.945	-51.11788
743.372	-53.1276
743.798	-52.12943
744.225	-58.1327
744.651	-75.18187
745.077	-44.10591
745.503	-19.04404
745.929	-31.07103
746.355	-29.0678
746.781	-30.07136
747.207	-34.07792
747.632	-59.14049
748.058	-59.14092
748.483	16.03445
748.908	-51.12246
749.334	-66.15682
749.759	-85.1935
750.184	-21.0479
750.609	-17.03975
751.033	-5.011
751.458	39.08305
751.883	-53.12576
752.307	-3.00685
752.732	-20.04885
753.156	-35.08315
753.58	-10.02252
754.005	-10.02459
754.429	-88.19712
754.853	-23.05506
755.277	7.01589
755.7	-43.10255
756.124	-16.0387
756.548	-50.11509
756.971	-3.00696
757.394	-30.07456
757.818	-41.10299
758.241	-45.10965
758.664	15.03666
759.087	-50.10974
759.51	-42.10076
759.933	-41.0959
760.356	-32.07904
760.778	-21.05058
761.201	-42.09629
761.623	-68.15627
762.046	-63.13987
762.468	-34.07789
762.89	-13.0307
763.312	-45.10484
763.734	-14.03243
764.156	-39.09322
764.578	-38.08252
765	4.00931
765.421	-2.00499
765.843	-29.07389
766.264	-23.05263
766.686	7.01698
767.107	0
767.528	-2.00493
767.949	-48.11808
768.37	-41.09646
768.791	-19.04369
769.212	-16.0394
769.632	-63.14144
770.053	-46.11797
770.473	-29.06796
770.894	-50.11908
771.314	-59.13366
771.734	-73.16302
772.154	-23.05701
772.575	-32.07059
772.994	-47.10283
773.414	-86.1951
773.834	-13.03144
774.254	-19.0443
774.673	-6.01386
775.093	-27.06483
775.512	13.03084
775.931	-1.00246
776.351	-88.21102
776.77	-45.10674
777.189	-74.16849
777.607	-31.07675
778.026	13.03118
778.445	-11.02687
778.864	-37.09103
779.282	-41.09379
779.701	-15.03635
780.119	-59.1435
780.537	-53.12755
780.955	17.04105
781.373	-28.0664
781.791	-14.03014
782.209	5.01097
782.627	-23.05894
783.045	-44.0969
783.462	-35.08561
783.88	-17.04267
784.297	-73.17835
784.715	8.02005
785.132	-43.09998
785.549	24.05803
785.966	-38.09168
786.383	-45.10752
786.8	31.06797
787.217	-17.03834
787.633	-57.13806
788.05	-36.07921
788.466	-15.0333
788.883	0
789.299	-68.15627
789.715	4.00934
790.131	-45.10711
790.547	-54.12737
790.963	-71.17068
791.379	6.01455
791.795	-19.04102
792.21	-39.08673
792.626	-50.11357
793.041	-30.07049
793.457	-41.0968
793.872	-2.00448
794.287	7.01634
794.702	-22.05151
795.117	-88.21062
795.532	-5.01217
795.947	-29.0658
796.362	-28.06298
796.776	-82.17815
797.191	-55.12885
797.605	-7.01602
798.02	8.01869
798.434	-29.06044
798.848	-67.15812
799.262	5.01205
799.676	-70.16267
800.09	-80.18913
800.504	5.0115
800.918	-56.12363
801.331	-6.01494
801.745	-46.10028
802.158	-55.13217
802.572	-28.06437
802.985	-33.075
803.398	-6.01358
803.811	-31.07591
804.224	-35.08305
804.637	-91.20565
805.05	-22.04831
805.462	-21.04898
805.875	21.05311
806.288	-49.11501
806.7	-31.07469
807.112	-32.0705
807.525	4.00943
807.937	-14.03312
808.349	-39.09329
808.761	-58.13489
809.173	-31.0708
809.584	-46.1082
809.996	-9.02114
810.408	-58.14577
810.819	5.01116
811.231	-32.08198
811.642	11.02601
812.053	-10.02309
812.464	13.02956
812.875	-31.07641
813.286	-53.13112
813.697	-44.09494
814.108	-28.06445
814.519	-33.06881
814.929	11.02634
815.34	-17.03912
815.75	-14.03404
816.16	-60.14097
816.571	4.00994
816.981	-70.15558
817.391	-25.05721
817.801	-6.01443
818.211	49.10992
818.62	-66.1521
819.03	-75.1746
819.44	-39.09751
819.849	15.03607
820.259	14.03422
820.668	-24.0572
821.077	-40.0957
821.486	-29.06551
821.895	-72.16738
822.304	-34.08702
822.713	-15.03344
823.122	14.03341
823.531	-2.00451
823.939	47.10795
824.348	19.0438
824.756	12.02836
825.164	-4.00949
825.573	11.02624
825.981	-39.09261
826.389	-1.00235
826.797	-4.00956
827.205	-3.00649
827.612	-6.01393
828.02	-39.08828
828.428	-34.08262
828.835	-31.07888
829.243	-13.02919
829.65	-58.1393
830.057	19.04409
830.464	2.00468
830.871	-45.10215
831.278	-44.10047
831.685	-27.05587
832.092	36.08349
832.499	-45.09224
832.905	-9.02183
833.312	-3.00636
833.718	-1.00235
834.124	-16.03458
834.531	-12.02862
834.937	-20.04854
835.343	0
835.749	9.01949
836.155	-22.0551
836.561	-95.22098
836.966	-44.10229
837.372	-37.08979
837.777	-22.05189
838.183	-87.17914
838.588	10.0237
838.993	-53.12163
839.399	3.00691
839.804	-22.05177
840.209	-12.0295
840.613	11.02315
841.018	-61.1467
841.423	-21.05087
841.828	-14.03371
842.232	-57.13243
842.637	-83.1842
843.041	-16.03998
843.445	-43.10215
843.849	-36.08518
844.253	16.03531
844.657	-18.04374
845.061	11.0234
845.465	12.02806
845.869	-69.15192
846.272	-61.1424
846.676	-15.03452
847.079	-36.08862
847.483	-11.02597
847.886	-19.04292
848.289	28.07261
848.692	-29.06998
849.095	-50.11293
849.498	-21.0495
849.901	-95.206
850.304	-21.04705
850.707	-15.03633
851.109	-36.08508
851.512	5.01174
851.914	-11.02706
852.316	-33.0802
852.718	-14.03511
853.121	-25.05836
853.523	-20.04399
853.925	-39.09818
854.326	7.01685
854.728	-16.03934
855.13	-31.07748
855.531	13.02985
855.933	-24.05434
856.334	-33.07918
856.736	-103.21868
857.137	-20.04393
857.538	-43.10368
857.939	-5.01183
858.34	-38.0874
858.741	6.01493
859.142	-40.09174
859.542	57.1459
859.943	25.05923
860.343	-41.09793
860.744	28.06455
861.144	-13.03005
861.544	-14.0325
861.945	-33.07984
862.345	-41.09356
862.745	-11.02598
863.145	-18.03967
863.544	54.13013
863.944	-50.11173
864.344	-84.19759
864.743	-7.01646
865.143	-38.09358
865.542	-44.09625
865.941	-25.05957
866.34	9.02031
866.74	-15.03864
867.139	-48.11049
867.537	-63.15317
867.936	19.04322
868.335	-2.00489
868.734	26.06375
869.132	-27.05982
869.531	5.01135
869.929	-2.00433
870.327	-45.10269
870.726	-16.0377
871.124	-43.09416
871.522	-47.11354
871.92	7.01626
872.318	-3.00696
872.715	-16.03734
873.113	-13.03012
873.511	-20.04754
873.908	31.07605
874.306	-18.0428
874.703	-5.01184
875.1	-13.03141
875.497	-47.10643
875.894	-24.05711
876.291	26.06059
876.688	-38.09379
877.085	-10.0225
877.482	-53.12581
877.878	-50.11523
878.275	-29.07006
878.671	-74.15097
879.068	-23.05242
879.464	7.016
879.86	-27.06144
880.256	-65.1512
880.652	-15.03629
881.048	-10.02314
881.444	-49.10897
881.84	-41.09912
882.236	-18.04318
882.631	-3.00698
883.027	-73.16598
883.422	-49.11998
883.817	-17.0413
884.213	-53.13103
884.608	-45.10674
885.003	-55.12708
885.398	-38.09088
885.793	-68.163
886.188	-30.07216
886.582	-48.11541
886.977	18.03991
887.371	-40.09654
887.766	-32.07677
888.16	63.14736
888.554	-51.11873
888.949	-56.13234
889.343	-7.0159
889.737	-38.09946
890.131	15.0358
890.525	-6.01454
890.918	40.09577
891.312	-57.12703
891.706	10.02524
892.099	-20.04825
892.492	7.014
892.886	-19.04374
893.279	-46.11245
893.672	-16.03901
894.065	15.03529
894.458	-13.03099
894.851	-61.14016
895.244	2.00487
895.637	8.01819
896.029	-15.03474
896.422	-9.02067
896.814	19.04468
897.206	-17.03883
897.599	-58.13356
897.991	-30.06916
898.383	-32.07118
898.775	-45.09541
899.167	-29.06481
899.559	-19.04547
899.951	-31.06883
900.342	-41.0977
900.734	-1.00241
901.125	-69.17283
901.517	-13.03044
901.908	21.04659
902.299	-42.09841
902.69	-13.02897
903.082	-22.05038
903.473	-17.03903
903.863	-7.01721
904.254	-69.15154
904.645	-31.07214
905.036	-19.04442
905.426	-57.11922
905.817	-29.06756
906.207	-59.13496
906.597	-33.07339
906.987	-46.11261
907.378	-17.04063
907.768	4.01014
908.158	-7.01619
908.547	-24.05958
908.937	-9.02186
909.327	-30.06869
909.717	-50.12008
910.106	-34.07751
910.495	25.05918
910.885	-86.20591
911.274	0
911.663	17.04122
912.052	-49.11407
912.441	-20.04902
912.83	-1.00213
913.219	-12.02956
913.608	0
913.997	-36.08613
914.385	-37.08256
914.774	-40.09207
915.162	-24.05376
915.55	11.02502
915.939	-28.06781
916.327	-24.05687
916.715	-13.0319
917.103	41.09349
917.491	-67.15597
917.878	-64.14749
918.266	2.00492
918.654	19.04659
919.041	-67.16909
919.429	-36.08091
919.816	-42.1011
920.203	-29.06682
920.591	-42.09837
920.978	4.0092
921.365	-53.13314
921.752	0
922.139	34.06857
922.525	-65.14893
922.912	-54.12489
923.299	1.00237
923.685	-19.04744
924.072	-59.12696
924.458	-14.03293
924.844	-88.20917
925.231	-61.13369
925.617	4.00984
926.003	-4.00971
926.389	-4.00968
926.774	-18.04366
927.16	-16.03745
927.546	-24.0588
927.931	-16.03786
928.317	-54.11512
928.702	-38.08414
929.088	-39.08792
929.473	10.02415
929.858	0
930.243	-52.11979
930.628	-76.17633
931.013	-14.03341
931.398	-26.0555
931.783	-22.05537
932.167	-52.12036
932.552	-64.15119
932.937	-58.135
933.321	-77.18482
933.705	10.02416
934.09	-20.04719
934.474	16.03547
934.858	-20.04983
935.242	58.12676
935.626	-58.14183
936.009	-55.14093
936.393	7.01706
936.777	-19.04687
937.16	-54.13313
937.544	-17.03748
937.927	-19.04613
938.311	-30.06872
938.694	-20.05056
939.077	-41.09228
939.46	16.03708
939.843	-60.11467
940.226	-42.10248
940.609	-58.12531
940.991	-23.05582
941.374	-61.14145
941.757	9.02085
942.139	-63.13241
942.522	-13.02842
942.904	5.01134
943.286	-46.11056
943.668	1.00246
944.05	-25.05838
944.432	-14.03289
944.814	-52.12074
945.196	-60.14185
945.578	7.01588
945.959	-14.03095
946.341	-79.18144
946.722	-26.05781
947.104	-15.03347
947.485	-90.1992
947.866	8.01928
948.247	-34.08194
948.628	-42.09648
949.009	-8.01958
949.39	-85.19881
949.771	-28.0607
950.152	-5.01167
950.532	4.00963
950.913	-35.07894
951.293	-34.08939
951.674	-30.06809
952.054	-43.10207
952.434	-67.15769
952.814	-47.10392
953.194	-20.05016
953.574	-49.11299
953.954	-8.01788
954.334	-8.01901
954.714	-38.08841
955.093	-49.11295
955.473	-67.15923
955.853	13.03209
956.232	-10.02632
956.611	-51.11356
956.99	-23.05529
957.37	-33.08026
957.749	-18.04001
958.128	-14.03393
958.506	23.05713
958.885	-23.05491
959.264	-68.15983
959.643	-45.09679
960.021	-64.15207
960.4	15.03217
960.778	-75.17301
961.156	-19.04524
961.535	-76.16399
961.913	-100.21837
962.291	8.01977
962.669	-49.11927
963.047	-48.11559
963.424	9.02187
963.802	-65.15096
964.18	-10.02379
964.557	-43.09161
964.935	9.01986
965.312	-21.05266
965.69	-50.11867
966.067	-50.11477
966.444	6.01391
966.821	-31.07579
967.198	-38.08582
967.575	-13.02982
967.952	7.01544
968.329	-22.05038
968.705	-19.0371
969.082	-23.05674
969.458	-34.07851
969.835	-24.05513
970.211	-15.03673
970.587	7.01644
970.963	-6.01458
971.339	-30.07578
971.715	-59.13827
972.091	1.00231
972.467	-70.16395
972.843	-44.10419
973.219	-9.01997
973.594	-21.05262
973.97	8.01754
974.345	-33.07464
974.721	5.01129
975.096	-45.10223
975.471	45.09958
975.846	24.05443
976.221	-49.11936
976.596	-50.11399
976.971	-45.10579
977.346	-48.10384
977.72	-49.11913
978.095	-16.03955
978.469	20.04475
978.844	-16.03802
979.218	-23.05268
979.593	-14.03166
979.967	15.03456
980.341	-41.08822
980.715	-22.05233
981.089	-24.05637
981.463	-15.03273
981.837	1.00233
982.21	-38.08242
982.584	-46.10482
982.957	-34.08163
983.331	-8.01776
983.704	13.03031
984.078	-51.11896
984.451	-38.08761
984.824	15.03469
985.197	-39.08946
985.57	-35.0826
985.943	-44.10087
986.316	8.01845
986.688	2.0045
987.061	-45.09845
987.434	3.00745
987.806	-16.03636
988.179	-58.12885
988.551	-34.08144
988.923	-47.10972
989.295	2.0047
989.667	-10.02305
990.039	-1.00235
990.411	-9.01961
990.783	-13.02784
991.155	-5.01153
991.527	2.00452
991.898	-24.05634
992.27	-48.11348
992.641	10.0235
993.012	73.15971
993.384	-17.03823
993.755	-45.10904
994.126	-51.1168
994.497	-35.08148
994.868	-27.0585
995.239	-7.0161
995.61	-60.14399
995.98	-22.05116
996.351	-13.03078
996.722	-40.08846
997.092	-27.06114
997.462	-42.09412
997.833	-36.08011
998.203	-37.08433
998.573	3.00712
998.943	-19.04134
999.313	-36.08224
999.683	-37.08314
1000.053	12.02587
1000.423	-6.01374
1000.792	2.00494
1001.162	-13.03048
1001.531	20.04666
1001.901	-27.06352
1002.27	-6.01258
1002.639	-13.03173
1003.009	-13.02957
1003.378	-35.08567
1003.747	-19.04203
1004.116	-22.05007
1004.485	20.04504
1004.853	-14.0337
1005.222	29.06966
1005.591	-40.0889
1005.959	9.01919
1006.328	-14.02931
1006.696	6.01372
1007.064	-7.01671
1007.433	11.02608
1007.801	-30.06914
1008.169	-30.07147
1008.537	47.09608
1008.905	-16.03522
1009.273	42.09687
1009.64	-17.03853
1010.008	-40.0899
1010.375	42.09478
1010.743	-15.03157
1011.11	12.02668
1011.478	-26.06085
1011.845	-54.11807
1012.212	-39.082
1012.579	-72.16963
1012.946	-74.16467
1013.313	-22.0491
1013.68	-32.06677
1014.047	1.00228
1014.414	14.03128
1014.78	5.01186
1015.147	-32.07195
1015.513	-1.00231
1015.88	-21.05025
1016.246	-2.00467
1016.612	20.04199
1016.978	-37.08566
1017.344	28.06579
1017.71	-60.13595
1018.076	-11.02425
1018.442	-18.04384
1018.808	-35.0834
1019.174	-43.10215
1019.539	-26.05422
1019.905	-17.03803
1020.27	-3.00707
1020.636	-6.01348
1021.001	-31.06954
1021.366	-27.06261
1021.731	15.03669
1022.096	-6.01451
1022.461	-30.06607
1022.826	4.00893
1023.191	6.01499
1023.556	-42.09144
1023.92	-40.09215
1024.285	-34.0782
1024.649	-19.04406
1025.014	20.04644
1025.378	-18.04349
1025.742	-42.0991
1026.107	-30.06268
1026.471	-65.14023
1026.835	-50.11665
1027.199	-18.0412
1027.562	22.04794
1027.926	1.00229
1028.29	4.00961
1028.654	-25.05331
1029.017	10.02321
1029.381	-42.09563
1029.744	-8.01953
1030.107	-18.03919
1030.471	-36.08111
1030.834	-70.14761
1031.197	-29.06479
1031.56	-15.03369
1031.923	-7.01718
1032.286	-7.01527
1032.648	-32.07165
1033.011	-40.08679
1033.374	-48.10482
1033.736	-53.1339
1034.099	5.01154
1034.461	-3.00726
1034.823	-84.19967
1035.185	-67.1588
1035.548	-52.11998
1035.91	-4.00909
1036.272	-22.04696
1036.634	-68.15627
1036.995	-12.02678
1037.357	-42.09733
1037.719	-42.09671
1038.08	-55.1212
1038.442	21.04765
1038.803	-47.10604
1039.165	-27.06496
1039.526	-52.1195
1039.887	-1.00227
1040.248	-15.03583
1040.609	-3.00697
1040.97	-45.1043
1041.331	-60.14262
1041.692	-18.03992
1042.053	-61.12951
1042.413	-61.13267
1042.774	-26.05939
1043.134	-54.12012
1043.495	-61.14536
1043.855	-2.00457
1044.215	-9.02103
1044.576	-45.10294
1044.936	48.10215
1045.296	-5.01171
1045.656	6.01383
1046.016	-97.22082
1046.375	2.00461
1046.735	-20.0431
1047.095	-19.04187
1047.454	6.01166
1047.814	-47.10617
1048.173	-30.06615
1048.533	-32.06938
1048.892	-25.05726
1049.251	-12.02851
1049.61	-56.12967
1049.969	1.00223
1050.328	-31.06156
1050.687	-64.14796
1051.046	-9.02085
1051.405	-70.16402
1051.763	-21.0456
1052.122	-55.13257
1052.48	-99.23138
1052.839	-27.05997
1053.197	-22.04881
1053.555	-87.18051
1053.914	-35.08068
1054.272	-9.02037
1054.63	-81.18819
1054.988	-59.13268
1055.345	-91.18214
1055.703	-51.11507
1056.061	-59.14575
1056.419	-27.06712
1056.776	-10.0227
1057.134	-75.16416
1057.491	-15.03544
1057.848	-46.10816
1058.206	-55.12216
1058.563	19.03918
1058.92	-43.09209
1059.277	-62.14288
1059.634	-73.15917
1059.991	2.00452
1060.348	-4.00852
1060.704	-34.07682
1061.061	-92.19809
1061.418	-21.04848
1061.774	6.01418
1062.131	13.03349
1062.487	-87.19203
1062.843	-33.078
1063.199	-5.01183
1063.555	-13.0285
1063.911	-68.16369
1064.267	-98.18638
1064.623	-19.04416
1064.979	-62.1351
1065.335	8.01754
1065.691	-8.01822
1066.046	-41.08332
1066.402	-49.10471
1066.757	9.02148
1067.112	-62.14305
1067.468	-28.0636
1067.823	2.00453
1068.178	34.07729
1068.533	-58.13238
1068.888	-50.11168
1069.243	-9.0211
1069.598	-67.15234
1069.952	-35.07557
1070.307	-27.06461
1070.662	-36.08111
1071.016	-37.07873
1071.371	-25.05298
1071.725	-39.08551
1072.079	-24.05429
1072.434	-65.15018
1072.788	6.0135
1073.142	17.03964
1073.496	-81.18335
1073.85	-36.07831
1074.203	-36.08224
1074.557	-14.03588
1074.911	-25.05541
1075.265	-96.20964
1075.618	14.0322
1075.971	-30.06684
1076.325	-64.15604
1076.678	-88.19143
1077.031	-29.0613
1077.385	-12.02477
1077.738	-32.06795
1078.091	-11.0238
1078.444	-55.11865
1078.796	-17.03975
1079.149	-51.11901
1079.502	-26.05805
1079.855	-20.04408
1080.207	-6.01388
1080.56	-33.08134
1080.912	-74.16883
1081.264	2.00452
1081.617	-21.04852
1081.969	32.07755
1082.321	-44.10209
1082.673	-24.05216
1083.025	-41.09095
1083.377	-288.59742
1083.728	-23.04919
1084.08	28.06612
1084.432	-99.223
1084.783	41.09004
1085.135	22.05274
1085.486	23.04938
1085.838	-42.0983
1086.189	-19.0435
1086.54	-22.04944
1086.891	-8.01948
1087.242	-30.06847
1087.593	-3.00679
1087.944	-29.06119
1088.295	-31.0651
1088.646	-7.01601
1088.996	-78.17896
1089.347	-29.06685
1089.698	-4.00898
1090.048	-62.15319
1090.398	-19.04157
1090.749	-9.02031
1091.099	7.01683
1091.449	-74.17495
1091.799	-25.05921
1092.149	-39.09269
1092.499	-4.00923
1092.849	-61.14881
1093.199	10.02345
1093.548	-62.14277
1093.898	-43.10278
1094.248	-19.0464
1094.597	5.0123
1094.947	-11.02798
1095.296	-32.07451
1095.645	-35.08653
1095.994	-23.05242
1096.343	-6.01448
1096.692	-26.06617
1097.041	-53.13978
1097.39	-19.04498
1097.739	4.00992
1098.088	-19.04807
1098.437	-56.14241
1098.785	-42.10824
1099.134	-54.13582
1099.482	-66.17416
1099.83	-36.09012
1100.179	-21.05321
1100.527	-36.091
1100.875	-73.18633
1101.223	-34.08741
1101.571	-8.02137
1101.919	-35.08861
1102.267	-6.01649
1102.615	7.02249
1102.962	2.00642
1103.31	8.02568
1103.658	-10.03209
