Data from N3 R6 sample 5_Subt2__1__15-22-21-034.txt Node

Date: Fri Sep 19 15:22:21 PDT 2025
User: uwsun
Spectrometer: HDX01956
Trigger mode: 0
Integration Time (sec): 5.000000E-1
Scans to average: 1
Nonlinearity correction enabled: true
Boxcar width: 0
Storing dark spectrum: false
XAxis mode: Wavelengths
Number of Pixels in Spectrum: 2068
>>>>>Begin Spectral Data<<<<<
194.03	-10.02908
194.578	11.03573
195.127	7.02245
195.676	-4.01283
196.225	7.01848
196.773	22.06126
197.321	20.05569
197.87	44.1132
198.418	65.16825
198.966	36.09528
199.513	72.18323
200.061	15.03827
200.609	25.06611
201.156	-40.08779
201.704	-1.00253
202.251	6.01601
202.798	22.05764
203.345	61.15047
203.892	-6.01524
204.438	24.05755
204.985	20.04794
205.532	54.14512
206.078	35.08618
206.624	37.09187
207.17	23.05348
207.716	-10.02431
208.262	2.00396
208.808	30.07499
209.354	19.04647
209.899	-8.02025
210.445	33.0831
210.99	1.00244
211.535	33.07749
212.08	30.06961
212.625	9.02262
213.17	29.07329
213.715	-3.00683
214.259	51.11915
214.804	2.00493
215.348	-21.04846
215.892	2.00485
216.436	71.16398
216.98	32.06994
217.524	-12.0286
218.068	16.04034
218.612	-16.04018
219.155	23.05407
219.698	18.04246
220.242	13.0323
220.785	-2.0047
221.328	42.10438
221.871	90.22441
222.414	-7.01723
222.956	14.03396
223.499	21.04707
224.041	-39.09011
224.583	45.09537
225.126	60.13307
225.668	-6.01466
226.21	21.05266
226.751	-16.03467
227.293	-9.02037
227.835	-29.0709
228.376	16.03636
228.918	20.05021
229.459	39.09783
230	60.14103
230.541	-11.02519
231.082	26.0628
231.622	3.0069
232.163	58.14057
232.704	24.05908
233.244	-16.03978
233.784	22.0531
234.324	74.16255
234.864	34.07604
235.404	38.08855
235.944	32.07445
236.484	-29.07177
237.023	52.12208
237.563	57.12992
238.102	48.11207
238.641	37.09361
239.18	8.01882
239.719	60.15015
240.258	15.0333
240.797	53.12615
241.335	-9.02171
241.874	66.12577
242.412	-14.03353
242.95	27.06483
243.488	9.02049
244.026	45.1031
244.564	53.10721
245.102	42.09346
245.64	28.06674
246.177	8.01773
246.715	27.06352
247.252	8.01808
247.789	-14.02479
248.326	20.04732
248.863	38.08193
249.4	67.15172
249.936	-12.02458
250.473	61.14083
251.009	34.0781
251.546	38.08333
252.082	45.09837
252.618	67.14832
253.154	53.12591
253.69	9.02011
254.226	16.03786
254.761	9.01982
255.297	5.01096
255.832	-39.09229
256.367	33.07661
256.903	0
257.438	14.03232
257.972	20.0438
258.507	24.05542
259.042	-34.07245
259.576	25.0537
260.111	7.01603
260.645	43.09233
261.179	16.03689
261.713	30.06565
262.247	50.11523
262.781	15.03154
263.315	26.06337
263.849	15.03737
264.382	-13.02967
264.915	26.06099
265.449	21.05125
265.982	9.0201
266.515	19.04614
267.048	28.05915
267.58	38.08052
268.113	57.12249
268.646	11.02732
269.178	9.02006
269.71	32.06875
270.243	0
270.775	72.1809
271.307	10.02359
271.838	59.13692
272.37	45.11015
272.902	29.06588
273.433	37.07944
273.965	69.1677
274.496	10.02448
275.027	38.09296
275.558	3.00725
276.089	74.18344
276.62	1.00253
277.15	14.03427
277.681	-9.01912
278.211	39.09386
278.741	38.08393
279.272	31.07034
279.802	33.08206
280.332	24.05639
280.861	31.07404
281.391	-14.03165
281.921	4.00947
282.45	108.26773
282.98	60.15533
283.509	51.11314
284.038	1.00223
284.567	5.0114
285.096	14.03379
285.625	48.10947
286.153	39.09033
286.682	12.02712
287.21	50.11894
287.739	27.06288
288.267	51.12293
288.795	44.11442
289.323	47.11049
289.851	41.09462
290.378	12.02689
290.906	54.13048
291.433	39.09666
291.961	23.05143
292.488	73.17941
293.015	42.09907
293.542	27.0678
294.069	39.09514
294.596	61.14898
295.122	41.09721
295.649	80.17521
296.175	24.05703
296.702	19.04535
297.228	11.02619
297.754	59.13045
298.28	13.02933
298.806	18.04344
299.332	39.08562
299.857	22.04922
300.383	27.06731
300.908	52.12645
301.433	65.15709
301.958	25.05634
302.483	60.15048
303.008	50.12141
303.533	10.02552
304.058	52.12074
304.582	70.16376
305.107	67.17438
305.631	70.15577
306.155	90.20848
306.679	87.20093
307.203	91.20833
307.727	67.15819
308.251	84.20388
308.775	23.05434
309.298	63.15087
309.822	75.1867
310.345	60.14075
310.868	71.16756
311.391	68.16499
311.914	56.13953
312.437	22.04948
312.96	85.19834
313.482	49.11582
314.005	32.08005
314.527	96.2493
315.049	39.09733
315.571	148.32852
316.093	109.26709
316.615	91.21818
317.137	85.18038
317.659	63.14949
318.18	72.17213
318.702	75.17281
319.223	90.1816
319.744	103.2283
320.265	54.13068
320.786	104.25385
321.307	123.30184
321.828	133.29688
322.348	127.2946
322.869	72.16546
323.389	60.11144
323.909	123.27694
324.43	126.29465
324.95	123.27762
325.47	140.33865
325.989	180.4201
326.509	109.23737
327.029	102.2267
327.548	117.26009
328.067	111.26318
328.587	128.3137
329.106	151.33343
329.625	95.24172
330.144	66.14955
330.662	106.24223
331.181	185.4208
331.7	158.35975
332.218	180.3819
332.736	131.29773
333.255	137.312
333.773	177.40814
334.291	157.37755
334.808	128.27726
335.326	124.27536
335.844	169.38752
336.361	165.40715
336.879	141.32137
337.396	175.40546
337.913	146.3261
338.43	260.56462
338.947	168.39024
339.464	158.3298
339.981	217.49937
340.497	203.48576
341.014	164.38591
341.53	200.44154
342.046	208.49553
342.562	236.56503
343.078	182.41422
343.594	242.55856
344.11	227.51778
344.626	258.62664
345.141	215.47694
345.657	205.44262
346.172	243.55852
346.687	207.4611
347.202	232.50038
347.717	242.55567
348.232	232.56011
348.747	196.43615
349.261	282.59856
349.776	210.47311
350.29	240.57351
350.805	223.52606
351.319	272.60575
351.833	256.56043
352.347	185.41466
352.861	264.58842
353.374	285.61666
353.888	216.49915
354.401	266.58183
354.915	276.59374
355.428	269.64194
355.941	279.62147
356.454	246.52716
356.967	276.62382
357.48	300.64925
357.993	290.67732
358.505	315.73815
359.018	296.67855
359.53	298.67765
360.042	218.45747
360.554	286.65405
361.066	271.62636
361.578	332.6853
362.09	325.73021
362.602	310.64449
363.113	270.58558
363.625	320.68513
364.136	291.60404
364.647	308.67881
365.158	308.68051
365.669	360.82093
366.18	290.63137
366.691	314.65222
367.201	339.75447
367.712	321.67583
368.222	386.83285
368.733	368.75108
369.243	319.65388
369.753	347.74374
370.263	307.68383
370.773	380.87631
371.282	399.87435
371.792	399.8404
372.301	391.87991
372.811	409.98711
373.32	404.78636
373.829	459.9986
374.338	461.9317
374.847	426.89076
375.356	472.02774
375.865	445.85895
376.373	519.05433
376.882	548.2434
377.39	555.1983
377.898	575.27543
378.407	552.08807
378.915	580.08979
379.423	690.40903
379.93	677.31148
380.438	664.41714
380.946	744.48167
381.453	763.55301
381.96	853.67898
382.468	950.83385
382.975	1031.02452
383.482	915.6622
383.989	956.00665
384.495	1066.92008
385.002	1084.73113
385.509	1092.96803
386.015	1274.83152
386.521	1336.12296
387.028	1380.21083
387.534	1342.0264
388.04	1394.33299
388.546	1413.15296
389.051	1622.28267
389.557	1736.55461
390.063	1884.64985
390.568	1869.71469
391.073	2050.59349
391.578	2014.82602
392.084	2045.48287
392.589	2205.48544
393.093	2449.81383
393.598	2613.64911
394.103	2842.86649
394.607	3097.76821
395.112	3224.92933
395.616	3440.71097
396.12	3772.2763
396.624	4252.06825
397.128	4528.03077
397.632	5058.48701
398.136	5504.23791
398.639	6027.16379
399.143	7005.2999
399.646	7827.52851
400.15	8514.41803
400.653	9607.03805
401.156	11018.16375
401.659	12718.45477
402.162	16603.64107
402.664	24390.43322
403.167	45679.72952
403.67	58775.78374
404.172	55487.84425
404.674	37291.05854
405.176	4428.40989
405.678	533.47942
406.18	0
406.682	0
407.184	6962.89417
407.686	50953.82939
408.187	52347.79604
408.688	34965.77862
409.19	26949.21046
409.691	22446.4235
410.192	19169.87313
410.693	16911.91491
411.194	15913.49446
411.694	15085.48813
412.195	13468.27816
412.696	12730.66131
413.196	12338.97691
413.696	12472.0416
414.196	12469.32181
414.696	11972.44933
415.196	10657.49829
415.696	8791.03823
416.196	6693.672
416.695	5745.05511
417.195	5418.38371
417.694	5119.67295
418.194	4783.02759
418.693	4544.67066
419.192	4396.02889
419.691	4412.02534
420.19	4254.15862
420.688	4163.44736
421.187	3854.52614
421.685	3606.39769
422.184	3093.64274
422.682	2660.41905
423.18	2424.67376
423.678	2089.55771
424.176	2023.54876
424.674	1801.28837
425.172	1776.5218
425.669	1669.65494
426.167	1498.27906
426.664	1384.14004
427.161	1284.04787
427.659	1192.15731
428.156	1141.74069
428.652	1074.08398
429.149	1028.92131
429.646	901.53344
430.143	938.77524
430.639	887.67162
431.135	794.60702
431.632	712.34228
432.128	735.47763
432.624	671.44848
433.12	713.35699
433.616	670.21602
434.111	657.33275
434.607	627.27934
435.103	618.07314
435.598	549.9654
436.093	508.02654
436.588	510.99978
437.083	484.95509
437.578	467.93603
438.073	342.77045
438.568	427.93018
439.062	396.75244
439.557	377.79093
440.051	400.8112
440.546	373.76975
441.04	358.7635
441.534	387.8912
442.028	326.71305
442.522	314.69261
443.015	301.59968
443.509	364.81161
444.002	311.70077
444.496	274.53916
444.989	341.76615
445.482	286.65405
445.975	245.52014
446.468	258.5115
446.961	259.50472
447.454	217.44984
447.947	274.6097
448.439	275.62498
448.931	293.60738
449.424	239.55131
449.916	228.50882
450.408	273.57933
450.9	185.42148
451.392	255.60154
451.884	212.44665
452.375	171.39729
452.867	191.40196
453.358	139.2951
453.849	196.38676
454.341	202.42595
454.832	160.32493
455.323	207.4735
455.814	188.40148
456.304	157.33913
456.795	184.38902
457.285	163.33624
457.776	192.39899
458.266	171.38549
458.756	176.39164
459.247	145.3246
459.737	140.31967
460.226	143.30373
460.716	200.44874
461.206	75.17025
461.695	176.41705
462.185	151.33817
462.674	161.3433
463.163	118.24489
463.653	105.21007
464.142	139.31476
464.63	150.34512
465.119	145.32005
465.608	118.25637
466.096	125.25808
466.585	112.24126
467.073	75.1697
467.561	170.39067
468.05	86.18851
468.538	168.39332
469.026	151.34346
469.513	85.17061
470.001	87.18777
470.489	113.2538
470.976	95.20873
471.463	120.28699
471.951	105.25021
472.438	91.20481
472.925	53.11797
473.412	94.21775
473.899	111.24316
474.385	91.21343
474.872	50.11177
475.359	70.16408
475.845	73.14429
476.331	36.07438
476.817	48.11137
477.303	63.14028
477.789	99.22692
478.275	53.12717
478.761	30.06949
479.247	76.16139
479.732	87.20946
480.218	65.16287
480.703	72.1743
481.188	3.0062
481.673	35.07771
482.158	45.0932
482.643	19.04683
483.128	18.03956
483.612	55.12292
484.097	73.17095
484.581	19.04199
485.066	30.07013
485.55	31.06504
486.034	39.08237
486.518	76.17165
487.002	10.02384
487.486	39.09219
487.969	72.17154
488.453	44.1078
488.936	7.01525
489.42	51.10875
489.903	61.14814
490.386	55.11371
490.869	8.01657
491.352	56.13085
491.835	22.04327
492.318	37.08126
492.8	-17.03388
493.283	12.02995
493.765	17.0409
494.247	8.01795
494.73	-8.01721
495.212	12.02801
495.694	32.07242
496.175	5.01159
496.657	70.1617
497.139	-54.08786
497.62	42.09718
498.102	24.05819
498.583	-56.13638
499.064	58.12633
499.545	-5.0111
500.026	-25.05474
500.507	3.00669
500.988	-7.0168
501.469	-41.10028
501.949	-35.08391
502.43	-15.03475
502.91	-24.04825
503.39	-6.01462
503.87	-15.03463
504.35	-33.07528
504.83	-22.04719
505.31	-35.08372
505.79	-35.08225
506.269	-7.01582
506.749	-14.03115
507.228	-43.09927
507.707	-14.03024
508.187	-28.06484
508.666	-57.13723
509.145	-34.07792
509.623	3.00684
510.102	-35.08283
510.581	-24.05608
511.059	41.10069
511.538	-37.09368
512.016	34.07926
512.494	-58.13749
512.972	27.06286
513.45	-23.05297
513.928	-26.06199
514.406	-5.01206
514.884	7.01782
515.361	21.04943
515.839	-17.03773
516.316	-46.10812
516.793	-39.09673
517.27	11.0261
517.747	-24.06062
518.224	-53.12007
518.701	-14.03058
519.178	44.10792
519.654	-80.18414
520.131	-49.1182
520.607	-1.00242
521.083	-56.12704
521.56	-17.03911
522.036	-15.03232
522.512	-23.05552
522.987	4.00939
523.463	-10.02337
523.939	-10.02396
524.414	-34.07638
524.89	-40.09259
525.365	25.05555
525.84	22.05233
526.315	-75.17769
526.79	-41.09012
527.265	-48.10633
527.74	-27.06446
528.215	-23.05337
528.689	6.01314
529.164	-68.14276
529.638	-18.04552
530.112	19.04421
530.587	-15.03178
531.061	-30.07156
531.534	-12.02824
532.008	-11.02604
532.482	-100.22336
532.956	-29.07395
533.429	-96.22502
533.903	-34.07302
534.376	-13.02797
534.849	-5.01138
535.322	-43.09994
535.795	-50.12045
536.268	-25.05946
536.741	-45.10629
537.213	-15.03406
537.686	-63.15076
538.158	-50.11085
538.631	-73.17422
539.103	-115.25766
539.575	6.01211
540.047	-5.01069
540.519	-58.13553
540.991	-40.09534
541.463	-19.04535
541.934	-19.04275
542.406	-51.12041
542.877	-57.12666
543.348	-106.24856
543.82	-42.10106
544.291	-42.09474
544.762	-24.05575
545.233	-8.01989
545.703	2.00434
546.174	-51.1177
546.645	-18.04312
547.115	-38.0905
547.585	-30.06878
548.056	16.03844
548.526	-60.14026
548.996	-37.08756
549.466	-20.04756
549.935	23.05403
550.405	-43.09416
550.875	-67.15665
551.344	0
551.814	-59.13186
552.283	-6.01264
552.752	-25.0571
553.221	-44.09437
553.69	21.04563
554.159	3.00734
554.628	-49.10816
555.096	-21.05232
555.565	-47.10309
556.033	-39.08997
556.502	18.04234
556.97	-51.11092
557.438	-35.08164
557.906	-34.07926
558.374	-15.03366
558.842	-19.04467
559.31	-7.01519
559.777	-33.07903
560.245	-8.01813
560.712	-66.14833
561.18	-27.05832
561.647	0
562.114	2.00445
562.581	1.00242
563.048	5.01106
563.514	-3.00725
563.981	-22.0491
564.448	-3.0066
564.914	-15.03404
565.381	-5.01093
565.847	-12.02733
566.313	47.10526
566.779	16.0355
567.245	-14.03213
567.711	46.10766
568.176	68.15132
568.642	23.05674
569.108	10.02405
569.573	10.02261
570.038	34.06977
570.504	32.07071
570.969	59.14269
571.434	56.12006
571.899	66.15271
572.363	48.10553
572.828	72.15709
573.293	91.20078
573.757	103.2284
574.222	108.23414
574.686	40.08783
575.15	56.12967
575.614	78.17184
576.078	74.1672
576.542	98.21527
577.006	92.20107
577.469	52.12356
577.933	52.11182
578.396	122.28081
578.86	91.20447
579.323	62.14305
579.786	49.1018
580.249	83.18274
580.712	73.17075
581.175	41.09841
581.637	98.21862
582.1	61.12798
582.563	5.01012
583.025	71.16639
583.487	11.02147
583.95	29.06079
584.412	62.12395
584.874	52.12184
585.336	47.10834
585.797	-16.03374
586.259	6.01352
586.721	26.05946
587.182	65.14365
587.643	18.03964
588.105	91.20749
588.566	46.09333
589.027	81.1902
589.488	-2.00442
589.949	18.04193
590.41	57.10827
590.87	-10.02179
591.331	54.10996
591.791	27.05957
592.252	49.10834
592.712	67.15462
593.172	85.18306
593.632	22.04519
594.092	57.12197
594.552	83.1689
595.011	73.16241
595.471	65.13932
595.931	94.19909
596.39	97.22296
596.849	70.1559
597.308	124.25262
597.768	92.22481
598.227	116.26636
598.685	57.12334
599.144	140.30895
599.603	157.35016
600.062	97.19181
600.52	151.3182
600.978	196.4385
601.437	182.38749
601.895	212.41499
602.353	203.41216
602.811	235.47952
603.269	257.56416
603.727	242.53716
604.184	239.49788
604.642	265.59664
605.099	325.68004
605.557	250.55584
606.014	331.63859
606.471	360.82722
606.928	432.85367
607.385	372.8363
607.842	473.96515
608.299	434.89341
608.755	446.95197
609.212	475.93006
609.668	452.88859
610.125	522.0872
610.581	490.99098
611.037	535.0414
611.493	520.05372
611.949	537.12321
612.405	559.95472
612.861	561.10662
613.316	565.17248
613.772	571.12111
614.227	632.26299
614.683	641.13821
615.138	574.17024
615.593	575.12791
616.048	562.07718
616.503	607.27155
616.958	619.3287
617.412	616.23552
617.867	606.14769
618.321	544.92284
618.776	524.99085
619.23	610.22854
619.684	594.11615
620.138	533.03355
620.592	529.10645
621.046	557.10953
621.5	520.09167
621.954	504.96795
622.407	493.94203
622.861	438.92396
623.314	472.93534
623.768	512.03416
624.221	489.82612
624.674	426.85168
625.127	447.91831
625.58	401.78293
626.033	470.87872
626.485	378.8051
626.938	391.8203
627.39	444.90618
627.843	397.80346
628.295	415.84681
628.747	369.78337
629.199	388.79046
629.651	330.67566
630.103	356.73385
630.555	333.61901
631.006	340.71378
631.458	275.57975
631.909	329.66919
632.361	257.53943
632.812	288.60596
633.263	273.52365
633.714	245.46653
634.165	272.58715
634.616	209.45493
635.067	230.4562
635.518	224.48188
635.968	277.4916
636.419	234.45459
636.869	239.5147
637.319	233.49229
637.769	254.52006
638.219	214.46117
638.669	244.53642
639.119	173.39031
639.569	231.51882
640.019	215.45366
640.468	174.35271
640.918	207.45785
641.367	158.33024
641.816	224.4603
642.265	193.41225
642.714	236.5042
643.163	128.27098
643.612	227.51067
644.061	203.38975
644.51	178.37864
644.958	181.36799
645.406	215.47832
645.855	189.42902
646.303	216.46108
646.751	219.46271
647.199	158.3279
647.647	203.43793
648.095	188.39678
648.543	177.32639
648.99	231.51179
649.438	248.53443
649.885	204.47348
650.333	147.25707
650.78	230.52304
651.227	193.44077
651.674	165.35168
652.121	128.28909
652.568	178.4043
653.015	121.28312
653.461	187.41396
653.908	182.39271
654.354	132.29154
654.801	154.33956
655.247	130.26497
655.693	149.36753
656.139	166.37092
656.585	156.3516
657.031	175.38546
657.477	179.36144
657.922	204.43886
658.368	158.36353
658.813	100.21374
659.259	161.36398
659.704	128.28353
660.149	114.25073
660.594	157.35002
661.039	141.30366
661.484	152.34062
661.929	138.30199
662.373	173.41634
662.818	116.27562
663.262	107.24329
663.707	111.26592
664.151	151.35179
664.595	52.1207
665.039	102.23993
665.483	170.41153
665.927	121.26674
666.371	121.26764
666.814	108.24362
667.258	172.38639
667.701	108.21462
668.145	134.31323
668.588	141.32798
669.031	126.28318
669.474	153.34562
669.917	101.20947
670.36	114.26669
670.803	159.35829
671.245	67.1328
671.688	126.28886
672.13	87.18422
672.573	163.39213
673.015	115.2602
673.457	176.35905
673.899	145.32835
674.341	77.17699
674.783	128.29215
675.225	105.24501
675.666	90.20749
676.108	134.27399
676.549	91.20338
676.991	108.22303
677.432	113.20701
677.873	112.24333
678.314	116.26113
678.755	172.39495
679.196	146.31598
679.637	128.29203
680.078	115.25267
680.518	64.13905
680.959	103.23343
681.399	97.22688
681.839	110.25319
682.28	128.30097
682.72	100.21513
683.16	153.36024
683.6	152.32263
684.039	98.1902
684.479	85.19936
684.919	138.30301
685.358	122.29155
685.798	108.26802
686.237	94.21464
686.676	108.23524
687.115	119.26332
687.554	56.12689
687.993	102.20828
688.432	160.3448
688.871	129.27447
689.309	202.46086
689.748	109.21261
690.186	137.30328
690.625	130.29228
691.063	136.31066
691.501	182.42142
691.939	142.33441
692.377	122.28216
692.815	139.31719
693.253	135.30097
693.69	83.17198
694.128	133.30803
694.565	131.29496
695.003	128.30893
695.44	121.26663
695.877	110.2458
696.314	153.3034
696.751	157.33026
697.188	153.33078
697.625	120.25505
698.061	85.1942
698.498	162.36572
698.934	137.30682
699.371	111.2487
699.807	154.34184
700.243	161.36784
700.679	135.28561
701.115	133.29074
701.551	132.2941
701.987	114.23712
702.422	93.20871
702.858	88.19696
703.294	89.18846
703.729	157.3626
704.164	152.34595
704.599	103.21371
705.035	113.23865
705.47	160.37019
705.904	94.20596
706.339	99.21321
706.774	131.28564
707.209	106.22941
707.643	137.30897
708.078	139.31668
708.512	166.39776
708.946	116.25963
709.38	71.15842
709.814	102.21726
710.248	107.24269
710.682	147.33057
711.116	56.12916
711.549	72.17626
711.983	69.14975
712.416	50.1109
712.85	93.22178
713.283	74.16597
713.716	154.35956
714.149	100.22133
714.582	123.2584
715.015	67.15831
715.448	61.14424
715.881	49.09871
716.313	73.16329
716.746	83.18619
717.178	42.09598
717.61	85.20503
718.043	74.17332
718.475	39.08975
718.907	42.09976
719.339	52.11192
719.77	85.19366
720.202	58.13951
720.634	83.19322
721.065	92.20481
721.497	71.16574
721.928	70.16459
722.359	49.11475
722.79	-1.0023
723.221	10.02391
723.652	41.09994
724.083	29.06186
724.514	-19.04101
724.945	31.06957
725.375	12.02679
725.806	11.0258
726.236	16.03923
726.666	27.06032
727.096	35.08122
727.526	69.16738
727.956	22.04757
728.386	28.06458
728.816	21.05119
729.246	-2.00472
729.675	41.09736
730.105	45.10459
730.534	34.07553
730.964	6.01435
731.393	47.10838
731.822	46.11261
732.251	69.16744
732.68	46.09956
733.109	61.14301
733.537	16.03683
733.966	2.00474
734.395	-15.03285
734.823	9.01906
735.251	18.04143
735.68	43.10172
736.108	-3.00724
736.536	26.05815
736.964	7.01538
737.392	8.01899
737.82	17.03859
738.247	-6.01359
738.675	35.0779
739.102	27.06528
739.53	13.03207
739.957	-14.0345
740.384	14.03243
740.811	29.07056
741.238	-6.01391
741.665	27.06039
742.092	6.01347
742.519	26.06221
742.945	-8.01833
743.372	27.06402
743.798	23.05646
744.225	11.02482
744.651	-12.02875
745.077	-32.07685
745.503	-14.03242
745.929	-45.10339
746.355	20.04631
746.781	35.08222
747.207	16.0363
747.632	8.0188
748.058	-10.02366
748.483	-17.03686
748.908	-2.00476
749.334	-14.03293
749.759	-16.03591
750.184	-34.07776
750.609	-6.014
751.033	-23.05079
751.458	60.12719
751.883	15.03513
752.307	30.06809
752.732	-20.04885
753.156	2.00472
753.58	2.00449
754.005	17.0416
754.429	-34.07531
754.853	39.09226
755.277	23.05204
755.7	34.07988
756.124	58.13834
756.548	-18.04117
756.971	-1.00232
757.394	24.05906
757.818	18.04474
758.241	-23.05582
758.664	42.10213
759.087	19.0411
759.51	7.01664
759.933	-24.05595
760.356	-2.00491
760.778	29.06918
761.201	-40.09167
761.623	-11.02499
762.046	-33.07281
762.468	-2.00455
762.89	47.10972
763.312	-18.04171
763.734	34.07801
764.156	8.01895
764.578	-32.06941
765	9.02093
765.421	7.01742
765.843	34.08567
766.264	-7.01597
766.686	62.14885
767.107	24.05612
767.528	-3.0074
767.949	-30.07355
768.37	-11.02573
768.791	3.00687
769.212	2.00491
769.632	-42.09389
770.053	-37.09474
770.473	19.04411
770.894	-54.1287
771.314	-20.04495
771.734	-30.0664
772.154	9.02218
772.575	12.02623
772.994	-18.03914
773.414	9.02002
773.834	11.02648
774.254	-95.22481
774.673	12.02762
775.093	27.06417
775.512	-18.04295
775.931	58.1412
776.351	-26.06161
776.77	-11.02592
777.189	-54.12246
777.607	-20.04942
778.026	11.02639
778.445	-36.08836
778.864	6.01465
779.282	-42.0961
779.701	-18.04364
780.119	-26.06285
780.537	-46.11056
780.955	-3.00727
781.373	-23.05449
781.791	8.01714
782.209	42.09144
782.627	-1.00255
783.045	27.05857
783.462	-41.10039
783.88	-5.01252
784.297	-21.05081
784.715	11.02755
785.132	-45.10468
785.549	-10.02434
785.966	-4.00959
786.383	-22.05233
786.8	4.00882
787.217	-28.06329
787.633	-69.16751
788.05	-41.09031
788.466	-36.08028
788.883	14.03454
789.299	-64.14696
789.715	2.00467
790.131	-46.10951
790.547	-52.1226
790.963	15.03547
791.379	-52.12744
791.795	12.02574
792.21	-10.02211
792.626	-3.00675
793.041	-55.12985
793.457	23.05363
793.872	-40.09023
794.287	-28.06581
794.702	-54.12722
795.117	-44.10443
795.532	5.01214
795.947	-35.07952
796.362	-27.06072
796.776	-50.10789
797.191	-22.05121
797.605	2.00457
798.02	21.04895
798.434	-28.05834
798.848	-13.03036
799.262	-5.01207
799.676	4.00916
800.09	-66.15561
800.504	-31.0718
800.918	-28.06145
801.331	-21.05245
801.745	-7.01513
802.158	-50.12004
802.572	29.06591
802.985	-50.11403
803.398	-26.05908
803.811	-6.01462
804.224	-8.01888
804.637	-109.24723
805.05	-43.09483
805.462	-11.02561
805.875	14.03545
806.288	-3.00698
806.7	0
807.112	-43.09495
807.525	2.00472
807.937	-28.06643
808.349	-27.06444
808.761	-59.13724
809.173	-52.11926
809.584	-34.07979
809.996	-31.07313
810.408	-30.07502
810.819	-15.03362
811.231	33.08358
811.642	-20.04758
812.053	-34.07889
812.464	-3.00684
812.875	-2.0049
813.286	-13.03193
813.697	-33.07104
814.108	-89.20735
814.519	-50.10465
814.929	0
815.34	-78.18169
815.75	-33.08053
816.16	-86.20308
816.571	-22.05494
816.981	-70.15558
817.391	-45.10339
817.801	-15.03614
818.211	-36.08217
818.62	-62.14277
819.03	-36.08316
819.44	13.0322
819.849	39.09336
820.259	27.06584
820.668	0
821.077	-46.11018
821.486	-43.09741
821.895	-92.21472
822.304	-49.12573
822.713	-45.10095
823.122	3.00717
823.531	10.02251
823.939	-22.05123
824.348	2.00463
824.756	-20.04756
825.164	-46.10997
825.573	-24.05764
825.981	9.02117
826.389	-41.09714
826.797	-64.15476
827.205	-30.06523
827.612	-39.09115
828.02	-34.07688
828.428	-61.14898
828.835	-23.05844
829.243	-29.06532
829.65	-49.11748
830.057	8.01861
830.464	-27.06357
830.871	-26.05879
831.278	-57.13049
831.685	-52.10821
832.092	11.02564
832.499	-83.1716
832.905	9.02176
833.312	-49.10498
833.718	-30.07093
834.124	18.03862
834.531	-48.11528
834.937	-39.095
835.343	-3.00686
835.749	-25.05454
836.155	-62.15639
836.561	-55.12693
836.966	2.00461
837.372	-41.09957
837.777	-46.10901
838.183	-49.10003
838.588	1.00237
838.993	-71.16352
839.399	-69.1612
839.804	-14.03289
840.209	33.08044
840.613	44.09193
841.018	-59.14183
841.423	-71.17359
841.828	-45.109
842.232	-25.05772
842.637	-114.25463
843.041	18.0447
843.445	-34.08063
843.849	-30.0709
844.253	-9.01997
844.657	-15.03643
845.061	-43.09257
845.465	64.14814
845.869	-28.06112
846.272	-33.07661
846.676	11.02518
847.079	-17.0417
847.483	-23.05443
847.886	-36.08161
848.289	13.0338
848.692	-4.00961
849.095	-93.21188
849.498	-53.12571
849.901	-34.07277
850.304	-99.22537
850.707	-31.07531
851.109	-46.10892
851.512	-10.02355
851.914	-6.01475
852.316	-40.09734
852.718	-48.12112
853.121	-48.11256
853.523	-38.08389
853.925	-9.02253
854.326	-19.04597
854.728	-26.06405
855.13	-63.15837
855.531	-3.00691
855.933	-33.07485
856.334	-23.05508
856.736	-92.19485
857.137	-31.06825
857.538	-60.14514
857.939	0
858.34	-22.05044
858.741	-7.01746
859.142	-45.10331
859.542	8.02065
859.943	36.08511
860.343	-8.01899
860.744	-25.05825
861.144	-36.08359
861.544	-34.07923
861.945	-70.17054
862.345	-86.19803
862.745	-65.15513
863.145	-72.16049
863.544	51.12297
863.944	-54.12076
864.344	-46.1074
864.743	13.03045
865.143	-26.06389
865.542	-84.18529
865.941	22.05195
866.34	2.00452
866.74	-40.10348
867.139	-27.06189
867.537	-38.09196
867.936	-6.01372
868.335	-19.04656
868.734	6.01477
869.132	37.08088
869.531	6.01362
869.929	-17.03696
870.327	-12.0272
870.726	-22.05189
871.124	-72.15862
871.522	-50.12086
871.92	-15.035
872.318	-33.077
872.715	20.04635
873.113	-59.13795
873.511	-13.03086
873.908	5.01232
874.306	8.01893
874.703	-37.08814
875.1	-34.08246
875.497	-53.12017
875.894	-4.00948
876.291	33.07679
876.688	-52.12867
877.085	-51.11572
877.482	-64.15224
877.878	-24.05502
878.275	-41.09927
878.671	-71.14475
879.068	-37.08457
879.464	-37.08532
879.86	-12.02722
880.256	-50.11596
880.652	-62.15133
881.048	-36.08372
881.444	-45.09999
881.84	-98.23947
882.236	5.01194
882.631	14.03248
883.027	-11.0247
883.422	-16.03894
883.817	13.03141
884.213	-27.06643
884.608	-11.02592
885.003	-25.05742
885.398	-70.16844
885.793	-26.06183
886.188	13.03101
886.582	-60.14459
886.977	-25.05592
887.371	-28.06743
887.766	-27.06471
888.16	5.01183
888.554	-48.11168
888.949	-46.1085
889.343	-21.04783
889.737	-18.04695
890.131	-50.12081
890.525	-46.11232
890.918	-3.00724
891.312	-59.13154
891.706	13.0328
892.099	-52.12621
892.492	-19.03824
892.886	-69.16044
893.279	2.00485
893.672	-30.07333
894.065	-26.06166
894.458	-13.03099
894.851	-53.12158
895.244	1.00243
895.637	5.01138
896.029	-26.06035
896.422	13.02973
896.814	-69.16505
897.206	-35.08022
897.599	-58.13356
897.991	-39.09007
898.383	-46.10262
898.775	-23.04853
899.167	-10.02226
899.559	-15.03587
899.951	-34.07553
900.342	-22.05223
900.734	-8.01934
901.125	-40.09967
901.517	14.03261
901.908	-5.01115
902.299	-38.08897
902.69	-29.06484
903.082	23.05219
903.473	-10.02293
903.863	-9.02214
904.254	-58.12708
904.645	-61.14279
905.036	-8.01866
905.426	-58.12134
905.817	-5.01159
906.207	-46.10495
906.597	-20.04436
906.987	-61.14975
907.378	-75.18125
907.768	-14.03562
908.158	9.02075
908.547	-10.02476
908.937	-70.17194
909.327	-34.07792
909.717	-21.05016
910.106	7.01583
910.495	-3.00714
910.885	-68.16226
911.274	-28.06704
911.663	38.09178
912.052	-46.10702
912.441	17.04138
912.83	0
913.219	-51.12654
913.608	-16.03706
913.997	-94.22738
914.385	-64.1436
914.774	-41.09439
915.162	-49.11033
915.55	9.02048
915.939	-4.00964
916.327	12.02824
916.715	-25.06149
917.103	-12.02765
917.491	-39.09029
917.878	-71.16385
918.266	-49.12171
918.654	50.12191
919.041	-58.14614
919.429	-50.1127
919.816	-29.06964
920.203	-50.11569
920.591	-15.03495
920.978	-18.04156
921.365	-29.07253
921.752	-24.0544
922.139	15.03039
922.525	-63.14429
922.912	-27.06211
923.299	16.03775
923.685	-33.0826
924.072	-31.0663
924.458	-3.00704
924.844	-38.08946
925.231	-26.05656
925.617	-11.02714
926.003	-23.05602
926.389	9.02173
926.774	13.03135
927.16	2.00466
927.546	-59.14548
927.931	8.01884
928.317	-40.08502
928.702	-42.09307
929.088	-28.06298
929.473	-49.11967
929.858	16.03721
930.243	-11.02513
930.628	-70.16222
931.013	-39.09351
931.398	-15.03194
931.783	19.04747
932.167	-45.10401
932.552	-50.1178
932.937	-47.10916
933.321	-48.11458
933.705	16.03862
934.09	-14.033
934.474	12.02663
934.858	-12.02986
935.242	17.03748
935.626	-33.08032
936.009	-54.13835
936.393	6.01463
936.777	-4.00984
937.16	-69.17058
937.544	-32.07077
937.927	-22.05344
938.311	-13.02968
938.694	14.03517
939.077	-90.20459
939.46	0
939.843	-23.04356
940.226	-53.12958
940.609	-38.08175
940.991	-75.18378
941.374	-36.08306
941.757	-36.08415
942.139	-40.08364
942.522	24.05205
942.904	11.02492
943.286	-49.11784
943.668	-65.16187
944.05	-25.05838
944.432	-28.06597
944.814	-74.17257
945.196	-23.05399
945.578	-43.09852
945.959	-35.07771
946.341	-38.08656
946.722	4.00884
947.104	-19.04243
947.485	-17.03705
947.866	27.06483
948.247	-31.07466
948.628	-33.07567
949.009	7.01708
949.39	-72.16798
949.771	-33.07162
950.152	17.03951
950.532	-5.01206
950.913	-49.11083
951.293	-27.0709
951.674	-56.12777
952.054	-6.01414
952.434	-60.14103
952.814	-77.17131
953.194	23.05724
953.574	-33.07585
953.954	12.02671
954.334	-24.0572
954.714	-46.10719
955.093	-76.17612
955.473	-60.1424
955.853	-3.00743
956.232	-25.06596
956.611	-44.09783
956.99	-24.05771
957.37	-62.15161
957.749	-74.16638
958.128	0
958.506	-12.03
958.885	-47.11273
959.264	-46.10766
959.643	-9.01921
960.021	-62.14726
960.4	1.00215
960.778	-49.11245
961.156	-34.08119
961.535	-97.21025
961.913	-79.17175
962.291	-35.08719
962.669	-9.02174
963.047	-57.13749
963.424	-31.07591
963.802	-71.16509
964.18	-35.08366
964.557	-12.02539
964.935	-16.03549
965.312	-49.12349
965.69	-28.06617
966.067	-42.09625
966.444	7.01623
966.821	-39.09549
967.198	-81.18454
967.575	-19.04364
967.952	19.04182
968.329	-7.01598
968.705	-56.1103
969.082	-30.0741
969.458	-27.06226
969.835	-58.13414
970.211	-42.10336
970.587	-31.07336
970.963	-30.07323
971.339	3.00753
971.715	-81.19064
972.091	-18.0418
972.467	-80.18774
972.843	-79.18832
973.219	-15.03332
973.594	-41.1031
973.97	-57.12671
974.345	-47.1066
974.721	-45.10261
975.096	-45.10223
975.471	-25.05613
975.846	-3.00684
976.221	-37.08992
976.596	-61.13937
976.971	-12.02803
977.346	-14.03007
977.72	-58.14125
978.095	-9.02222
978.469	-15.0338
978.844	-6.01423
979.218	-38.08729
979.593	15.03372
979.967	9.02076
980.341	-29.06224
980.715	-38.09067
981.089	-60.14191
981.463	-13.02836
981.837	-46.10799
982.21	-10.02156
982.584	-54.12325
982.957	-40.09614
983.331	-1.00222
983.704	-20.04694
984.078	-63.1473
984.451	-62.14362
984.824	-53.12421
985.197	-5.01139
985.57	-19.0447
985.943	-71.16365
986.316	28.06432
986.688	-54.123
987.061	-63.13836
987.434	-6.01493
987.806	-37.08443
988.179	-33.07293
988.551	-15.0358
988.923	-66.15464
989.295	-26.06142
989.667	-22.05084
990.039	-7.01646
990.411	-28.06125
990.783	6.0128
991.155	-20.04624
991.527	-35.07971
991.898	-34.07998
992.27	-27.06357
992.641	-19.04489
993.012	-9.02003
993.384	-37.08355
993.755	-39.09439
994.126	21.0474
994.497	-43.10026
994.868	-7.0151
995.239	-13.02993
995.61	-47.11251
995.98	-30.06988
996.351	-11.02603
996.722	4.00876
997.092	-15.03388
997.462	-16.03566
997.833	-4.00884
998.203	-53.12119
998.573	-31.07407
998.943	-41.08963
999.313	-32.07304
999.683	-69.15606
1000.053	-43.0938
1000.423	-20.04593
1000.792	-10.02474
1001.162	-11.02578
1001.531	-26.06121
1001.901	-55.13011
1002.27	9.01881
1002.639	-48.1179
1003.009	18.04069
1003.378	-23.05617
1003.747	-23.05092
1004.116	-70.16087
1004.485	-30.06825
1004.853	-5.01202
1005.222	-11.02662
1005.591	-15.03316
1005.959	-20.04292
1006.328	-60.12691
1006.696	-18.04137
1007.064	-20.04785
1007.433	-23.05489
1007.801	-27.06219
1008.169	-20.04756
1008.537	-14.02902
1008.905	-17.03743
1009.273	-17.03967
1009.64	-65.14875
1010.008	4.00891
1010.375	13.02951
1010.743	-39.08251
1011.11	-32.0718
1011.478	-48.11282
1011.845	-62.13579
1012.212	-67.14175
1012.579	-16.03728
1012.946	-50.11071
1013.313	-26.05807
1013.68	-37.07728
1014.047	9.02046
1014.414	-4.00897
1014.78	-36.08607
1015.147	-35.07874
1015.513	21.04823
1015.88	-57.13734
1016.246	19.04418
1016.612	-33.07009
1016.978	-26.06006
1017.344	13.03063
1017.71	-45.10165
1018.076	31.06774
1018.442	-28.06832
1018.808	-17.04037
1019.174	-58.13818
1019.539	-51.10695
1019.905	-10.02234
1020.27	-9.02124
1020.636	9.02016
1021.001	-45.10124
1021.366	26.05966
1021.731	-16.03936
1022.096	-62.15156
1022.461	-68.15094
1022.826	-10.02239
1023.191	-46.11603
1023.556	-77.16889
1023.92	-57.13175
1024.285	-28.06432
1024.649	1.00231
1025.014	-14.03273
1025.378	3.00722
1025.742	-29.06826
1026.107	-57.1198
1026.471	-49.10535
1026.835	-60.14026
1027.199	-4.00913
1027.562	-28.06166
1027.926	-9.02065
1028.29	-35.08474
1028.654	-31.06619
1029.017	29.06706
1029.381	-14.0317
1029.744	7.01704
1030.107	-33.07208
1030.471	-10.02241
1030.834	-64.13478
1031.197	-22.04908
1031.56	-9.02019
1031.923	-55.13622
1032.286	-70.15474
1032.648	-37.08293
1033.011	-57.12413
1033.374	-21.0456
1033.736	-60.15178
1034.099	-11.02547
1034.461	-4.00968
1034.823	-70.16594
1035.185	-65.154
1035.548	-22.05046
1035.91	1.00227
1036.272	-17.03625
1036.634	-18.04095
1036.995	-15.0335
1037.357	-23.0531
1037.719	-18.04125
1038.08	-66.14577
1038.442	38.08593
1038.803	-38.08558
1039.165	-19.04564
1039.526	-20.04567
1039.887	7.01583
1040.248	9.0214
1040.609	-4.0093
1040.97	-15.03456
1041.331	-60.14262
1041.692	-55.12292
1042.053	-60.12736
1042.413	-15.0323
1042.774	-48.11013
1043.134	-34.07531
1043.495	-27.06392
1043.855	-8.0183
1044.215	7.0163
1044.576	-41.09371
1044.936	36.07681
1045.296	-58.13723
1045.656	-8.0185
1046.016	-51.11502
1046.375	16.03676
1046.735	-10.0215
1047.095	15.03282
1047.454	-12.02341
1047.814	-44.09933
1048.173	-78.17372
1048.533	-6.01294
1048.892	-46.1058
1049.251	18.04252
1049.61	-59.1367
1049.969	-53.11938
1050.328	-21.0416
1050.687	-22.05044
1051.046	-10.02317
1051.405	-82.19259
1051.763	-39.085
1052.122	-1.00239
1052.48	-49.1134
1052.839	-18.03991
1053.197	-8.0177
1053.555	-90.18686
1053.914	-49.11326
1054.272	-2.00452
1054.63	-49.11313
1054.988	-57.12813
1055.345	-47.09311
1055.703	-31.06966
1056.061	-28.06878
1056.419	-30.07461
1056.776	-27.06149
1057.134	-40.0869
1057.491	-49.11654
1057.848	11.02558
1058.206	-9.0198
1058.563	7.01447
1058.92	-54.11592
1059.277	-82.18973
1059.634	-74.16139
1059.991	-9.02036
1060.348	-58.12505
1060.704	-42.09505
1061.061	-38.08087
1061.418	-20.04616
1061.774	3.00709
1062.131	37.09491
1062.487	-63.13836
1062.843	13.03045
1063.199	12.0283
1063.555	-23.05053
1063.911	-21.0501
1064.267	15.02774
1064.623	-43.10042
1064.979	-43.09332
1065.335	-50.11094
1065.691	15.034
1066.046	-53.108
1066.402	7.01478
1066.757	-49.11824
1067.112	-56.12905
1067.468	0
1067.823	6.01357
1068.178	-20.04596
1068.533	-33.07494
1068.888	-27.06002
1069.243	-24.05643
1069.598	-61.13853
1069.952	9.01925
1070.307	-11.02624
1070.662	10.02232
1071.016	-28.05946
1071.371	-51.1087
1071.725	-78.17242
1072.079	-46.10453
1072.434	-46.10588
1072.788	4.009
1073.142	0
1073.496	-88.19948
1073.85	-39.08489
1074.203	-31.07074
1074.557	12.03061
1074.911	2.00441
1075.265	-44.09502
1075.618	-14.03238
1075.971	-27.06012
1076.325	-31.07512
1076.678	-60.12975
1077.031	-66.14064
1077.385	-13.02684
1077.738	-54.11522
1078.091	-6.01297
1078.444	-38.08168
1078.796	-56.13193
1079.149	-67.15683
1079.502	-19.04236
1079.855	-27.0596
1080.207	-13.03012
1080.56	-66.16367
1080.912	-90.206
1081.264	-25.05675
1081.617	-17.03925
1081.969	6.01461
1082.321	-28.06476
1082.673	-2.00433
1083.025	-91.20397
1083.377	-311.64844
1083.728	-84.18203
1084.08	-7.01664
1084.432	-101.2276
1084.783	28.06166
1085.135	20.04796
1085.486	-46.10024
1085.838	-13.03025
1086.189	-41.09428
1086.54	-28.06301
1086.891	-24.05862
1087.242	-95.21967
1087.593	-14.03177
1087.944	-60.12747
1088.295	-20.0419
1088.646	-31.07123
1088.996	-20.04535
1089.347	-24.05527
1089.698	-51.11554
1090.048	-27.06628
1090.398	-15.03279
1090.749	-56.12756
1091.099	-33.07996
1091.449	-34.07976
1091.799	-31.0735
1092.149	-14.03311
1092.499	-20.04629
1092.849	-50.12172
1093.199	-7.01647
1093.548	-30.06864
1093.898	-21.04998
1094.248	-49.12034
1094.597	2.00492
1094.947	-40.10226
1095.296	-51.11919
1095.645	-16.03942
1095.994	-34.07767
1096.343	-24.0581
1096.692	-23.0585
1097.041	-56.14777
1097.39	-25.05925
1097.739	-9.02237
1098.088	-44.11182
1098.437	-47.11934
1098.785	-43.11084
1099.134	-72.18168
1099.482	-47.12362
1099.83	-12.02991
1100.179	-23.05829
1100.527	-21.05294
1100.875	-57.14508
1101.223	1.00256
1101.571	-17.04547
1101.919	-74.18865
1102.267	1.00275
1102.615	6.01928
1102.962	-7.02249
1103.31	9.02889
1103.658	-7.02246
