Data from N3 R6 sample 9_Subt2__2__15-25-39-030.txt Node

Date: Fri Sep 19 15:25:39 PDT 2025
User: uwsun
Spectrometer: HDX01956
Trigger mode: 0
Integration Time (sec): 5.000000E-1
Scans to average: 1
Nonlinearity correction enabled: true
Boxcar width: 0
Storing dark spectrum: false
XAxis mode: Wavelengths
Number of Pixels in Spectrum: 2068
>>>>>Begin Spectral Data<<<<<
194.03	54.15558
194.578	65.20984
195.127	76.24174
195.676	64.20367
196.225	31.08151
196.773	91.25065
197.321	102.28037
197.87	146.36891
198.418	204.51527
198.966	218.55925
199.513	188.46858
200.061	118.29561
200.609	158.40846
201.156	158.33229
201.704	150.36925
202.251	154.40087
202.798	166.42423
203.345	187.45054
203.892	166.40864
204.438	239.54955
204.985	175.40706
205.532	223.58254
206.078	155.37317
206.624	192.4632
207.17	189.42502
207.716	113.26834
208.262	131.25151
208.808	181.44005
209.354	136.32538
209.899	152.37376
210.445	198.48381
210.99	155.3675
211.535	161.36858
212.08	164.37039
212.625	172.4195
213.17	141.34921
213.715	115.25543
214.259	194.44046
214.804	156.37394
215.348	148.33002
215.892	141.33289
216.436	175.39579
216.98	113.24273
217.524	132.30589
218.068	167.40966
218.612	156.37963
219.155	124.28576
219.698	132.30444
220.242	135.32797
220.785	167.3797
221.328	202.48733
221.871	160.39387
222.414	107.25781
222.956	165.3888
223.499	111.24419
224.041	95.21364
224.583	133.27645
225.126	149.32434
225.668	148.35111
226.21	137.33632
226.751	46.09836
227.293	113.24942
227.835	110.26197
228.376	128.28424
228.918	162.39629
229.459	171.41869
230	135.31266
230.541	100.22391
231.082	129.30551
231.622	135.30247
232.163	158.3757
232.704	149.35832
233.244	186.44533
233.784	127.30042
234.324	152.3284
234.864	97.21411
235.404	109.25044
235.944	131.29882
236.484	112.27001
237.023	179.40979
237.563	126.28318
238.102	154.35206
238.641	175.43182
239.18	160.36519
239.719	169.41456
240.258	118.25637
240.797	164.382
241.335	109.25704
241.874	128.24024
242.412	109.25495
242.95	140.32893
243.488	143.31669
244.026	141.31682
244.564	161.31762
245.102	140.3052
245.64	151.35138
246.177	108.23434
246.715	149.34221
247.252	91.20212
247.789	108.18514
248.326	113.26254
248.863	153.32171
249.4	168.3726
249.936	147.29028
250.473	190.42735
251.009	153.34308
251.546	131.28164
252.082	203.42891
252.618	174.37658
253.154	116.27222
253.69	170.36729
254.226	177.4057
254.761	94.20335
255.297	128.27335
255.832	121.27746
256.367	136.30928
256.903	138.29113
257.438	148.33248
257.972	112.24053
258.507	176.39408
259.042	81.16829
259.576	171.35575
260.111	158.35072
260.645	208.4307
261.179	130.29288
261.713	144.30752
262.247	212.47273
262.781	157.31978
263.315	168.39856
263.849	146.35503
264.382	160.35235
264.915	170.38754
265.449	164.38952
265.982	133.28939
266.515	202.47366
267.048	170.34792
267.58	120.24971
268.113	186.38859
268.646	197.47266
269.178	174.37449
269.71	133.27953
270.243	152.33501
270.775	201.49324
271.307	143.32856
271.838	161.36606
272.37	202.47995
272.902	223.48664
273.433	118.24894
273.965	209.49457
274.496	176.41753
275.027	181.43097
275.558	170.39785
276.089	194.47033
276.62	170.41632
277.15	133.31838
277.681	136.27985
278.211	161.37849
278.741	151.32562
279.272	207.45288
279.802	205.49372
280.332	192.43628
280.861	198.45774
281.391	135.29586
281.921	154.3539
282.45	223.54113
282.98	214.53917
283.509	160.34687
284.038	155.3351
284.567	153.33842
285.096	196.45672
285.625	242.53023
286.153	138.31332
286.682	140.30818
287.21	181.41969
287.739	167.37816
288.267	181.4255
288.795	192.48652
289.323	190.43418
289.851	221.49167
290.378	180.3894
290.906	179.42227
291.433	253.60238
291.961	161.34971
292.488	213.50988
293.015	179.41094
293.542	227.54939
294.069	255.59687
294.596	220.5213
295.122	235.53625
295.649	225.47768
296.175	197.45244
296.702	224.51352
297.228	204.46767
297.754	195.41887
298.28	195.42356
298.806	156.36666
299.332	218.4605
299.857	195.42067
300.383	209.50373
300.908	208.49097
301.433	234.5474
301.958	235.50674
302.483	230.55906
303.008	215.50581
303.533	184.45511
304.058	252.56191
304.582	237.53623
305.107	197.50123
305.631	172.37464
306.155	236.53081
306.679	248.55437
307.203	249.55189
307.727	235.53668
308.251	233.54965
308.775	258.58171
309.298	271.62312
309.822	269.64587
310.345	279.62636
310.868	250.56943
311.391	248.58128
311.914	217.52479
312.437	251.53799
312.96	239.54075
313.482	318.71229
314.005	246.59144
314.527	262.6608
315.049	248.59534
315.571	325.69478
316.093	331.77745
316.615	346.78901
317.137	245.50175
317.659	314.70883
318.18	309.70508
318.702	297.65388
319.223	269.52046
319.744	302.64156
320.265	291.67257
320.786	317.74283
321.307	310.73424
321.828	348.74218
322.348	316.70548
322.869	264.58331
323.389	578.9361
323.909	309.66916
324.43	319.71761
324.95	341.73529
325.47	408.93673
325.989	370.83113
326.509	349.7212
327.029	360.7571
327.548	382.8023
328.067	407.90953
328.587	419.97102
329.106	382.80265
329.625	360.87266
330.144	327.70148
330.662	360.78042
331.181	397.8641
331.7	391.84815
332.218	414.83345
332.736	350.76004
333.255	410.88197
333.773	458.99663
334.291	432.98427
334.808	371.76184
335.326	422.87888
335.844	471.01232
336.361	424.99601
336.879	483.02256
337.396	439.96361
337.913	449.93988
338.43	510.04661
338.947	480.04387
339.464	487.94229
339.981	500.08329
340.497	551.22821
341.014	525.14601
341.53	534.09448
342.046	524.17011
342.562	547.22933
343.078	510.08147
343.594	582.24998
344.11	596.2559
344.626	641.44202
345.141	620.2573
345.657	575.1412
346.172	563.20886
346.687	552.1396
347.202	618.22069
347.717	631.33354
348.232	607.35877
348.747	640.29083
349.261	652.2705
349.776	583.21097
350.29	675.47577
350.805	634.37349
351.319	661.35126
351.833	627.26312
352.347	632.28401
352.861	608.25652
353.374	628.25731
353.888	635.34259
354.401	701.39042
354.915	785.50223
355.428	727.57952
355.941	740.48872
356.454	709.36572
356.967	733.5
357.48	774.50364
357.993	734.56196
358.505	790.67613
359.018	776.60492
359.53	778.5947
360.042	713.33135
360.554	791.62247
361.066	780.61751
361.578	753.40618
362.09	787.59829
362.602	774.44155
363.113	785.51382
363.625	868.63695
364.136	821.50166
364.647	844.64918
365.158	812.60304
365.669	859.75892
366.18	780.51963
366.691	862.57087
367.201	865.713
367.712	858.59198
368.222	972.83255
368.733	942.67201
369.243	864.55228
369.753	921.72818
370.263	894.74702
370.773	967.96601
371.282	965.86063
371.792	983.80407
372.301	1067.06498
372.811	1041.20584
373.32	1066.75065
373.829	1126.10039
374.338	1107.90753
374.847	1128.99281
375.356	1190.19942
375.865	1274.97766
376.373	1313.19247
376.882	1319.52611
377.39	1362.43764
377.898	1442.62611
378.407	1474.29106
378.915	1517.21291
379.423	1630.63401
379.93	1628.4573
380.438	1735.85911
380.946	1865.77635
381.453	1991.95661
381.96	2065.95068
382.468	2214.03827
382.975	2281.22094
383.482	2358.8138
383.989	2409.50319
384.495	2467.95746
385.002	2667.52435
385.509	2741.02593
386.015	2930.311
386.521	3088.74116
387.028	3196.80676
387.534	3279.49008
388.04	3274.00442
388.546	3439.56203
389.051	3768.35579
389.557	3959.60868
390.063	4350.40387
390.568	4304.55527
391.073	4451.11792
391.578	4724.36348
392.084	4804.74894
392.589	5173.4763
393.093	5618.63381
393.598	6186.21554
394.103	6674.38624
394.607	7249.42125
395.112	7644.74837
395.616	8187.13079
396.12	8820.00721
396.624	9849.547
397.128	10685.47288
397.632	11838.40395
398.136	12679.80561
398.639	13871.75935
399.143	16016.16638
399.646	17909.69062
400.15	19860.03639
400.653	22314.1867
401.156	25328.8871
401.659	29414.97674
402.162	36937.67511
402.664	53297.79263
403.167	61180.09172
403.67	61009.11914
404.172	55487.84425
404.674	37291.05854
405.176	4428.40989
405.678	533.47942
406.18	0
406.682	0
407.184	6962.89417
407.686	50953.82939
408.187	59237.6763
408.688	61091.12691
409.19	61923.45898
409.691	53550.81275
410.192	45638.50521
410.693	40506.00896
411.194	37731.18784
411.694	35702.6863
412.195	32241.81423
412.696	29966.48936
413.196	28649.36855
413.696	28893.88955
414.196	28855.64109
414.696	27820.07523
415.196	25579.62103
415.696	21426.16791
416.196	16560.3125
416.695	13682.68773
417.195	12842.74317
417.694	12169.84999
418.194	11320.38943
418.693	10625.49129
419.192	10404.42086
419.691	10332.14978
420.19	9966.88011
420.688	9759.18775
421.187	9192.93205
421.685	8350.24633
422.184	7441.41819
422.682	6415.94152
423.18	5680.43045
423.678	5161.64176
424.176	4838.84629
424.674	4547.75842
425.172	4180.39171
425.669	3908.9103
426.167	3589.6072
426.664	3293.63511
427.161	3007.70985
427.659	2944.16654
428.156	2672.4163
428.652	2529.30472
429.149	2428.06106
429.646	2282.53927
430.143	2156.92331
430.639	2122.84471
431.135	1921.9155
431.632	1854.55485
432.128	1745.71317
432.624	1642.81789
433.12	1619.42264
433.616	1658.28156
434.111	1553.519
434.607	1475.44077
435.103	1368.91935
435.598	1368.90359
436.093	1283.13976
436.588	1249.02499
437.083	1180.95159
437.578	1123.91163
438.073	1043.00884
438.568	1073.01454
439.062	1015.64027
439.557	969.76675
440.051	951.68585
440.546	903.64118
441.04	837.59805
441.534	892.84422
442.028	870.68241
442.522	827.62621
443.015	801.40979
443.509	859.71695
444.002	801.62158
444.496	742.29856
444.989	828.6721
445.482	720.50027
445.975	745.4077
446.468	692.23184
446.961	689.20464
447.454	698.29009
447.947	722.45513
448.439	719.48459
448.931	659.25283
449.424	612.30434
449.916	611.25342
450.408	689.32777
450.9	633.30914
451.392	642.39794
451.884	591.1397
452.375	565.20795
452.867	574.10447
453.358	537.03934
453.849	498.91313
454.341	581.12145
454.832	579.06201
455.323	551.17085
455.814	538.05993
456.304	529.04974
456.795	545.05939
457.285	495.94494
457.776	469.91441
458.266	528.10118
458.756	458.95936
459.247	465.97208
459.737	498.05276
460.226	521.01361
460.716	467.99009
461.206	401.84981
461.695	481.07018
462.185	434.91512
462.674	445.89029
463.163	424.81979
463.653	445.82024
464.142	362.78241
464.63	427.92781
465.119	420.87355
465.608	336.69605
466.096	413.79756
466.585	337.69078
467.073	366.77887
467.561	422.92065
468.05	312.65125
468.538	398.88961
469.026	353.76998
469.513	363.68183
470.001	336.68639
470.489	312.67205
470.976	386.79604
471.463	312.71867
471.951	338.76922
472.438	298.64217
472.925	275.58383
473.412	274.61197
473.899	342.71259
474.385	274.61955
474.872	271.5781
475.359	276.62077
475.845	258.48782
476.331	229.45263
476.817	195.43923
477.303	257.54918
477.789	226.50478
478.275	278.63832
478.761	244.54115
479.247	218.44858
479.732	226.52972
480.218	224.54509
480.703	235.55135
481.188	212.41755
481.673	219.46758
482.158	198.39604
482.643	202.48106
483.128	153.32667
483.612	160.34983
484.097	217.49378
484.581	149.32034
485.066	175.39741
485.55	145.29655
486.034	216.43845
486.518	162.35944
487.002	179.41291
487.486	144.33344
487.969	205.4759
488.453	201.47803
488.936	132.27994
489.42	154.32103
489.903	173.41129
490.386	166.33465
490.869	128.25792
491.352	123.28363
491.835	136.26029
492.318	144.30912
492.8	131.25212
493.283	161.39099
493.765	112.26458
494.247	96.2115
494.73	107.22449
495.212	120.27411
495.694	75.16825
496.175	77.17593
496.657	185.41756
497.139	51.08053
497.62	92.21075
498.102	98.23429
498.583	86.20387
499.064	194.41034
499.545	100.21707
500.026	47.10135
500.507	50.11048
500.988	78.18419
501.469	37.08918
501.949	71.16678
502.43	85.19303
502.91	49.09685
503.39	114.2716
503.87	111.24982
504.35	65.14533
504.83	92.19247
505.31	95.22159
505.79	95.21758
506.269	64.14254
506.749	94.20449
507.228	6.01372
507.707	87.18382
508.187	37.08457
508.666	14.03325
509.145	31.07011
509.623	29.0658
510.102	30.0701
510.581	65.14923
511.059	84.20465
511.538	27.06758
512.016	85.19616
512.494	35.08148
512.972	110.25188
513.45	11.02516
513.928	39.09183
514.406	64.1523
514.884	78.19611
515.361	83.19299
515.839	-20.04441
516.316	22.05102
516.793	48.11716
517.27	66.15495
517.747	82.2032
518.224	36.08008
518.701	62.13327
519.178	58.14189
519.654	-46.10516
520.131	4.00955
520.607	18.04339
521.083	7.01568
521.56	-1.00229
522.036	31.06613
522.512	56.13316
522.987	60.13938
523.463	84.19265
523.939	9.02149
524.414	51.11257
524.89	5.01147
525.365	50.11053
525.84	67.158
526.315	-10.02339
526.79	19.04124
527.265	-19.04183
527.74	7.0166
528.215	48.10982
528.689	64.13845
529.164	-30.06245
529.638	23.05773
530.112	21.04885
530.587	19.03995
531.061	3.00711
531.534	31.07234
532.008	16.03768
532.482	-55.12171
532.956	48.12073
533.429	-48.11146
533.903	21.04457
534.376	32.06819
534.849	-11.02506
535.322	11.02529
535.795	9.02144
536.268	31.07293
536.741	-13.03051
537.213	43.0965
537.686	17.04006
538.158	-26.05735
538.631	4.00941
539.103	-12.02632
539.575	22.04423
540.047	-4.00855
540.519	30.06889
540.991	-14.0332
541.463	19.04502
541.934	-10.02246
542.406	-6.01404
542.877	25.0546
543.348	-53.12299
543.82	23.05466
544.291	-36.08111
544.762	23.05293
545.233	69.16914
545.703	16.03461
546.174	17.0387
546.645	59.13924
547.115	15.03536
547.585	105.23419
548.056	68.16176
548.526	27.06204
548.996	60.13932
549.466	30.07065
549.935	35.08203
550.405	23.04966
550.875	36.08247
551.344	22.05193
551.814	13.02862
552.283	16.03355
552.752	58.13024
553.221	-16.03411
553.69	84.18009
554.159	74.17874
554.628	40.08665
555.096	49.12051
555.565	49.1053
556.033	19.04332
556.502	23.05405
556.97	-15.03237
557.438	55.12602
557.906	11.02542
558.374	-17.03817
558.842	40.09295
559.31	4.00866
559.777	-10.02384
560.245	-21.04771
560.712	-36.08041
561.18	11.02357
561.647	1.00217
562.114	-49.11028
562.581	63.1507
563.048	0
563.514	-2.00483
563.981	-11.02449
564.448	82.17717
564.914	-4.00906
565.381	-4.00874
565.847	43.09686
566.313	5.01129
566.779	64.14059
567.245	58.13121
567.711	54.12618
568.176	71.1579
568.642	55.13487
569.108	67.15941
569.573	36.08097
570.038	122.24538
570.504	90.19645
570.969	75.18084
571.434	77.16433
571.899	122.27913
572.363	85.18542
572.828	114.24652
573.293	97.21375
573.757	140.30805
574.222	150.32228
574.686	139.29884
575.15	176.39781
575.614	116.25352
576.078	147.32718
576.542	205.44016
577.006	222.47183
577.469	212.48815
577.933	136.28716
578.396	215.48566
578.86	177.39068
579.323	182.40986
579.786	186.37462
580.249	167.3612
580.712	195.44516
581.175	186.4341
581.637	195.42627
582.1	140.2886
582.563	160.31246
583.025	236.53516
583.487	120.22811
583.95	114.23447
584.412	189.36673
584.874	163.37361
585.336	170.38221
585.797	175.35352
586.259	138.30263
586.721	158.35174
587.182	130.2834
587.643	162.34596
588.105	134.30288
588.566	139.27603
589.027	146.33847
589.488	76.1654
589.949	115.26275
590.41	153.28383
590.87	74.15838
591.331	106.2133
591.791	59.1293
592.252	34.07541
592.712	61.14094
593.172	93.19994
593.632	52.10608
594.092	92.19536
594.552	88.17887
595.011	52.1162
595.471	102.21688
595.931	36.07721
596.39	15.03504
596.849	52.11624
597.308	75.1545
597.768	65.15963
598.227	125.28651
598.685	57.12334
599.144	58.13019
599.603	45.10269
600.062	34.06823
600.52	55.11835
600.978	97.22144
601.437	55.12033
601.895	42.08553
602.353	23.04862
602.811	45.09579
603.269	67.15296
603.727	90.20608
604.184	15.0328
604.642	62.14539
605.099	27.06022
605.557	21.04891
606.014	73.14957
606.471	88.21319
606.928	125.2648
607.385	126.29754
607.842	121.26663
608.299	98.21699
608.755	115.26306
609.212	138.29177
609.668	107.22747
610.125	103.23485
610.581	88.19436
611.037	89.19192
611.493	44.09901
611.949	66.15265
612.405	99.19007
612.861	69.15205
613.316	92.21134
613.772	152.3284
614.227	135.30122
614.683	150.30072
615.138	121.27244
615.593	38.08411
616.048	47.10144
616.503	62.14567
616.958	88.2107
617.412	62.14043
617.867	124.26286
618.321	59.11328
618.776	77.16155
619.23	125.28018
619.684	92.19451
620.138	87.18696
620.592	22.05125
621.046	78.17292
621.5	48.11141
621.954	35.07483
622.407	78.16405
622.861	27.06209
623.314	120.25738
623.768	120.26459
624.221	107.19958
624.674	25.05463
625.127	108.23883
625.58	5.01068
626.033	79.16201
626.485	29.06645
626.938	85.19037
627.39	78.17242
627.843	8.01763
628.295	40.08857
628.747	61.13819
629.199	78.17011
629.651	0
630.103	34.07516
630.555	-11.0222
631.006	44.0984
631.458	-31.06974
631.909	25.05437
632.361	0
632.812	23.05121
633.263	-12.0246
633.714	-49.09999
634.165	-49.11304
634.616	-18.04107
635.067	38.07876
635.518	-41.09322
635.968	40.07537
636.419	4.0082
636.869	7.01583
637.319	5.01109
637.769	26.05598
638.219	-15.03391
638.669	26.05977
639.119	20.04653
639.569	45.10492
640.019	-30.0667
640.468	-56.11949
640.918	-20.04633
641.367	-45.09829
641.816	32.06861
642.265	9.01999
642.714	14.03135
643.163	-14.03056
643.612	-39.09251
644.061	-40.08131
644.51	32.07023
644.958	1.00212
645.406	3.00697
645.855	-29.06873
646.303	22.04894
646.751	-21.0467
647.199	-70.15267
647.647	34.07601
648.095	-1.0022
648.543	-27.05234
648.99	16.03703
649.438	31.06991
649.885	17.04091
650.333	-40.07341
650.78	41.0968
651.227	4.00948
651.674	-13.02878
652.121	-57.13358
652.568	-15.0354
653.015	-21.0505
653.461	-23.05314
653.908	11.02461
654.354	-7.01591
654.801	-10.02281
655.247	21.04386
655.693	-51.13041
656.139	-8.01852
656.585	9.02089
657.031	8.01824
657.477	27.05642
657.922	16.03581
658.368	-37.08844
658.813	-54.11927
659.259	-62.14652
659.704	-2.00455
660.149	6.0135
660.594	-6.01383
661.039	-18.04009
661.484	0
661.929	-7.01579
662.373	43.10603
662.818	37.08925
663.262	-51.11966
663.707	-50.12345
664.151	-7.01681
664.595	-11.02585
665.039	-51.12353
665.483	-18.04511
665.927	-17.03856
666.371	-43.09836
666.814	-24.0556
667.258	-20.0467
667.701	-1.00204
668.145	-13.03126
668.588	0
669.031	-20.04629
669.474	-17.03973
669.917	-6.01274
670.36	-41.09882
670.803	-26.0608
671.245	-14.02828
671.688	-34.08044
672.13	-56.12229
672.573	44.10824
673.015	-39.09101
673.457	13.0275
673.899	0
674.341	-15.03511
674.783	-1.00234
675.225	20.04745
675.666	-22.05185
676.108	14.02941
676.549	-43.09876
676.991	-53.11341
677.432	-41.07803
677.873	-27.06039
678.314	0
678.755	-20.04769
679.196	-39.08774
679.637	-13.0305
680.078	-44.0999
680.518	-16.03535
680.959	-38.08859
681.399	-42.10091
681.839	-8.01885
682.28	-11.02656
682.72	-64.14254
683.16	-3.00728
683.6	-18.03962
684.039	-54.10861
684.479	-46.11064
684.919	-49.11182
685.358	-50.12341
685.798	-39.09937
686.237	-44.10326
686.676	13.02889
687.115	1.00227
687.554	14.03199
687.993	-62.13131
688.432	-2.00446
688.871	-20.04393
689.309	75.17549
689.748	-31.06248
690.186	-6.01368
690.625	16.03681
691.063	-1.00235
691.501	-8.01922
691.939	-7.01696
692.377	1.00237
692.815	11.02575
693.253	-59.13681
693.69	-46.09807
694.128	29.06855
694.565	9.02077
695.003	-6.01485
695.44	-37.08423
695.877	11.02508
696.314	10.02049
696.751	-35.07674
697.188	-6.01341
697.625	-37.08133
698.061	-31.07248
698.498	12.02792
698.934	-47.10924
699.371	-27.06221
699.807	8.0183
700.243	0
700.679	41.08853
701.115	-30.06784
701.551	46.10432
701.987	-59.12745
702.422	-23.05285
702.858	-74.17115
703.294	-20.04336
703.729	-16.03822
704.164	-36.08504
704.599	-29.06195
705.035	-39.08511
705.47	29.06884
705.904	-35.07877
706.339	-28.06195
706.774	-53.12007
707.209	-60.13446
707.643	-19.04421
708.078	-12.02817
708.512	5.01235
708.946	-36.0831
709.38	-67.15376
709.814	-40.08783
710.248	-49.11466
710.682	-20.04651
711.116	-38.08928
711.549	-67.16824
711.983	-61.13605
712.416	-34.07673
712.85	0
713.283	-45.10339
713.716	-7.01686
714.149	-50.11412
714.582	6.01293
715.015	5.01196
715.448	-10.02397
715.881	-50.10302
716.313	43.09678
716.746	-8.01828
717.178	-46.10698
717.61	-20.0492
718.043	-47.11269
718.475	-34.07939
718.907	-44.10624
719.339	-27.0591
719.77	-11.02555
720.202	18.04362
720.634	11.02597
721.065	-42.0961
721.497	-9.02134
721.928	15.03565
722.359	-27.06417
722.79	-37.08583
723.221	-19.04568
723.652	1.00246
724.083	-12.02583
724.514	-24.05185
724.945	-16.03625
725.375	-31.06983
725.806	-61.14508
726.236	-18.04441
726.666	-45.10203
727.096	-49.1156
727.526	-23.05676
727.956	-63.13871
728.386	-61.14318
728.816	-12.02943
729.246	-26.06161
729.675	-50.12081
730.105	-30.07076
730.534	-21.04719
730.964	-37.08922
731.393	-39.09147
731.822	17.04184
732.251	15.03677
732.68	-60.1328
733.109	-33.07879
733.537	-39.09076
733.966	-38.09074
734.395	-63.13935
734.823	-56.12027
735.251	-12.02779
735.68	17.04042
736.108	-25.06062
736.536	-28.06332
736.964	-1.0022
737.392	-66.15887
737.82	-30.06875
738.247	-54.1235
738.675	-30.06767
739.102	10.02425
739.53	46.11278
739.957	-35.08659
740.384	-21.04898
740.811	-8.0196
741.238	-32.07457
741.665	26.05817
742.092	12.02691
742.519	11.02639
742.945	-61.14128
743.372	19.04512
743.798	-13.03213
744.225	-20.04541
744.651	-15.03596
745.077	-24.05755
745.503	-40.0931
745.929	-24.05491
746.355	-43.10081
746.781	-34.08094
747.207	-6.01367
747.632	1.00235
748.058	-27.06409
748.483	-45.09816
748.908	-59.14189
749.334	-20.0471
749.759	-36.08114
750.184	-30.06856
750.609	-28.06561
751.033	-40.08864
751.458	23.04915
751.883	-16.0377
752.307	-13.02976
752.732	-17.0415
753.156	-38.09033
753.58	-60.13651
754.005	-13.03199
754.429	-73.16302
754.853	0
755.277	-26.05942
755.7	-10.0237
756.124	19.04566
756.548	-13.0297
756.971	15.03466
757.394	15.03697
757.818	-8.01998
758.241	-45.10965
758.664	-3.00736
759.087	33.07116
759.51	2.00476
759.933	-24.05595
760.356	-11.02706
760.778	64.15166
761.201	-26.05942
761.623	-37.0845
762.046	-62.13762
762.468	-2.00455
762.89	32.07492
763.312	-28.06502
763.734	-24.05571
764.156	23.05432
764.578	-16.03458
765	-23.05382
765.421	19.04718
765.843	28.07063
766.264	-7.01597
766.686	21.05081
767.107	37.0863
767.528	6.01477
767.949	-8.01953
768.37	-27.06335
768.791	-13.02986
769.212	43.10474
769.632	-23.05121
770.053	-16.04082
770.473	-45.10579
770.894	-32.07595
771.314	-67.15203
771.734	-41.09095
772.154	44.10772
772.575	-34.07503
772.994	-30.0654
773.414	-28.06277
773.834	-10.02417
774.254	-5.01163
774.673	-40.09303
775.093	37.08776
775.512	-11.02621
775.931	3.00738
776.351	-24.05685
776.77	5.01175
777.189	-35.07906
777.607	-21.0519
778.026	25.05983
778.445	-2.00488
778.864	-9.02203
779.282	-48.10996
779.701	0
780.119	-50.12141
780.537	-60.14459
780.955	-15.03644
781.373	-16.03786
781.791	-2.0043
782.209	39.08497
782.627	-1.00255
783.045	-12.02625
783.462	-69.16983
783.88	-17.04267
784.297	-35.0849
784.715	-14.03523
785.132	-26.06025
785.549	-1.00243
785.966	-25.06017
786.383	19.04484
786.8	18.03957
787.217	-22.04967
787.633	-23.05535
788.05	-28.06151
788.466	18.03969
788.883	-34.08462
789.299	11.02488
789.715	-9.02107
790.131	-9.02127
790.547	-18.04216
790.963	-32.07636
791.379	-38.09289
791.795	-46.0999
792.21	-49.1092
792.626	-32.07242
793.041	-28.06576
793.457	-13.03053
793.872	-46.10389
794.287	23.05352
794.702	-41.09635
795.117	-75.17906
795.532	-20.0488
795.947	-51.11624
796.362	-35.07884
796.776	-67.1451
797.191	-52.12175
797.605	21.04779
798.02	18.04198
798.434	-22.04578
798.848	-57.13426
799.262	-7.0169
799.676	-48.11106
800.09	-7.01632
800.504	-29.06714
800.918	-68.1505
801.331	-37.09268
801.745	-45.09808
802.158	-11.02621
802.572	6.0137
802.985	-11.02489
803.398	-25.0568
803.811	9.02187
804.224	2.00471
804.637	-93.21025
805.05	-50.11043
805.462	-29.06775
805.875	2.00508
806.288	18.0417
806.7	-8.01919
807.112	-38.08382
807.525	-3.00709
807.937	-33.07837
808.349	-54.12954
808.761	-84.19636
809.173	-82.1892
809.584	-7.01634
809.996	-13.03056
810.408	-14.03491
810.819	-14.03137
811.231	21.0533
811.642	28.06599
812.053	20.04591
812.464	-39.08961
812.875	17.04153
813.286	-38.09375
813.697	-14.03001
814.108	-27.06214
814.519	-24.04994
814.929	-30.07241
815.34	-6.01378
815.75	-35.08545
816.16	-83.19588
816.571	-13.03241
816.981	-63.13982
817.391	-10.02282
817.801	11.02637
818.211	-23.05236
818.62	-65.14977
819.03	-7.01608
819.44	-12.02986
819.849	-31.0752
820.259	2.0049
820.668	29.06842
821.077	-46.11018
821.486	-36.08144
821.895	-30.06916
822.304	-24.06131
822.713	-27.06034
823.122	30.07136
823.531	20.04493
823.939	-12.02789
824.348	-3.00695
824.756	0
825.164	-38.09071
825.573	-23.05523
825.981	31.07262
826.389	-48.11388
826.797	-29.06966
827.205	-43.09376
827.612	-37.08644
828.02	14.03135
828.428	-9.02177
828.835	-31.07888
829.243	-80.18208
829.65	-19.04529
830.057	44.1016
830.464	-8.01877
830.871	0
831.278	-51.11662
831.685	-67.13989
832.092	-15.03514
832.499	-42.08603
832.905	9.02176
833.312	-42.08985
833.718	-69.16436
834.124	14.03007
834.531	-12.02862
834.937	-44.10728
835.343	13.02963
835.749	6.013
836.155	-39.09797
836.561	-75.17377
836.966	-11.02541
837.372	-25.06053
837.777	-63.14978
838.183	-52.10623
838.588	19.04495
838.993	-54.12395
839.399	-39.09058
839.804	-40.09446
840.209	12.02937
840.613	25.05245
841.018	-51.12242
841.423	-43.10459
841.828	-47.11389
842.232	-36.08329
842.637	-87.19324
843.041	-7.01746
843.445	-36.08541
843.849	-46.10905
844.253	-60.13451
844.657	-31.07551
845.061	9.01916
845.465	42.09764
845.869	-53.1163
846.272	-53.12353
846.676	24.0548
847.079	-7.01714
847.483	-4.00943
847.886	-11.02481
848.289	19.04935
848.692	-52.12602
849.095	-21.04715
849.498	-36.08511
849.901	-52.11172
850.304	-34.07638
850.707	-65.15892
851.109	-30.07082
851.512	-21.04956
851.914	18.04405
852.316	-19.04606
852.718	-4.01001
853.121	-30.0701
853.523	-35.07722
853.925	-73.18489
854.326	6.01445
854.728	-45.11125
855.13	-10.0249
855.531	12.02756
855.933	24.05381
856.334	-31.07435
856.736	-99.21
857.137	-52.11499
857.538	-32.077
857.939	-6.0142
858.34	-14.03204
858.741	9.02238
859.142	-11.02508
859.542	24.06179
859.943	40.09449
860.343	-58.13898
860.744	16.03698
861.144	1.00231
861.544	4.00925
861.945	-38.09203
862.345	-35.07977
862.745	-24.05683
863.145	-14.03083
863.544	2.00487
863.944	-29.06452
864.344	-42.09799
864.743	14.03279
865.143	-4.00979
865.542	-26.05666
865.941	-10.02376
866.34	18.04055
866.74	-31.08007
867.139	-57.13144
867.537	-22.05308
867.936	9.02051
868.335	20.04865
868.734	7.01722
869.132	-8.01765
869.531	25.05654
869.929	8.0173
870.327	-42.09579
870.726	-11.02589
871.124	-9.01957
871.522	-58.14041
871.92	-20.04672
872.318	1.00232
872.715	8.01858
873.113	-8.01852
873.511	-15.03562
873.908	-2.00494
874.306	-43.10274
874.703	-19.0451
875.1	-25.06053
875.497	-21.0473
875.894	15.03543
876.291	-12.02817
876.688	-50.12368
877.085	0
877.482	-41.0971
877.878	-51.11756
878.275	-56.13597
878.671	-81.16551
879.068	-22.05013
879.464	-16.03674
879.86	-14.03177
880.256	-39.09025
880.652	-46.11194
881.048	-23.05335
881.444	-48.10673
881.84	-10.02404
882.236	9.02148
882.631	-14.03266
883.027	0
883.422	-48.11751
883.817	8.01934
884.213	-34.08376
884.608	-39.0924
885.003	-21.04819
885.398	3.00712
885.793	-43.10258
886.188	-33.07942
886.582	-51.12269
886.977	-9.02007
887.371	-25.06017
887.766	-33.07918
888.16	15.03541
888.554	-5.01153
888.949	-60.14191
889.343	-42.09606
889.737	4.01039
890.131	16.03818
890.525	-56.13699
890.918	-21.05087
891.312	-61.13605
891.706	11.02776
892.099	-54.13112
892.492	20.03989
892.886	-64.14867
893.279	-16.03889
893.672	-15.03657
894.065	-36.08554
894.458	-13.03099
894.851	-62.14248
895.244	-49.12034
895.637	-11.02511
896.029	-2.00462
896.422	-4.00918
896.814	13.03061
897.206	16.0363
897.599	-49.11263
897.991	-28.06453
898.383	-13.0288
898.775	-26.0549
899.167	-32.07156
899.559	-14.03347
899.951	-2.00441
900.342	-57.13624
900.734	9.02168
901.125	-34.08462
901.517	6.014
901.908	-19.0425
902.299	-10.02328
902.69	0
903.082	9.02048
903.473	2.00457
903.863	-5.01229
904.254	-22.04784
904.645	0
905.036	3.00698
905.426	-59.12346
905.817	-17.03951
906.207	-15.03401
906.597	-75.16825
906.987	-28.06832
907.378	-58.13972
907.768	10.02533
908.158	-43.10014
908.547	-46.11466
908.937	-30.07314
909.327	-26.05949
909.717	-28.06697
910.106	-29.06604
910.495	35.0827
910.885	-65.15501
911.274	-10.02386
911.663	49.11811
912.052	-36.08359
912.441	20.04865
912.83	-16.03426
913.219	-26.06422
913.608	-43.10014
913.997	-2.00475
914.385	-57.12771
914.774	-24.05507
915.162	-57.12855
915.55	-5.01141
915.939	-23.05565
916.327	-17.04023
916.715	12.02931
917.103	-14.03228
917.491	-30.06933
917.878	-79.1826
918.266	1.00246
918.654	43.10498
919.041	-29.07269
919.429	-24.05381
919.816	-8.01913
920.203	-48.11102
920.591	-49.11492
920.978	-36.08343
921.365	-16.03992
921.752	-16.03621
922.139	39.07857
922.525	-5.01132
922.912	-30.06905
923.299	-32.07621
923.685	-53.13314
924.072	-69.14879
924.458	-51.12083
924.844	-52.12275
925.231	-77.16932
925.617	-23.05688
926.003	-18.0438
926.389	5.01208
926.774	19.04576
927.16	-27.06333
927.546	-20.04896
927.931	-28.0664
928.317	-58.12376
928.702	9.01973
929.088	-64.14502
929.473	4.00967
929.858	-4.00934
930.243	11.02502
930.628	-43.09912
931.013	15.03559
931.398	-60.12902
931.783	-8.02009
932.167	-60.1391
932.552	-71.16795
932.937	-56.13029
933.321	-47.11217
933.705	-13.03155
934.09	-30.07093
934.474	-59.13284
934.858	0
935.242	-22.0489
935.626	-60.14678
936.009	-55.14093
936.393	-18.04408
936.777	-17.04192
937.16	-71.17559
937.544	-46.10202
937.927	-24.05832
938.311	-42.09644
938.694	-14.03535
939.077	-22.04932
939.46	2.00465
939.843	-35.06648
940.226	-63.15432
940.609	13.02766
940.991	-44.1072
941.374	-81.18856
941.757	-18.04193
942.139	-73.15377
942.522	-108.24083
942.904	-13.02959
943.286	-8.01909
943.668	-18.04444
944.05	-29.06778
944.432	25.05829
944.814	-58.13484
945.196	-3.00701
945.578	-17.03875
945.959	-23.05094
946.341	-5.01131
946.722	4.00884
947.104	-66.14882
947.485	-26.05678
947.866	-28.06794
948.247	5.01196
948.628	-48.1104
949.009	-43.10591
949.39	-63.14672
949.771	-33.07162
950.152	-5.01167
950.532	-36.08731
950.913	-39.08803
951.293	3.00784
951.674	-53.12085
952.054	-42.09968
952.434	-76.17919
952.814	-81.18036
953.194	-8.02002
953.574	-63.14568
953.954	-47.10591
954.334	-10.02377
954.714	-39.09076
955.093	-80.18554
955.473	-79.18818
955.853	-17.0422
956.232	-13.03423
956.611	-58.12933
956.99	11.02627
957.37	-15.03636
957.749	-35.07806
958.128	-2.00484
958.506	-43.10809
958.885	-48.11515
959.264	-57.13369
959.643	14.02973
960.021	-15.0353
960.4	-1.00215
960.778	-88.20353
961.156	-43.10286
961.535	-86.18597
961.913	-49.10585
962.291	-29.07217
962.669	-1.00241
963.047	-56.13506
963.424	-37.0907
963.802	-42.0971
964.18	5.01186
964.557	-59.12614
964.935	2.00442
965.312	-20.05014
965.69	-9.02119
966.067	-43.09856
966.444	12.02779
966.821	-38.09303
967.198	-30.06764
967.575	-46.10622
967.952	6.01324
968.329	-18.04118
968.705	-43.08443
969.082	-17.04189
969.458	-30.06922
969.835	-20.04591
970.211	-19.04656
970.587	-18.04249
970.963	-37.09043
971.339	12.03008
971.715	-57.13353
972.091	-58.13574
972.467	-31.07205
972.843	-36.08511
973.219	9.01989
973.594	-33.08287
973.97	-36.07968
974.345	-49.11119
974.721	-23.05221
975.096	-71.16215
975.471	-1.00223
975.846	-1.00228
976.221	-13.03145
976.596	-37.08413
976.971	19.04411
977.346	-61.13233
977.72	-44.10688
978.095	-10.02469
978.469	-29.06554
978.844	11.026
979.218	-15.0343
979.593	-13.02939
979.967	-1.00231
980.341	-34.07305
980.715	-39.09308
981.089	-67.15868
981.463	6.01304
981.837	1.00233
982.21	-19.04104
982.584	-52.11864
982.957	1.00238
983.331	6.01328
983.704	-15.03517
984.078	-5.01156
984.451	-51.11788
984.824	-11.02557
985.197	-24.05489
985.57	-10.02349
985.943	-73.16833
986.316	-4.00925
986.688	-38.08628
987.061	-32.06982
987.434	0
987.806	-71.16313
988.179	-36.07961
988.551	-48.11528
988.923	-19.04411
989.295	-22.05193
989.667	-26.06013
990.039	-41.09703
990.411	-1.00217
990.783	-26.05584
991.155	-65.15162
991.527	-19.04313
991.898	-47.11084
992.27	-7.01642
992.641	-22.05201
993.012	10.02217
993.384	-10.02246
993.755	-41.09927
994.126	-12.02727
994.497	-36.08382
994.868	23.0493
995.239	-15.03455
995.61	-60.14399
995.98	-62.14533
996.351	-22.05217
996.722	-2.00439
997.092	2.0045
997.462	-43.09638
997.833	8.01764
998.203	-34.07745
998.573	4.00949
998.943	-78.17184
999.313	-11.025
999.683	-50.11265
1000.053	12.02587
1000.423	-43.09919
1000.792	20.0492
1001.162	-10.02343
1001.531	24.05595
1001.901	-37.08722
1002.27	-44.09303
1002.639	-4.00975
1003.009	7.01586
1003.378	-38.09306
1003.747	-5.01103
1004.116	-14.03181
1004.485	-4.00905
1004.853	-8.01924
1005.222	38.09112
1005.591	-6.01324
1005.959	-8.01712
1006.328	-70.14839
1006.696	9.02057
1007.064	-22.05266
1007.433	3.00712
1007.801	-1.00229
1008.169	-49.11717
1008.537	24.04932
1008.905	-31.06845
1009.273	-12.02797
1009.64	-53.12099
1010.008	-13.02905
1010.375	3.00682
1010.743	6.01257
1011.11	-56.12627
1011.478	-26.06085
1011.845	-83.18259
1012.212	-70.14819
1012.579	-13.03028
1012.946	-80.17824
1013.313	1.00222
1013.68	-17.03535
1014.047	-9.02054
1014.414	-21.04726
1014.78	-32.07644
1015.147	2.00447
1015.513	43.09832
1015.88	-23.05506
1016.246	28.06499
1016.612	-20.04236
1016.978	8.01836
1017.344	33.07746
1017.71	-55.1245
1018.076	5.01099
1018.442	21.05077
1018.808	-32.07621
1019.174	-68.16232
1019.539	-27.05632
1019.905	-19.04252
1020.27	-4.00943
1020.636	-60.13628
1021.001	-28.06277
1021.366	-44.10237
1021.731	12.02937
1022.096	-12.02906
1022.461	-41.0905
1022.826	-11.02464
1023.191	-29.07293
1023.556	-75.16444
1023.92	-20.04589
1024.285	-37.08515
1024.649	3.00693
1025.014	-7.01634
1025.378	-24.05806
1025.742	-49.11578
1026.107	-19.0396
1026.471	-36.07718
1026.835	-31.07205
1027.199	-22.0504
1027.562	27.05877
1027.926	-38.08771
1028.29	-40.09694
1028.654	-28.05974
1029.017	22.05094
1029.381	-23.05217
1029.744	-18.04402
1030.107	-33.07208
1030.471	-53.11982
1030.834	-41.08591
1031.197	-18.04012
1031.56	15.03348
1031.923	-24.0591
1032.286	-22.04814
1032.648	-34.07616
1033.011	-51.11092
1033.374	-61.13357
1033.736	-25.06285
1034.099	-8.01851
1034.461	-50.12204
1034.823	-31.07293
1035.185	-16.03755
1035.548	-4.00914
1035.91	-17.03872
1036.272	-43.09221
1036.634	-63.14464
1036.995	-5.01114
1037.357	-32.07401
1037.719	-47.10834
1038.08	-60.13235
1038.442	16.03634
1038.803	-25.05615
1039.165	-31.07464
1039.526	-19.04338
1039.887	-3.0068
1040.248	1.00238
1040.609	-36.08422
1040.97	-35.08096
1041.331	-81.19331
1041.692	-45.10037
1042.053	-28.05902
1042.413	-35.0757
1042.774	-24.0548
1043.134	-44.09767
1043.495	-54.12851
1043.855	-32.07354
1044.215	-24.05623
1044.576	10.02262
1044.936	5.01074
1045.296	-23.05405
1045.656	0
1046.016	-31.06963
1046.375	-13.03004
1046.735	3.00643
1047.095	-26.05738
1047.454	-33.0647
1047.814	-35.07887
1048.173	-36.07948
1048.533	-25.05412
1048.892	-37.08494
1049.251	-8.01899
1049.61	-84.19559
1049.969	-9.02009
1050.328	-37.07358
1050.687	-51.1176
1051.046	29.06669
1051.405	-48.11198
1051.763	-21.0456
1052.122	1.00238
1052.48	-45.10406
1052.839	-1.00221
1053.197	-32.07115
1053.555	-73.15099
1053.914	-37.08532
1054.272	32.07183
1054.63	-77.17876
1054.988	-57.12813
1055.345	-88.17602
1055.703	-37.08324
1056.061	-7.01713
1056.419	-34.08462
1056.776	-15.03408
1057.134	-36.07815
1057.491	-31.07347
1057.848	-33.0774
1058.206	-34.07519
1058.563	16.03301
1058.92	-18.03834
1059.277	-51.11727
1059.634	-41.08879
1059.991	15.03377
1060.348	-28.05998
1060.704	-67.1524
1061.061	-40.08516
1061.418	8.01836
1061.774	14.03303
1062.131	-7.01809
1062.487	-54.11837
1062.843	-35.08276
1063.199	2.00473
1063.555	-43.09487
1063.911	-31.0741
1064.267	-30.05611
1064.623	-14.03251
1064.979	-52.11307
1065.335	-59.13116
1065.691	-2.00455
1066.046	-20.04045
1066.402	-49.10471
1066.757	-3.00718
1067.112	-22.05036
1067.468	20.04499
1067.823	-19.0432
1068.178	8.01828
1068.533	-41.09326
1068.888	-45.10041
1069.243	-38.0896
1069.598	-62.14083
1069.952	10.02138
1070.307	-13.03103
1070.662	-47.10613
1071.016	-7.0148
1071.371	-41.0872
1071.725	-69.15224
1072.079	-22.04975
1072.434	-62.14317
1072.788	21.04709
1073.142	35.08132
1073.496	-50.11246
1073.85	-5.01081
1074.203	-7.0159
1074.557	31.07882
1074.911	-53.11816
1075.265	-23.04945
1075.618	17.03908
1075.971	-51.11413
1076.325	-50.12159
1076.678	-53.11444
1077.031	-62.132
1077.385	27.05524
1077.738	-6.01267
1078.091	-36.07831
1078.444	-43.09253
1078.796	-16.0374
1079.149	-53.12372
1079.502	-48.10766
1079.855	-19.04187
1080.207	-8.01852
1080.56	-67.16618
1080.912	-59.1342
1081.264	0
1081.617	-25.05781
1081.969	7.01704
1082.321	-70.16325
1082.673	-20.04343
1083.025	-23.05083
1083.377	-34.06652
1083.728	-82.17762
1084.08	2.00475
1084.432	-120.27146
1084.783	13.02872
1085.135	28.06704
1085.486	-31.06734
1085.838	8.01854
1086.189	-35.08039
1086.54	-11.02467
1086.891	-33.08074
1087.242	-33.07537
1087.593	10.02259
1087.944	-68.14472
1088.295	-21.044
1088.646	-2.00457
1088.996	-66.15107
1089.347	-55.12743
1089.698	-34.07676
1090.048	-35.08605
1090.398	-23.05036
1090.749	-23.05204
1091.099	-28.06778
1091.449	-22.05149
1091.799	-10.02361
1092.149	-20.04736
1092.499	-19.04397
1092.849	-37.08986
1093.199	-15.03535
1093.548	-28.06404
1093.898	15.03546
1094.248	-29.07096
1094.597	-44.10923
1094.947	-26.06631
1095.296	-17.03947
1095.645	-5.01229
1095.994	6.0136
1096.343	-10.02414
1096.692	-44.11233
1097.041	-25.06562
1097.39	-26.06164
1097.739	-19.04732
1098.088	-54.13747
1098.437	-26.06577
1098.785	-47.12123
1099.134	-81.20471
1099.482	-36.09452
1099.83	-56.1407
1100.179	-21.05321
1100.527	-35.08846
1100.875	-19.04804
1101.223	-5.01279
1101.571	-40.10739
1101.919	-72.18349
1102.267	-21.05786
1102.615	2.00643
1102.962	0
1103.31	9.02889
1103.658	2.00641
