Data from N3 R6 sample 9_Subt2__0__15-25-37-022.txt Node

Date: Fri Sep 19 15:25:37 PDT 2025
User: uwsun
Spectrometer: HDX01956
Trigger mode: 0
Integration Time (sec): 5.000000E-1
Scans to average: 1
Nonlinearity correction enabled: true
Boxcar width: 0
Storing dark spectrum: false
XAxis mode: Wavelengths
Number of Pixels in Spectrum: 2068
>>>>>Begin Spectral Data<<<<<
194.03	50.14414
194.578	62.20023
195.127	60.19122
195.676	59.18787
196.225	25.0658
196.773	71.19618
197.321	118.32352
197.87	177.44476
198.418	163.41473
198.966	205.5271
199.513	185.46135
200.061	133.33229
200.609	185.47601
201.156	141.29765
201.704	168.41219
202.251	145.37802
202.798	192.48842
203.345	216.51755
203.892	142.35111
204.438	159.37145
204.985	174.40482
205.532	212.55485
206.078	138.33331
206.624	122.29822
207.17	140.31799
207.716	138.32613
208.262	123.23661
208.808	213.51473
209.354	143.34167
209.899	176.43085
210.445	172.42231
210.99	170.4019
211.535	164.37522
212.08	148.33535
212.625	133.32674
213.17	112.27886
213.715	174.38173
214.259	194.44046
214.804	139.33427
215.348	171.37949
215.892	125.29603
216.436	177.40015
216.98	146.31139
217.524	115.2674
218.068	168.41203
218.612	153.37254
219.155	110.25421
219.698	91.21159
220.242	133.32324
220.785	212.47762
221.328	173.41965
221.871	101.25134
222.414	126.30249
222.956	112.26663
223.499	159.34625
224.041	136.30326
224.583	139.28853
225.126	176.38091
225.668	157.37181
226.21	129.31715
226.751	60.12791
227.293	116.25588
227.835	129.3061
228.376	128.28424
228.918	150.36775
229.459	159.39018
230	113.26285
230.541	124.27628
231.082	120.28469
231.622	148.33071
232.163	160.38031
232.704	152.36532
233.244	142.34284
233.784	143.33722
234.324	138.29905
234.864	110.24214
235.404	118.27063
235.944	145.32982
236.484	118.28415
237.023	168.38545
237.563	130.29192
238.102	143.32764
238.641	172.42465
239.18	119.27385
239.719	173.42406
240.258	119.25848
240.797	178.41347
241.335	90.21302
241.874	179.33173
242.412	106.24808
242.95	176.4106
243.488	152.33599
244.026	177.39477
244.564	130.25834
245.102	151.32841
245.64	124.29009
246.177	130.28075
246.715	89.20686
247.252	126.27782
247.789	114.19511
248.326	124.28747
248.863	160.33591
249.4	184.40673
249.936	147.29028
250.473	165.37303
251.009	165.36907
251.546	153.32738
252.082	171.36383
252.618	191.41187
253.154	117.27452
253.69	162.35061
254.226	143.33
254.761	131.28115
255.297	145.30851
255.832	139.31758
256.367	151.34235
256.903	126.26651
257.438	127.28653
257.972	123.26353
258.507	160.35944
259.042	98.20284
259.576	158.32966
260.111	156.34642
260.645	214.44253
261.179	160.35826
261.713	128.2743
262.247	205.45778
262.781	151.30798
263.315	121.28966
263.849	132.32183
264.382	129.28593
264.915	192.43574
265.449	112.26868
265.982	129.28092
266.515	169.39884
267.048	222.44898
267.58	155.32002
268.113	158.33215
268.646	188.45184
269.178	162.34956
269.71	162.3383
270.243	189.41332
270.775	197.48378
271.307	134.30843
271.838	177.40113
272.37	168.40178
272.902	230.50118
273.433	165.34449
273.965	202.47865
274.496	163.38766
275.027	160.3825
275.558	181.42268
276.089	150.36666
276.62	122.30144
277.15	203.47944
277.681	150.30768
278.211	133.31437
278.741	183.39191
279.272	120.26737
279.802	198.4775
280.332	172.39242
280.861	181.41985
281.391	161.3509
281.921	118.27313
282.45	268.64481
282.98	184.46608
283.509	187.40307
284.038	167.36012
284.567	175.3853
285.096	256.58946
285.625	210.46323
286.153	144.32655
286.682	162.35495
287.21	160.37254
287.739	154.34965
288.267	155.36623
288.795	187.47427
289.323	183.41877
289.851	188.42112
290.378	178.38524
290.906	212.49691
291.433	200.48104
291.961	163.3539
292.488	180.4336
293.015	230.52261
293.542	211.51221
294.069	182.4321
294.596	219.51903
295.122	218.49916
295.649	221.4696
296.175	183.42147
296.702	169.39171
297.228	195.44785
297.754	191.41063
298.28	208.45055
298.806	200.46604
299.332	174.3711
299.857	162.35196
300.383	196.47357
300.908	191.45233
301.433	250.58299
301.958	206.44698
302.483	248.60077
303.008	235.55071
303.533	186.45989
304.058	248.55345
304.582	203.46248
305.107	260.65411
305.631	210.45371
306.155	230.51795
306.679	261.58186
307.203	237.52661
307.727	271.61439
308.251	240.56539
308.775	207.4716
309.298	231.5354
309.822	245.59094
310.345	263.59238
310.868	248.56511
311.391	263.61463
311.914	236.56869
312.437	240.51564
312.96	306.68287
313.482	228.52017
314.005	257.61659
314.527	300.75147
315.049	261.625
315.571	326.69677
316.093	294.69554
316.615	313.71852
317.137	249.50948
317.659	263.59989
318.18	302.69008
318.702	269.59572
319.223	289.55648
319.744	278.59367
320.265	295.68128
320.786	261.61832
321.307	317.7498
321.828	323.6926
322.348	319.71173
322.869	311.68039
323.389	610.97908
323.909	339.72941
324.43	336.75322
324.95	366.78496
325.47	356.82588
325.989	331.74948
326.509	332.68868
327.029	328.69467
327.548	361.76171
328.067	369.83109
328.587	396.92191
329.106	371.78143
329.625	373.90196
330.144	334.71541
330.662	389.83806
331.181	396.86211
331.7	398.86205
332.218	446.89126
332.736	407.87307
333.255	411.88393
333.773	433.94724
334.291	397.91094
334.808	390.79742
335.326	453.93693
335.844	491.05085
336.361	467.08566
336.879	440.94202
337.396	440.9656
337.913	469.9774
338.43	503.03385
338.947	484.05169
339.464	434.85038
339.981	489.0619
340.497	534.19443
341.014	474.04564
341.53	512.05451
342.046	497.11589
342.562	527.18916
343.078	533.12467
343.594	551.19118
344.11	550.1705
344.626	580.32089
345.141	611.24156
345.657	579.14808
346.172	574.2296
346.687	591.2096
347.202	561.1227
347.717	682.42541
348.232	633.40947
348.747	598.21759
349.261	702.35189
349.776	639.31094
350.29	659.44561
350.805	642.38848
351.319	661.35126
351.833	649.30092
352.347	564.16337
352.861	677.37776
353.374	696.37181
353.888	676.4166
354.401	658.31807
354.915	686.34383
355.428	682.4958
355.941	707.43302
356.454	734.4055
356.967	733.5
357.48	715.40832
357.993	736.56554
358.505	758.61936
359.018	771.59634
359.53	748.5435
360.042	712.3298
360.554	796.6309
361.066	744.55514
361.578	816.50038
362.09	786.59661
362.602	755.4127
363.113	730.42612
363.625	821.56594
364.136	838.52627
364.647	798.5761
365.158	845.65542
365.669	923.86287
366.18	799.5497
366.691	898.62176
367.201	871.72249
367.712	849.57877
368.222	901.72792
368.733	940.66931
369.243	891.58986
369.753	920.72672
370.263	918.78383
370.773	1036.07198
371.282	1010.92661
371.792	966.78035
372.301	1023.00032
372.811	1024.17777
373.32	1030.70817
373.829	1101.06625
374.338	1162.97351
374.847	1146.01404
375.356	1196.20726
375.865	1264.96773
376.373	1300.17831
376.882	1372.59463
377.39	1354.4282
377.898	1482.67226
378.407	1447.26627
378.915	1509.20647
379.423	1563.57198
379.93	1698.51146
380.438	1734.85822
380.946	1824.74753
381.453	1909.90209
381.96	1994.90932
382.468	2279.06615
382.975	2286.22323
383.482	2325.80503
383.989	2330.4656
384.495	2469.9579
385.002	2610.52499
385.509	2732.02536
386.015	2957.30539
386.521	3045.74856
387.028	3272.78913
387.534	3309.48088
388.04	3329.9919
388.546	3550.52184
389.051	3737.36974
389.557	4054.563
390.063	4171.49858
390.568	4309.55263
391.073	4594.03729
391.578	4791.32547
392.084	4891.70019
392.589	5248.43798
393.093	5645.62172
393.598	6059.24645
394.103	6668.38636
394.607	7285.43506
395.112	7709.78991
395.616	8191.13535
396.12	8864.09183
396.624	9746.23601
397.128	10714.59239
397.632	11668.44328
398.136	12566.024
398.639	13884.87094
399.143	16030.3227
399.646	17948.19102
400.15	19647.03065
400.653	22147.76803
401.156	25245.76483
401.659	29230.97761
402.162	37126.19782
402.664	53513.94783
403.167	61199.44523
403.67	61009.11914
404.172	55487.84425
404.674	37291.05854
405.176	4428.40989
405.678	533.47942
406.18	0
406.682	0
407.184	6962.89417
407.686	50953.82939
408.187	59237.6763
408.688	61091.12691
409.19	61923.45898
409.691	53457.37585
410.192	45508.62286
410.693	40312.06136
411.194	37655.55577
411.694	35592.81358
412.195	32242.82323
412.696	29948.30233
413.196	28736.32737
413.696	28962.65272
414.196	28925.4057
414.696	27748.21662
415.196	25468.13219
415.696	21471.83205
416.196	16558.28837
416.695	13790.5976
417.195	12761.16741
417.694	12195.01837
418.194	11241.97093
418.693	10582.31208
419.192	10564.03679
419.691	10365.2717
420.19	9992.96339
420.688	9833.39995
421.187	9095.68068
421.685	8339.23108
422.184	7340.36614
422.682	6416.94147
423.18	5583.47205
423.678	5114.66681
424.176	4754.89379
424.674	4524.77148
425.172	4246.35688
425.669	4017.86183
426.167	3606.60068
426.664	3335.6229
427.161	3059.70127
427.659	2968.16589
428.156	2616.41867
428.652	2575.31711
429.149	2452.06768
429.646	2219.52424
430.143	2176.93235
430.639	2122.84471
431.135	1939.92779
431.632	1803.52355
432.128	1728.69955
432.624	1696.86988
433.12	1628.42975
433.616	1554.20761
434.111	1533.50011
434.607	1514.47912
435.103	1424.96353
435.598	1310.85577
436.093	1292.14958
436.588	1232.00675
437.083	1166.93575
437.578	1149.94245
438.073	1000.94708
438.568	1031.95678
439.062	986.60621
439.557	993.79967
440.051	917.63973
440.546	942.69535
441.04	872.65093
441.534	884.83093
442.028	851.65307
442.522	780.55058
443.015	867.50001
443.509	873.73933
444.002	795.61162
444.496	732.28437
444.989	790.60912
445.482	750.55247
445.975	742.40304
446.468	755.3224
446.961	631.11983
447.454	667.24222
447.947	709.43315
448.439	698.44794
448.931	698.31455
449.424	627.33201
449.916	637.29919
450.408	666.29045
450.9	609.26618
451.392	641.39605
451.884	584.12806
452.375	604.28058
452.867	597.14247
453.358	504.98475
453.849	541.98126
454.341	595.14468
454.832	560.03199
455.323	545.15959
455.814	524.03568
456.304	506.00939
456.795	492.96996
457.285	473.90775
457.776	521.00157
458.266	543.12876
458.756	499.03391
459.247	492.02052
459.737	488.03384
460.226	485.95324
460.716	468.99199
461.206	391.83043
461.695	450.0075
462.185	440.92655
462.674	429.86146
463.163	395.76902
463.653	444.8186
464.142	383.82407
464.63	433.93964
465.119	430.89235
465.608	401.81861
466.096	424.81665
466.585	326.66989
467.073	346.73951
467.561	396.86869
468.05	324.67449
468.538	379.85046
469.026	359.78207
469.513	318.60393
470.001	268.55593
470.489	327.70208
470.976	306.64241
471.463	361.82338
471.951	313.71593
472.438	267.5792
472.925	281.59578
473.412	253.56753
473.899	330.68943
474.385	260.58958
474.872	235.50522
475.359	273.6144
475.845	246.4665
476.331	262.51384
476.817	235.52498
477.303	230.49437
477.789	259.57453
478.275	250.57725
478.761	187.41966
479.247	278.5643
479.732	253.58987
480.218	221.53809
480.703	289.67087
481.188	181.35909
481.673	198.42467
482.158	162.32673
482.643	181.43279
483.128	184.39021
483.612	187.40653
484.097	161.37051
484.581	114.24694
485.066	165.37546
485.55	156.31825
486.034	214.43459
486.518	196.4318
487.002	133.30962
487.486	162.37377
487.969	152.35656
488.453	203.4826
488.936	111.23648
489.42	155.32304
489.903	141.33728
490.386	180.3617
490.869	96.19487
491.352	116.26786
491.835	87.16849
492.318	139.29871
492.8	136.26143
493.283	125.30561
493.765	138.32436
494.247	72.15942
494.73	144.29965
495.212	120.27411
495.694	71.1594
496.175	40.09207
496.657	183.41321
497.139	28.04451
497.62	107.24437
498.102	82.19664
498.583	29.0695
499.064	135.28924
499.545	64.13999
500.026	38.0821
500.507	5.01115
500.988	45.10694
501.469	47.11307
501.949	54.12727
502.43	106.23969
502.91	39.07727
503.39	73.17529
503.87	133.29799
504.35	43.09658
504.83	24.05096
505.31	88.20555
505.79	73.16793
506.269	70.15571
506.749	43.09456
507.228	46.10432
507.707	80.16929
508.187	34.07776
508.666	24.05689
509.145	47.10596
509.623	63.14197
510.102	64.14855
510.581	69.15828
511.059	56.13715
511.538	75.18609
512.016	35.08158
512.494	22.05135
512.972	25.05822
513.45	33.07515
513.928	33.07779
514.406	76.18044
514.884	120.29943
515.361	114.26345
515.839	-4.00885
516.316	13.0302
516.793	13.03194
517.27	101.23549
517.747	35.08748
518.224	2.00448
518.701	31.06708
519.178	96.23318
519.654	9.02035
520.131	-3.00717
520.607	50.11981
521.083	32.0713
521.56	-8.01837
522.036	82.17299
522.512	44.10487
522.987	51.11868
523.463	25.05802
523.939	2.00478
524.414	54.11912
524.89	0
525.365	10.02229
525.84	64.15101
526.315	0
526.79	22.04772
527.265	-12.02638
527.74	10.02371
528.215	56.12792
528.689	40.08698
529.164	-25.05199
529.638	48.11995
530.112	76.17487
530.587	30.06293
531.061	25.059
531.534	-12.02824
532.008	49.11466
532.482	-42.09269
532.956	47.11823
533.429	-32.07407
533.903	49.10335
534.376	32.06819
534.849	22.04979
535.322	17.03904
535.795	10.02382
536.268	27.06357
536.741	17.03967
537.213	20.0451
537.686	-27.06417
538.158	48.10424
538.631	1.00235
539.103	-6.01314
539.575	11.02217
540.047	40.08468
540.519	6.01384
540.991	-27.06419
541.463	7.01662
541.934	28.06239
542.406	-1.00234
542.877	21.04591
543.348	-73.17008
543.82	14.03333
544.291	-5.01119
544.762	-24.05575
545.233	38.09368
545.703	-11.02393
546.174	34.07713
546.645	54.12757
547.115	44.10314
547.585	78.17494
548.056	60.14295
548.526	65.14821
548.996	-12.02826
549.466	35.08235
549.935	65.15144
550.405	28.06039
550.875	19.04367
551.344	-5.01186
551.814	19.04178
552.283	19.03981
552.752	25.05652
553.221	25.05282
553.69	30.06507
554.159	117.2803
554.628	28.06081
555.096	70.1715
555.565	49.1053
556.033	49.11105
556.502	64.1492
556.97	14.03003
557.438	12.02773
557.906	41.09417
558.374	10.02233
558.842	22.05131
559.31	-8.01736
559.777	-2.00476
560.245	41.09198
560.712	-24.05347
561.18	-3.00645
561.647	19.04104
562.114	4.0089
562.581	43.10325
563.048	-38.08484
563.514	57.13619
563.981	0
564.448	20.04379
564.914	51.11417
565.381	5.01091
565.847	-2.00455
566.313	68.15163
566.779	59.12974
567.245	1.00229
567.711	73.16994
568.176	140.30688
568.642	78.19046
569.108	83.19687
569.573	31.0698
570.038	101.20413
570.504	89.19431
570.969	95.2282
571.434	127.2681
571.899	140.31915
572.363	152.32686
572.828	146.31355
573.293	141.30783
573.757	139.30591
574.222	182.38833
574.686	141.30301
575.15	171.38691
575.614	139.30231
576.078	172.38084
576.542	234.49928
577.006	243.51409
577.469	242.55389
577.933	163.34213
578.396	222.50076
578.86	179.39493
579.323	183.41203
579.786	203.40726
580.249	159.34448
580.712	198.45173
581.175	191.44533
581.637	243.52579
582.1	161.33032
582.563	167.32559
583.025	225.51136
583.487	171.32102
583.95	185.37441
584.412	187.36302
584.874	191.43532
585.336	186.41681
585.797	114.23352
586.259	125.27487
586.721	159.35389
587.182	198.4254
587.643	156.33358
588.105	146.3292
588.566	151.29902
589.027	184.42335
589.488	179.38102
589.949	113.25828
590.41	159.29452
590.87	125.26457
591.331	77.15598
591.791	29.06396
592.252	46.10177
592.712	98.22476
593.172	79.17036
593.632	61.12419
594.092	101.21406
594.552	57.11668
595.011	99.21907
595.471	47.10113
595.931	68.14484
596.39	82.18905
596.849	63.14051
597.308	56.11585
597.768	96.23441
598.227	79.18275
598.685	76.16378
599.144	68.15232
599.603	93.21017
600.062	53.10589
600.52	57.1226
600.978	95.21696
601.437	131.282
601.895	47.0956
602.353	9.01908
602.811	83.17521
603.269	64.1462
603.727	110.25087
604.184	74.15981
604.642	51.11985
605.099	127.27739
605.557	81.18641
606.014	74.15158
606.471	102.24646
606.928	142.2997
607.385	107.2536
607.842	128.28164
608.299	113.24942
608.755	96.22044
609.212	121.25678
609.668	133.28113
610.125	106.24155
610.581	95.20952
611.037	108.23194
611.493	78.17429
611.949	81.18678
612.405	86.16563
612.861	108.23604
613.316	110.25178
613.772	115.25043
614.227	107.24013
614.683	148.29685
615.138	168.37462
615.593	72.15823
616.048	68.1461
616.503	115.2674
616.958	102.24357
617.412	120.26858
617.867	93.19848
618.321	73.13968
618.776	93.19443
619.23	129.28891
619.684	82.17375
620.138	45.09758
620.592	68.15696
621.046	86.19034
621.5	81.18678
621.954	102.2149
622.407	53.11208
622.861	31.07123
623.314	110.23644
623.768	106.23441
624.221	130.2411
624.674	60.13013
625.127	46.10304
625.58	23.04894
626.033	31.06426
626.485	9.0207
626.938	101.22545
627.39	67.14844
627.843	38.08323
628.295	70.15402
628.747	78.17609
629.199	65.14215
629.651	20.04382
630.103	49.10798
630.555	45.08965
631.006	23.05166
631.458	-33.07427
631.909	32.06949
632.361	13.02875
632.812	4.00894
633.263	38.07703
633.714	-6.01212
634.165	-59.13637
634.616	-47.10786
635.067	-12.02515
635.518	3.00676
635.968	-5.00953
636.419	8.01638
636.869	32.07198
637.319	37.08153
637.769	-23.05004
638.219	-1.00225
638.669	-55.12849
639.119	14.03261
639.569	45.10492
640.019	11.02425
640.468	-68.14547
640.918	-17.03936
641.367	-17.03691
641.816	5.01078
642.265	-7.0156
642.714	10.02241
643.163	-21.04591
643.612	-28.06627
644.061	-67.13703
644.51	0
644.958	11.02323
645.406	35.08077
645.855	12.02822
646.303	-34.07651
646.751	1.00221
647.199	-61.13278
647.647	20.04484
648.095	3.00659
648.543	-15.02899
648.99	14.03242
649.438	-24.05474
649.885	35.08395
650.333	-38.0697
650.78	32.07568
651.227	19.04491
651.674	-2.00442
652.121	-33.07697
652.568	7.01645
653.015	-36.08682
653.461	-14.03229
653.908	0
654.354	-31.0708
654.801	-60.13822
655.247	-50.10608
655.693	-30.07643
656.139	-5.01157
656.585	4.0093
657.031	-3.00685
657.477	-6.01263
657.922	23.0514
658.368	-44.10531
658.813	-34.07478
659.259	-11.02574
659.704	-35.08016
660.149	-82.18777
660.594	-10.02306
661.039	29.06396
661.484	20.04604
661.929	-6.01353
662.373	8.01985
662.818	31.07486
663.262	-6.01395
663.707	-21.05157
664.151	31.07393
664.595	-48.11361
665.039	-34.08209
665.483	10.02493
665.927	-50.11417
666.371	-9.02045
666.814	-40.09295
667.258	-8.01863
667.701	-47.09678
668.145	-17.04091
668.588	5.01194
669.031	-44.10233
669.474	-2.00466
669.917	-39.08341
670.36	-32.077
670.803	18.04173
671.245	-59.12039
671.688	9.02112
672.13	-91.20019
672.573	-1.00248
673.015	-23.0535
673.457	27.05695
673.899	-21.04916
674.341	-66.15604
674.783	-50.11821
675.225	-34.0815
675.666	-21.04948
676.108	15.0315
676.549	-36.08257
676.991	-70.15033
677.432	-56.10697
677.873	-8.01782
678.314	-50.11638
678.755	-4.00951
679.196	-24.05383
679.637	-50.11816
680.078	-23.052
680.518	-51.11351
680.959	-50.11683
681.399	-41.09849
681.839	10.02348
682.28	-27.0654
682.72	-55.12226
683.16	-29.07069
683.6	-33.07287
684.039	-65.13107
684.479	-47.11307
684.919	-1.00226
685.358	-6.01469
685.798	-30.07632
686.237	-35.08199
686.676	19.04217
687.115	6.01359
687.554	-39.09007
687.993	-93.19831
688.432	-26.05827
688.871	-49.10829
689.309	62.14544
689.748	1.002
690.186	-35.08026
690.625	16.03681
691.063	-27.0637
691.501	-7.01681
691.939	-6.01454
692.377	-2.00474
692.815	5.01172
693.253	-46.10639
693.69	-24.05092
694.128	21.04972
694.565	20.04605
695.003	0
695.44	-28.06363
695.877	18.04098
696.314	35.07132
696.751	-33.07232
697.188	-5.01117
697.625	-11.02405
698.061	-28.06543
698.498	33.07646
698.934	-48.11159
699.371	-18.0414
699.807	-23.05293
700.243	25.05868
700.679	-43.09452
701.115	-53.12041
701.551	27.06146
701.987	-17.03639
702.422	-28.0644
702.858	-36.08263
703.294	-35.07612
703.729	30.07104
704.164	-12.02822
704.599	-12.02554
705.035	-52.11379
705.47	-13.03111
705.904	-79.1794
706.339	-53.11787
706.774	-11.02471
707.209	-79.17773
707.643	-44.1029
708.078	-49.11587
708.512	-4.00989
708.946	-91.21235
709.38	-25.05689
709.814	-38.0834
710.248	-80.18833
710.682	50.11468
711.116	-32.0751
711.549	-43.10751
711.983	-56.12477
712.416	-66.14991
712.85	-29.07077
713.283	-4.00912
713.716	-39.0945
714.149	-68.15577
714.582	-27.0586
715.015	-17.04082
715.448	-48.11589
715.881	-36.07394
716.313	11.02492
716.746	-12.02744
717.178	-23.05325
717.61	-37.0913
718.043	-72.17345
718.475	-9.02091
718.907	-44.10624
719.339	-25.0547
719.77	-8.01857
720.202	-24.05862
720.634	-35.08337
721.065	-24.05471
721.497	-31.07381
721.928	-28.06709
722.359	-23.05462
722.79	-27.06251
723.221	-68.16499
723.652	-7.01722
724.083	-54.11727
724.514	-47.10205
724.945	-2.00452
725.375	-28.06303
725.806	-58.13787
726.236	39.09521
726.666	-29.06554
727.096	-49.1156
727.526	-12.02955
727.956	-27.059
728.386	-23.05359
728.816	-11.02697
729.246	-43.10223
729.675	-14.0336
730.105	-48.11361
730.534	-10.02242
730.964	-59.14286
731.393	-59.13892
731.822	15.03693
732.251	-39.09656
732.68	-69.153
733.109	20.04727
733.537	-47.10954
733.966	-35.08353
734.395	-58.12816
734.823	-36.07698
735.251	-50.11665
735.68	33.07821
736.108	-59.14398
736.536	-53.12046
736.964	-35.07758
737.392	-44.10547
737.82	-36.0826
738.247	-31.07057
738.675	-42.09497
739.102	9.02183
739.53	2.00494
739.957	-32.07912
740.384	6.01392
740.811	2.00489
741.238	-99.23374
741.665	2.0045
742.092	-32.07242
742.519	-15.03617
742.945	-28.06442
743.372	-29.0695
743.798	-32.07936
744.225	-33.07512
744.651	-43.10364
745.077	-18.04312
745.503	1.00231
745.929	-17.03884
746.355	-11.02563
746.781	-26.0618
747.207	-43.09872
747.632	-25.05914
748.058	-47.112
748.483	-47.10257
748.908	-3.00714
749.334	-13.03057
749.759	-36.08114
750.184	-58.13329
750.609	-45.10579
751.033	-14.03086
751.458	42.08938
751.883	-11.02589
752.307	5.01141
752.732	19.04607
753.156	-30.0712
753.58	-30.06784
754.005	39.09503
754.429	-69.15396
754.853	-35.08398
755.277	48.10805
755.7	-67.16051
756.124	-16.0387
756.548	5.01138
756.971	1.00232
757.394	-24.05958
757.818	-1.00249
758.241	-31.07534
758.664	9.02202
759.087	21.0454
759.51	20.04741
759.933	4.00927
760.356	2.00491
760.778	40.09523
761.201	-43.0986
761.623	-28.06383
762.046	39.08475
762.468	-4.00911
762.89	28.06561
763.312	-35.08138
763.734	-22.05104
764.156	-10.02377
764.578	-34.07377
765	18.04178
765.421	45.11121
765.843	8.02025
766.264	-6.01368
766.686	58.13935
767.107	19.04448
767.528	37.09056
767.949	-7.01709
768.37	-36.08462
768.791	21.0479
769.212	14.03429
769.632	-34.07588
770.053	1.00254
770.473	26.06028
770.894	-19.04498
771.314	-23.05172
771.734	-73.16302
772.154	-43.10697
772.575	12.02623
772.994	-4.00867
773.414	-46.10351
773.834	2.00482
774.254	-30.0701
774.673	-3.00693
775.093	38.09012
775.512	-6.01428
775.931	12.02946
776.351	-45.10703
776.77	-31.07333
777.189	-35.07906
777.607	-21.0519
778.026	11.02639
778.445	-16.03913
778.864	-34.08361
779.282	-50.11458
779.701	-36.08758
780.119	-48.11651
780.537	-56.13485
780.955	-25.06085
781.373	1.00236
781.791	-11.02367
782.209	7.01535
782.627	8.02039
783.045	-4.00873
783.462	-31.07577
783.88	-8.02005
784.297	-37.08979
784.715	38.09472
785.132	-44.10233
785.549	7.01698
785.966	-17.04085
786.383	-20.04756
786.8	27.05925
787.217	-61.13881
787.633	-26.06261
788.05	-71.15737
788.466	9.01988
788.883	7.01729
789.299	-30.06842
789.715	-2.00468
790.131	0
790.547	-48.11309
790.963	17.04018
791.379	-26.06342
791.795	-7.01508
792.21	-6.01325
792.626	-4.009
793.041	-58.13702
793.457	-21.04939
793.872	-36.08114
794.287	6.01401
794.702	-20.04681
795.117	-93.2228
795.532	-5.01217
795.947	-6.01355
796.362	-3.00671
796.776	-65.14071
797.191	-68.15971
797.605	41.09292
798.02	34.07904
798.434	-56.11741
798.848	-35.08209
799.262	25.06001
799.676	-23.05295
800.09	-28.06553
800.504	-17.03926
800.918	-21.04602
801.331	-13.03242
801.745	-18.03901
802.158	-45.10793
802.572	-30.069
802.985	-33.075
803.398	17.03829
803.811	13.03157
804.224	-22.05207
804.637	-77.17351
805.05	5.01092
805.462	-25.05836
805.875	38.09582
806.288	24.05553
806.7	-29.06985
807.112	-39.08605
807.525	22.05171
807.937	-18.04262
808.349	0
808.761	-41.09503
809.173	-47.10769
809.584	-15.03507
809.996	-17.04
810.408	-32.08005
810.819	-18.04037
811.231	23.05836
811.642	73.17054
812.053	15.03446
812.464	6.01366
812.875	2.0049
813.286	-23.05659
813.697	-37.07972
814.108	-50.11559
814.519	-19.03949
814.929	-25.06028
815.34	-27.06226
815.75	-54.1323
816.16	-69.1624
816.571	-12.02991
816.981	-35.07722
817.391	-40.09181
817.801	-41.09927
818.211	27.06084
818.62	-65.14977
819.03	-14.0322
819.44	-6.01491
819.849	7.01686
820.259	17.04153
820.668	10.02368
821.077	-40.0957
821.486	-43.09741
821.895	-57.13212
822.304	-37.09474
822.713	-54.12136
823.122	5.01195
823.531	10.02251
823.939	13.03006
824.348	12.0277
824.756	-8.01898
825.164	-12.0285
825.573	-24.05764
825.981	31.07262
826.389	-1.00235
826.797	27.06417
827.205	-22.04776
827.612	-25.05827
828.02	-2.00449
828.428	-58.14157
828.835	-45.11478
829.243	-44.09942
829.65	-59.14173
830.057	0
830.464	38.08834
830.871	-11.0248
831.278	-6.0136
831.685	-39.08092
832.092	23.05348
832.499	-77.15898
832.905	-16.03886
833.312	-27.05757
833.718	-6.01412
834.124	5.01076
834.531	-44.10559
834.937	-11.02665
835.343	-18.04128
835.749	18.03891
836.155	6.01495
836.561	-69.15968
836.966	-39.09058
837.372	-39.09468
837.777	-71.16906
838.183	-119.2468
838.588	-17.04049
838.993	-35.08003
839.399	-67.15647
839.804	-35.08257
840.209	20.04887
840.613	-22.04664
841.018	-38.09099
841.423	-29.07035
841.828	-17.04096
842.232	-37.08563
842.637	-21.046
843.041	-29.07264
843.445	-13.0307
843.849	-34.08041
844.253	-28.06236
844.657	-12.02913
845.061	10.02128
845.465	-13.03055
845.869	-34.07431
846.272	-40.09299
846.676	-21.04839
847.079	38.09227
847.483	-25.05918
847.886	-34.07704
848.289	27.07003
848.692	-16.03851
849.095	-40.09016
849.498	-19.04477
849.901	-75.16194
850.304	-57.12866
850.707	-4.00967
851.109	-28.06607
851.512	1.00235
851.914	13.03184
852.316	-6.01451
852.718	-30.07546
853.121	-44.1031
853.523	-36.07945
853.925	-2.005
854.326	2.00482
854.728	-51.12622
855.13	-45.11276
855.531	6.01379
855.933	-14.03163
856.334	-30.07194
856.736	-60.12619
857.137	-17.03732
857.538	-29.06974
857.939	-21.04985
858.34	-46.10597
858.741	-15.03746
859.142	-12.02737
859.542	52.13322
859.943	5.01189
860.343	-28.06671
860.744	-21.04889
861.144	-13.03005
861.544	-8.01855
861.945	-73.17795
862.345	-28.06373
862.745	-1.00236
863.145	-95.21276
863.544	18.04367
863.944	-53.1185
864.344	-41.09564
864.743	37.08627
865.143	15.03658
865.542	-47.10287
865.941	10.02367
866.34	-10.02266
866.74	-27.06969
867.139	-39.08961
867.537	-44.1066
867.936	-3.00685
868.335	8.01951
868.734	6.01477
869.132	-23.05092
869.531	-28.06401
869.929	-29.06321
870.327	-14.03175
870.726	-8.01882
871.124	-83.18328
871.522	-33.07951
871.92	-9.02098
872.318	21.04848
872.715	-18.04203
873.113	-15.03477
873.511	6.01419
873.908	19.04671
874.306	-57.13656
874.703	5.01181
875.1	-28.06783
875.497	-35.07906
875.894	-8.01898
876.291	-17.03995
876.688	-44.10872
877.085	-47.10656
877.482	-55.13061
877.878	-29.06655
878.275	-82.20007
878.671	-45.0912
879.068	-11.02501
879.464	2.00458
879.86	-17.03861
880.256	-33.07628
880.652	-37.08989
881.048	-34.07904
881.444	-53.11797
881.84	-48.1162
882.236	-25.06005
882.631	18.04173
883.027	-74.16829
883.422	-64.15715
883.817	15.03622
884.213	-13.0319
884.608	-24.0567
885.003	-63.14579
885.398	-34.08125
885.793	-54.1291
886.188	-25.06008
886.582	-36.08636
886.977	-21.04693
887.371	-18.04326
887.766	-34.08159
888.16	12.02835
888.554	-39.09058
888.949	-47.11088
889.343	-39.08914
889.737	-9.02344
890.131	17.04056
890.525	-25.06081
890.918	-7.01691
891.312	-38.08435
891.706	14.03531
892.099	-4.00962
892.492	-18.03622
892.886	-52.12051
893.279	-21.0511
893.672	-23.05615
894.065	-32.07598
894.458	-70.16869
894.851	-12.0273
895.244	-35.08573
895.637	0
896.029	-9.02082
896.422	-16.0368
896.814	-44.10475
897.206	-16.03653
897.599	-32.0733
897.991	-25.05758
898.383	-72.16148
898.775	-38.08045
899.167	-22.0491
899.559	-24.05749
899.951	6.01322
900.342	-66.15803
900.734	-9.02176
901.125	-18.04467
901.517	13.03029
901.908	-39.0876
902.299	-17.03964
902.69	9.01997
903.082	31.07023
903.473	-37.08529
903.863	11.02695
904.254	-71.156
904.645	-17.03945
905.036	11.02557
905.426	-73.15322
905.817	-41.09575
906.207	-39.08885
906.597	-35.07787
906.987	-44.10768
907.378	-35.08395
907.768	-21.05349
908.158	-25.05802
908.547	-8.0198
908.937	-24.05845
909.327	-55.12657
909.717	-33.079
910.106	-27.06146
910.495	29.0686
910.885	-74.17678
911.274	-12.02864
911.663	-7.01705
912.052	-16.03701
912.441	1.00244
912.83	-37.07958
913.219	-58.1441
913.608	-6.01387
913.997	-62.14907
914.385	-45.10057
914.774	-34.07817
915.162	-48.10805
915.55	-13.02971
915.939	-11.02655
916.327	-22.05211
916.715	-8.01961
917.103	-9.02073
917.491	-50.11601
917.878	-84.19435
918.266	-42.10419
918.654	41.10013
919.041	-13.03249
919.429	5.01114
919.816	-30.07205
920.203	-19.04369
920.591	-86.20316
920.978	-8.01844
921.365	-47.11794
921.752	-32.07266
922.139	34.06857
922.525	-34.07742
922.912	-28.06442
923.299	-17.04037
923.685	-25.06248
924.072	-38.0814
924.458	-6.01409
924.844	-70.16581
925.231	-62.13591
925.617	9.02213
926.003	0
926.389	35.08411
926.774	-8.01937
927.16	-28.06568
927.546	-14.03424
927.931	-19.04498
928.317	-65.1389
928.702	-60.13346
929.088	-56.12668
929.473	-12.0291
929.858	-18.04214
930.243	-49.11281
930.628	-61.14111
931.013	-7.01668
931.398	20.04227
931.783	-47.11883
932.167	-27.06219
932.552	-38.08932
932.937	-22.05084
933.321	-62.14839
933.705	-24.05836
934.09	-37.08759
934.474	7.01555
934.858	3.00744
935.242	8.01767
935.626	-44.10732
936.009	-37.09451
936.393	28.06799
936.777	-8.01969
937.16	-61.15058
937.544	-36.07968
937.927	-43.10486
938.311	5.01137
938.694	-4.01008
939.077	-39.08774
939.46	-13.0303
939.843	-45.08569
940.226	-14.03398
940.609	-32.06875
940.991	-47.11457
941.374	-72.16732
941.757	-14.03259
942.139	-27.0563
942.522	-60.13246
942.904	-20.04559
943.286	-25.05985
943.668	-36.08918
944.05	-19.04432
944.432	-9.02113
944.814	-30.06936
945.196	-35.08235
945.578	-10.02276
945.959	-6.01324
946.341	3.00678
946.722	-1.00221
947.104	-60.13512
947.485	-29.06337
947.866	34.08153
948.247	-9.02159
948.628	-10.02282
949.009	-30.07372
949.39	-63.14672
949.771	-27.05852
950.152	14.03256
950.532	-23.05565
950.913	-30.06759
951.293	-30.07882
951.674	-62.14163
952.054	-48.11405
952.434	-51.11966
952.814	-58.12853
953.194	-8.02002
953.574	-52.11998
953.954	-18.04032
954.334	8.01895
954.714	-75.17577
955.093	-19.04353
955.473	-98.23429
955.853	-43.10724
956.232	-28.07391
956.611	-74.16556
956.99	-12.02879
957.37	-29.07048
957.749	-49.1096
958.128	-5.0121
958.506	-16.04003
958.885	-17.04054
959.264	-37.08644
959.643	51.10743
960.021	3.00704
960.4	17.03644
960.778	-48.11013
961.156	-6.01425
961.535	-47.10079
961.913	-83.18059
962.291	-13.03226
962.669	-9.02174
963.047	-81.19627
963.424	-13.03173
963.802	-65.15096
964.18	-17.04049
964.557	-25.05305
964.935	-18.03994
965.312	-19.04763
965.69	-20.04719
966.067	-72.16599
966.444	-27.063
966.821	-59.145
967.198	-68.15452
967.575	-57.13191
967.952	7.01544
968.329	-9.02055
968.705	-14.0273
969.082	-8.01968
969.458	-34.07851
969.835	-33.07594
970.211	-27.06626
970.587	-1.00235
970.963	-40.09782
971.339	18.04508
971.715	-61.14301
972.091	-56.13101
972.467	-43.10018
972.843	-65.15453
973.219	-44.09832
973.594	-27.06773
973.97	8.01754
974.345	-59.13415
974.721	-20.04537
975.096	-60.13673
975.471	-21.04711
975.846	-5.01141
976.221	-37.08992
976.596	-54.1232
976.971	-20.04679
977.346	-53.11478
977.72	-48.11668
978.095	2.00493
978.469	-1.00225
978.844	-7.0166
979.218	-22.05038
979.593	-3.00677
979.967	50.1144
980.341	-37.07955
980.715	-39.09308
981.089	-58.13712
981.463	-20.04369
981.837	-28.0655
982.21	-19.04104
982.584	-36.08187
982.957	-38.0913
983.331	2.00443
983.704	-9.02108
984.078	-62.14493
984.451	-38.08761
984.824	0
985.197	-21.048
985.57	12.02806
985.943	-79.18239
986.316	22.0506
986.688	-45.10232
987.061	-60.13169
987.434	-23.0574
987.806	-32.07295
988.179	-83.18535
988.551	-2.00476
988.923	-61.14279
989.295	8.01877
989.667	-28.06478
990.039	-5.01175
990.411	39.0841
990.783	-30.06448
991.155	-30.06949
991.527	-48.1096
991.898	-30.07051
992.27	-40.09442
992.641	-8.01886
993.012	10.02217
993.384	-72.16374
993.755	-65.15809
994.126	-10.02271
994.497	-69.16171
994.868	-38.08252
995.239	-14.03224
995.61	-47.11251
995.98	-19.04416
996.351	-33.07843
996.722	1.00219
997.092	-3.00676
997.462	-58.13041
997.833	-4.00884
998.203	-27.06142
998.573	-31.07407
998.943	-42.09183
999.313	-23.0524
999.683	-41.0922
1000.053	-15.03253
1000.423	-33.07597
1000.792	-9.02226
1001.162	-37.08715
1001.531	-7.01642
1001.901	-42.0991
1002.27	1.00209
1002.639	-25.06115
1003.009	43.0967
1003.378	-34.08321
1003.747	10.02199
1004.116	-47.10751
1004.485	-21.04769
1004.853	-26.06273
1005.222	9.0217
1005.591	-17.0376
1005.959	-20.04292
1006.328	-42.08849
1006.696	-8.01835
1007.064	-61.14709
1007.433	22.05205
1007.801	-18.04138
1008.169	-38.09067
1008.537	9.01856
1008.905	-49.10861
1009.273	18.04171
1009.64	-56.12792
1010.008	-48.10805
1010.375	32.07236
1010.743	-41.08678
1011.11	-35.07858
1011.478	-19.04441
1011.845	-38.08281
1012.212	-85.18054
1012.579	-12.02794
1012.946	-38.08393
1013.313	-31.06931
1013.68	-36.07518
1014.047	-6.01368
1014.414	-6.01346
1014.78	14.03315
1015.147	-20.04486
1015.513	33.07561
1015.88	3.00715
1016.246	-45.10596
1016.612	12.02524
1016.978	-40.09266
1017.344	25.05877
1017.71	-58.13137
1018.076	-26.0575
1018.442	-50.1225
1018.808	-48.11467
1019.174	-41.09736
1019.539	-2.00415
1019.905	-1.00223
1020.27	-22.05205
1020.636	9.02016
1021.001	-26.05827
1021.366	-13.03006
1021.731	-16.03936
1022.096	-10.02421
1022.461	-73.16221
1022.826	-4.00895
1023.191	-58.14661
1023.556	-48.10464
1023.92	-29.06666
1024.285	-32.07357
1024.649	-10.02315
1025.014	-5.01167
1025.378	-27.06535
1025.742	-6.01406
1026.107	-55.11555
1026.471	-40.08583
1026.835	-51.11901
1027.199	-1.00228
1027.562	-18.03956
1027.926	-15.03446
1028.29	-22.05314
1028.654	-19.04046
1029.017	3.00697
1029.381	-1.00226
1029.744	9.0219
1030.107	-71.15632
1030.471	-38.08565
1030.834	-80.16907
1031.197	-41.09182
1031.56	22.04904
1031.923	-29.07148
1032.286	-9.01964
1032.648	42.09261
1033.011	-1.00215
1033.374	-38.08281
1033.736	-42.1059
1034.099	-17.0394
1034.461	-25.06074
1034.823	-33.07767
1035.185	-38.08956
1035.548	-10.02288
1035.91	-9.02046
1036.272	-9.01916
1036.634	-31.07071
1036.995	-25.05594
1037.357	-14.03226
1037.719	-11.02517
1038.08	-70.15474
1038.442	68.15283
1038.803	-14.03137
1039.165	-20.04805
1039.526	-27.06174
1039.887	-22.05005
1040.248	5.0119
1040.609	17.03936
1040.97	-61.14184
1041.331	-102.24441
1041.692	11.02425
1042.053	-32.06751
1042.413	-31.06699
1042.774	12.0272
1043.134	-50.11113
1043.495	-38.09015
1043.855	-10.02288
1044.215	-19.04448
1044.576	-8.01816
1044.936	33.07046
1045.296	5.01169
1045.656	-15.03473
1046.016	-10.02236
1046.375	17.03904
1046.735	1.00215
1047.095	-38.08407
1047.454	9.01747
1047.814	-30.06753
1048.173	-22.04843
1048.533	-18.03891
1048.892	-50.11509
1049.251	-25.05955
1049.61	-84.19559
1049.969	-5.01115
1050.328	-57.11388
1050.687	-27.06196
1051.046	9.02078
1051.405	-59.13795
1051.763	-18.03906
1052.122	6.01429
1052.48	-15.03448
1052.839	-36.08011
1053.197	-35.07787
1053.555	-85.17628
1053.914	7.016
1054.272	-12.02718
1054.63	-42.09683
1054.988	-60.13496
1055.345	-88.17602
1055.703	-34.07644
1056.061	-51.1258
1056.419	-26.06462
1056.776	6.01357
1057.134	-47.10226
1057.491	-41.09736
1057.848	-21.04914
1058.206	-35.07742
1058.563	-13.027
1058.92	-23.04904
1059.277	-63.14521
1059.634	-57.12387
1059.991	32.0718
1060.348	-32.06861
1060.704	-37.08365
1061.061	-26.05519
1061.418	-14.03228
1061.774	-28.06661
1062.131	-7.01809
1062.487	-31.06762
1062.843	-10.02353
1063.199	2.00473
1063.555	-24.05274
1063.911	-50.11995
1064.267	-9.01675
1064.623	-24.05584
1064.979	-37.0802
1065.335	-53.11767
1065.691	34.07676
1066.046	-27.05469
1066.402	-67.14374
1066.757	8.0191
1067.112	-15.03429
1067.468	41.09182
1067.823	14.03162
1068.178	-13.02983
1068.533	-36.0818
1068.888	-51.11394
1069.243	30.0698
1069.598	-63.14313
1069.952	0
1070.307	20.04743
1070.662	2.00447
1071.016	-27.05732
1071.371	-49.10439
1071.725	-79.17467
1072.079	-22.04975
1072.434	-48.11053
1072.788	3.00675
1073.142	39.09054
1073.496	-39.08752
1073.85	-36.07831
1074.203	-50.11454
1074.557	-44.11336
1074.911	-18.03984
1075.265	-39.08414
1075.618	23.0528
1075.971	-53.11865
1076.325	-22.05322
1076.678	-56.12099
1077.031	-7.01473
1077.385	17.03486
1077.738	-31.06582
1078.091	-24.05208
1078.444	-47.10122
1078.796	-24.05619
1079.149	-33.07673
1079.502	-36.08054
1079.855	-13.02861
1080.207	-24.05573
1080.56	-53.13112
1080.912	-66.15034
1081.264	-19.04308
1081.617	12.02754
1081.969	-1.00244
1082.321	-15.0346
1082.673	-20.04343
1083.025	-76.16982
1083.377	-19.03704
1083.728	-108.23524
1084.08	-2.00475
1084.432	-98.2207
1084.783	28.06166
1085.135	-9.0217
1085.486	-12.02596
1085.838	-24.05597
1086.189	-30.06883
1086.54	-8.01793
1086.891	-13.03169
1087.242	-40.09148
1087.593	-33.07518
1087.944	-33.06969
1088.295	-38.07992
1088.646	-10.02288
1088.996	-88.20231
1089.347	-50.11573
1089.698	-44.09954
1090.048	-54.13323
1090.398	-5.01091
1090.749	-19.04296
1091.099	3.00722
1091.449	-12.02803
1091.799	-41.0974
1092.149	-20.04736
1092.499	-8.01847
1092.849	-20.04842
1093.199	9.02111
1093.548	-1.00227
1093.898	-28.06674
1094.248	1.00243
1094.597	-19.04695
1094.947	-25.06375
1095.296	-38.08859
1095.645	-25.06169
1095.994	0
1096.343	19.04562
1096.692	-20.05084
1097.041	-31.08146
1097.39	-29.06879
1097.739	8.01982
1098.088	-82.20979
1098.437	-72.18362
1098.785	-41.10565
1099.134	-59.14853
1099.482	-53.13955
1099.83	-2.00498
1100.179	4.01009
1100.527	-54.13694
1100.875	-50.12711
1101.223	-32.08224
1101.571	-41.11009
1101.919	-31.07843
1102.267	-10.0275
1102.615	1.00321
1102.962	-2.00642
1103.31	10.03209
1103.658	-5.01604
