Data from N3 R6 sample 4_Subt2__4__15-28-14-527.txt Node

Date: Fri Sep 19 15:28:14 PDT 2025
User: uwsun
Spectrometer: HDX01956
Trigger mode: 0
Integration Time (sec): 5.000000E-1
Scans to average: 1
Nonlinearity correction enabled: true
Boxcar width: 0
Storing dark spectrum: false
XAxis mode: Wavelengths
Number of Pixels in Spectrum: 2068
>>>>>Begin Spectral Data<<<<<
194.03	-3.00872
194.578	20.0649
195.127	0
195.676	-6.01925
196.225	13.03429
196.773	13.03625
197.321	15.0418
197.87	-4.01038
198.418	26.06775
198.966	29.07685
199.513	56.14292
200.061	-22.0565
200.609	-30.08007
201.156	-47.10331
201.704	-13.03296
202.251	-31.08324
202.798	-11.02898
203.345	25.06208
203.892	-35.08934
204.438	-12.02897
204.985	-56.13618
205.532	66.17702
206.078	14.0346
206.624	26.06469
207.17	30.06966
207.716	-49.11998
208.262	-24.0478
208.808	22.05508
209.354	-14.03445
209.899	-24.06093
210.445	17.04293
210.99	-53.13069
211.535	-2.00473
212.08	-2.00467
212.625	-28.07083
213.17	17.04306
213.715	-15.03422
214.259	63.14684
214.804	-38.09444
215.348	-37.08566
215.892	29.06995
216.436	16.03736
216.98	-18.03976
217.524	-47.11277
218.068	34.08545
218.612	-28.07048
219.155	4.00944
219.698	-24.05707
220.242	13.0323
220.785	59.13708
221.328	57.14128
221.871	14.03539
222.414	-18.04439
222.956	-12.02925
223.499	7.01574
224.041	-59.13686
224.583	25.05322
225.126	61.13526
225.668	19.04619
226.21	-33.08355
226.751	-21.04556
227.293	-35.07964
227.835	-48.11777
228.376	17.03862
228.918	24.06021
229.459	26.06537
230	11.0261
230.541	-34.07823
231.082	22.05318
231.622	31.07094
232.163	21.05125
232.704	-34.08459
233.244	-12.02981
233.784	-5.01213
234.324	29.06431
234.864	-39.08853
235.404	-6.0141
235.944	-6.01406
236.484	-41.10169
237.023	27.0637
237.563	-22.05094
238.102	7.01648
238.641	16.04063
239.18	8.01882
239.719	9.02273
240.258	6.01335
240.797	-4.00962
241.335	-35.08484
241.874	36.0691
242.412	1.00239
242.95	-14.03388
243.488	-25.0573
244.026	-3.00694
244.564	-5.01025
245.102	-14.03152
245.64	45.1069
246.177	9.01994
246.715	-50.1194
247.252	-10.02268
247.789	-54.0966
248.326	-28.06686
248.863	-41.08989
249.4	82.18512
249.936	-9.01842
250.473	11.02565
251.009	16.03689
251.546	0
252.082	1.00221
252.618	2.00449
253.154	-3.0072
253.69	-37.08348
254.226	0
254.761	-34.07557
255.297	-15.03303
255.832	-54.12816
256.367	15.03495
256.903	-9.0196
257.438	-9.02087
257.972	-41.09095
258.507	48.11031
259.042	-48.1026
259.576	-10.02164
260.111	-20.04604
260.645	10.02162
261.179	-4.00926
261.713	-18.03979
262.247	43.09923
262.781	19.03992
263.315	10.02445
263.849	-6.015
264.382	-10.02281
264.915	38.08893
265.449	-35.0863
265.982	-11.02467
266.515	17.0413
267.048	-20.04269
267.58	-57.12328
268.113	15.03253
268.646	10.02484
269.178	-17.03809
269.71	-16.03473
270.243	-7.01594
270.775	-13.03316
271.307	-37.08807
271.838	-18.04241
272.37	-22.05452
272.902	11.02508
273.433	-11.02386
273.965	31.07588
274.496	-35.0864
275.027	-20.04945
275.558	-7.01695
276.089	37.09234
276.62	-25.06343
277.15	12.02939
277.681	-27.0576
278.211	1.00242
278.741	17.03771
279.272	-14.03206
279.802	11.02746
280.332	24.05639
280.861	-13.03131
281.391	-15.03391
281.921	-16.03802
282.45	50.12526
282.98	11.02872
283.509	10.02237
284.038	-14.03136
284.567	-44.10132
285.096	40.09607
285.625	25.05728
286.153	-21.04922
286.682	-10.0227
287.21	26.06213
287.739	9.02103
288.267	11.02671
288.795	16.04181
289.323	36.08481
289.851	-40.0938
290.378	-33.07464
290.906	-11.0269
291.433	41.10158
291.961	-44.09974
292.488	16.03974
293.015	16.03793
293.542	-12.03034
294.069	3.00737
294.596	6.0148
295.122	12.02861
295.649	27.0598
296.175	-30.07202
296.702	-11.0264
297.228	-41.0986
297.754	8.01788
298.28	1.00226
298.806	-13.03156
299.332	4.00885
299.857	-43.09749
300.383	-16.0402
300.908	-10.0246
301.433	16.03902
301.958	-28.06378
302.483	41.10318
303.008	11.0269
303.533	-18.04616
304.058	0
304.582	-48.11489
305.107	11.0289
305.631	16.036
306.155	62.14442
306.679	15.03514
307.203	40.09251
307.727	44.10435
308.251	-5.01234
308.775	-16.03809
309.298	26.0627
309.822	2.00504
310.345	5.01186
310.868	-22.05286
311.391	21.0514
311.914	7.0176
312.437	21.04724
312.96	51.1198
313.482	8.01906
314.005	-18.04544
314.527	11.02898
315.049	-6.0151
315.571	31.07049
316.093	52.12877
316.615	31.07517
317.137	-11.02383
317.659	-13.0313
318.18	17.04107
318.702	37.0859
319.223	-37.07684
319.744	58.12976
320.265	13.0317
320.786	-12.02992
321.307	18.04503
321.828	61.13819
322.348	32.07562
322.869	-44.10346
323.389	231.41081
323.909	-5.01155
324.43	-21.05052
324.95	23.05297
325.47	17.04207
325.989	64.15277
326.509	-15.03352
327.029	-19.04329
327.548	34.07688
328.067	9.02176
328.587	26.06492
329.106	25.05666
329.625	16.04128
330.144	-4.00919
330.662	-3.00701
331.181	53.12377
331.7	25.05845
332.218	99.21376
332.736	-16.03745
333.255	12.02802
333.773	41.0971
334.291	-9.02232
334.808	-3.00668
335.326	61.13723
335.844	65.15215
336.361	11.02791
336.879	44.10225
337.396	13.03109
337.913	6.01379
338.43	66.14924
338.947	39.0929
339.464	16.03445
339.981	45.10711
340.497	65.15963
341.014	17.04115
341.53	81.18327
342.046	66.16152
342.562	52.12886
343.078	39.09133
343.594	93.22102
344.11	61.1438
344.626	75.1884
345.141	84.19142
345.657	33.07388
346.172	19.04562
346.687	97.221
347.202	57.12755
347.717	85.2013
348.232	86.21335
348.747	50.11463
349.261	91.2012
349.776	51.11863
350.29	79.19459
350.805	54.13156
351.319	105.24193
351.833	74.16822
352.347	42.09691
352.861	64.14855
353.374	58.13158
353.888	58.13824
354.401	91.2064
354.915	72.16168
355.428	125.30652
355.941	66.15349
356.454	91.20153
356.967	67.15788
357.48	71.16117
357.993	84.20411
358.505	114.27763
359.018	61.14642
359.53	60.143
360.042	40.08724
360.554	94.22326
361.066	80.19191
361.578	123.26581
362.09	108.25345
362.602	82.17914
363.113	89.20047
363.625	78.17573
364.136	94.2037
364.647	103.23675
365.158	105.24183
365.669	117.27987
366.18	63.14377
366.691	141.30418
367.201	90.21063
367.712	84.18607
368.222	153.3466
368.733	149.31923
369.243	111.23823
369.753	81.18357
370.263	112.25955
370.773	127.30761
371.282	130.30102
371.792	104.23325
372.301	112.26643
372.811	120.30538
373.32	114.23722
373.829	162.37467
374.338	145.31429
374.847	136.30264
375.356	156.36308
375.865	136.28199
376.373	168.36919
376.882	148.36352
377.39	187.43617
377.898	202.48345
378.407	133.2884
378.915	179.37007
379.423	240.54069
379.93	235.50392
380.438	223.52198
380.946	221.49412
381.453	241.54927
381.96	246.55375
382.468	221.50145
382.975	309.71076
383.482	324.67749
383.989	321.76894
384.495	353.75235
385.002	345.66784
385.509	313.67695
386.015	403.73797
386.521	359.73121
387.028	400.82046
387.534	422.81397
388.04	491.02366
388.546	494.95926
389.051	499.95442
389.557	535.07601
390.063	620.22179
390.568	588.19177
391.073	606.15161
391.578	602.22408
392.084	623.14346
392.589	709.25598
393.093	684.30833
393.598	809.43579
394.103	863.58897
394.607	951.68672
395.112	1004.82656
395.616	1103.89256
396.12	1246.92493
396.624	1296.98989
397.128	1439.17363
397.632	1579.16076
398.136	1681.21004
398.639	1886.3934
399.143	2171.6525
399.646	2374.3796
400.15	2645.25161
400.653	2976.07094
401.156	3344.55616
401.659	3876.45485
402.162	4978.4304
402.664	6941.27005
403.167	12275.53487
403.67	32844.51222
404.172	52099.03543
404.674	37291.05854
405.176	4428.40989
405.678	533.47942
406.18	0
406.682	0
407.184	6962.89417
407.686	28933.97017
408.187	18062.0935
408.688	11608.68828
409.19	8644.66722
409.691	7364.62481
410.192	6213.63398
410.693	5686.45856
411.194	5008.84002
411.694	4874.19929
412.195	4453.81188
412.696	4106.88208
413.196	3926.53647
413.696	4067.18911
414.196	3935.74915
414.696	3825.42813
415.196	3560.38103
415.696	2967.59067
416.196	2334.11497
416.695	1883.2594
417.195	1686.27492
417.694	1665.75892
418.194	1494.78388
418.693	1464.02508
419.192	1479.17132
419.691	1455.15385
420.19	1389.1173
420.688	1360.1982
421.187	1235.60075
421.685	1131.8245
422.184	1061.77766
422.682	937.51544
423.18	800.43852
423.678	690.26638
424.176	649.20923
424.674	564.02378
425.172	566.10996
425.669	536.1278
426.167	515.01191
426.664	433.85745
427.161	395.79099
427.659	428.92622
428.156	362.68079
428.652	321.73541
429.149	332.72771
429.646	272.54203
430.143	315.68739
430.639	277.60064
431.135	212.48659
431.632	231.48742
432.128	216.48663
432.624	124.29927
433.12	221.47144
433.616	192.39134
434.111	188.42268
434.607	153.34618
435.103	177.34377
435.598	165.31939
436.093	122.26878
436.588	172.36413
437.083	167.35409
437.578	96.20892
438.073	88.20853
438.568	91.21235
439.062	131.265
439.557	82.18323
440.051	77.16768
440.546	85.18675
441.04	59.13399
441.534	118.2863
442.028	98.22467
442.522	77.17826
443.015	105.21874
443.509	111.26044
444.002	78.18412
444.496	8.01673
444.989	125.29329
445.482	49.11739
445.975	40.08872
446.468	77.15912
446.961	33.06777
447.454	6.01302
447.947	84.19428
448.439	95.22377
448.931	72.15663
449.424	-1.00242
449.916	-3.00701
450.408	61.13543
450.9	9.02123
451.392	86.20952
451.884	-23.05096
452.375	38.0906
452.867	44.09559
453.358	-2.00438
453.849	8.01648
454.341	10.02198
454.832	23.04817
455.323	9.02141
455.814	26.05747
456.304	14.03117
456.795	21.04598
457.285	-3.00642
457.776	-30.06543
458.266	68.15652
458.756	-24.05562
459.247	-2.00461
459.737	54.12544
460.226	49.10621
460.716	35.08119
461.206	-15.03467
461.695	33.08035
462.185	40.09163
462.674	-31.06886
463.163	-3.00639
463.653	42.08525
464.142	-4.00932
464.63	59.13822
465.119	42.0947
465.608	8.01779
466.096	-24.05121
466.585	-28.06213
467.073	-26.06004
467.561	35.0826
468.05	-12.02685
468.538	28.06735
469.026	2.00469
469.513	-47.09721
470.001	6.01317
470.489	-18.04151
470.976	-19.04275
471.463	29.07056
471.951	27.0653
472.438	18.04112
472.925	-41.09303
473.412	-18.04262
473.899	-7.01572
474.385	7.01669
474.872	-24.05447
475.359	-6.01427
475.845	-28.05665
476.331	-36.07558
476.817	-10.02347
477.303	21.04717
477.789	-13.03047
478.275	-22.05354
478.761	-14.03271
479.247	-18.03901
479.732	11.02686
480.218	12.03036
480.703	5.01226
481.188	-42.08767
481.673	-12.0269
482.158	-24.05048
482.643	-14.03472
483.128	1.00221
483.612	-22.04995
484.097	-52.12474
484.581	-30.06698
485.066	-6.01412
485.55	-40.08524
486.034	-1.00213
486.518	14.03202
487.002	-33.07933
487.486	4.00952
487.969	-12.02905
488.453	58.14173
488.936	-43.09467
489.42	32.06852
489.903	-11.02707
490.386	-22.04627
490.869	-25.05215
491.352	-42.10003
491.835	-77.15498
492.318	-9.01996
492.8	-54.10856
493.283	13.03244
493.765	-44.10708
494.247	-39.08835
494.73	-14.03016
495.212	-33.0777
495.694	-40.09185
496.175	-51.11952
496.657	42.09756
497.139	-107.17669
497.62	-56.13209
498.102	-19.04644
498.583	-99.24304
499.064	-23.05096
499.545	20.04415
500.026	-38.08344
500.507	-66.14937
500.988	-22.05296
501.469	-35.08551
501.949	-46.11052
502.43	-67.15683
502.91	-16.03211
503.39	-64.15767
503.87	-22.05086
504.35	-36.08217
504.83	-39.08396
505.31	-10.02381
505.79	-21.04922
506.269	-73.16719
506.749	-39.08724
507.228	-34.07835
507.707	11.02363
508.187	-26.06018
508.666	-40.09599
509.145	-46.10567
509.623	-8.01829
510.102	14.03282
510.581	26.06016
511.059	0
511.538	3.00754
512.016	43.10006
512.494	-6.01408
512.972	76.17521
513.45	20.04567
513.928	52.12213
514.406	91.21543
514.884	105.26271
515.361	116.26796
515.839	34.07465
516.316	87.19917
516.793	105.25356
517.27	146.3374
517.747	111.2736
518.224	95.20873
518.701	147.31018
519.178	168.40255
519.654	42.09432
520.131	52.12303
520.607	70.16709
521.083	121.26462
521.56	110.24661
522.036	107.22449
522.512	102.2404
522.987	137.31339
523.463	105.2398
523.939	60.14185
524.414	49.1082
524.89	65.14731
525.365	69.15192
525.84	112.26181
526.315	54.12474
526.79	29.0628
527.265	-13.02859
527.74	6.01423
528.215	61.1392
528.689	34.07403
529.164	-62.12999
529.638	28.07022
530.112	48.11106
530.587	69.14349
531.061	49.1151
531.534	-5.01175
532.008	37.08678
532.482	-5.01095
532.956	-5.0127
533.429	-49.1138
533.903	-26.05574
534.376	18.03847
534.849	6.01362
535.322	7.01611
535.795	-42.10102
536.268	12.02834
536.741	-24.05645
537.213	-12.02723
537.686	-80.19206
538.158	-33.0729
538.631	-45.10682
539.103	-44.09714
539.575	-2.00404
540.047	-38.08182
540.519	-25.05804
540.991	-40.09534
541.463	-25.05973
541.934	-51.11549
542.406	-44.10374
542.877	-75.16728
543.348	-66.15355
543.82	-65.15709
544.291	-69.1565
544.762	-60.14037
545.233	7.01736
545.703	-14.03048
546.174	-41.09443
546.645	-5.01195
547.115	-35.08331
547.585	-19.04346
548.056	18.04323
548.526	-62.14499
548.996	-50.11862
549.466	-73.17535
549.935	-51.12153
550.405	-30.06551
550.875	-50.11651
551.344	-44.10519
551.814	-77.17273
552.283	-68.14522
552.752	-38.08701
553.221	-89.19274
553.69	-12.02626
554.159	-30.07388
554.628	-34.07481
555.096	-18.04482
555.565	-29.06337
556.033	3.00686
556.502	-62.14811
556.97	-84.18397
557.438	-26.06054
557.906	13.03002
558.374	14.03123
558.842	-27.06357
559.31	6.01298
559.777	-35.08385
560.245	-26.05913
560.712	-40.08942
561.18	7.01501
561.647	-19.04138
562.114	-37.08307
562.581	66.15779
563.048	38.08351
563.514	22.05292
563.981	47.10339
564.448	42.09152
564.914	46.10309
565.381	57.12297
565.847	89.19858
566.313	77.17138
566.779	127.27527
567.245	112.25058
567.711	135.31043
568.176	154.33657
568.642	104.25271
569.108	144.33753
569.573	128.28247
570.038	183.36289
570.504	204.43452
570.969	185.43677
571.434	236.48627
571.899	265.58882
572.363	247.52027
572.828	262.54858
573.293	250.53319
573.757	314.6656
574.222	388.79082
574.686	341.70119
575.15	390.84292
575.614	338.70395
576.078	374.79312
576.542	420.85993
577.006	426.86511
577.469	442.9708
577.933	392.78116
578.396	479.02159
578.86	432.9025
579.323	441.94028
579.786	471.88647
580.249	364.75405
580.712	433.94084
581.175	418.93083
581.637	494.00961
582.1	432.83206
582.563	308.58037
583.025	435.94639
583.487	344.61831
583.95	406.78009
584.412	414.76022
584.874	372.81674
585.336	392.84108
585.797	334.6501
586.259	304.64328
586.721	345.73817
587.182	335.69848
587.643	265.55327
588.105	286.62636
588.566	282.5413
589.027	271.61264
589.488	303.62755
589.949	236.52602
590.41	218.39786
590.87	224.46383
591.331	199.39185
591.791	170.36383
592.252	166.35804
592.712	187.42121
593.172	226.47195
593.632	167.33178
594.092	164.34278
594.552	176.35056
595.011	162.35376
595.471	163.34198
595.931	133.27929
596.39	121.27679
596.849	134.29447
597.308	121.24668
597.768	108.26312
598.227	147.33545
598.685	38.08256
599.144	76.16996
599.603	150.33504
600.062	106.20917
600.52	69.14803
600.978	105.23932
601.437	101.21883
601.895	99.19898
602.353	67.14026
602.811	98.2062
603.269	102.23121
603.727	103.23523
604.184	62.13424
604.642	69.16158
605.099	71.15691
605.557	26.06049
606.014	72.14755
606.471	124.29837
606.928	120.25449
607.385	53.12693
607.842	125.27522
608.299	83.18435
608.755	80.18429
609.212	154.32445
609.668	79.16897
610.125	97.22144
610.581	65.14425
611.037	133.28409
611.493	58.13014
611.949	90.20716
612.405	120.22922
612.861	73.16073
613.316	132.30079
613.772	115.25043
614.227	115.25766
614.683	106.21467
615.138	118.26585
615.593	50.11039
616.048	45.09716
616.503	111.2583
616.958	106.25293
617.412	110.24671
617.867	82.17542
618.321	76.14532
618.776	116.24128
619.23	124.27799
619.684	114.23986
620.138	51.11045
620.592	94.21585
621.046	96.21203
621.5	28.06525
621.954	81.17144
622.407	112.23379
622.861	18.04147
623.314	109.23434
623.768	88.19534
624.221	92.17224
624.674	4.00878
625.127	77.17138
625.58	-20.04295
626.033	99.20211
626.485	1.0023
626.938	61.13729
627.39	46.10236
627.843	59.12865
628.295	35.07758
628.747	43.09777
629.199	90.19578
629.651	34.07428
630.103	34.07516
630.555	17.03409
631.006	46.10283
631.458	-11.02465
631.909	25.05437
632.361	33.07269
632.812	18.04012
633.263	54.10906
633.714	-39.0794
634.165	-15.03437
634.616	2.00454
635.067	-2.00418
635.518	0
635.968	30.05667
636.419	-12.02468
636.869	-11.02496
637.319	25.05523
637.769	13.02807
638.219	-12.02711
638.669	13.02997
639.119	10.02331
639.569	18.04219
640.019	-1.00221
640.468	-72.15416
640.918	-33.07664
641.367	-23.05
641.816	24.05154
642.265	26.05755
642.714	33.0736
643.163	-50.10997
643.612	11.02584
644.061	-62.12666
644.51	19.04182
644.958	-27.0575
645.406	26.06011
645.855	-52.12379
646.303	-3.00671
646.751	5.01106
647.199	-24.05183
647.647	28.06267
648.095	-22.04857
648.543	-14.02705
648.99	28.06466
649.438	-14.03186
649.885	1.00241
650.333	-32.05861
650.78	40.09446
651.227	-31.07398
651.674	5.01103
652.121	-58.13595
652.568	-23.05437
653.015	-83.20195
653.461	-63.14672
653.908	1.00224
654.354	-46.10537
654.801	-17.03883
655.247	-8.01682
655.693	-9.02284
656.139	-25.05806
656.585	-33.07725
657.031	-12.02747
657.477	16.03352
657.922	-28.06324
658.368	-46.11014
658.813	-26.05709
659.259	-5.01169
659.704	11.02496
660.149	-9.02031
660.594	-7.01614
661.039	12.02656
661.484	35.08032
661.929	10.02247
662.373	21.05199
662.818	2.00486
663.262	7.01624
663.707	-59.14591
664.151	2.0048
664.595	-7.01644
665.039	-35.08452
665.483	7.01746
665.927	-34.07738
666.371	-25.05698
666.814	-8.01847
667.258	-13.03031
667.701	-41.08431
668.145	-25.06026
668.588	30.07131
669.031	-19.04397
669.474	-32.07501
669.917	-13.02765
670.36	2.00478
670.803	2.00465
671.245	-19.03842
671.688	-35.08283
672.13	-39.08486
672.573	15.0371
673.015	6.01388
673.457	-2.00425
673.899	5.01164
674.341	-6.01402
674.783	16.03734
675.225	-19.04541
675.666	0
676.108	3.00632
676.549	-45.10339
676.991	-44.09397
677.432	-28.05312
677.873	-25.0559
678.314	-18.04163
678.755	21.04968
679.196	-25.05608
679.637	-30.07062
680.078	8.01797
680.518	-42.09331
680.959	-14.03248
681.399	-68.16418
681.839	25.05852
682.28	-1.00241
682.72	-48.10655
683.16	28.06753
683.6	19.0415
684.039	-38.07615
684.479	-41.09852
684.919	-11.02491
685.358	-10.0245
685.798	-42.10707
686.237	1.00233
686.676	-26.05824
687.115	-6.01362
687.554	18.0411
687.993	-39.08219
688.432	30.06645
688.871	-30.06604
689.309	53.12455
689.748	3.006
690.186	-23.05261
690.625	56.12782
691.063	34.07926
691.501	18.04303
691.939	1.00242
692.377	-4.00948
692.815	-8.0188
693.253	-28.06453
693.69	-12.02539
694.128	-12.02859
694.565	20.04605
695.003	1.00247
695.44	-41.09341
695.877	-22.0505
696.314	16.03275
696.751	-14.03056
697.188	6.01338
697.625	-7.01529
698.061	17.03937
698.498	-6.01401
698.934	-69.16107
699.371	-37.08542
699.807	7.01601
700.243	55.12834
700.679	19.04122
701.115	5.01123
701.551	28.06373
701.987	-12.02566
702.422	3.00686
702.858	-39.08957
703.294	-16.03466
703.729	8.01902
704.164	30.06996
704.599	-11.0234
705.035	-12.02604
705.47	34.08063
705.904	0
706.339	-10.02204
706.774	-58.13153
707.209	-46.10279
707.643	-1.00232
708.078	-15.03524
708.512	-17.04215
708.946	-47.10872
709.38	-12.02723
709.814	-38.0834
710.248	-55.12885
710.682	-18.04185
711.116	-30.07038
711.549	-43.10751
711.983	-40.08883
712.416	-8.01796
712.85	-9.02188
713.283	-29.06642
713.716	6.01442
714.149	-12.02718
714.582	-22.0477
715.015	-24.05771
715.448	-37.08915
715.881	-49.10094
716.313	8.01813
716.746	-13.02974
717.178	-38.08824
717.61	2.0049
718.043	-35.08372
718.475	-83.19566
718.907	-58.14041
719.339	-46.10109
719.77	-15.03486
720.202	-29.0709
720.634	-40.09537
721.065	-32.07307
721.497	6.01419
721.928	-39.09365
722.359	-26.06178
722.79	-66.15398
723.221	-38.09168
723.652	-8.01968
724.083	-26.05613
724.514	-40.08672
724.945	-36.0819
725.375	-42.09482
725.806	-58.13787
726.236	-13.03204
726.666	-32.07236
727.096	-70.16581
727.526	-42.104
727.956	13.02817
728.386	-55.12895
728.816	-39.09613
729.246	7.01648
729.675	-27.06496
730.105	-13.03056
730.534	-35.07887
730.964	-41.09894
731.393	-52.12227
731.822	14.03448
732.251	-55.13657
732.68	-51.11267
733.109	-28.06679
733.537	-67.15677
733.966	-39.09315
734.395	-78.17307
734.823	-49.10507
735.251	-68.15921
735.68	-15.03588
736.108	-21.05089
736.536	-10.02253
736.964	-64.14271
737.392	-56.13454
737.82	-49.11272
738.247	-21.04771
738.675	-2.00449
739.102	22.05324
739.53	5.01235
739.957	-61.15163
740.384	-10.02328
740.811	-1.00245
741.238	-53.12401
741.665	-4.009
742.092	-15.03383
742.519	-74.18042
742.945	-35.08064
743.372	-13.03106
743.798	-46.11437
744.225	-81.18618
744.651	-74.17941
745.077	-57.13755
745.503	-85.19959
745.929	-85.19686
746.355	-36.08429
746.781	-39.09293
747.207	-66.15222
747.632	-23.05439
748.058	-51.12162
748.483	-91.20044
748.908	-44.10551
749.334	-34.08029
749.759	-56.12673
750.184	-29.06626
750.609	-69.16297
751.033	-57.12676
751.458	-5.01075
751.883	-60.14256
752.307	-42.09671
752.732	-43.10548
753.156	-58.1384
753.58	-26.05875
754.005	0
754.429	-60.13363
754.853	-37.08881
755.277	3.00682
755.7	-36.08574
756.124	-30.07276
756.548	-33.0757
756.971	-31.07228
757.394	-25.06208
757.818	10.02489
758.241	-37.09003
758.664	-30.07393
759.087	-46.10088
759.51	-6.01429
759.933	6.0139
760.356	4.00981
760.778	13.03111
761.201	-62.14271
761.623	-50.11449
762.046	-106.23745
762.468	-15.03423
762.89	3.00706
763.312	-5.01156
763.734	-56.1308
764.156	-36.086
764.578	-94.20657
765	-21.04912
765.421	5.01245
765.843	9.02278
766.264	-19.04345
766.686	5.01213
767.107	26.06078
767.528	5.01231
767.949	-37.09083
768.37	-59.1393
768.791	-29.06682
769.212	-18.04434
769.632	-61.1369
770.053	-10.02549
770.473	15.03485
770.894	-49.11667
771.314	-56.12679
771.734	-81.18118
772.154	19.04673
772.575	1.00219
772.994	-60.13163
773.414	-65.14683
773.834	-34.08256
774.254	-28.0654
774.673	-55.12829
775.093	-3.00717
775.512	3.00713
775.931	13.03191
776.351	-56.13347
776.77	-28.0662
777.189	-67.15234
777.607	-50.12422
778.026	0
778.445	-36.08836
778.864	-18.04413
779.282	-74.1704
779.701	-49.11949
780.119	-55.13367
780.537	-94.22798
780.955	-44.10748
781.373	-25.05925
781.791	-25.05396
782.209	-47.10426
782.627	-40.1028
783.045	15.03262
783.462	-39.09546
783.88	-20.05023
784.297	-10.02414
784.715	-24.06049
785.132	-40.09295
785.549	33.07966
785.966	-55.13312
786.383	-12.02849
786.8	-17.03765
787.217	-14.03155
787.633	-22.05294
788.05	-59.13045
788.466	-50.11182
788.883	21.05174
789.299	-32.07301
789.715	-34.07998
790.131	-66.15773
790.547	-74.17522
790.963	-62.14879
791.379	-24.05852
791.795	1.00215
792.21	-31.06883
792.626	-23.05196
793.041	-43.10129
793.457	-56.1326
793.872	-44.09933
794.287	42.09737
794.702	-43.10109
795.117	-37.0877
795.532	-14.03412
795.947	-12.02714
796.362	-16.0359
796.776	-71.15389
797.191	-35.08167
797.605	-20.04589
798.02	-44.10386
798.434	-12.02492
798.848	-60.14141
799.262	14.03367
799.676	-6.01377
800.09	-57.13416
800.504	5.0115
800.918	-44.0969
801.331	-14.03492
801.745	-18.03901
802.158	-50.12004
802.572	2.00457
802.985	-33.075
803.398	-10.02265
803.811	-8.01951
804.224	-11.02598
804.637	-101.22871
805.05	-15.03289
805.462	-43.10073
805.875	28.07073
806.288	-7.0163
806.7	-23.05533
807.112	-28.06164
807.525	-8.01891
807.937	-47.11191
808.349	-24.05725
808.761	-43.09971
809.173	-52.11926
809.584	-1.00233
809.996	-49.116
810.408	-33.08257
810.819	-21.04713
811.231	-44.11296
811.642	-40.09552
812.053	-16.03699
812.464	1.00228
812.875	-38.09379
813.286	-54.13362
813.697	-50.10803
814.108	-55.12728
814.519	-64.13436
814.929	-3.0072
815.34	-24.05531
815.75	-33.08053
816.16	-89.21029
816.571	-38.09516
816.981	-36.07945
817.391	-57.13128
817.801	9.02159
818.211	29.06532
818.62	-60.13811
819.03	-44.1018
819.44	-19.04733
819.849	32.07671
820.259	-10.02455
820.668	-34.08119
821.077	-38.09088
821.486	-85.1942
821.895	-18.0414
822.304	-7.01783
822.713	-19.04239
823.122	-1.00239
823.531	-16.03621
823.939	-16.03721
824.348	7.01617
824.756	-20.04756
825.164	-56.13414
825.573	-13.03116
825.981	5.01177
826.389	-47.11148
826.797	-8.01914
827.205	-11.02382
827.612	-17.03956
828.02	-46.10427
828.428	-50.12186
828.835	-26.0661
829.243	11.02457
829.65	-10.0238
830.057	44.1016
830.464	-21.04939
830.871	-8.01802
831.278	-68.15602
831.685	-40.08301
832.092	4.00934
832.499	-30.06129
832.905	-5.01212
833.312	-48.10282
833.718	-31.0733
834.124	3.00646
834.531	-32.07662
834.937	-53.12944
835.343	28.06363
835.749	8.01733
836.155	-30.07524
836.561	-73.16907
836.966	0
837.372	-13.03141
837.777	-39.09229
838.183	-75.15401
838.588	-9.02141
838.993	-22.05017
839.399	-43.09994
839.804	-7.01642
840.209	1.00245
840.613	-7.01479
841.018	-86.2078
841.423	-50.12177
841.828	-24.0579
842.232	-29.06701
842.637	-62.13699
843.041	3.00747
843.445	-97.23283
843.849	-30.0709
844.253	-12.02664
844.657	-18.04374
845.061	0
845.465	67.15499
845.869	-44.09637
846.272	-13.03006
846.676	-17.03914
847.079	12.02928
847.483	0
847.886	-27.06109
848.289	40.10352
848.692	-29.06998
849.095	-63.14266
849.498	-2.0047
849.901	-47.10087
850.304	-14.03132
850.707	-19.04606
851.109	-34.08032
851.512	42.09791
851.914	14.03429
852.316	6.01448
852.718	-38.09571
853.121	23.05318
853.523	-45.09949
853.925	-72.18232
854.326	0
854.728	-19.04675
855.13	-15.03738
855.531	25.05726
855.933	-35.07942
856.334	-51.12279
856.736	-116.24697
857.137	-9.01972
857.538	-52.1256
857.939	15.03536
858.34	-37.08508
858.741	-17.04247
859.142	18.0408
859.542	34.08738
859.943	-5.01191
860.343	-39.09311
860.744	36.08286
861.144	-4.00923
861.544	-35.08158
861.945	-51.12381
862.345	-48.10969
862.745	-56.13342
863.145	-43.09527
863.544	27.0654
863.944	-1.00221
864.344	-30.06983
864.743	15.03513
865.143	8.01953
865.542	-54.11837
865.941	-3.00712
866.34	4.00904
866.74	-5.01286
867.139	-18.04118
867.537	-46.11148
867.936	12.02733
868.335	16.03895
868.734	14.0344
869.132	-41.0911
869.531	-30.06861
869.929	1.00217
870.327	-31.07054
870.726	-16.0377
871.124	-50.10965
871.522	-38.09165
871.92	-29.06786
872.318	8.01852
872.715	-12.02799
873.113	-10.02316
873.511	-3.00711
873.908	-2.00494
874.306	7.01657
874.703	-29.06897
875.1	-62.15116
875.497	-4.00898
875.894	-6.01423
876.291	11.02571
876.688	-73.18133
877.085	-10.0225
877.482	-72.17154
877.878	-47.10825
878.275	-12.0289
878.671	-46.09325
879.068	-12.02729
879.464	-6.01375
879.86	-13.0295
880.256	-43.09959
880.652	-9.02175
881.048	-20.04637
881.444	-53.11797
881.84	-14.03367
882.236	11.02624
882.631	-23.05375
883.027	-40.09034
883.422	-33.08056
883.817	-18.04374
884.213	6.01467
884.608	-19.04484
885.003	-7.01602
885.398	-48.11502
885.793	-13.03084
886.188	-28.06732
886.582	-34.08153
886.977	-12.02677
887.371	-6.01439
887.766	-27.06471
888.16	-15.03562
888.554	-11.02541
888.949	-92.21893
889.343	-8.01817
889.737	14.03632
890.131	-13.03119
890.525	-35.08529
890.918	14.03369
891.312	-44.09779
891.706	-2.00506
892.099	-6.01444
892.492	6.01201
892.886	-41.09481
893.279	-26.06332
893.672	-26.06351
894.065	-6.01417
894.458	-15.03577
894.851	-31.0708
895.244	-12.02927
895.637	-23.05263
896.029	-36.08372
896.422	-34.07848
896.814	5.01179
897.206	-6.01367
897.599	-56.1289
897.991	-3.00688
898.383	17.03743
898.775	-52.11042
899.167	-26.05807
899.559	-21.05027
899.951	-18.03986
900.342	-28.06656
900.734	-18.04359
901.125	-22.05464
901.517	-14.03279
901.908	2.00445
902.299	-53.12445
902.69	18.03986
903.082	-30.06881
903.473	-30.06905
903.863	34.08296
904.254	-31.06754
904.645	-18.04178
905.036	3.00698
905.426	-42.08755
905.817	-26.06054
906.207	-44.10035
906.597	-16.03546
906.987	-21.05117
907.378	-2.00477
907.768	-21.05349
908.158	-47.10954
908.547	-30.07456
908.937	-21.05111
909.327	-14.03195
909.717	-2.00476
910.106	-51.11666
910.495	8.019
910.885	-57.13572
911.274	-2.00476
911.663	41.09897
912.052	-4.00923
912.441	21.05108
912.83	-33.07092
913.219	-28.06918
913.608	-48.1119
913.997	-28.06689
914.385	-57.12771
914.774	-25.05737
915.162	-35.07858
915.55	-10.02284
915.939	-31.07512
916.327	23.05401
916.715	-29.07138
917.103	-8.01842
917.491	-14.03225
917.878	-59.13583
918.266	5.0123
918.654	10.02456
919.041	-83.21007
919.429	-27.06057
919.816	-26.0624
920.203	-37.08539
920.591	-42.09837
920.978	-27.06246
921.365	-53.13314
921.752	-4.00903
922.139	-11.02242
922.525	-54.12345
922.912	-37.08529
923.299	-5.01185
923.685	-7.01744
924.072	-49.10521
924.458	-12.02822
924.844	-77.18264
925.231	-14.03038
925.617	-6.01479
926.003	-40.09774
926.389	-3.00726
926.774	18.04336
927.16	-23.0539
927.546	-49.1206
927.931	25.05868
928.317	-6.01266
928.702	-32.07077
929.088	-23.05168
929.473	-48.1172
929.858	-39.09169
930.243	-29.0665
930.628	-82.19048
931.013	18.04269
931.398	-53.1138
931.783	25.06239
932.167	-54.12504
932.552	-57.13447
932.937	-86.20127
933.321	-61.14597
933.705	41.09849
934.09	-34.08044
934.474	-6.01336
934.858	-27.06736
935.242	-32.07127
935.626	-47.1147
936.009	-35.08937
936.393	8.0195
936.777	11.02698
937.16	-41.10084
937.544	-10.02201
937.927	-26.0632
938.311	11.02499
938.694	-9.02271
939.077	-27.06059
939.46	53.12192
939.843	-78.14972
940.226	-52.12711
940.609	-39.08392
940.991	-25.06069
941.374	-88.20514
941.757	7.01623
942.139	-57.11964
942.522	-48.10571
942.904	26.05872
943.286	-44.10571
943.668	-32.07921
944.05	-60.14108
944.432	1.00234
944.814	-38.08799
945.196	-8.01872
945.578	1.00227
945.959	-34.07547
946.341	-69.15816
946.722	9.01987
947.104	-20.04467
947.485	-11.02394
947.866	-27.0655
948.247	-26.06256
948.628	-16.03656
949.009	-6.01468
949.39	-65.15144
949.771	-58.12655
950.152	0
950.532	8.01924
950.913	-59.13371
951.293	8.02088
951.674	-106.24428
952.054	-36.08534
952.434	-47.11019
952.814	-48.10615
953.194	46.11399
953.574	-52.11998
953.954	-16.03583
954.334	11.02604
954.714	-52.12132
955.093	-21.04813
955.473	-76.18093
955.853	-29.07214
956.232	-40.1058
956.611	-62.13837
956.99	-25.06012
957.37	-27.0656
957.749	-71.15954
958.128	-29.07048
958.506	9.02241
958.885	-45.10789
959.264	-27.06295
959.643	6.01276
960.021	-27.0637
960.4	20.04284
960.778	-40.09163
961.156	-45.10768
961.535	-53.1138
961.913	-50.10803
962.291	-31.07717
962.669	-7.0169
963.047	-75.18153
963.424	-21.05132
963.802	-52.12046
964.18	-1.00237
964.557	-51.10884
964.935	2.00442
965.312	4.00998
965.69	-29.06855
966.067	-1.00227
966.444	-16.03725
966.821	-16.03901
967.198	-56.12694
967.575	-44.10156
967.952	53.11581
968.329	-37.08498
968.705	-72.14234
969.082	23.05625
969.458	-52.12051
969.835	-15.0344
970.211	-27.06626
970.587	-10.02357
970.963	-17.04139
971.339	-14.03526
971.715	-44.10281
972.091	-18.0418
972.467	-67.15683
972.843	-29.06847
973.219	-69.15498
973.594	-35.08792
973.97	-38.08414
974.345	-27.06099
974.721	-24.05449
975.096	8.01798
975.471	62.13671
975.846	26.05894
976.221	-42.10217
976.596	-53.1209
976.971	-12.02803
977.346	-36.07768
977.72	-31.07512
978.095	-3.0074
978.469	16.03583
978.844	10.02364
979.218	-7.01598
979.593	-23.0521
979.967	-2.00462
980.341	-2.00427
980.715	-12.02849
981.089	-61.1443
981.463	-2.00435
981.837	-1.00233
982.21	-7.01508
982.584	-36.08187
982.957	-14.03348
983.331	32.07044
983.704	-27.06345
984.078	-51.11896
984.451	-34.07832
984.824	-39.09115
985.197	-18.04112
985.57	-34.08023
985.943	-49.11245
986.316	3.00693
986.688	-33.07485
987.061	-67.14727
987.434	-1.00249
987.806	-58.13292
988.179	-47.10418
988.551	-16.03819
988.923	-33.07682
989.295	3.00705
989.667	14.03212
990.039	1.00235
990.411	16.03467
990.783	-9.01926
991.155	1.0023
991.527	-29.06596
991.898	-29.06815
992.27	-10.02347
992.641	-19.04489
993.012	54.11862
993.384	-19.04275
993.755	-23.0555
994.126	-26.05925
994.497	-10.02316
994.868	12.02578
995.239	50.11366
995.61	-56.13429
995.98	-11.02553
996.351	10.02357
996.722	-10.02198
997.092	10.02247
997.462	-21.04686
997.833	-37.08235
998.203	-40.09122
998.573	8.01897
998.943	-71.15619
999.313	-4.00908
999.683	-62.14003
1000.053	37.07934
1000.423	21.04783
1000.792	7.01726
1001.162	16.0373
1001.531	38.08834
1001.901	-25.0588
1002.27	21.04377
1002.639	4.00973
1003.009	30.06764
1003.378	-28.06845
1003.747	-3.00661
1004.116	-23.05236
1004.485	1.00226
1004.853	-3.00721
1005.222	20.04812
1005.591	-5.01103
1005.959	6.0128
1006.328	-43.09061
1006.696	-24.05522
1007.064	17.04039
1007.433	1.00238
1007.801	-1.00229
1008.169	-11.02611
1008.537	-8.01656
1008.905	-2.00439
1009.273	8.01858
1009.64	14.03153
1010.008	-25.05601
1010.375	49.11042
1010.743	-35.07398
1011.11	15.03333
1011.478	-26.06085
1011.845	-20.04342
1012.212	-39.082
1012.579	0
1012.946	-50.11071
1013.313	-13.02896
1013.68	-18.03744
1014.047	-35.08029
1014.414	-37.08355
1014.78	13.03079
1015.147	-12.02687
1015.513	25.05737
1015.88	0
1016.246	27.06268
1016.612	-45.09583
1016.978	-18.04151
1017.344	34.07979
1017.71	-8.01794
1018.076	-19.04196
1018.442	-33.08059
1018.808	-2.00474
1019.174	-56.13337
1019.539	-55.11544
1019.905	-23.05151
1020.27	-4.00943
1020.636	-24.05412
1021.001	-8.01786
1021.366	32.07333
1021.731	8.01959
1022.096	-46.11211
1022.461	-57.12624
1022.826	-3.00671
1023.191	-38.09571
1023.556	-74.16221
1023.92	-50.11541
1024.285	-1.00228
1024.649	-34.07907
1025.014	-2.00466
1025.378	-19.04592
1025.742	-49.11578
1026.107	-15.03123
1026.471	-20.04273
1026.835	-81.19013
1027.199	-20.0458
1027.562	2.00438
1027.926	-1.00229
1028.29	3.00721
1028.654	-26.05545
1029.017	-10.0233
1029.381	-7.01583
1029.744	-15.03666
1030.107	-42.09191
1030.471	-28.06298
1030.834	-65.13692
1031.197	-51.11446
1031.56	46.10202
1031.923	-2.00491
1032.286	13.02824
1032.648	-31.0694
1033.011	13.02789
1033.374	-21.0456
1033.736	-35.08814
1034.099	-39.09079
1034.461	-53.12944
1034.823	-40.09427
1035.185	-74.17563
1035.548	18.04095
1035.91	45.1012
1036.272	8.01697
1036.634	-48.10987
1036.995	14.03108
1037.357	-11.02533
1037.719	-26.05968
1038.08	-42.0923
1038.442	19.04313
1038.803	-41.09239
1039.165	3.00718
1039.526	-4.0091
1039.887	-3.0068
1040.248	36.08514
1040.609	-27.06305
1040.97	-30.06933
1041.331	-84.20059
1041.692	-40.08912
1042.053	-33.06963
1042.413	-63.13708
1042.774	-34.07779
1043.134	-37.08201
1043.495	-28.0663
1043.855	-7.01601
1044.215	-6.01401
1044.576	-15.03411
1044.936	12.02574
1045.296	-41.09669
1045.656	-8.0185
1046.016	-40.09001
1046.375	0
1046.735	-31.06696
1047.095	14.03064
1047.454	-30.05878
1047.814	-28.06301
1048.173	-39.08616
1048.533	-24.05194
1048.892	-54.1244
1049.251	5.01184
1049.61	-65.15078
1049.969	-16.03577
1050.328	-29.05756
1050.687	-17.03893
1051.046	-27.06278
1051.405	-47.10963
1051.763	7.01511
1052.122	4.00953
1052.48	-66.15325
1052.839	-40.08909
1053.197	-17.03768
1053.555	-104.21661
1053.914	-24.0552
1054.272	-31.07049
1054.63	-74.17169
1054.988	-35.07832
1055.345	-99.19852
1055.703	-48.10823
1056.061	-36.08856
1056.419	-23.05713
1056.776	-28.06378
1057.134	11.02364
1057.491	-87.20843
1057.848	2.00466
1058.206	-9.0198
1058.563	-11.02283
1058.92	43.09038
1059.277	-85.19678
1059.634	-66.1437
1059.991	31.06957
1060.348	-28.05998
1060.704	-52.11792
1061.061	-44.09376
1061.418	7.01607
1061.774	-26.06183
1062.131	20.05145
1062.487	-40.08742
1062.843	-21.04952
1063.199	-29.06895
1063.555	-17.0373
1063.911	-53.12722
1064.267	-53.09969
1064.623	-14.03251
1064.979	-37.0802
1065.335	-47.10422
1065.691	30.06778
1066.046	-46.09359
1066.402	-22.04674
1066.757	-25.06005
1067.112	-18.04117
1067.468	-62.1418
1067.823	-30.06836
1068.178	-5.01146
1068.533	-60.137
1068.888	1.00221
1069.243	-9.0211
1069.598	-51.11558
1069.952	9.01925
1070.307	0
1070.662	-29.06524
1071.016	-28.05946
1071.371	-24.05085
1071.725	-82.18141
1072.079	-2.0045
1072.434	-51.11751
1072.788	18.04039
1073.142	23.05356
1073.496	-7.01561
1073.85	-32.06955
1074.203	-25.05698
1074.557	12.03061
1074.911	-43.09567
1075.265	-53.11468
1075.618	27.06194
1075.971	-14.03109
1076.325	5.01203
1076.678	-37.07962
1077.031	-49.10403
1077.385	-8.0165
1077.738	-2.00422
1078.091	12.02584
1078.444	-65.14053
1078.796	25.05797
1079.149	-34.07907
1079.502	-13.02895
1079.855	-19.04187
1080.207	-58.13558
1080.56	-25.06153
1080.912	-119.27396
1081.264	-10.02263
1081.617	-19.04388
1081.969	-16.03913
1082.321	-6.01382
1082.673	-31.06748
1083.025	-32.07085
1083.377	-267.55126
1083.728	-61.13154
1084.08	-63.15139
1084.432	-86.1932
1084.783	36.07915
1085.135	40.09556
1085.486	-68.14887
1085.838	-26.06066
1086.189	-11.02514
1086.54	0
1086.891	-18.04392
1087.242	-39.08918
1087.593	-43.09817
1087.944	-4.00839
1088.295	-48.10117
1088.646	-29.06661
1088.996	-93.21402
1089.347	-73.16974
1089.698	-48.10867
1090.048	-36.08853
1090.398	10.02174
1090.749	-14.03162
1091.099	-15.03622
1091.449	-62.14624
1091.799	13.03056
1092.149	-20.04736
1092.499	-14.03237
1092.849	-20.04842
1093.199	-15.03535
1093.548	6.01363
1093.898	-45.1076
1094.248	5.01216
1094.597	-32.07927
1094.947	-30.07656
1095.296	-36.08389
1095.645	-27.06665
1095.994	-1.00227
1096.343	36.08616
1096.692	-35.08921
1097.041	-19.04982
1097.39	-35.08312
1097.739	30.07404
1098.088	-41.10414
1098.437	-53.13471
1098.785	-24.06166
1099.134	-36.09025
1099.482	-39.10244
1099.83	-17.04241
1100.179	-1.00252
1100.527	-50.1267
1100.875	-71.18117
1101.223	2.00511
1101.571	-38.10199
1101.919	-73.18607
1102.267	19.05202
1102.615	-2.00643
1102.962	4.01283
1103.31	15.04811
1103.658	-4.01283
