Data from N3 R6 sample 2_Subt2__2__16-14-56-464.txt Node

Date: Fri Sep 19 16:14:56 PDT 2025
User: uwsun
Spectrometer: HDX01956
Trigger mode: 0
Integration Time (sec): 5.000000E-1
Scans to average: 1
Nonlinearity correction enabled: true
Boxcar width: 0
Storing dark spectrum: false
XAxis mode: Wavelengths
Number of Pixels in Spectrum: 2068
>>>>>Begin Spectral Data<<<<<
194.03	64.18412
194.578	82.2642
195.127	82.26064
195.676	52.16572
196.225	101.26242
196.773	118.32362
197.321	113.31006
197.87	187.46905
198.418	258.64535
198.966	176.45483
199.513	242.59723
200.061	166.41225
200.609	183.47103
201.156	155.3262
201.704	126.31155
202.251	177.45891
202.798	231.58356
203.345	202.4853
203.892	155.38233
204.438	161.37598
204.985	187.43394
205.532	244.6351
206.078	193.4613
206.624	179.4329
207.17	190.42718
207.716	170.39925
208.262	169.3215
208.808	181.44005
209.354	208.49078
209.899	165.40475
210.445	180.4413
210.99	144.34215
211.535	211.47818
212.08	193.4333
212.625	184.44776
213.17	193.47343
213.715	208.45305
214.259	243.54622
214.804	181.43179
215.348	194.42847
215.892	203.47349
216.436	240.5356
216.98	214.44967
217.524	159.36649
218.068	203.49464
218.612	145.35359
219.155	182.41456
219.698	126.29095
220.242	174.41962
220.785	189.4278
221.328	200.48268
221.871	174.42722
222.414	137.32821
222.956	193.45229
223.499	161.35046
224.041	177.39134
224.583	184.3781
225.126	227.48592
225.668	144.34189
226.21	127.31235
226.751	135.28311
227.293	151.33064
227.835	152.35907
228.376	169.37209
228.918	213.51609
229.459	229.55465
230	205.46817
230.541	183.40274
231.082	183.42886
231.622	191.42299
232.163	210.49434
232.704	133.32081
233.244	165.39664
233.784	179.41916
234.324	157.33884
234.864	158.34429
235.404	135.30856
235.944	158.35844
236.484	158.37758
237.023	208.47339
237.563	177.39362
238.102	189.42902
238.641	182.44852
239.18	173.39382
239.719	226.54851
240.258	151.32575
240.797	218.50237
241.335	162.37809
241.874	193.35643
242.412	158.366
242.95	208.48219
243.488	206.45021
244.026	181.40335
244.564	209.40767
245.102	198.42632
245.64	205.47194
246.177	148.31839
246.715	186.42401
247.252	134.29497
247.789	130.22154
248.326	164.37718
248.863	151.31764
249.4	243.53051
249.936	217.42146
250.473	193.43383
251.009	219.48439
251.546	210.44379
252.082	205.43294
252.618	248.52823
253.154	167.38799
253.69	180.38807
254.226	209.47596
254.761	166.35358
255.297	216.45247
255.832	183.41439
256.367	208.46611
256.903	216.44787
257.438	180.40171
257.972	181.38293
258.507	229.50714
259.042	167.3403
259.576	220.45269
260.111	170.37641
260.645	199.41289
261.179	177.39493
261.713	202.42595
262.247	222.494
262.781	176.35693
263.315	177.41918
263.849	201.48372
264.382	193.42207
264.915	192.43574
265.449	165.39182
265.982	145.31469
266.515	162.38284
267.048	236.47576
267.58	175.35969
268.113	204.4245
268.646	206.4934
269.178	192.41162
269.71	186.38635
270.243	210.45721
270.775	215.52622
271.307	138.31739
271.838	208.46841
272.37	219.51863
272.902	220.4804
273.433	190.39449
273.965	219.51723
274.496	181.42898
275.027	176.41946
275.558	161.37745
276.089	210.50758
276.62	177.4329
277.15	210.4953
277.681	172.35105
278.211	194.45312
278.741	233.49359
279.272	224.48831
279.802	212.5099
280.332	182.41439
280.861	196.4533
281.391	230.49394
281.921	195.44444
282.45	283.67896
282.98	218.54886
283.509	183.39479
284.038	183.39326
284.567	183.40223
285.096	267.61343
285.625	243.53231
286.153	194.43546
286.682	207.44924
287.21	219.50397
287.739	171.38691
288.267	225.52439
288.795	231.58127
289.323	260.58574
289.851	235.5213
290.378	221.4739
290.906	270.62566
291.433	269.6385
291.961	250.53272
292.488	243.57835
293.015	288.64669
293.542	222.5378
294.069	235.55222
294.596	257.60461
295.122	240.5471
295.649	264.55571
296.175	240.54644
296.702	241.5506
297.228	216.49399
297.754	291.61213
298.28	260.55692
298.806	223.51727
299.332	259.54218
299.857	228.48838
300.383	241.57733
300.908	258.60306
301.433	286.6622
301.958	202.43867
302.483	287.69013
303.008	271.63059
303.533	229.56173
304.058	275.61027
304.582	268.60253
305.107	275.68998
305.631	218.47019
306.155	316.69906
306.679	250.55861
307.203	298.65374
307.727	321.72034
308.251	280.65448
308.775	264.59451
309.298	324.73707
309.822	307.73176
310.345	324.72064
310.868	272.61678
311.391	284.66096
311.914	283.67586
312.437	296.62827
312.96	289.64721
313.482	261.59148
314.005	311.73845
314.527	306.76566
315.049	272.64997
315.571	364.77158
316.093	387.89901
316.615	354.80595
317.137	303.61238
317.659	354.79258
318.18	377.84841
318.702	337.73571
319.223	317.60629
319.744	373.78012
320.265	369.83958
320.786	373.86445
321.307	354.8313
321.828	390.82416
322.348	385.84723
322.869	314.68652
323.389	301.52559
323.909	374.79866
324.43	338.75739
324.95	425.89988
325.47	424.97034
325.989	459.01016
326.509	398.81341
327.029	385.80521
327.548	370.77916
328.067	434.96445
328.587	470.07608
329.106	472.97207
329.625	390.94003
330.144	385.81555
330.662	430.91822
331.181	495.05304
331.7	475.00997
332.218	492.9727
332.736	485.02098
333.255	483.02077
333.773	456.9927
334.291	466.05238
334.808	418.84925
335.326	533.08085
335.844	557.1754
336.361	516.18819
336.879	494.04338
337.396	550.1771
337.913	515.06046
338.43	575.16298
338.947	534.14822
339.464	532.01662
339.981	549.17723
340.497	602.32792
341.014	560.2135
341.53	549.12147
342.046	621.35931
342.562	647.42462
343.078	632.30503
343.594	617.3153
344.11	649.35186
344.626	613.38685
345.141	621.25905
345.657	631.23621
346.172	637.34623
346.687	657.32486
347.202	652.27773
347.717	674.41116
348.232	675.49005
348.747	748.4717
349.261	735.40436
349.776	684.38918
350.29	709.53908
350.805	713.51887
351.319	773.54057
351.833	729.4346
352.347	677.3615
352.861	714.44096
353.374	729.42585
353.888	722.49778
354.401	732.44152
354.915	767.4741
355.428	796.70427
355.941	784.56144
356.454	760.44625
356.967	793.60097
357.48	780.51316
357.993	812.6989
358.505	817.7233
359.018	806.65587
359.53	829.67985
360.042	789.44592
360.554	854.72702
361.066	854.74198
361.578	898.61763
362.09	840.68551
362.602	830.52465
363.113	790.52165
363.625	956.76452
364.136	894.60548
364.647	897.73098
365.158	963.8346
365.669	1028.02382
366.18	908.71586
366.691	926.66054
367.201	924.80487
367.712	931.69646
368.222	985.85121
368.733	980.72257
369.243	946.66438
369.753	1014.85969
370.263	1018.9316
370.773	1019.04588
371.282	1054.98937
371.792	1083.93837
372.301	1093.10236
372.811	1104.30756
373.32	1101.79087
373.829	1121.09361
374.338	1197.01298
374.847	1230.11521
375.356	1306.34535
375.865	1421.11315
376.373	1440.32328
376.882	1454.69576
377.39	1476.56613
377.898	1568.76682
378.407	1585.3867
378.915	1615.28764
379.423	1723.71399
379.93	1713.52256
380.438	1858.96158
380.946	1955.83501
381.453	2040.98672
381.96	2185.01158
382.468	2298.07373
382.975	2356.25343
383.482	2494.84242
383.989	2517.54732
384.495	2623.98425
385.002	2706.52288
385.509	2875.02899
386.015	3117.26561
386.521	3200.71789
387.028	3341.77098
387.534	3354.46642
388.04	3627.90343
388.546	3744.44204
389.051	3828.32809
389.557	4116.53214
390.063	4500.32135
390.568	4607.3893
391.073	4713.96916
391.578	4873.2789
392.084	5028.62475
392.589	5254.43496
393.093	5611.63697
393.598	6168.21949
394.103	6731.38615
394.607	7290.43705
395.112	7896.92881
395.616	8385.37503
396.12	9108.59993
396.624	9996.01044
397.128	10897.36811
397.632	12057.70232
398.136	13248.98251
398.639	14111.83856
399.143	15543.07214
399.646	17478.1624
400.15	19505.03767
400.653	21793.61706
401.156	24845.30794
401.659	28643.43163
402.162	34793.57483
402.664	45854.99925
403.167	60327.79303
403.67	60665.89424
404.172	55487.84425
404.674	37291.05854
405.176	4428.40989
405.678	533.47942
406.18	0
406.682	0
407.184	6962.89417
407.686	50953.82939
408.187	59237.6763
408.688	61091.12691
409.19	61923.45898
409.691	62441.93235
410.192	55570.19179
410.693	48325.05516
411.194	43590.14393
411.694	41140.41182
412.195	37981.88678
412.696	34323.81948
413.196	31809.91811
413.696	31185.54588
414.196	31265.10575
414.696	30854.99075
415.196	29425.02051
415.696	26607.24907
416.196	21612.18065
416.695	16754.19915
417.195	14305.59955
417.694	13401.10483
418.194	12799.87328
418.693	12066.91662
419.192	11545.56734
419.691	11375.68441
420.19	11048.06284
420.688	10817.86638
421.187	10404.03802
421.685	9738.20835
422.184	8834.04741
422.682	7735.45855
423.18	6417.2261
423.678	5726.37583
424.176	5245.62463
424.674	4974.51914
425.172	4680.11603
425.669	4554.58625
426.167	4290.2754
426.664	3916.3918
427.161	3508.57823
427.659	3288.12865
428.156	3171.32669
428.652	2822.36031
429.149	2845.12402
429.646	2662.57759
430.143	2489.03726
430.639	2380.93976
431.135	2202.07869
431.632	2079.66972
432.128	2057.9228
432.624	1856.00898
433.12	1861.59158
433.616	1782.35877
434.111	1656.61104
434.607	1629.58484
435.103	1582.07414
435.598	1569.0479
436.093	1463.32312
436.588	1459.23025
437.083	1336.11573
437.578	1291.09937
438.073	1157.16846
438.568	1206.19157
439.062	1116.75319
439.557	1082.91725
440.051	1022.77883
440.546	1035.81905
441.04	934.74187
441.534	993.00546
442.028	974.83722
442.522	909.75333
443.015	915.5632
443.509	973.89399
444.002	935.83543
444.496	820.4061
444.989	917.81442
445.482	823.67603
445.975	839.54932
446.468	885.49804
446.961	811.37318
447.454	736.34759
447.947	799.58214
448.439	740.52083
448.931	797.46501
449.424	738.53033
449.916	721.44279
450.408	757.4353
450.9	701.42796
451.392	713.52939
451.884	629.20208
452.375	671.40208
452.867	666.25356
453.358	637.20387
453.849	594.0614
454.341	611.171
454.832	621.12719
455.323	646.34471
455.814	615.19004
456.304	593.15945
456.795	573.10651
457.285	612.13367
457.776	536.02675
458.266	625.27583
458.756	539.10698
459.247	533.09563
459.737	565.17718
460.226	609.16041
460.716	547.13759
461.206	460.96227
461.695	536.17919
462.185	526.08486
462.674	556.0821
463.163	444.85435
463.653	553.99181
464.142	479.00744
464.63	509.08475
465.119	524.06281
465.608	443.89573
466.096	435.83562
466.585	413.83201
467.073	387.81979
467.561	459.99351
468.05	410.83717
468.538	488.06849
469.026	491.03771
469.513	373.69889
470.001	370.75001
470.489	418.87984
470.976	393.8092
471.463	420.94651
471.951	398.89474
472.438	395.83344
472.925	334.69995
473.412	340.74901
473.899	371.76803
474.385	362.80381
474.872	348.72993
475.359	329.73192
475.845	314.58557
476.331	293.57043
476.817	297.65498
477.303	320.67447
477.789	356.77372
478.275	286.65563
478.761	271.59765
479.247	239.48946
479.732	315.72543
480.218	266.64219
480.703	301.69706
481.188	237.46404
481.673	261.55217
482.158	224.44534
482.643	259.61003
483.128	191.40444
483.612	199.43151
484.097	283.63534
484.581	177.37824
485.066	198.44754
485.55	164.33396
486.034	231.46729
486.518	215.47177
487.002	183.4218
487.486	221.50389
487.969	211.48924
488.453	221.52357
488.936	221.45956
489.42	179.37107
489.903	192.45478
490.386	170.3424
490.869	94.1909
491.352	194.441
491.835	188.35529
492.318	223.47054
492.8	152.29106
493.283	212.5099
493.765	148.34718
494.247	150.32672
494.73	124.25918
495.212	119.27188
495.694	150.3313
496.175	132.29824
496.657	190.4284
497.139	83.12985
497.62	133.30216
498.102	108.2577
498.583	87.2062
499.064	151.3224
499.545	109.23616
500.026	144.30405
500.507	122.26551
500.988	137.31981
501.469	94.22412
501.949	87.20373
502.43	80.18186
502.91	77.15119
503.39	130.30877
503.87	93.21008
504.35	114.25231
504.83	103.21495
505.31	140.32366
505.79	97.22207
506.269	103.22754
506.749	66.14443
507.228	108.24183
507.707	152.31658
508.187	51.11624
508.666	32.07574
509.145	49.11042
509.623	30.06806
510.102	87.20101
510.581	94.21455
511.059	131.31635
511.538	47.11721
512.016	131.29954
512.494	90.20724
512.972	84.19335
513.45	55.1247
513.928	63.14764
514.406	91.21543
514.884	130.32379
515.361	147.33748
515.839	33.07247
516.316	42.09702
516.793	63.15334
517.27	85.19881
517.747	83.20564
518.224	55.12186
518.701	125.26503
519.178	132.31846
519.654	3.00679
520.131	12.02861
520.607	79.18825
521.083	66.14602
521.56	45.10223
522.036	76.16054
522.512	83.19634
522.987	81.18737
523.463	84.19265
523.939	89.20923
524.414	46.10164
524.89	-13.02993
525.365	109.23797
525.84	59.13935
526.315	47.10872
526.79	53.11419
527.265	49.10634
527.74	51.11994
528.215	71.16169
528.689	126.26896
529.164	-10.02073
529.638	72.17914
530.112	54.12479
530.587	94.19438
531.061	85.19827
531.534	36.08392
532.008	60.14009
532.482	0
532.956	120.29791
533.429	-5.01151
533.903	69.14489
534.376	51.10823
534.849	80.17891
535.322	50.11408
535.795	79.18565
536.268	76.17724
536.741	30.06983
537.213	100.22179
537.686	54.12633
538.158	31.06757
538.631	37.08644
539.103	14.03053
539.575	55.10973
540.047	61.12855
540.519	41.09394
540.991	30.07054
541.463	45.10608
541.934	82.18066
542.406	11.02566
542.877	67.14504
543.348	-14.03224
543.82	39.0924
544.291	5.01117
544.762	15.03458
545.233	72.1764
545.703	55.11799
546.174	50.11306
546.645	81.19035
547.115	34.07985
547.585	85.19037
548.056	83.19687
548.526	57.13018
548.996	74.17135
549.466	72.16818
549.935	98.22683
550.405	86.18318
550.875	69.15701
551.344	91.21193
551.814	39.0854
552.283	54.11227
552.752	58.13024
553.221	34.0717
553.69	76.16322
554.159	123.29433
554.628	32.06943
555.096	52.12782
555.565	50.10743
556.033	55.1245
556.502	59.13768
556.97	50.10641
557.438	49.1124
557.906	89.20244
558.374	23.05121
558.842	36.08372
559.31	22.04743
559.777	13.03086
560.245	27.06074
560.712	-24.05347
561.18	31.06613
561.647	27.05822
562.114	11.02445
562.581	64.15306
563.048	25.05509
563.514	25.0601
563.981	-1.00222
564.448	-2.0044
564.914	36.08084
565.381	50.10803
565.847	41.09239
566.313	62.13843
566.779	73.16005
567.245	42.09532
567.711	95.2202
568.176	121.2663
568.642	40.09836
569.108	42.10041
569.573	61.1365
570.038	97.19622
570.504	112.24333
570.969	66.15941
571.434	110.23308
571.899	136.31029
572.363	106.2302
572.828	109.23596
573.293	133.29086
573.757	157.34422
574.222	167.35749
574.686	140.30092
575.15	118.26987
575.614	143.31075
576.078	162.35944
576.542	179.38649
577.006	182.39019
577.469	173.40146
577.933	134.28306
578.396	200.45316
578.86	172.38004
579.323	168.37942
579.786	204.40917
580.249	145.31509
580.712	160.36784
581.175	163.38214
581.637	216.47007
582.1	181.36967
582.563	120.23657
583.025	125.28984
583.487	132.25019
583.95	175.35498
584.412	176.34256
584.874	177.40456
585.336	161.36265
585.797	116.23751
586.259	99.21889
586.721	99.22309
587.182	106.23226
587.643	117.2523
588.105	110.24985
588.566	140.27795
589.027	125.29099
589.488	97.21016
589.949	97.22242
590.41	118.22081
590.87	62.13304
591.331	38.07766
591.791	46.10109
592.252	57.12582
592.712	98.22476
593.172	89.19151
593.632	93.18796
594.092	85.18078
594.552	39.08016
595.011	79.17554
595.471	100.21272
595.931	64.13644
596.39	88.20264
596.849	62.13831
597.308	96.19683
597.768	28.06923
598.227	90.20774
598.685	16.03492
599.144	39.08788
599.603	69.1567
600.062	47.09403
600.52	51.10984
600.978	64.14708
601.437	99.21458
601.895	53.10766
602.353	83.17314
602.811	112.23493
603.269	54.1236
603.727	85.19483
604.184	78.16831
604.642	73.17081
605.099	64.14165
605.557	55.12723
606.014	72.14755
606.471	103.24883
606.928	124.26274
607.385	148.34799
607.842	170.37075
608.299	114.25158
608.755	101.23169
609.212	111.23607
609.668	131.27703
610.125	116.2638
610.581	79.17481
611.037	132.28202
611.493	105.23332
611.949	78.17997
612.405	130.24772
612.861	113.24671
613.316	132.30079
613.772	117.25468
614.227	80.18053
614.683	174.3469
615.138	143.32052
615.593	59.13001
616.048	100.21337
616.503	159.36649
616.958	118.28091
617.412	129.28819
617.867	135.28549
618.321	67.12839
618.776	103.21486
619.23	133.29762
619.684	88.18622
620.138	98.2101
620.592	77.17741
621.046	88.19469
621.5	146.33229
621.954	53.11287
622.407	114.23786
622.861	45.1031
623.314	107.23014
623.768	160.34983
624.221	116.21589
624.674	46.10007
625.127	59.13181
625.58	63.13288
626.033	53.10933
626.485	86.19479
626.938	92.20575
627.39	77.17025
627.843	55.12003
628.295	48.1061
628.747	87.19605
629.199	75.16367
629.651	67.14535
630.103	96.20946
630.555	27.05402
631.006	80.17758
631.458	-20.04489
631.909	81.17407
632.361	20.04417
632.812	48.10633
633.263	36.07301
633.714	32.06409
634.165	-7.01601
634.616	25.05654
635.067	16.03332
635.518	20.04491
635.968	23.04352
636.419	-1.00205
636.869	44.09873
637.319	71.15534
637.769	34.07308
638.219	35.07832
638.669	42.09625
639.119	56.12936
639.569	63.14637
640.019	55.12013
640.468	12.02523
640.918	44.10063
641.367	50.10701
641.816	42.08985
642.265	51.11229
642.714	71.15711
643.163	34.07346
643.612	66.15337
644.061	-20.04047
644.51	64.13952
644.958	56.1171
645.406	65.14911
645.855	19.04462
646.303	40.08864
646.751	37.08129
647.199	9.0193
647.647	41.09152
648.095	-35.07748
648.543	-1.00193
648.99	38.08757
649.438	40.09005
649.885	58.1385
650.333	67.11964
650.78	76.17822
651.227	44.1035
651.674	33.07235
652.121	-26.06056
652.568	41.09571
653.015	22.05248
653.461	43.09805
653.908	75.16555
654.354	8.01813
654.801	16.0363
655.247	85.17502
655.693	29.07311
656.139	18.04145
656.585	60.13789
657.031	32.0726
657.477	40.08335
657.922	65.14401
658.368	36.08485
658.813	52.1123
659.259	45.10414
659.704	83.18558
660.149	76.16849
660.594	78.17674
661.039	54.11847
661.484	60.137
661.929	52.11586
662.373	50.12313
662.818	78.18669
663.262	-8.01861
663.707	35.08506
664.151	94.22146
664.595	34.0792
665.039	13.03111
665.483	61.15069
665.927	61.13617
666.371	63.14104
666.814	53.1209
667.258	61.14016
667.701	41.08275
668.145	45.10703
668.588	81.19064
669.031	73.16585
669.474	72.16533
669.917	112.23171
670.36	65.15352
670.803	38.08775
671.245	64.12694
671.688	84.1942
672.13	69.14668
672.573	97.23628
673.015	49.11236
673.457	92.19127
673.899	79.1813
674.341	102.23328
674.783	65.15024
675.225	39.09219
675.666	81.18708
676.108	68.14112
676.549	90.20119
676.991	58.12112
677.432	21.03936
677.873	49.10789
678.314	41.09371
678.755	104.24206
679.196	59.13007
679.637	56.12962
680.078	88.19444
680.518	22.04822
680.959	58.13265
681.399	82.19236
681.839	84.19435
682.28	79.18753
682.72	53.11517
683.16	85.20278
683.6	111.23772
684.039	84.16357
684.479	84.19705
684.919	69.1537
685.358	100.23998
685.798	58.14525
686.237	119.27035
686.676	97.21177
687.115	84.18723
687.554	99.22236
687.993	52.10739
688.432	116.25234
688.871	84.18048
689.309	160.36813
689.748	126.24478
690.186	114.25358
690.625	127.28572
691.063	116.26604
691.501	133.31096
691.939	143.3367
692.377	139.32039
692.815	144.32827
693.253	106.23774
693.69	103.21247
694.128	123.28543
694.565	124.2796
695.003	105.25452
695.44	93.20614
695.877	100.22391
696.314	147.29191
696.751	90.19212
697.188	110.24
697.625	127.26951
698.061	125.28329
698.498	174.39185
698.934	105.23671
699.371	125.27926
699.807	149.33108
700.243	175.3987
700.679	133.2815
701.115	128.2801
701.551	146.32435
701.987	173.3551
702.422	95.21311
702.858	128.28413
703.294	112.23597
703.729	192.44034
704.164	157.35697
704.599	121.25005
705.035	165.34449
705.47	170.39254
705.904	129.28056
706.339	139.29678
706.774	118.258
707.209	136.29245
707.643	163.36565
708.078	131.29894
708.512	169.40471
708.946	136.30314
709.38	121.26719
709.814	119.25253
710.248	110.24935
710.682	209.46401
711.116	158.35698
711.549	146.3525
711.983	134.28679
712.416	138.30046
712.85	157.3698
713.283	167.36738
713.716	205.47383
714.149	156.34123
714.582	185.38333
715.015	176.40704
715.448	154.35758
715.881	152.29895
716.313	182.39793
716.746	187.41051
717.178	132.29617
717.61	195.46055
718.043	161.37065
718.475	157.35277
718.907	147.34207
719.339	163.34243
719.77	191.42581
720.202	185.43422
720.634	170.38895
721.065	165.36176
721.497	194.44189
721.928	194.4451
722.359	157.35986
722.79	122.27407
723.221	135.31501
723.652	166.39518
724.083	140.29145
724.514	123.25737
724.945	153.33474
725.375	123.26831
725.806	123.28215
726.236	189.44846
726.666	183.39563
727.096	187.42086
727.526	182.4321
727.956	158.33171
728.386	106.24067
728.816	191.45076
729.246	193.43792
729.675	143.33289
730.105	165.3744
730.534	155.33567
730.964	119.27844
731.393	151.34096
731.822	175.41812
732.251	171.407
732.68	71.15284
733.109	167.38339
733.537	136.30552
733.966	165.37865
734.395	157.33128
734.823	176.35905
735.251	161.35998
735.68	209.47846
736.108	123.28995
736.536	160.34791
736.964	127.27198
737.392	154.35518
737.82	173.38025
738.247	183.39851
738.675	141.30692
739.102	186.43614
739.53	188.44875
739.957	148.35382
740.384	184.41182
740.811	202.47551
741.238	133.29983
741.665	168.36484
742.092	157.3416
742.519	164.382
742.945	152.33712
743.372	225.51301
743.798	143.34324
744.225	125.27545
744.651	162.37526
745.077	155.35898
745.503	158.35334
745.929	138.30543
746.355	160.36017
746.781	164.37552
747.207	196.42836
747.632	133.30497
748.058	172.39257
748.483	111.23412
748.908	111.2583
749.334	209.47018
749.759	145.31469
750.184	127.28103
750.609	136.30841
751.033	175.3704
751.458	214.43836
751.883	174.39474
752.307	200.43821
752.732	171.40278
753.156	135.31018
753.58	178.3854
754.005	218.51337
754.429	162.34416
754.853	189.43407
755.277	186.40685
755.7	215.48725
756.124	223.51502
756.548	151.33357
756.971	213.4727
757.394	176.42091
757.818	203.48742
758.241	209.48499
758.664	161.38276
759.087	202.41977
759.51	154.3556
759.933	155.34856
760.356	188.44548
760.778	243.55584
761.201	173.37946
761.623	174.38044
762.046	122.26043
762.468	183.40088
762.89	229.51538
763.312	182.405
763.734	186.41372
764.156	191.43638
764.578	189.39057
765	203.45388
765.421	177.42678
765.843	194.47474
766.264	160.35264
766.686	227.5278
767.107	194.4385
767.528	179.42653
767.949	149.35314
768.37	162.36602
768.791	119.26607
769.212	191.45233
769.632	121.26137
770.053	160.39546
770.473	160.36106
770.894	149.34125
771.314	138.30007
771.734	107.23004
772.154	166.39715
772.575	140.29768
772.994	133.2799
773.414	111.24172
773.834	138.32423
774.254	149.33589
774.673	144.3227
775.093	167.38615
775.512	136.31491
775.931	172.40977
776.351	64.14902
776.77	159.36225
777.189	117.25609
777.607	122.29356
778.026	151.35262
778.445	106.25332
778.864	121.289
779.282	60.13446
779.701	129.30409
780.119	54.12856
780.537	101.23596
780.955	102.24236
781.373	141.32344
781.791	118.24686
782.209	119.25485
782.627	108.27037
783.045	97.20729
783.462	89.21265
783.88	82.20216
784.297	103.24337
784.715	122.29944
785.132	93.21043
785.549	111.264
785.966	75.17707
786.383	57.13353
786.8	136.29157
787.217	77.17032
787.633	47.11161
788.05	67.14423
788.466	97.21034
788.883	80.19498
789.299	22.04965
789.715	87.19981
790.131	50.11683
790.547	3.007
790.963	44.10346
791.379	99.23582
791.795	92.19392
792.21	50.10914
792.626	29.06481
793.041	58.13393
793.457	54.12514
793.872	58.12821
794.287	104.23814
794.702	60.13822
795.117	-18.04251
795.532	73.17502
795.947	24.05387
796.362	62.13688
796.776	-4.00855
797.191	11.02544
797.605	40.09067
798.02	44.10209
798.434	36.07394
798.848	25.05795
799.262	105.24819
799.676	46.10444
800.09	29.06711
800.504	34.07773
800.918	-18.03942
801.331	52.12815
801.745	-2.00432
802.158	12.02847
802.572	13.02964
802.985	-12.02716
803.398	31.06963
803.811	43.10384
804.224	3.00707
804.637	10.02213
805.05	16.03485
805.462	30.06927
805.875	66.16558
806.288	-7.0163
806.7	50.11862
807.112	22.04792
807.525	21.04937
807.937	0
808.349	23.05437
808.761	-53.12314
809.173	-31.0708
809.584	9.02094
809.996	11.02574
810.408	-40.10021
810.819	-6.01342
811.231	48.12125
811.642	83.19353
812.053	87.19701
812.464	66.14845
812.875	52.12621
813.286	12.02933
813.697	16.03408
814.108	-31.0714
814.519	-17.03532
814.929	-27.06513
815.34	16.03658
815.75	-31.07562
816.16	-28.06538
816.571	1.00249
816.981	-19.04178
817.391	49.11046
817.801	6.0144
818.211	43.09658
818.62	-17.03879
819.03	-26.05994
819.44	7.01736
819.849	17.04087
820.259	37.09006
820.668	44.1035
821.077	-13.03094
821.486	-4.00899
821.895	-40.0924
822.304	-10.02549
822.713	-5.01112
823.122	50.11848
823.531	36.08061
823.939	70.16003
824.348	18.0415
824.756	13.03072
825.164	8.01893
825.573	-18.04318
825.981	3.00707
826.389	-29.06855
826.797	-6.01435
827.205	12.02586
827.612	18.0416
828.02	27.06029
828.428	-23.05577
828.835	19.04792
829.243	-43.09714
829.65	-29.06926
830.057	5.01164
830.464	56.12972
830.871	30.06706
831.278	-17.03861
831.685	4.00822
832.092	32.07427
832.499	9.01822
832.905	37.08898
833.312	-7.01486
833.718	3.00705
834.124	8.0172
834.531	32.07568
834.937	-10.02423
835.343	-5.01144
835.749	-23.05015
836.155	-6.01498
836.561	-45.10364
836.966	55.12536
837.372	-2.00482
837.777	-48.11379
838.183	-39.07944
838.588	17.04023
838.993	-40.09156
839.399	13.02988
839.804	1.00234
840.209	22.05374
840.613	64.13312
841.018	-4.00952
841.423	-29.07035
841.828	-17.04096
842.232	-19.04381
842.637	-55.12135
843.041	41.1014
843.445	-33.07824
843.849	5.01174
844.253	-19.04224
844.657	34.08181
845.061	-16.03424
845.465	56.12983
845.869	3.00651
846.272	26.05966
846.676	22.05025
847.079	8.01953
847.483	35.0819
847.886	16.03589
848.289	31.08035
848.692	13.03112
849.095	-17.03814
849.498	-16.03768
849.901	-34.07277
850.304	3.00669
850.707	1.00241
851.109	-2.0047
851.512	49.11407
851.914	22.0538
852.316	12.02892
852.718	24.05978
853.121	29.06698
853.523	-28.06169
853.925	-24.06026
854.326	8.01926
854.728	17.04155
855.13	11.02728
855.531	73.16558
855.933	9.02024
856.334	4.00953
856.736	-6.01247
857.137	4.00874
857.538	-1.00239
857.939	-18.0427
858.34	-5.01142
858.741	-2.00498
859.142	-7.01595
859.542	98.24904
859.943	43.10152
860.343	33.0777
860.744	37.08515
861.144	15.03448
861.544	15.03462
861.945	-47.11401
862.345	-4.00906
862.745	8.01883
863.145	-17.03746
863.544	44.10624
863.944	9.01987
864.344	-19.04413
864.743	100.23027
865.143	-15.03678
865.542	28.06031
865.941	24.05665
866.34	67.14943
866.74	-16.04122
867.139	19.04315
867.537	10.02398
867.936	43.09733
868.335	16.03895
868.734	60.14618
869.132	44.09604
869.531	15.034
869.929	0
870.327	14.03157
870.726	22.05145
871.124	27.05825
871.522	-27.06498
871.92	27.06248
872.318	16.03698
872.715	35.08087
873.113	23.05291
873.511	6.01419
873.908	12.02954
874.306	33.0777
874.703	30.07054
875.1	-15.03625
875.497	13.02908
875.894	11.026
876.291	10.02338
876.688	-12.02948
877.085	2.00449
877.482	-21.04954
877.878	-6.01371
878.275	-8.01925
878.671	-30.06059
879.068	3.0068
879.464	23.0524
879.86	33.07418
880.256	-3.00689
880.652	20.04807
881.048	-37.08607
881.444	-35.07761
881.84	5.01198
882.236	-6.01436
882.631	37.08546
883.027	-21.04724
883.422	-14.03406
883.817	9.02176
884.213	-2.0049
884.608	25.0585
885.003	25.05684
885.398	5.01186
885.793	-10.02371
886.188	5.01195
886.582	-46.11056
886.977	-6.01337
887.371	-36.08682
887.766	3.00715
888.16	50.11725
888.554	22.05048
888.949	-45.10612
889.343	19.04292
889.737	-13.03388
890.131	-1.00239
890.525	0
890.918	42.10053
891.312	-36.07988
891.706	9.02272
892.099	-5.01203
892.492	19.03791
892.886	-30.06922
893.279	17.04107
893.672	-9.02191
894.065	3.00707
894.458	2.00475
894.851	-10.02274
895.244	6.01459
895.637	-11.02511
896.029	-6.01387
896.422	4.00916
896.814	19.04468
897.206	12.02725
897.599	-17.03883
897.991	11.02515
898.383	-31.06894
898.775	-3.0063
899.167	-22.0491
899.559	14.03329
899.951	3.00661
900.342	-2.00473
900.734	24.05766
901.125	-6.01486
901.517	27.06273
901.908	43.09495
902.299	5.01161
902.69	34.07503
903.082	61.13735
903.473	20.04558
903.863	40.09749
904.254	14.03021
904.645	5.01155
905.036	4.00931
905.426	-26.05401
905.817	18.04155
906.207	12.02706
906.597	-4.00884
906.987	-39.09535
907.378	13.0309
907.768	27.06819
908.158	25.05744
908.547	-66.16511
908.937	-18.04379
909.327	-3.00683
909.717	17.04031
910.106	-10.02269
910.495	56.13178
910.885	-41.09733
911.274	19.04508
911.663	27.06535
912.052	10.02301
912.441	-2.00489
912.83	-19.04071
913.219	-11.02709
913.608	-3.00693
913.997	-36.08613
914.385	-33.07357
914.774	-17.03895
915.162	-13.02905
915.55	0
915.939	-9.02172
916.327	55.12834
916.715	-45.11109
917.103	1.0023
917.491	-39.09029
917.878	-45.10331
918.266	3.00738
918.654	24.0588
919.041	-44.11059
919.429	6.01337
919.816	12.02859
920.203	-22.05062
920.591	4.00928
920.978	8.01838
921.365	-31.07756
921.752	14.03149
922.139	80.15964
922.525	-30.06825
922.912	-7.01604
923.299	-2.00474
923.685	22.05452
924.072	-28.05985
924.458	11.02575
924.844	-62.14664
925.231	-29.06313
925.617	0
926.003	28.06755
926.389	-8.01938
926.774	-4.00968
927.16	-7.01635
927.546	-13.03178
927.931	3.00707
928.317	-32.06789
928.702	-22.04855
929.088	2.00447
929.473	22.05302
929.858	-7.01635
930.243	1.00228
930.628	-3.00686
931.013	40.09446
931.398	-9.01914
931.783	27.06736
932.167	-17.03908
932.552	-53.12494
932.937	-17.03925
933.321	-65.15566
933.705	20.04823
934.09	-34.08044
934.474	-3.00668
934.858	26.06424
935.242	21.04626
935.626	-26.0632
936.009	-22.05605
936.393	26.06315
936.777	26.0636
937.16	-44.10828
937.544	13.02848
937.927	-40.09749
938.311	35.07913
938.694	18.04519
939.077	5.01115
939.46	28.06473
939.843	16.03001
940.226	-22.05348
940.609	0
940.991	-5.01209
941.374	-36.08306
941.757	15.03471
942.139	-12.02494
942.522	33.07144
942.904	20.04523
943.286	14.03327
943.668	-39.09666
944.05	-11.02562
944.432	12.02805
944.814	-13.02995
945.196	4.00934
945.578	-8.0182
945.959	14.03077
946.341	-29.06594
946.722	34.07465
947.104	-22.04916
947.485	6.01301
947.866	9.02168
948.247	47.11153
948.628	0
949.009	-1.00244
949.39	-58.13494
949.771	-10.0216
950.152	31.07185
950.532	50.11931
950.913	-46.10398
951.293	17.04431
951.674	-48.10934
952.054	-3.00707
952.434	-46.10783
952.814	-11.02414
953.194	57.14097
953.574	-31.07123
953.954	19.04224
954.334	22.05197
954.714	-20.04637
955.093	3.00684
955.473	-4.00939
955.853	32.07872
956.232	-12.03159
956.611	1.0022
956.99	23.05481
957.37	16.03856
957.749	-41.09156
958.128	55.13156
958.506	35.08675
958.885	-33.07894
959.264	-35.08174
959.643	40.08446
960.021	-12.02823
960.4	30.06412
960.778	-7.01593
961.156	-7.01663
961.535	-84.18157
961.913	-23.04941
962.291	19.04687
962.669	-4.00965
963.047	-57.13749
963.424	32.07744
963.802	-5.01147
964.18	8.01896
964.557	-2.00422
964.935	39.08551
965.312	46.11395
965.69	25.05847
966.067	-10.02277
966.444	19.04393
966.821	-17.04146
967.198	-30.06764
967.575	20.04558
967.952	42.09199
968.329	-10.02284
968.705	-30.05873
969.082	37.09026
969.458	-12.02759
969.835	-4.00915
970.211	-23.0564
970.587	-9.02121
970.963	36.08679
971.339	-4.01006
971.715	-63.14776
972.091	2.00463
972.467	-43.10018
972.843	-24.05661
973.219	-33.07357
973.594	16.03982
973.97	-11.02422
974.345	-56.12725
974.721	22.04948
975.096	-62.14134
975.471	-1.00223
975.846	4.00911
976.221	8.01928
976.596	29.06506
976.971	38.08789
977.346	-11.02361
977.72	-11.02655
978.095	27.06621
978.469	37.08249
978.844	81.18886
979.218	6.01366
979.593	21.04715
979.967	8.01846
980.341	-32.06872
980.715	-8.01898
981.089	-19.04458
981.463	17.03685
981.837	-45.10563
982.21	10.02147
982.584	14.03152
982.957	-12.02869
983.331	6.01328
983.704	56.12947
984.078	-22.05102
984.451	-6.01374
984.824	12.02776
985.197	13.02951
985.57	1.00234
985.943	-36.0824
986.316	45.10302
986.688	37.08273
987.061	6.01299
987.434	16.03965
987.806	4.00905
988.179	-6.01319
988.551	-8.01907
988.923	-34.07917
989.295	12.02814
989.667	-4.00921
990.039	21.0491
990.411	57.12244
990.783	-5.01069
991.155	50.11399
991.527	-1.00226
991.898	20.04655
992.27	-19.04467
992.641	-6.01414
993.012	61.1338
993.384	-11.02471
993.755	-20.04823
994.126	3.0068
994.497	-22.05108
994.868	35.07483
995.239	-6.01379
995.61	-48.11493
995.98	21.04842
996.351	20.04705
996.722	21.04585
997.092	21.04709
997.462	5.0111
997.833	1.00221
998.203	-13.02949
998.573	26.06145
998.943	8.01731
999.313	39.08774
999.683	-46.10355
1000.053	34.07296
1000.423	37.08399
1000.792	-9.02226
1001.162	-3.00702
1001.531	28.06522
1001.901	-16.03756
1002.27	31.06446
1002.639	5.01216
1003.009	40.09001
1003.378	42.10133
1003.747	-16.03537
1004.116	-28.06381
1004.485	-30.06825
1004.853	-8.01924
1005.222	18.04333
1005.591	35.07658
1005.959	14.02982
1006.328	-50.10553
1006.696	4.00915
1007.064	10.02379
1007.433	21.0497
1007.801	-23.05293
1008.169	17.04014
1008.537	37.07581
1008.905	-34.07513
1009.273	-21.04904
1009.64	26.05841
1010.008	-24.05376
1010.375	59.13268
1010.743	1.0021
1011.11	-20.04476
1011.478	-7.01632
1011.845	-40.0872
1012.212	-28.05873
1012.579	1.00232
1012.946	-3.00658
1013.313	76.16617
1013.68	12.02479
1014.047	2.00455
1014.414	6.01343
1014.78	72.16857
1015.147	-11.02463
1015.513	48.10965
1015.88	-9.02149
1016.246	-7.01636
1016.612	-38.0808
1016.978	3.00689
1017.344	36.08445
1017.71	-11.02468
1018.076	-9.01983
1018.442	-32.07814
1018.808	-31.07381
1019.174	-12.02834
1019.539	33.06792
1019.905	0
1020.27	-39.09258
1020.636	38.0846
1021.001	29.06425
1021.366	65.14797
1021.731	25.06103
1022.096	-13.03149
1022.461	-36.07938
1022.826	2.00447
1023.191	-13.0326
1023.556	-38.08266
1023.92	-34.07823
1024.285	1.00228
1024.649	-14.03243
1025.014	36.08333
1025.378	15.03602
1025.742	-47.11101
1026.107	-20.04169
1026.471	-43.09233
1026.835	-23.05337
1027.199	-19.0435
1027.562	56.12115
1027.926	15.03426
1028.29	-2.00481
1028.654	12.02538
1029.017	40.09229
1029.381	-6.01356
1029.744	29.0703
1030.107	-25.05451
1030.471	13.02899
1030.834	-10.02081
1031.197	-32.07153
1031.56	55.12176
1031.923	-24.0591
1032.286	33.07138
1032.648	14.03105
1033.011	33.07049
1033.374	-17.03688
1033.736	-15.03764
1034.099	24.05518
1034.461	29.06974
1034.823	-38.08953
1035.185	-53.12528
1035.548	-8.0183
1035.91	25.05645
1036.272	-23.04911
1036.634	-2.00454
1036.995	32.07077
1037.357	-21.04846
1037.719	10.02279
1038.08	-51.11229
1038.442	49.11055
1038.803	-17.03812
1039.165	-21.05046
1039.526	-10.02279
1039.887	29.0653
1040.248	28.06633
1040.609	25.05779
1040.97	15.03435
1041.331	-55.13061
1041.692	21.0462
1042.053	-64.13597
1042.413	-3.00644
1042.774	27.06102
1043.134	-19.04196
1043.495	-11.02596
1043.855	2.00456
1044.215	-1.00233
1044.576	12.02714
1044.936	42.0895
1045.296	-6.01405
1045.656	-1.00231
1046.016	-13.02909
1046.375	23.05276
1046.735	9.01927
1047.095	-1.0022
1047.454	79.1508
1047.814	-21.04719
1048.173	-20.04401
1048.533	-30.06501
1048.892	16.03634
1049.251	9.0213
1049.61	-45.10397
1049.969	4.0089
1050.328	-14.02769
1050.687	-9.02058
1051.046	-15.0348
1051.405	-49.11434
1051.763	18.03876
1052.122	-22.0527
1052.48	-46.10639
1052.839	-23.05104
1053.197	-4.00884
1053.555	-52.10705
1053.914	15.03423
1054.272	-2.00452
1054.63	-34.07826
1054.988	-7.01557
1055.345	-18.03542
1055.703	-3.0067
1056.061	-25.06137
1056.419	-2.00495
1056.776	31.06977
1057.134	9.01935
1057.491	-27.06394
1057.848	2.00466
1058.206	24.05243
1058.563	25.05148
1058.92	6.01271
1059.277	-7.01595
1059.634	-37.08006
1059.991	56.12503
1060.348	10.02124
1060.704	11.02463
1061.061	21.04412
1061.418	-4.0092
1061.774	43.10089
1062.131	38.09746
1062.487	-15.03261
1062.843	3.00704
1063.199	-8.01894
1063.555	-13.0285
1063.911	-36.08613
1064.267	-22.04107
1064.623	23.05302
1064.979	-6.01292
1065.335	-6.01319
1065.691	13.02947
1066.046	19.03808
1066.402	15.03161
1066.757	40.0949
1067.112	-57.13139
1067.468	17.03826
1067.823	20.04511
1068.178	68.15352
1068.533	-6.01355
1068.888	-3.00664
1069.243	16.03733
1069.598	-35.07906
1069.952	-4.00858
1070.307	13.03087
1070.662	29.06447
1071.016	61.12702
1071.371	-60.12813
1071.725	-47.10322
1072.079	-22.04975
1072.434	-21.0481
1072.788	22.04932
1073.142	38.08824
1073.496	-3.00668
1073.85	38.08136
1074.203	2.00453
1074.557	22.05603
1074.911	43.09396
1075.265	-56.12125
1075.618	21.04823
1075.971	6.01327
1076.325	-7.01689
1076.678	-18.03857
1077.031	-37.07835
1077.385	65.13185
1077.738	12.02524
1078.091	26.05581
1078.444	-21.04497
1078.796	16.03717
1079.149	-19.04406
1079.502	-6.01334
1079.855	53.11503
1080.207	8.01846
1080.56	-50.12363
1080.912	-33.07467
1081.264	8.01804
1081.617	-20.0462
1081.969	13.03162
1082.321	-29.06709
1082.673	-6.01299
1083.025	0
1083.377	-23.04488
1083.728	-40.08587
1084.08	-5.01188
1084.432	-42.0935
1084.783	57.12476
1085.135	52.12394
1085.486	-23.04987
1085.838	6.01391
1086.189	1.00228
1086.54	16.03568
1086.891	11.02669
1087.242	-14.03185
1087.593	5.0113
1087.944	-25.05271
1088.295	-23.04821
1088.646	40.0906
1088.996	-7.01583
1089.347	-35.08077
1089.698	35.0779
1090.048	-7.01712
1090.398	31.06711
1090.749	4.009
1091.099	-12.02896
1091.449	-25.05854
1091.799	-18.04257
1092.149	-4.00944
1092.499	14.03219
1092.849	14.03367
1093.199	7.01642
1093.548	-6.01366
1093.898	37.08709
1094.248	16.03882
1094.597	-10.02467
1094.947	9.02281
1095.296	-26.06047
1095.645	10.02452
1095.994	-46.10533
1096.343	47.11226
1096.692	-11.02792
1097.041	-37.09732
1097.39	-7.01653
1097.739	25.06176
1098.088	-45.11438
1098.437	-26.06577
1098.785	14.03573
1099.134	-21.05251
1099.482	-20.05237
1099.83	-31.07754
1100.179	2.00505
1100.527	21.05254
1100.875	-24.06073
1101.223	29.07374
1101.571	-33.0885
1101.919	-42.10647
1102.267	10.02742
1102.615	3.00964
1102.962	5.01604
1103.31	-2.00643
1103.658	-7.02246
