Data from N3 R6 sample 3_Subt2__0__15-27-55-527.txt Node

Date: Fri Sep 19 15:27:55 PDT 2025
User: uwsun
Spectrometer: HDX01956
Trigger mode: 0
Integration Time (sec): 5.000000E-1
Scans to average: 1
Nonlinearity correction enabled: true
Boxcar width: 0
Storing dark spectrum: false
XAxis mode: Wavelengths
Number of Pixels in Spectrum: 2068
>>>>>Begin Spectral Data<<<<<
194.03	-8.02326
194.578	10.03249
195.127	5.01604
195.676	-8.02568
196.225	-23.06103
196.773	27.07512
197.321	-5.01398
197.87	48.1234
198.418	83.21417
198.966	49.12941
199.513	54.13786
200.061	-5.0128
200.609	15.03973
201.156	-42.09222
201.704	-34.08653
202.251	24.06386
202.798	24.06286
203.345	44.10888
203.892	19.04804
204.438	25.05994
204.985	24.05749
205.532	55.14778
206.078	30.07393
206.624	-6.01502
207.17	40.0927
207.716	32.07717
208.262	10.01976
208.808	9.02258
209.354	-25.06165
209.899	12.03027
210.445	26.06556
210.99	31.07526
211.535	27.06347
212.08	-11.02573
212.625	21.05266
213.17	12.03042
213.715	27.06107
214.259	55.12839
214.804	8.01972
215.348	33.07534
215.892	36.08672
216.436	102.23412
216.98	-27.05975
217.524	3.00713
218.068	7.01768
218.612	8.02001
219.155	9.02122
219.698	5.01182
220.242	44.10872
220.785	20.04683
221.328	37.09204
221.871	14.03539
222.414	-24.05926
222.956	29.07014
223.499	-1.00225
224.041	-1.00229
224.583	22.04686
225.126	70.15493
225.668	38.09206
226.21	36.09003
226.751	-48.10473
227.293	-47.10721
227.835	-17.04147
228.376	39.08821
228.918	38.0951
229.459	40.10032
230	15.03557
230.541	31.0704
231.082	32.0772
231.622	41.09364
232.163	59.14296
232.704	15.03699
233.244	27.0666
233.784	37.08905
234.324	13.02892
234.864	-26.05887
235.404	-23.05424
235.944	-8.01876
236.484	13.03193
237.023	0
237.563	13.02989
238.102	-5.0118
238.641	28.07095
239.18	47.10972
239.719	16.04036
240.258	50.1102
240.797	-8.01926
241.335	-56.13628
241.874	66.12577
242.412	1.00239
242.95	20.04809
243.488	-3.00685
244.026	13.02998
244.564	69.13907
245.102	21.04693
245.64	8.01914
246.177	-18.04011
246.715	-11.02607
247.252	-27.06144
247.789	-19.03368
248.326	-51.12232
248.863	-26.05682
249.4	65.14725
249.936	26.0528
250.473	19.04423
251.009	21.04837
251.546	21.04622
252.082	74.16077
252.618	10.0224
253.154	3.0072
253.69	-13.02919
254.226	28.06609
254.761	37.08102
255.297	51.11073
255.832	28.0654
256.367	9.02099
256.903	-2.00435
257.438	15.03462
257.972	-38.08425
258.507	28.0646
259.042	-5.01059
259.576	-13.02815
260.111	17.03884
260.645	-14.03043
261.179	21.04837
261.713	-4.00882
262.247	58.13345
262.781	57.11874
263.315	43.10447
263.849	16.03985
264.382	12.02725
264.915	26.06099
265.449	0
265.982	13.02901
266.515	42.10156
267.048	-48.10309
267.58	20.04254
268.113	51.10974
268.646	46.11353
269.178	-23.0516
269.71	2.00432
270.243	80.17898
270.775	32.08098
271.307	-12.02843
271.838	28.06538
272.37	1.00247
272.902	50.11311
273.433	11.02375
273.965	83.20119
274.496	-43.1063
275.027	37.09053
275.558	45.10789
276.089	58.1442
276.62	-13.03291
277.15	36.08777
277.681	-20.0426
278.211	17.04108
278.741	73.16005
279.272	17.03868
279.802	63.1558
280.332	8.01885
280.861	32.07642
281.391	10.02249
281.921	-9.02136
282.45	85.2116
282.98	45.1168
283.509	27.0602
284.038	-18.04035
284.567	-22.05044
285.096	47.11273
285.625	60.13651
286.153	34.07882
286.682	-15.03409
287.21	10.02397
287.739	1.00234
288.267	25.06055
288.795	16.04181
289.323	57.13374
289.851	11.02554
290.378	10.02242
290.906	27.06557
291.433	34.08435
291.961	17.03806
292.488	23.05705
293.015	43.1014
293.542	8.02016
294.069	21.0514
294.596	70.17067
295.122	35.08308
295.649	50.1102
296.175	42.09945
296.702	18.04297
297.228	16.03806
297.754	24.05345
298.28	0
298.806	24.05786
299.332	37.08126
299.857	31.06923
300.383	22.0549
300.908	26.06353
301.433	58.14035
301.958	-10.0227
302.483	77.19252
303.008	50.12141
303.533	15.03825
304.058	88.20288
304.582	66.15452
305.107	31.08118
305.631	37.0829
306.155	72.16738
306.679	35.08167
307.203	68.1564
307.727	47.1114
308.251	34.0833
308.775	46.1082
309.298	36.08666
309.822	46.11512
310.345	25.05905
310.868	29.069
311.391	76.18412
311.914	56.13953
312.437	54.12066
312.96	36.08481
313.482	87.20413
314.005	29.07259
314.527	95.24674
315.049	67.16636
315.571	99.22199
316.093	108.26469
316.615	63.15185
317.137	36.07721
317.659	44.10479
318.18	68.16269
318.702	59.13637
319.223	57.11589
319.744	66.14742
320.265	65.15697
320.786	89.21784
321.307	95.23434
321.828	105.23574
322.348	99.23092
322.869	6.01397
323.389	207.37042
323.909	77.175
324.43	43.10219
324.95	70.15971
325.47	94.22935
325.989	136.32015
326.509	84.1839
327.029	47.10565
327.548	55.12384
328.067	76.18142
328.587	109.26808
329.106	119.26453
329.625	60.15361
330.144	14.03206
330.662	99.22655
331.181	155.3547
331.7	111.25514
332.218	129.27674
332.736	81.18596
333.255	83.19109
333.773	112.2616
334.291	77.18798
334.808	87.1901
335.326	137.30341
335.844	112.25975
336.361	134.33254
336.879	115.26349
337.396	80.18884
337.913	105.23651
338.43	140.3118
338.947	160.37225
339.464	112.23617
339.981	142.33167
340.497	131.31778
341.014	119.28248
341.53	137.30644
342.046	163.39168
342.562	139.33896
343.078	149.34138
343.594	173.40479
344.11	183.42113
344.626	201.49342
345.141	181.40436
345.657	149.32558
346.172	116.27339
346.687	136.3074
347.202	150.32922
347.717	149.3485
348.232	184.44826
348.747	222.49133
349.261	231.49577
349.776	136.31104
350.29	156.37877
350.805	191.45338
351.319	209.47153
351.833	195.43239
352.347	169.38004
352.861	169.38409
353.374	207.45537
353.888	171.3987
354.401	237.52158
354.915	185.40577
355.428	245.58736
355.941	218.49173
356.454	204.44113
356.967	243.55293
357.48	210.46323
357.993	189.45019
358.505	235.55931
359.018	246.5696
359.53	198.45938
360.042	198.41733
360.554	281.64327
361.066	160.37797
361.578	265.55523
362.09	256.58334
362.602	220.46656
363.113	196.4318
363.625	247.53719
364.136	244.5118
364.647	233.52159
365.158	252.56331
365.669	276.64007
366.18	213.47132
366.691	311.64642
367.201	238.54079
367.712	234.5021
368.222	294.64687
368.733	320.66023
369.243	260.54006
369.753	252.55121
370.263	235.53127
370.773	346.80332
371.282	316.7046
371.792	281.60723
372.301	306.70063
372.811	280.69226
373.32	335.66276
373.829	386.85282
374.338	341.70814
374.847	335.71461
375.356	399.88393
375.865	387.75739
376.373	366.77073
376.882	401.93851
377.39	469.03092
377.898	454.03189
378.407	433.87872
378.915	411.80551
379.423	585.22269
379.93	493.99819
380.438	563.22753
380.946	588.21295
381.453	657.36915
381.96	651.34161
382.468	712.45204
382.975	738.54939
383.482	719.37042
383.989	748.64273
384.495	761.47659
385.002	840.43356
385.509	848.62261
386.015	1005.56391
386.521	999.73914
387.028	1016.7944
387.534	1044.71532
388.04	1070.9479
388.546	1097.82622
389.051	1230.94222
389.557	1353.218
390.063	1436.29865
390.568	1364.28248
391.073	1504.25066
391.578	1515.45277
392.084	1516.17711
392.589	1667.24664
393.093	1763.52246
393.598	1988.50422
394.103	2140.74407
394.607	2343.7527
395.112	2456.93228
395.616	2618.82188
396.12	2851.55928
396.624	3089.55161
397.128	3360.58298
397.632	3828.15971
398.136	4149.96243
398.639	4448.91839
399.143	5140.75043
399.646	5702.05834
400.15	6334.77856
400.653	7176.88025
401.156	8087.66843
401.659	9218.01999
402.162	11706.52995
402.664	16813.64464
403.167	28666.68944
403.67	56925.15723
404.172	55487.84425
404.674	37291.05854
405.176	4428.40989
405.678	533.47942
406.18	0
406.682	0
407.184	6962.89417
407.686	50953.82939
408.187	43788.02386
408.688	28282.41042
409.19	21384.1085
409.691	17569.8158
410.192	15105.42632
410.693	13444.04741
411.194	12416.06787
411.694	11493.84107
412.195	10641.52168
412.696	9905.54085
413.196	9493.47611
413.696	9532.01837
414.196	9426.04191
414.696	9210.01895
415.196	8509.41402
415.696	7191.62536
416.196	5485.81553
416.695	4524.65851
417.195	4271.0071
417.694	3989.28194
418.194	3719.61585
418.693	3558.18444
419.192	3640.40911
419.691	3440.49153
420.19	3300.579
420.688	3141.83247
421.187	3058.88224
421.685	2813.60524
422.184	2528.67698
422.682	2119.36124
423.18	1867.47947
423.678	1657.32756
424.176	1566.27485
424.674	1415.02978
425.172	1336.15311
425.669	1288.26707
426.167	1169.94979
426.664	1100.84075
427.161	936.63988
427.659	959.83845
428.156	883.44871
428.652	816.68095
429.149	797.57376
429.646	745.32058
430.143	674.35702
430.639	676.3392
431.135	588.24553
431.632	552.08093
432.128	586.21802
432.624	539.19597
433.12	520.03545
433.616	530.9973
434.111	498.04633
434.607	491.03227
435.103	421.77016
435.598	465.83564
436.093	372.77648
436.588	394.79355
437.083	376.76078
437.578	339.69959
438.073	298.67738
438.568	353.78106
439.062	254.49933
439.557	281.60203
440.051	262.5481
440.546	293.61553
441.04	226.4958
441.534	327.76206
442.028	249.5535
442.522	231.51839
443.015	212.43112
443.509	264.60083
444.002	234.53558
444.496	187.37551
444.989	279.63484
445.482	171.40011
445.975	208.44516
446.468	180.36337
446.961	171.34021
447.454	201.41816
447.947	194.43885
448.439	230.52748
448.931	171.36415
449.424	150.35215
449.916	178.40135
450.408	219.47022
450.9	132.30395
451.392	167.40069
451.884	111.23905
452.375	137.32044
452.867	202.42408
453.358	106.22666
453.849	156.31073
454.341	194.4098
454.832	123.2519
455.323	136.31554
455.814	139.3
456.304	144.31192
456.795	112.24053
457.285	131.27217
457.776	112.2369
458.266	145.32861
458.756	91.20607
459.247	96.21708
459.737	151.34402
460.226	137.29137
460.716	126.28701
461.206	109.24572
461.695	143.34101
462.185	133.29897
462.674	103.2224
463.163	66.13856
463.653	121.24118
464.142	84.19234
464.63	84.19582
465.119	119.26409
465.608	89.19456
466.096	125.25808
466.585	142.30391
467.073	68.15408
467.561	112.26037
468.05	72.15829
468.538	88.20926
469.026	96.22079
469.513	78.15681
470.001	60.13025
470.489	76.172
470.976	108.23664
471.463	125.29866
471.951	79.18919
472.438	71.16045
472.925	55.12237
473.412	32.07504
473.899	97.21312
474.385	92.21573
474.872	30.06734
475.359	44.10366
475.845	54.10721
476.331	67.13746
476.817	53.12285
477.303	58.12928
477.789	74.17047
478.275	79.18861
478.761	40.09248
479.247	24.05154
479.732	39.09475
480.218	40.10068
480.703	87.21002
481.188	-25.05199
481.673	27.06005
482.158	36.07471
482.643	30.0738
483.128	33.07229
483.612	0
484.097	40.09427
484.581	12.02656
485.066	9.02113
485.55	22.04625
486.034	97.20225
486.518	28.06386
487.002	-32.07691
487.486	23.05453
487.969	74.17624
488.453	25.06146
488.936	-28.06145
489.42	53.11296
489.903	26.06356
490.386	53.10962
490.869	5.01036
491.352	-8.01893
491.835	-47.09394
492.318	21.04628
492.8	-20.03989
493.283	21.05233
493.765	17.0409
494.247	25.0559
494.73	4.00858
495.212	11.02568
495.694	-16.03656
496.175	-5.01161
496.657	65.1503
497.139	-76.12442
497.62	-1.00233
498.102	-14.03418
498.583	-39.09468
499.064	11.0242
499.545	-2.00444
500.026	-23.05034
500.507	-25.05611
500.988	7.01676
501.469	-16.03895
501.949	-37.08874
502.43	-37.0861
502.91	-51.10317
503.39	-36.08823
503.87	31.07091
504.35	-47.10751
504.83	0
505.31	-26.06209
505.79	-50.11784
506.269	-14.03168
506.749	-86.19423
507.228	-17.03904
507.707	-30.06501
508.187	-56.13039
508.666	-61.14697
509.145	-53.12192
509.623	-51.1176
510.102	-33.07806
510.581	-31.07254
511.059	1.00247
511.538	-78.19892
512.016	-26.06133
512.494	-20.04706
512.972	-24.05643
513.45	-33.07616
513.928	-17.04046
514.406	-23.05565
514.884	21.05334
515.361	-3.00709
515.839	-29.06452
516.316	-41.09627
516.793	-35.08675
517.27	-3.00714
517.747	-5.01259
518.224	-63.14301
518.701	2.00435
519.178	-4.0099
519.654	-68.15615
520.131	-114.27836
520.607	-4.00968
521.083	-17.03826
521.56	-44.10176
522.036	-44.09539
522.512	-28.06766
522.987	-23.0543
523.463	-7.01635
523.939	-25.06008
524.414	-72.16301
524.89	-58.13473
525.365	-38.08554
525.84	37.08776
526.315	-92.21868
526.79	-81.17954
527.265	-66.14675
527.74	-72.17338
528.215	-19.04406
528.689	-40.08846
529.164	-67.14063
529.638	-41.1041
530.112	-57.13463
530.587	6.01265
531.061	-85.20488
531.534	-17.04004
532.008	-11.02604
532.482	-61.13515
532.956	-13.03305
533.429	-117.27537
533.903	-91.19783
534.376	-40.08657
534.849	-40.09167
535.322	-34.07889
535.795	-52.12531
536.268	-29.06903
536.741	-55.13016
537.213	4.00905
537.686	-73.17502
538.158	-92.20575
538.631	-58.13802
539.103	-97.21652
539.575	-27.05489
540.047	-46.09922
540.519	-70.16395
540.991	-82.19701
541.463	-75.18091
541.934	-69.15682
542.406	-91.21651
542.877	-35.07742
543.348	-112.26294
543.82	-39.09379
544.291	-77.17493
544.762	-61.14273
545.233	3.00744
545.703	-68.14975
546.174	-57.1317
546.645	-19.04552
547.115	-48.11453
547.585	12.02728
548.056	-23.05567
548.526	-45.10488
548.996	-26.0614
549.466	-78.18754
549.935	-8.01891
550.405	-28.06112
550.875	-88.2066
551.344	-69.16575
551.814	-112.25305
552.283	-26.05502
552.752	-66.15198
553.221	-36.07708
553.69	-34.07475
554.159	-18.04423
554.628	-114.25505
555.096	-57.14293
555.565	-65.14311
556.033	-39.08997
556.502	-62.14811
556.97	-68.14843
557.438	-28.06522
557.906	-53.12401
558.374	-63.14278
558.842	-22.05175
559.31	-38.08298
559.777	-58.13956
560.245	-35.07974
560.712	-91.20557
561.18	-43.0932
561.647	-73.16079
562.114	-59.13306
562.581	9.02175
563.048	-20.04449
563.514	-51.12437
563.981	-56.12586
564.448	27.05902
564.914	10.02258
565.381	-2.00437
565.847	14.03172
566.313	10.02257
566.779	45.09924
567.245	-23.05289
567.711	68.15846
568.176	91.20153
568.642	72.176
569.108	46.10989
569.573	48.1077
570.038	132.26488
570.504	124.26871
570.969	138.32878
571.434	120.25371
571.899	154.35007
572.363	143.3081
572.828	144.30939
573.293	142.30995
573.757	210.45527
574.222	258.5414
574.686	209.44255
575.15	261.57969
575.614	230.49053
576.078	264.5733
576.542	287.60531
577.006	302.63065
577.469	314.70825
577.933	240.49518
578.396	319.70526
578.86	325.69508
579.323	272.60123
579.786	285.56093
580.249	284.59886
580.712	321.71412
581.175	338.76517
581.637	342.72432
582.1	315.62378
582.563	249.476
583.025	273.6144
583.487	245.45156
583.95	235.47015
584.412	298.56318
584.874	278.62245
585.336	258.56957
585.797	277.54647
586.259	215.46382
586.721	209.46034
587.182	226.48263
587.643	221.46591
588.105	223.49489
588.566	225.43783
589.027	198.45428
589.488	173.36873
589.949	205.45986
590.41	220.40131
590.87	84.17939
591.331	106.2133
591.791	64.14011
592.252	117.25501
592.712	149.33823
593.172	144.30619
593.632	63.1282
594.092	132.27786
594.552	108.21852
595.011	109.24069
595.471	77.16462
595.931	56.11959
596.39	86.19811
596.849	57.12729
597.308	72.14842
597.768	86.21038
598.227	42.09787
598.685	-5.01096
599.144	41.09235
599.603	103.23229
600.062	7.01413
600.52	29.06275
600.978	62.14254
601.437	33.07254
601.895	54.10966
602.353	7.01485
602.811	29.06195
603.269	22.05068
603.727	32.07413
604.184	35.07622
604.642	74.17312
605.099	30.06687
605.557	-21.04931
606.014	40.08257
606.471	19.04663
606.928	62.13315
607.385	30.07216
607.842	84.18654
608.299	65.14491
608.755	56.12962
609.212	85.1818
609.668	63.13521
610.125	49.11295
610.581	60.1333
611.037	61.13233
611.493	24.05423
611.949	8.01872
612.405	56.10863
612.861	30.06665
613.316	77.17741
613.772	87.19059
614.227	-14.0322
614.683	106.21467
615.138	88.19948
615.593	2.00446
616.048	17.03693
616.503	50.11775
616.958	43.10384
617.412	46.10453
617.867	41.08849
618.321	20.03876
618.776	36.07621
619.23	112.25171
619.684	65.13824
620.138	10.02185
620.592	13.03034
621.046	42.09381
621.5	41.0953
621.954	71.15061
622.407	34.0722
622.861	-14.03246
623.314	65.14107
623.768	27.06069
624.221	4.00765
624.674	-7.0154
625.127	36.08081
625.58	-18.03864
626.033	16.03328
626.485	1.0023
626.938	-5.01141
627.39	54.11997
627.843	5.01103
628.295	0
628.747	-16.03681
629.199	32.07047
629.651	-36.07981
630.103	23.05096
630.555	-32.0649
631.006	-5.01129
631.458	-59.1335
631.909	-24.05274
632.361	-65.14611
632.812	19.04234
633.263	-12.0246
633.714	-75.15395
634.165	-78.18097
634.616	-31.07091
635.067	-25.05254
635.518	-68.15546
635.968	-24.04593
636.419	-53.11002
636.869	-54.1236
637.319	-29.06479
637.769	31.06668
638.219	-57.12997
638.669	-23.0534
639.119	-38.08942
639.569	2.0047
640.019	-43.09587
640.468	-93.20003
640.918	-13.03007
641.367	-5.01083
641.816	23.04941
642.265	-33.07394
642.714	-20.0451
643.163	-66.14565
643.612	-38.09012
644.061	-113.23352
644.51	1.00221
644.958	-56.12001
645.406	-9.02095
645.855	-39.09261
646.303	-26.05841
646.751	-43.09606
647.199	-73.15931
647.647	-35.07935
648.095	-30.06634
648.543	-51.09943
648.99	-37.08654
649.438	-32.0731
649.885	16.03851
650.333	-77.14263
650.78	9.02138
651.227	-5.01187
651.674	24.05272
652.121	-61.14307
652.568	-4.00942
653.015	-51.12335
653.461	-30.06941
653.908	18.0402
654.354	-40.09152
654.801	-66.15222
655.247	-27.057
655.693	-56.14332
656.139	-25.05806
656.585	-38.08904
657.031	-11.02517
657.477	-30.06348
657.922	7.0157
658.368	-16.03809
658.813	-68.15063
659.259	-55.1298
659.704	-20.04567
660.149	-54.12295
660.594	10.02297
661.039	-4.00888
661.484	6.01385
661.929	0
662.373	-20.04989
662.818	-31.07574
663.262	-83.19596
663.707	-52.12844
664.151	10.02394
664.595	-49.116
665.039	-71.17262
665.483	-13.03255
665.927	-34.07738
666.371	-19.04325
666.814	-29.06724
667.258	-17.03967
667.701	-17.03477
668.145	-12.02885
668.588	0
669.031	-11.02542
669.474	-34.07973
669.917	-28.05974
670.36	-58.14025
670.803	18.04173
671.245	-41.08332
671.688	-12.02827
672.13	-53.11566
672.573	-23.05728
673.015	-7.01623
673.457	-6.01275
673.899	2.00466
674.341	-34.07988
674.783	-1.00234
675.225	-3.00715
675.666	-55.13046
676.108	18.03777
676.549	-36.08257
676.991	-91.19632
677.432	-44.0838
677.873	-8.01782
678.314	-28.06489
678.755	-38.09092
679.196	4.00892
679.637	-34.0801
680.078	-36.08161
680.518	-44.09779
680.959	-40.09328
681.399	-96.23301
681.839	-38.09005
682.28	-33.08002
682.72	-50.11103
683.16	-34.08296
683.6	14.03061
684.039	-33.06605
684.479	-31.07435
684.919	-60.13722
685.358	-29.0713
685.798	-34.08656
686.237	-55.12935
686.676	-73.16511
687.115	-16.0364
687.554	-36.0831
687.993	-58.12273
688.432	-5.01116
688.871	1.00219
689.309	41.09657
689.748	-6.01202
690.186	-52.11964
690.625	19.04369
691.063	-8.0188
691.501	-2.0048
691.939	-35.08525
692.377	-12.02849
692.815	18.04208
693.253	-53.12275
693.69	-43.09161
694.128	-9.02143
694.565	-5.01157
695.003	-47.11717
695.44	-35.07964
695.877	-26.05973
696.314	26.05309
696.751	-12.02618
697.188	-21.04709
697.625	-13.02843
698.061	-30.07013
698.498	-22.05153
698.934	-42.09752
699.371	-24.05527
699.807	-4.00917
700.243	33.07734
700.679	-7.01527
701.115	-36.08151
701.551	9.02056
701.987	-18.03854
702.422	-47.10851
702.858	-68.15708
703.294	-56.12234
703.729	36.08514
704.164	-29.06842
704.599	17.03595
705.035	-19.04129
705.47	16.03808
705.904	-19.04262
706.339	-38.08425
706.774	-54.12236
707.209	-44.09828
707.643	8.01852
708.078	-44.10394
708.512	-3.00742
708.946	-46.10639
709.38	-45.10281
709.814	-36.07898
710.248	-70.16447
710.682	-14.03252
711.116	-41.09639
711.549	-38.09492
711.983	-77.17231
712.416	-58.13153
712.85	-11.02675
713.283	-33.07564
713.716	-17.04102
714.149	-53.12104
714.582	-22.0477
715.015	1.00239
715.448	-73.17709
715.881	-90.18711
716.313	16.03621
716.746	-11.02515
717.178	-48.11168
717.61	-20.0492
718.043	-49.11753
718.475	-38.08879
718.907	-16.03843
719.339	-48.10553
719.77	0
720.202	-67.16497
720.634	14.03303
721.065	-50.11458
721.497	14.03305
721.928	-44.10575
722.359	-22.05223
722.79	-34.07882
723.221	-26.06259
723.652	-13.03201
724.083	-41.08879
724.514	-82.17937
724.945	-44.10027
725.375	-31.06983
725.806	-57.13546
726.236	-22.05432
726.666	-57.12955
727.096	-41.09657
727.526	-8.01969
727.956	-72.15882
728.386	-60.14081
728.816	-40.09862
729.246	-46.10943
729.675	-16.03841
730.105	-73.17362
730.534	-32.07207
730.964	-58.14041
731.393	-59.13892
731.822	11.0271
732.251	11.02698
732.68	-67.14851
733.109	-68.16344
733.537	-45.10484
733.966	13.03074
734.395	-66.14608
734.823	-47.10074
735.251	-61.14262
735.68	-37.08888
736.108	-61.14892
736.536	-30.06787
736.964	-6.01322
737.392	-42.10064
737.82	-86.1993
738.247	-70.16061
738.675	-21.04728
739.102	-1.00243
739.53	-35.0871
739.957	-71.17681
740.384	-32.0748
740.811	-7.01715
741.238	-58.13585
741.665	30.06706
742.092	-42.09524
742.519	-24.05797
742.945	-52.12022
743.372	-18.04305
743.798	-35.08684
744.225	-40.09119
744.651	-55.13287
745.077	-29.06961
745.503	-74.17339
745.929	-37.08488
746.355	-50.11738
746.781	-67.16051
747.207	-12.02738
747.632	-43.10207
748.058	-56.13368
748.483	-34.07399
748.908	-57.13703
749.334	-15.03529
749.759	-41.0925
750.184	-61.14027
750.609	-9.02101
751.033	-14.03086
751.458	29.06189
751.883	-67.15941
752.307	-27.06199
752.732	-5.01218
753.156	-16.03787
753.58	-29.06556
754.005	-19.0468
754.429	-67.14943
754.853	-6.01432
755.277	8.01816
755.7	-32.07615
756.124	-2.00483
756.548	4.00911
756.971	-36.08402
757.394	-2.00495
757.818	-30.07521
758.241	-67.16393
758.664	-31.07641
759.087	19.0411
759.51	-37.08868
759.933	-7.01626
760.356	-27.06663
760.778	5.01198
761.201	-58.1334
761.623	-111.25728
762.046	-43.09507
762.468	-28.06406
762.89	-27.06394
763.312	-39.09076
763.734	-46.10723
764.156	-12.02854
764.578	-35.07596
765	-18.04208
765.421	-4.00997
765.843	-8.02031
766.264	-10.02282
766.686	15.03633
767.107	10.02345
767.528	-17.04203
767.949	-35.08589
768.37	-40.09409
768.791	-45.10401
769.212	-9.02214
769.632	-64.14372
770.053	-16.04082
770.473	-10.02335
770.894	-70.16735
771.314	-15.03368
771.734	-13.02867
772.154	-53.13208
772.575	3.00657
772.994	-54.11832
773.414	-31.06954
773.834	-1.00241
774.254	-50.11729
774.673	-42.09772
775.093	-31.07449
775.512	-16.03816
775.931	-5.01232
776.351	-83.19884
776.77	-13.03065
777.189	-49.11101
777.607	-1.00246
778.026	-40.09691
778.445	-47.1156
778.864	-34.08361
779.282	-63.14475
779.701	-36.08758
780.119	-72.17554
780.537	-54.12999
780.955	-64.15691
781.373	-12.02837
781.791	-10.02151
782.209	-5.01099
782.627	-26.06666
783.045	-38.08358
783.462	-24.05858
783.88	-17.04267
784.297	-30.07271
784.715	13.03255
785.132	-52.12113
785.549	8.0194
785.966	-50.1209
786.383	-17.0404
786.8	6.01322
787.217	-29.06556
787.633	-3.00719
788.05	-14.03066
788.466	-31.06906
788.883	-7.01734
789.299	-76.17494
789.715	-36.08472
790.131	-32.07598
790.547	-66.15604
790.963	1.00237
791.379	-14.03407
791.795	-19.04102
792.21	-60.13402
792.626	-27.06104
793.041	-34.07995
793.457	-29.06831
793.872	-24.05396
794.287	12.02799
794.702	-35.08215
795.117	-72.1718
795.532	-7.01704
795.947	-56.12777
796.362	-46.10385
796.776	-69.14949
797.191	-50.11702
797.605	21.04779
798.02	2.00468
798.434	-18.03742
798.848	-36.08445
799.262	-17.04113
799.676	-59.13681
800.09	-38.08911
800.504	-40.09281
800.918	-26.05704
801.331	-29.07253
801.745	-49.10689
802.158	-41.09826
802.572	15.03419
802.985	-72.16493
803.398	-35.07968
803.811	-23.05623
804.224	-12.02835
804.637	-82.18497
805.05	-35.07706
805.462	-5.01163
805.875	23.05815
806.288	-12.02796
806.7	-16.03844
807.112	-2.00438
807.525	9.02121
807.937	-56.13357
808.349	-27.06444
808.761	-39.09036
809.173	-42.09613
809.584	-33.07743
809.996	-49.116
810.408	-39.09769
810.819	-33.07424
811.231	14.03558
811.642	33.0777
812.053	-52.12108
812.464	22.04993
812.875	-22.05414
813.286	-42.1037
813.697	-75.16291
814.108	-12.02753
814.519	-67.14076
814.929	-22.05302
815.34	-34.07851
815.75	-21.05113
816.16	-41.09597
816.571	16.03968
816.981	-18.03957
817.391	-53.12197
817.801	3.0072
818.211	-4.00907
818.62	-59.13578
819.03	-57.13222
819.44	-41.10255
819.849	19.04566
820.259	-3.00736
820.668	-8.01901
821.077	-11.02617
821.486	-55.1249
821.895	-37.08542
822.304	-5.01273
822.713	-40.08964
823.122	-2.00479
823.531	16.03597
823.939	-19.04421
824.348	26.05985
824.756	-24.05711
825.164	-60.14383
825.573	-23.05523
825.981	5.01177
826.389	-66.15712
826.797	-17.04074
827.205	-66.14461
827.612	-29.06764
828.02	-36.08144
828.428	-53.12924
828.835	9.02274
829.243	-7.0157
829.65	3.00712
830.057	58.13356
830.464	0
830.871	-14.03158
831.278	-87.20037
831.685	-33.06838
832.092	3.007
832.499	-42.08603
832.905	18.04344
833.312	-26.05543
833.718	2.0047
834.124	-23.04979
834.531	-12.02862
834.937	-37.09009
835.343	-38.0875
835.749	-44.09637
836.155	-2.00499
836.561	-92.21388
836.966	7.01611
837.372	3.00723
837.777	-59.14016
838.183	-61.12487
838.588	14.03315
838.993	-109.25295
839.399	-37.0859
839.804	-4.00938
840.209	-2.00491
840.613	7.01474
841.018	-47.11273
841.423	-30.07279
841.828	-41.09924
842.232	-49.11367
842.637	-82.18194
843.041	27.06695
843.445	-43.10215
843.849	-35.08279
844.253	-65.14587
844.657	-12.02913
845.061	-26.05577
845.465	8.01872
845.869	-27.05892
846.272	-12.02774
846.676	23.05253
847.079	1.00244
847.483	-14.03307
847.886	-38.08617
848.289	12.03121
848.692	-34.08212
849.095	-38.08561
849.498	-12.02824
849.901	-39.08356
850.304	-52.11725
850.707	-41.0998
851.109	-64.15207
851.512	-17.04009
851.914	23.05623
852.316	-20.04849
852.718	-1.0025
853.121	-58.13627
853.523	-58.12859
853.925	-54.13631
854.326	2.00482
854.728	-29.07148
855.13	-28.06994
855.531	29.06637
855.933	-10.02258
856.334	-31.07435
856.736	-69.1454
857.137	-25.05497
857.538	-20.04802
857.939	21.04945
858.34	-1.00228
858.741	-21.05251
859.142	-41.09405
859.542	26.06691
859.943	30.07101
860.343	-48.1148
860.744	18.04158
861.144	-4.00923
861.544	-18.04181
861.945	-47.11401
862.345	-58.13281
862.745	-56.13342
863.145	-52.11543
863.544	42.10145
863.944	-26.05781
864.344	-39.09093
864.743	22.05145
865.143	-11.02695
865.542	-42.09183
865.941	1.00237
866.34	63.14063
866.74	-44.11391
867.139	-39.08961
867.537	-27.0652
867.936	67.15092
868.335	32.07767
868.734	20.04909
869.132	37.08088
869.531	-4.0091
869.929	-11.02388
870.327	-47.1073
870.726	5.01173
871.124	3.00651
871.522	-21.05048
871.92	-4.00931
872.318	-11.02556
872.715	-46.10799
873.113	-19.04407
873.511	-26.06187
873.908	-2.00494
874.306	-37.0883
874.703	-29.06897
875.1	-18.04353
875.497	-34.07679
875.894	-12.02849
876.291	7.01637
876.688	-38.09379
877.085	-58.1318
877.482	-57.13541
877.878	-1.00228
878.275	-49.11882
878.671	-95.19473
879.068	-20.04556
879.464	-31.0714
879.86	-31.0706
880.256	4.00918
880.652	-27.06547
881.048	-7.01619
881.444	-36.07984
881.84	-28.06753
882.236	-13.03116
882.631	-13.03032
883.027	-74.16829
883.422	-34.08302
883.817	-22.0535
884.213	-23.05655
884.608	-15.03537
885.003	-25.05742
885.398	-19.04528
885.793	-2.00473
886.188	-24.05766
886.582	-37.08878
886.977	-25.05592
887.371	-37.08925
887.766	-19.04547
888.16	8.01891
888.554	-35.08122
888.949	-33.07764
889.343	-67.154
889.737	21.05441
890.131	-4.00958
890.525	-9.02182
890.918	35.08388
891.312	-69.15415
891.706	-4.01012
892.099	-25.06037
892.492	3.00601
892.886	-49.11349
893.279	-16.03889
893.672	15.03636
894.065	8.01885
894.458	-5.0119
894.851	-32.0731
895.244	-44.10796
895.637	-17.03886
896.029	20.046
896.422	-15.03449
896.814	4.00943
897.206	9.02045
897.599	6.01364
897.991	-44.10172
898.383	-20.04438
898.775	-22.04641
899.167	-27.06032
899.559	-20.04787
899.951	-36.08001
900.342	-57.13624
900.734	13.0313
901.125	-54.13489
901.517	29.06735
901.908	-35.07855
902.299	-16.0373
902.69	-25.05585
903.082	9.02048
903.473	-20.04594
903.863	-8.01967
904.254	-37.08071
904.645	-41.0956
905.036	0
905.426	-99.20899
905.817	12.02773
906.207	-69.15816
906.597	-15.03323
906.987	-48.11755
907.378	-49.11784
907.768	10.02533
908.158	-31.07202
908.547	-14.03469
908.937	-20.04867
909.327	-35.08022
909.717	-13.031
910.106	20.0451
910.495	19.04503
910.885	-50.1189
911.274	-4.00953
911.663	56.1348
912.052	-3.00692
912.441	1.00244
912.83	-44.09478
913.219	-66.16421
913.608	-1.00231
913.997	-35.08372
914.385	-92.20761
914.774	-15.03435
915.162	-21.04701
915.55	22.04993
915.939	-37.08976
916.327	4.00943
916.715	-4.0098
917.103	7.01607
917.491	-41.09496
917.878	-55.12652
918.266	-23.05686
918.654	15.03681
919.041	-54.13596
919.429	-7.01564
919.816	-12.02872
920.203	4.00916
920.591	-54.12678
920.978	-17.03925
921.365	-7.01744
921.752	33.07394
922.139	18.03644
922.525	-40.09119
922.912	-45.10389
923.299	-31.07381
923.685	-26.065
924.072	-7.01489
924.458	-23.0542
924.844	-26.06106
925.231	-50.10932
925.617	-6.01479
926.003	-25.06092
926.389	23.0554
926.774	-29.07048
927.16	-50.1178
927.546	-50.12309
927.931	-10.02363
928.317	-41.08716
928.702	-17.03748
929.088	-30.06751
929.473	-27.06567
929.858	-5.01168
930.243	-6.01369
930.628	-29.06666
931.013	-2.00476
931.398	-21.04478
931.783	5.01252
932.167	-41.09469
932.552	-58.13686
932.937	-55.12794
933.321	-61.14597
933.705	19.04583
934.09	-29.06855
934.474	6.01333
934.858	7.01736
935.242	1.00221
935.626	-47.1147
936.009	-18.04582
936.393	-4.00977
936.777	-28.06918
937.16	-37.09093
937.544	-42.09307
937.927	-12.02909
938.311	-13.02968
938.694	-3.00756
939.077	-66.1493
939.46	67.1537
939.843	-58.11079
940.226	-31.07548
940.609	-62.13407
940.991	-70.17137
941.374	-48.11102
941.757	-22.05129
942.139	-30.06259
942.522	-24.05259
942.904	33.07442
943.286	-38.09119
943.668	-42.10416
944.05	-38.08897
944.432	-9.02113
944.814	-25.05774
945.196	-20.04692
945.578	-26.05937
945.959	-10.02209
946.341	-24.05451
946.722	34.07465
947.104	-37.08293
947.485	-8.0174
947.866	6.01446
948.247	-31.07466
948.628	-45.10344
949.009	-18.04413
949.39	-20.04618
949.771	-10.0216
950.152	-1.00233
950.532	39.09326
950.913	-3.00672
951.293	-8.02094
951.674	-58.13238
952.054	-22.05201
952.434	-43.10073
952.814	-48.10615
953.194	19.04732
953.574	-21.04815
953.954	-2.00447
954.334	25.05902
954.714	-15.03474
955.093	0
955.473	-60.1424
955.853	-19.04718
956.232	-13.03423
956.611	-43.09559
956.99	-22.05288
957.37	-25.06071
957.749	-31.06908
958.128	-7.01694
958.506	-14.03501
958.885	-54.12969
959.264	-10.02324
959.643	17.03608
960.021	-8.0188
960.4	30.06412
960.778	-23.05251
961.156	-76.18294
961.535	-106.2302
961.913	-44.09494
962.291	-1.00248
962.669	-49.11927
963.047	-53.12775
963.424	-21.05132
963.802	-33.07616
964.18	29.06847
964.557	-26.05519
964.935	-44.09816
965.312	23.05721
965.69	0
966.067	-21.04792
966.444	20.04624
966.821	-16.03901
967.198	-28.06311
967.575	-61.14128
967.952	-5.01106
968.329	-23.05268
968.705	-22.04298
969.082	24.05869
969.458	-43.09947
969.835	-12.0275
970.211	-4.00977
970.587	1.00235
970.963	9.02181
971.339	-23.05803
971.715	-59.13827
972.091	-37.08624
972.467	-64.14972
972.843	-47.11135
973.219	17.03751
973.594	-87.22058
973.97	-15.03305
974.345	-42.09517
974.721	-22.04993
975.096	-59.13442
975.471	17.03784
975.846	31.0702
976.221	-45.10953
976.596	-23.05215
976.971	-12.02803
977.346	-59.12794
977.72	-13.03139
978.095	-44.10931
978.469	-29.06554
978.844	37.08702
979.218	2.00456
979.593	-12.02712
979.967	22.05062
980.341	-55.1187
980.715	-60.14377
981.089	-78.18512
981.463	7.01521
981.837	-27.06315
982.21	-3.00646
982.584	-32.07271
982.957	-16.03828
983.331	-2.00443
983.704	-1.00234
984.078	-44.10249
984.451	-74.17183
984.824	-19.04423
985.197	-6.01367
985.57	-5.01173
985.943	-43.09856
986.316	-6.01388
986.688	-33.07485
987.061	-14.03043
987.434	-13.03239
987.806	-26.0592
988.179	-61.1356
988.551	-28.06699
988.923	-78.18319
989.295	-5.01176
989.667	-6.01382
990.039	-11.02588
990.411	-29.06345
990.783	11.02344
991.155	-39.0905
991.527	-68.1559
991.898	-61.14424
992.27	-52.12303
992.641	-36.08534
993.012	45.09904
993.384	-18.04049
993.755	-61.14825
994.126	-3.0068
994.497	-45.10497
994.868	15.03221
995.239	3.00688
995.61	-9.02139
995.98	-45.10513
996.351	-10.02366
996.722	3.00657
997.092	-16.03615
997.462	-14.03119
997.833	-12.02657
998.203	-33.07515
998.573	-35.08369
998.943	-35.07641
999.313	-27.06156
999.683	-70.15835
1000.053	3.00648
1000.423	-48.11084
1000.792	12.02956
1001.162	-53.12523
1001.531	-19.04467
1001.901	-42.0991
1002.27	48.09944
1002.639	-37.0907
1003.009	22.04969
1003.378	-16.03902
1003.747	-62.13837
1004.116	-3.0068
1004.485	-5.01132
1004.853	9.02157
1005.222	-12.02905
1005.591	-26.05762
1005.959	-22.04723
1006.328	-31.06515
1006.696	3.00687
1007.064	1.00238
1007.433	2.00475
1007.801	-36.08306
1008.169	-31.07387
1008.537	4.00826
1008.905	-36.07958
1009.273	-3.00698
1009.64	-31.07046
1010.008	-29.06503
1010.375	19.04308
1010.743	-18.03791
1011.11	-77.17437
1011.478	-25.0585
1011.845	-53.11586
1012.212	-56.11819
1012.579	-19.0443
1012.946	-68.15113
1013.313	-4.00889
1013.68	-20.04162
1014.047	-10.02282
1014.414	11.0246
1014.78	13.03079
1015.147	-35.07874
1015.513	4.00922
1015.88	-49.11788
1016.246	6.01399
1016.612	-15.03173
1016.978	-15.03458
1017.344	54.12623
1017.71	-66.14973
1018.076	3.00659
1018.442	-3.00729
1018.808	-30.07142
1019.174	-48.11414
1019.539	-3.00622
1019.905	-56.12627
1020.27	-35.08302
1020.636	-16.03602
1021.001	-30.06729
1021.366	-7.01617
1021.731	26.06346
1022.096	-36.08758
1022.461	-50.11057
1022.826	-2.00447
1023.191	-56.14151
1023.556	-64.13999
1023.92	-39.08982
1024.285	-6.01372
1024.649	-18.04173
1025.014	-6.014
1025.378	8.01924
1025.742	-15.03521
1026.107	-34.0711
1026.471	-30.06423
1026.835	-79.18536
1027.199	-59.13616
1027.562	0
1027.926	-7.01606
1028.29	-33.07987
1028.654	-34.07264
1029.017	35.08084
1029.381	-32.07271
1029.744	1.00244
1030.107	-52.11403
1030.471	-10.02241
1030.834	-53.11134
1031.197	-54.12126
1031.56	12.0268
1031.923	-28.06901
1032.286	-8.01745
1032.648	-24.05365
1033.011	-24.0519
1033.374	-31.06745
1033.736	-53.1339
1034.099	-25.05804
1034.461	-37.09009
1034.823	-39.0919
1035.185	-60.14202
1035.548	-47.10834
1035.91	13.02943
1036.272	-9.01916
1036.634	-20.04552
1036.995	-18.04022
1037.357	-27.06238
1037.719	20.04548
1038.08	-49.10784
1038.442	28.06344
1038.803	-18.04037
1039.165	-24.05771
1039.526	-11.02507
1039.887	15.03387
1040.248	-13.03104
1040.609	10.02318
1040.97	-41.09496
1041.331	-56.13301
1041.692	32.07023
1042.053	-36.07601
1042.413	-43.09316
1042.774	23.05202
1043.134	0
1043.495	12.02819
1043.855	0
1044.215	0
1044.576	-35.0799
1044.936	-15.03236
1045.296	11.02568
1045.656	1.00231
1046.016	-58.13099
1046.375	10.023
1046.735	-12.02582
1047.095	19.04153
1047.454	-1.00195
1047.814	-42.09478
1048.173	-31.06837
1048.533	-54.11762
1048.892	-50.11509
1049.251	36.08475
1049.61	-71.16489
1049.969	20.04438
1050.328	-71.14231
1050.687	-33.07582
1051.046	12.02769
1051.405	-51.11905
1051.763	-51.11144
1052.122	-21.05029
1052.48	-33.07613
1052.839	-29.06444
1053.197	-11.02435
1053.555	-45.09249
1053.914	17.03878
1054.272	14.03154
1054.63	-42.09683
1054.988	-70.15777
1055.345	-45.08911
1055.703	-63.14249
1056.061	-49.12083
1056.419	-33.08212
1056.776	-13.02952
1057.134	-20.04327
1057.491	-22.05205
1057.848	-46.10816
1058.206	-34.07519
1058.563	43.08818
1058.92	-7.01487
1059.277	-51.11727
1059.634	-36.07788
1059.991	7.01579
1060.348	-8.01706
1060.704	-43.09733
1061.061	-17.03601
1061.418	-37.08569
1061.774	45.10554
1062.131	43.11018
1062.487	-53.11615
1062.843	-70.16665
1063.199	2.00473
1063.555	7.01528
1063.911	-1.00238
1064.267	-52.09779
1064.623	11.02542
1064.979	-18.03886
1065.335	-47.10422
1065.691	55.12363
1066.046	-9.01816
1066.402	-40.08531
1066.757	-17.04077
1067.112	-26.05956
1067.468	-4.00904
1067.823	-30.06836
1068.178	-5.01146
1068.533	-28.06352
1068.888	-15.03326
1069.243	10.02336
1069.598	-95.21723
1069.952	-20.04304
1070.307	-12.02863
1070.662	-30.06751
1071.016	-20.0424
1071.371	-32.06792
1071.725	-84.18592
1072.079	-23.05202
1072.434	-37.08501
1072.788	-11.02483
1073.142	21.04893
1073.496	-33.07397
1073.85	-17.03683
1074.203	-18.04097
1074.557	-15.03845
1074.911	-48.1069
1075.265	-45.09721
1075.618	13.02991
1075.971	-35.07806
1076.325	8.01924
1076.678	-42.09047
1077.031	-33.06982
1077.385	39.07958
1077.738	-47.10013
1078.091	-26.05644
1078.444	-23.04928
1078.796	-6.014
1079.149	-71.16633
1079.502	-38.08505
1079.855	-10.02199
1080.207	-15.03477
1080.56	-38.09375
1080.912	-48.10894
1081.264	-10.02263
1081.617	-39.09043
1081.969	24.05825
1082.321	-24.05546
1082.673	-23.04998
1083.025	-53.11787
1083.377	-302.62841
1083.728	-66.14248
1084.08	-8.01902
1084.432	-111.25064
1084.783	55.12043
1085.135	-16.03863
1085.486	-53.11566
1085.838	-48.11247
1086.189	-11.02514
1086.54	-5.0112
1086.891	21.05087
1087.242	-69.15873
1087.593	-28.06373
1087.944	-54.11457
1088.295	-6.01253
1088.646	-21.04815
1088.996	-68.15571
1089.347	-55.12743
1089.698	0
1090.048	-44.10836
1090.398	-24.05256
1090.749	-28.06342
1091.099	-23.05563
1091.449	-32.07504
1091.799	-49.11658
1092.149	4.00943
1092.499	-17.03933
1092.849	-43.10455
1093.199	-5.01176
1093.548	-14.03193
1093.898	-30.07153
1094.248	0
1094.597	-28.06931
1094.947	-38.09712
1095.296	-29.06748
1095.645	-14.03448
1095.994	-8.01818
1096.343	25.05996
1096.692	-11.02792
1097.041	-32.0841
1097.39	-15.03548
1097.739	23.05684
1098.088	-16.04046
1098.437	-54.13728
1098.785	-29.07457
1099.134	-32.08017
1099.482	-44.11567
1099.83	-47.11789
1100.179	17.04278
1100.527	-16.0403
1100.875	-42.10662
1101.223	-8.02047
1101.571	-39.10469
1101.919	-22.05557
1102.267	26.0711
1102.615	-5.01609
1102.962	-1.00321
1103.31	7.02247
1103.658	-5.01604
