Data from N3 R6 sample 12_Subt2__4__15-27-11-528.txt Node

Date: Fri Sep 19 15:27:11 PDT 2025
User: uwsun
Spectrometer: HDX01956
Trigger mode: 0
Integration Time (sec): 5.000000E-1
Scans to average: 1
Nonlinearity correction enabled: true
Boxcar width: 0
Storing dark spectrum: false
XAxis mode: Wavelengths
Number of Pixels in Spectrum: 2068
>>>>>Begin Spectral Data<<<<<
194.03	4.01161
194.578	2.0065
195.127	7.02245
195.676	-12.03854
196.225	-9.02382
196.773	1.00279
197.321	16.04458
197.87	32.0825
198.418	71.18358
198.966	73.19201
199.513	102.2582
200.061	36.09152
200.609	35.0924
201.156	5.01087
201.704	1.00253
202.251	63.16655
202.798	67.1742
203.345	93.22805
203.892	57.14313
204.438	33.079
204.985	21.05033
205.532	92.2457
206.078	66.16158
206.624	47.11649
207.17	24.05579
207.716	25.06037
208.262	53.10367
208.808	53.13194
209.354	57.13843
209.899	22.05539
210.445	33.0831
210.99	26.06318
211.535	30.07049
212.08	55.12698
212.625	81.20091
213.17	27.06826
213.715	26.05882
214.259	53.12377
214.804	43.10529
215.348	18.04122
215.892	26.06275
216.436	33.07679
216.98	0
217.524	-18.04295
218.068	49.12282
218.612	11.02749
219.155	37.08675
219.698	15.0354
220.242	33.0817
220.785	37.08634
221.328	56.13882
221.871	85.21214
222.414	23.0563
222.956	33.07975
223.499	47.10478
224.041	11.02516
224.583	45.09537
225.126	78.17235
225.668	19.04619
226.21	22.05515
226.751	-17.03685
227.293	-10.02264
227.835	-13.03169
228.376	66.14845
228.918	86.21335
229.459	66.16475
230	19.04502
230.541	20.04552
231.082	43.10353
231.622	79.17904
232.163	67.1621
232.704	58.14189
233.244	41.10088
233.784	54.12954
234.324	74.16255
234.864	54.12027
235.404	21.0491
235.944	9.02103
236.484	42.10259
237.023	39.09179
237.563	28.06419
238.102	60.13976
238.641	50.12621
239.18	16.03758
239.719	70.17486
240.258	36.07958
240.797	109.25665
241.335	2.00481
241.874	42.0805
242.412	46.10892
242.95	73.17375
243.488	46.10393
244.026	52.11898
244.564	27.05494
245.102	48.10668
245.64	56.13275
246.177	-4.00889
246.715	24.0565
247.252	40.08979
247.789	7.01233
248.326	23.05439
248.863	-3.00652
249.4	79.17846
249.936	81.16243
250.473	14.03262
251.009	88.19996
251.546	45.09854
252.082	53.11566
252.618	67.14832
253.154	40.09526
253.69	32.07118
254.226	-1.00237
254.761	-2.00442
255.297	53.11503
255.832	14.03279
256.367	24.05582
256.903	25.05405
257.438	35.08045
257.972	-10.02204
258.507	92.20956
259.042	7.01478
259.576	-14.03033
260.111	60.1359
260.645	85.18085
261.179	38.08722
261.713	38.08302
262.247	75.17198
262.781	41.08572
263.315	47.1141
263.849	27.06712
264.382	25.05661
264.915	55.12829
265.449	17.04152
265.982	52.11509
266.515	57.13744
267.048	28.05915
267.58	54.11402
268.113	93.19831
268.646	66.1623
269.178	64.141
269.71	20.04308
270.243	42.0947
270.775	44.1111
271.307	40.0938
271.838	92.2121
272.37	47.115
272.902	21.04779
273.433	24.05168
273.965	59.14366
274.496	42.10221
275.027	57.13895
275.558	25.06017
276.089	48.11956
276.62	41.10281
277.15	20.04891
277.681	10.02116
278.211	25.06033
278.741	76.16652
279.272	38.0861
279.802	47.11658
280.332	64.1492
280.861	43.10247
281.391	62.13797
281.921	20.04719
282.45	95.23606
282.98	101.25962
283.509	66.14596
284.038	33.07321
284.567	7.01595
285.096	108.25602
285.625	95.2146
286.153	35.08113
286.682	17.03839
287.21	29.06926
287.739	22.05129
288.267	36.08702
288.795	75.19399
289.323	64.14996
289.851	58.1334
290.378	108.23724
290.906	79.18998
291.433	63.15546
291.961	37.08249
292.488	97.23733
293.015	92.21489
293.542	58.14483
294.069	84.20319
294.596	80.19469
295.122	131.3052
295.649	84.18382
296.175	29.06884
296.702	35.08328
297.228	43.10176
297.754	45.09979
298.28	57.12745
298.806	55.13182
299.332	24.05285
299.857	30.06701
300.383	72.17803
300.908	76.18398
301.433	106.25419
301.958	66.14748
302.483	108.26851
303.008	41.09972
303.533	78.19667
304.058	78.18018
304.582	32.07542
305.107	59.15377
305.631	73.16235
306.155	97.22439
306.679	71.1645
307.203	120.27312
307.727	130.30317
308.251	45.11002
308.775	93.21676
309.298	86.20505
309.822	90.22343
310.345	79.18463
310.868	74.17454
311.391	84.20319
311.914	100.24717
312.437	77.17124
312.96	117.2713
313.482	137.3183
314.005	93.23008
314.527	127.32804
315.049	77.19085
315.571	160.35427
316.093	114.27908
316.615	125.29775
317.137	99.20945
317.659	101.2379
318.18	134.31655
318.702	99.22701
319.223	112.22485
319.744	153.33559
320.265	109.26103
320.786	120.29202
321.307	171.41589
321.828	148.32934
322.348	172.39542
322.869	47.10855
323.389	125.22841
323.909	158.3532
324.43	159.36941
324.95	151.33887
325.47	155.37388
325.989	201.46717
326.509	139.30077
327.029	180.39356
327.548	131.29036
328.067	132.3117
328.587	176.42749
329.106	139.30771
329.625	147.37058
330.144	152.33838
330.662	143.32435
331.181	177.40325
331.7	175.39708
332.218	224.47068
332.736	186.41801
333.255	173.39111
333.773	203.46566
334.291	183.4379
334.808	174.3732
335.326	143.3163
335.844	219.49712
336.361	192.47141
336.879	196.44175
337.396	177.40993
337.913	210.46284
338.43	230.50266
338.947	265.60372
339.464	224.46071
339.981	251.57368
340.497	231.54979
341.014	227.52759
341.53	270.58733
342.046	222.52746
342.562	250.59695
343.078	224.50547
343.594	274.62838
344.11	288.64882
344.626	282.68183
345.141	267.58586
345.657	286.60678
346.172	268.6129
346.687	284.62251
347.202	287.61169
347.717	295.67015
348.232	318.75522
348.747	313.67956
349.261	351.73378
349.776	296.6551
350.29	317.74632
350.805	259.6067
351.319	334.73425
351.833	324.69909
352.347	274.60287
352.861	297.65745
353.374	328.70317
353.888	331.74735
354.401	345.742
354.915	346.73311
355.428	394.91762
355.941	350.76812
356.454	407.8418
356.967	353.7853
357.48	362.77304
357.993	352.81207
358.505	405.93227
359.018	368.83138
359.53	330.74555
360.042	330.67536
360.554	334.75643
361.066	346.78774
361.578	380.77592
362.09	424.93323
362.602	399.81305
363.113	371.78727
363.625	447.93073
364.136	393.79718
364.647	387.83876
365.158	429.92383
365.669	483.07197
366.18	362.77605
366.691	453.91175
367.201	370.81816
367.712	410.84629
368.222	557.15585
368.733	468.93348
369.243	433.86467
369.753	448.93924
370.263	450.97257
370.773	499.1213
371.282	481.03385
371.792	486.00221
372.301	478.05448
372.811	528.24337
373.32	489.93258
373.829	557.18465
374.338	549.08544
374.847	571.15383
375.356	651.36444
375.865	632.1638
376.373	685.33966
376.882	710.55856
377.39	722.50378
377.898	775.64821
378.407	680.30067
378.915	800.42308
379.423	840.65762
379.93	879.62172
380.438	872.77793
380.946	979.84442
381.453	967.87784
381.96	1088.02332
382.468	1147.10972
382.975	1239.3158
383.482	1194.01714
383.989	1256.46444
384.495	1306.20976
385.002	1398.03808
385.509	1435.36375
386.015	1530.03026
386.521	1602.35912
387.028	1768.53363
387.534	1735.32634
388.04	1784.68009
388.546	1831.46092
389.051	2063.52305
389.557	2154.79036
390.063	2296.83763
390.568	2305.92868
391.073	2446.70754
391.578	2446.99804
392.084	2593.59372
392.589	2769.53185
393.093	2983.83023
393.598	3274.55965
394.103	3464.74924
394.607	3854.51685
395.112	4089.61214
395.616	4396.27271
396.12	4734.75891
396.624	5262.50952
397.128	5665.43411
397.632	6166.05253
398.136	6850.02332
398.639	7380.29876
399.143	8500.50606
399.646	9438.44338
400.15	10415.79816
400.653	11697.25162
401.156	13433.5427
401.659	15458.55736
402.162	19715.26077
402.664	28315.93385
403.167	49370.10629
403.67	59123.26989
404.172	55487.84425
404.674	37291.05854
405.176	4428.40989
405.678	533.47942
406.18	0
406.682	0
407.184	6962.89417
407.686	50953.82939
408.187	59237.6763
408.688	46717.62197
409.19	35065.25059
409.691	28953.18343
410.192	24839.71527
410.693	21967.15838
411.194	20250.80283
411.694	19253.43092
412.195	17363.61351
412.696	16369.86124
413.196	15689.00498
413.696	15496.59309
414.196	15503.85841
414.696	15070.63342
415.196	14024.9966
415.696	11784.73937
416.196	9067.57553
416.695	7472.23595
417.195	6899.11261
417.694	6654.45293
418.194	6179.54257
418.693	5782.06394
419.192	5653.36708
419.691	5595.39675
420.19	5397.53227
420.688	5250.8457
421.187	4932.92967
421.685	4593.89008
422.184	4112.24784
422.682	3548.19361
423.18	3049.66299
423.678	2728.66481
424.176	2482.67398
424.674	2454.48134
425.172	2287.76305
425.669	2121.96215
426.167	2000.61459
426.664	1823.47382
427.161	1608.33666
427.659	1590.59456
428.156	1477.03613
428.652	1370.4745
429.149	1360.33624
429.646	1190.87117
430.143	1179.10082
430.639	1156.03591
431.135	983.90443
431.632	1023.78385
432.128	907.75198
432.624	927.8923
433.12	892.62484
433.616	931.57955
434.111	766.51565
434.607	808.58172
435.103	657.12927
435.598	746.24339
436.093	676.31422
436.588	633.20331
437.083	616.17634
437.578	610.18063
438.073	511.10928
438.568	557.17797
439.062	512.94543
439.557	514.04391
440.051	429.86424
440.546	455.92168
441.04	394.8337
441.534	438.99834
442.028	492.03642
442.522	470.00084
443.015	449.86376
443.509	439.96361
444.002	439.9632
444.496	338.65507
444.989	458.00226
445.482	360.81099
445.975	419.85574
446.468	385.74063
446.961	364.69163
447.454	302.61414
447.947	401.86873
448.439	351.78538
448.931	306.63248
449.424	280.64059
449.916	328.71682
450.408	339.70901
450.9	279.62353
451.392	319.74313
451.884	248.51835
452.375	262.59773
452.867	283.5835
453.358	264.54519
453.849	255.49621
454.341	287.59388
454.832	270.53454
455.323	237.53885
455.814	283.5919
456.304	253.53525
456.795	217.45547
457.285	236.47883
457.776	234.48172
458.266	301.66046
458.756	236.51861
459.247	199.44053
459.737	280.62124
460.226	222.46339
460.716	237.5277
461.206	163.36339
461.695	233.54602
462.185	227.50041
462.674	220.46309
463.163	174.35659
463.653	220.42841
464.142	155.34985
464.63	215.48824
465.119	219.47589
465.608	190.40646
466.096	188.38266
466.585	133.2852
467.073	141.31474
467.561	189.43268
468.05	136.29497
468.538	216.50094
469.026	169.383
469.513	182.35711
470.001	144.30699
470.489	181.40085
470.976	155.33625
471.463	198.46646
471.951	178.4182
472.438	172.38068
472.925	123.26979
473.412	118.27204
473.899	175.37818
474.385	134.31164
474.872	130.2858
475.359	123.28532
475.845	102.20023
476.331	107.21754
476.817	93.21385
477.303	108.23824
477.789	128.29168
478.275	108.25642
478.761	112.25522
479.247	83.17598
479.732	77.18574
480.218	98.24409
480.703	133.31826
481.188	52.10628
481.673	112.24468
482.158	103.21056
482.643	62.15161
483.128	60.13069
483.612	29.06516
484.097	127.29425
484.581	73.15951
485.066	85.19655
485.55	68.1415
486.034	117.24287
486.518	117.26203
487.002	52.12299
487.486	78.18298
487.969	70.16684
488.453	57.13931
488.936	75.16104
489.42	50.10664
489.903	72.1745
490.386	83.17052
490.869	20.0413
491.352	57.13317
491.835	39.0764
492.318	86.18692
492.8	17.03362
493.283	70.17289
493.765	62.14788
494.247	22.04922
494.73	54.11462
495.212	13.03034
495.694	38.08589
496.175	2.00464
496.657	103.23637
497.139	-47.07632
497.62	28.06496
498.102	48.11585
498.583	-20.04838
499.064	51.11125
499.545	26.05733
500.026	-24.05254
500.507	5.01115
500.988	-25.06021
501.469	0
501.949	1.00238
502.43	-37.0861
502.91	23.04574
503.39	9.02187
503.87	46.10491
504.35	18.04064
504.83	-4.00855
505.31	17.04026
505.79	4.00933
506.269	26.05836
506.749	-36.08048
507.228	9.02056
507.707	-25.05412
508.187	-13.03001
508.666	-39.09358
509.145	7.01591
509.623	-12.02746
510.102	15.03515
510.581	-48.11269
511.059	22.05422
511.538	1.00251
512.016	27.06303
512.494	-24.05652
512.972	-15.03521
513.45	-38.08778
513.928	-8.01901
514.406	57.13583
514.884	1.00255
515.361	41.09612
515.839	11.02427
516.316	-25.05852
516.793	-68.16956
517.27	-16.03816
517.747	-10.0252
518.224	-72.16374
518.701	-14.03058
519.178	32.07866
519.654	-57.1306
520.131	-59.14259
520.607	-25.06076
521.083	-9.02022
521.56	-81.18871
522.036	32.06825
522.512	42.10014
522.987	3.00705
523.463	-4.00934
523.939	-4.00957
524.414	-25.05606
524.89	-53.12299
525.365	-48.10828
525.84	11.02622
526.315	-48.11313
526.79	-49.10789
527.265	-19.04183
527.74	-54.12959
528.215	-9.02083
528.689	34.07403
529.164	-55.11514
529.638	-26.06584
530.112	-15.03514
530.587	41.08579
531.061	-29.06916
531.534	-56.13291
532.008	-30.07128
532.482	-57.12618
532.956	-30.07651
533.429	-92.21548
533.903	-28.06006
534.376	-18.03877
534.849	-17.03878
535.322	-36.08356
535.795	-58.13993
536.268	-38.0906
536.741	-22.05173
537.213	0
537.686	-84.20182
538.158	-48.10637
538.631	-65.15489
539.103	-66.14638
539.575	-31.06308
540.047	-51.11012
540.519	-22.05104
540.991	-39.09293
541.463	-37.08861
541.934	-15.03372
542.406	-28.06581
542.877	-49.1087
543.348	-104.24378
543.82	-16.03831
544.291	-83.18879
544.762	-70.16408
545.233	-12.02986
545.703	-53.11635
546.174	-20.04587
546.645	-25.05996
547.115	-47.11213
547.585	-13.0297
548.056	5.01204
548.526	-11.02547
548.996	-2.0047
549.466	-32.07627
549.935	10.02355
550.405	18.03891
550.875	-31.07197
551.344	25.05898
551.814	-76.17045
552.283	-44.09348
552.752	-52.11941
553.221	-4.00851
553.69	-19.04164
554.159	6.01468
554.628	-95.21171
555.096	22.05438
555.565	-7.01522
556.033	-32.07372
556.502	-48.11436
556.97	-48.10433
557.438	-5.01159
557.906	-34.07926
558.374	-23.0517
558.842	-10.02347
559.31	-30.0654
559.777	13.03086
560.245	-36.08204
560.712	-16.03559
561.18	-34.07355
561.647	-22.04794
562.114	-25.05599
562.581	34.08178
563.048	-30.06687
563.514	12.02892
563.981	-26.05807
564.448	9.01975
564.914	55.12303
565.381	-17.03726
565.847	28.06326
566.313	38.08526
566.779	65.14275
567.245	26.0592
567.711	43.10069
568.176	96.21239
568.642	48.11786
569.108	55.13116
569.573	50.11214
570.038	140.28042
570.504	111.24121
570.969	131.31252
571.434	124.26194
571.899	159.36107
572.363	103.22383
572.828	193.41028
573.293	138.30148
573.757	168.36748
574.222	238.50164
574.686	200.42433
575.15	269.59646
575.614	211.45187
576.078	194.42758
576.542	250.53157
577.006	305.63649
577.469	275.62523
577.933	220.45596
578.396	295.65547
578.86	270.58433
579.323	286.63033
579.786	326.63544
580.249	270.57109
580.712	262.59001
581.175	291.66508
581.637	339.71843
582.1	248.49881
582.563	228.43807
583.025	245.55455
583.487	234.43247
583.95	219.43977
584.412	220.42372
584.874	231.52223
585.336	274.60287
585.797	244.4851
586.259	194.4204
586.721	234.5127
587.182	196.42129
587.643	219.4619
588.105	204.45451
588.566	198.38777
589.027	198.45428
589.488	149.31923
589.949	161.36443
590.41	135.25156
590.87	131.27691
591.331	130.26014
591.791	109.23636
592.252	121.2635
592.712	146.33162
593.172	123.26273
593.632	87.17607
594.092	149.31247
594.552	76.1549
595.011	106.23422
595.471	121.25622
595.931	95.20116
596.39	120.27456
596.849	120.26448
597.308	121.24668
597.768	87.21279
598.227	130.29767
598.685	91.19547
599.144	105.23341
599.603	137.30682
600.062	63.12557
600.52	43.09277
600.978	114.25936
601.437	135.29036
601.895	82.16546
602.353	88.18336
602.811	143.2979
603.269	126.28422
603.727	97.2218
604.184	70.15131
604.642	96.22362
605.099	144.31339
605.557	152.34483
606.014	146.29419
606.471	179.4262
606.928	242.49953
607.385	176.41157
607.842	255.54609
608.299	161.3518
608.755	168.3802
609.212	228.47253
609.668	213.44234
610.125	226.50248
610.581	158.34385
611.037	238.49679
611.493	139.30668
611.949	237.52945
612.405	255.47117
612.861	231.4917
613.316	262.58131
613.772	279.58637
614.227	237.51763
614.683	285.55353
615.138	266.58109
615.593	232.49265
616.048	259.53354
616.503	289.6488
616.958	270.62392
617.412	272.58967
617.867	310.6304
618.321	243.44585
618.776	259.52153
619.23	260.56654
619.684	264.53711
620.138	262.54178
620.592	221.49453
621.046	268.57058
621.5	196.44157
621.954	251.51147
622.407	225.45787
622.861	181.40335
623.314	254.52901
623.768	207.44809
624.221	223.40399
624.674	176.37227
625.127	185.40252
625.58	155.32031
626.033	177.35494
626.485	129.28962
626.938	181.39734
627.39	237.50645
627.843	145.31039
628.295	175.37656
628.747	200.44024
629.199	148.31798
629.651	126.2699
630.103	121.2626
630.555	141.27464
631.006	123.27058
631.458	87.19099
631.909	136.2888
632.361	87.18946
632.812	136.29572
633.263	103.20568
633.714	77.15262
634.165	85.19084
634.616	101.22489
635.067	86.17632
635.518	105.23167
635.968	148.27147
636.419	106.21222
636.869	126.27794
637.319	131.28297
637.769	117.24699
638.219	129.28307
638.669	130.29264
639.119	112.25584
639.569	144.3292
640.019	139.29819
640.468	99.20413
640.918	118.26585
641.367	158.33024
641.816	125.2626
642.265	138.29828
642.714	154.33486
643.163	134.28331
643.612	132.30274
644.061	97.191
644.51	126.27106
644.958	121.24937
645.406	155.34913
645.855	124.28519
646.303	140.30377
646.751	146.31341
647.199	103.21638
647.647	134.29336
648.095	118.25287
648.543	121.22626
648.99	125.28306
649.438	110.24407
649.885	142.33363
650.333	81.14412
650.78	175.4024
651.227	119.27582
651.674	113.24357
652.121	81.18469
652.568	145.33155
653.015	68.16076
653.461	133.29774
653.908	137.29847
654.354	61.13673
654.801	137.30315
655.247	138.28076
655.693	118.29273
656.139	124.27948
656.585	110.25026
657.031	134.29769
657.477	165.33424
657.922	131.28625
658.368	108.25097
658.813	87.18648
659.259	138.31345
659.704	110.24458
660.149	146.31895
660.594	121.27177
661.039	101.21939
661.484	87.19757
661.929	145.31684
662.373	135.32724
662.818	127.30112
663.262	44.10132
663.707	71.17139
664.151	146.34048
664.595	127.2904
665.039	78.18433
665.483	112.27408
665.927	89.19752
666.371	108.23953
666.814	94.21265
667.258	84.19211
667.701	126.24933
668.145	149.34727
668.588	128.2985
669.031	101.22815
669.474	77.17663
669.917	132.27186
670.36	85.19998
670.803	122.277
671.245	81.16002
671.688	100.23045
672.13	98.20702
672.573	132.31942
673.015	123.27785
673.457	101.20956
673.899	101.23076
674.341	143.32435
674.783	93.21377
675.225	106.2473
675.666	107.24585
676.108	123.25213
676.549	140.30973
676.991	65.13553
677.432	32.05982
677.873	91.19859
678.314	124.27868
678.755	146.33699
679.196	146.31598
679.637	90.20691
680.078	132.28898
680.518	53.11542
680.959	75.17094
681.399	121.28168
681.839	117.26893
682.28	134.31471
682.72	89.19192
683.16	118.27973
683.6	127.27104
684.039	96.18641
684.479	84.19705
684.919	159.34757
685.358	138.32878
685.798	67.16752
686.237	148.33425
686.676	149.32172
687.115	125.27625
687.554	111.2487
687.993	78.16014
688.432	145.31348
688.871	121.2579
689.309	213.48487
689.748	170.32679
690.186	101.22527
690.625	181.40269
691.063	128.29286
691.501	185.42811
691.939	134.31606
692.377	169.3872
692.815	163.37016
693.253	117.26182
693.69	111.22856
694.128	147.3395
694.565	159.35594
695.003	130.31363
695.44	115.25373
695.877	165.3645
696.314	139.27654
696.751	172.36062
697.188	152.32869
697.625	133.28187
698.061	118.26781
698.498	184.41352
698.934	128.2872
699.371	112.25089
699.807	157.34828
700.243	176.40089
700.679	169.35488
701.115	195.42067
701.551	178.39281
701.987	133.27546
702.422	107.23944
702.858	90.20136
703.294	154.32146
703.729	180.41381
704.164	150.34153
704.599	129.2661
705.035	178.37056
705.47	168.38808
705.904	115.25086
706.339	129.27603
706.774	130.28352
707.209	76.16554
707.643	190.42385
708.078	121.27668
708.512	159.38149
708.946	159.35272
709.38	149.32709
709.814	121.25667
710.248	159.35682
710.682	205.45551
711.116	155.35042
711.549	138.33369
711.983	118.25342
712.416	131.28564
712.85	154.36295
713.283	196.42854
713.716	213.49153
714.149	147.32216
714.582	158.32937
715.015	131.30568
715.448	102.23928
715.881	165.32352
716.313	171.37475
716.746	172.37877
717.178	171.3806
717.61	144.34347
718.043	134.31016
718.475	158.35494
718.907	140.32623
719.339	134.28331
719.77	234.51703
720.202	188.44101
720.634	177.40439
721.065	150.32991
721.497	203.46155
721.928	141.32694
722.359	177.40407
722.79	157.35016
723.221	132.3082
723.652	158.37671
724.083	132.27529
724.514	110.23084
724.945	137.30075
725.375	157.34001
725.806	77.17826
726.236	151.36092
726.666	116.25438
727.096	119.27156
727.526	137.32808
727.956	167.34991
728.386	135.30471
728.816	145.34525
729.246	155.35442
729.675	154.35772
730.105	134.30597
730.534	172.37114
730.964	124.28986
731.393	122.27711
731.822	158.37873
732.251	132.31653
732.68	75.16131
733.109	137.31641
733.537	125.28145
733.966	101.23475
734.395	100.21365
734.823	104.21564
735.251	104.23527
735.68	160.3699
736.108	111.26227
736.536	157.3416
736.964	108.23224
737.392	116.26956
737.82	131.29048
738.247	136.29912
738.675	145.31536
739.102	113.26875
739.53	155.37232
739.957	116.27901
740.384	152.34245
740.811	164.38892
741.238	153.3435
741.665	195.42103
742.092	150.32686
742.519	113.26586
742.945	120.26792
743.372	143.33145
743.798	104.25148
744.225	113.24963
744.651	96.22529
745.077	114.26617
745.503	126.28364
745.929	148.32688
746.355	154.34709
746.781	138.31764
747.207	93.20768
747.632	126.28933
748.058	127.2925
748.483	87.18446
748.908	112.26058
749.334	107.24575
749.759	113.24691
750.184	107.23776
750.609	100.22843
751.033	90.19403
751.458	169.34971
751.883	124.28416
752.307	147.32569
752.732	133.31559
753.156	121.27879
753.58	119.26091
754.005	159.37873
754.429	74.16023
754.853	125.29076
755.277	142.3135
755.7	98.22737
756.124	134.31495
756.548	106.23637
756.971	133.30007
757.394	107.25927
757.818	130.31648
758.241	81.19272
758.664	138.32953
759.087	92.19588
759.51	107.24939
759.933	149.33548
760.356	126.30215
760.778	172.39906
761.201	71.15908
761.623	78.174
762.046	57.12339
762.468	97.21635
762.89	123.28283
763.312	83.18849
763.734	113.25516
764.156	98.22809
764.578	97.20459
765	126.28619
765.421	118.28769
765.843	98.24409
766.264	84.18809
766.686	150.35407
767.107	109.25064
767.528	110.26559
767.949	103.24629
768.37	70.16112
768.791	61.13802
769.212	84.20304
769.632	25.05511
770.053	62.156
770.473	76.17445
770.894	60.13987
771.314	82.18043
771.734	45.09804
772.154	91.22083
772.575	122.26043
772.994	70.14936
773.414	-5.01116
773.834	60.14311
774.254	49.11272
774.673	90.20393
775.093	69.16265
775.512	77.18038
775.931	57.13879
776.351	24.05632
776.77	29.0678
777.189	14.03131
777.607	63.15329
778.026	61.14497
778.445	70.16844
778.864	69.16644
779.282	33.07436
779.701	42.10068
780.119	2.00481
780.537	52.12265
780.955	70.16735
781.373	39.09129
781.791	45.09566
782.209	80.17277
782.627	87.21862
783.045	58.12499
783.462	45.10842
783.88	64.15831
784.297	60.14295
784.715	66.16367
785.132	28.06419
785.549	81.19376
785.966	1.00239
786.383	68.15896
786.8	26.05707
787.217	65.14413
787.633	11.0263
788.05	29.06294
788.466	16.03529
788.883	65.15886
789.299	16.03615
789.715	33.07661
790.131	31.07271
790.547	-5.01168
790.963	45.10579
791.379	5.01212
791.795	18.03856
792.21	23.05049
792.626	3.00674
793.041	23.05348
793.457	-5.01172
793.872	-44.09933
794.287	45.10426
794.702	0
795.117	-52.1236
795.532	19.04602
795.947	-23.05213
796.362	5.01117
796.776	20.04251
797.191	24.05535
797.605	26.0591
798.02	26.06054
798.434	0
798.848	-41.09627
799.262	39.09336
799.676	9.02059
800.09	39.09007
800.504	6.01379
800.918	-52.11471
801.331	4.00994
801.745	-7.01513
802.158	33.07797
802.572	-4.00915
802.985	-27.06129
803.398	-3.00679
803.811	-14.03417
804.224	28.06563
804.637	-92.20795
805.05	-11.0241
805.462	-58.13627
805.875	58.14572
806.288	5.01161
806.7	-39.09411
807.112	49.10612
807.525	20.04703
807.937	-28.06643
808.349	-27.06444
808.761	-37.08569
809.173	-19.04329
809.584	15.03486
809.996	-53.12557
810.408	-15.03741
810.819	-44.09921
811.231	10.02543
811.642	46.10804
812.053	54.1231
812.464	12.02729
812.875	8.01958
813.286	-49.12114
813.697	-93.20278
814.108	-15.03444
814.519	4.00827
814.929	-34.08212
815.34	-47.10881
815.75	-1.00243
816.16	-44.10306
816.571	4.00994
816.981	-45.09949
817.391	-27.06181
817.801	17.04071
818.211	2.00453
818.62	-64.14743
819.03	-57.13222
819.44	-23.05734
819.849	7.01686
820.259	-47.11619
820.668	3.00711
821.077	4.00949
821.486	-57.1295
821.895	-43.09939
822.304	-9.02293
822.713	-31.06934
823.122	-23.05527
823.531	-2.00451
823.939	21.04848
824.348	-1.00231
824.756	-9.02136
825.164	-1.00237
825.573	-53.12799
825.981	7.01648
826.389	-52.12346
826.797	-12.02873
827.205	-21.04558
827.612	-24.05593
828.02	-8.01799
828.428	-14.03389
828.835	-17.04315
829.243	6.01342
829.65	-2.00475
830.057	5.01164
830.464	20.04666
830.871	-23.05198
831.278	-49.112
831.685	-19.03925
832.092	5.01167
832.499	-55.113
832.905	4.00968
833.312	7.01482
833.718	-38.08998
834.124	5.01076
834.531	-25.05978
834.937	-23.05586
835.343	-1.00229
835.749	-48.10522
836.155	-33.08281
836.561	-75.17377
836.966	-37.0859
837.372	-15.03625
837.777	-58.13776
838.183	-63.12902
838.588	-6.01426
838.993	-14.03188
839.399	-57.13285
839.804	-20.04705
840.209	13.03181
840.613	19.03992
841.018	-39.0934
841.423	-39.09479
841.828	-51.12367
842.232	-49.11367
842.637	-61.13476
843.041	36.08911
843.445	-19.04493
843.849	-52.12341
844.253	-10.02219
844.657	-20.04862
845.061	-21.04499
845.465	21.04902
845.869	-22.04796
846.272	-47.10941
846.676	-19.04376
847.079	16.03901
847.483	7.01647
847.886	-63.14359
848.289	18.04676
848.692	-58.14072
849.095	-36.08107
849.498	-29.06847
849.901	-44.09437
850.304	-68.15383
850.707	-21.05092
851.109	-59.14005
851.512	10.02346
851.914	2.00491
852.316	-33.0802
852.718	-42.10586
853.121	-16.03728
853.523	-27.05947
853.925	-34.08552
854.326	8.01926
854.728	-4.00981
855.13	-28.06994
855.531	16.03671
855.933	-21.04752
856.334	-13.03107
856.736	-38.07953
857.137	-10.02192
857.538	-32.077
857.939	-17.04032
858.34	-30.06889
858.741	-16.03997
859.142	0
859.542	43.11034
859.943	-4.00953
860.343	-35.0835
860.744	42.09656
861.144	-22.05094
861.544	-25.05815
861.945	-85.20766
862.345	-49.112
862.745	-38.09022
863.145	-9.0198
863.544	30.07262
863.944	-41.09145
864.344	-35.08154
864.743	60.13926
865.143	0
865.542	1.00217
865.941	1.00237
866.34	-7.01585
866.74	-20.05156
867.139	-11.02513
867.537	-17.04098
867.936	-19.04355
868.335	19.04623
868.734	-18.04449
869.132	42.09172
869.531	-7.01594
869.929	-9.01953
870.327	-47.1073
870.726	1.00235
871.124	-17.03702
871.522	-49.11842
871.92	11.02554
872.318	29.06685
872.715	-28.0655
873.113	-18.04175
873.511	-12.02848
873.908	-16.03959
874.306	-8.01899
874.703	-32.07615
875.1	-1.00241
875.497	-49.11101
875.894	-10.02373
876.291	-10.02347
876.688	-34.08385
877.085	-39.08828
877.482	-45.10666
877.878	-52.11988
878.275	-35.08465
878.671	-47.0953
879.068	-46.10533
879.464	22.05013
879.86	9.02033
880.256	-42.09725
880.652	-64.15627
881.048	-9.02082
881.444	-41.09103
881.84	-45.10888
882.236	-11.02635
882.631	-27.06315
883.027	-39.08806
883.422	-52.1274
883.817	-24.05838
884.213	-38.09368
884.608	-21.04958
885.003	13.02963
885.398	-54.12954
885.793	-31.07379
886.188	1.00239
886.582	-13.03105
886.977	2.00445
887.371	-11.0264
887.766	-64.15447
888.16	0
888.554	-58.13521
888.949	-53.12518
889.343	-51.11685
889.737	-8.02083
890.131	-23.05529
890.525	-45.10986
890.918	-8.01933
891.312	-75.16776
891.706	-4.01012
892.099	3.00721
892.492	16.03194
892.886	-32.07386
893.279	-8.01942
893.672	-26.06351
894.065	-35.08315
894.458	-53.12731
894.851	-27.06161
895.244	-53.13026
895.637	2.00455
896.029	-55.12839
896.422	-57.13217
896.814	-2.00472
897.206	-16.03653
897.599	-89.20621
897.991	-12.02757
898.383	-47.10487
898.775	7.01467
899.167	-36.08058
899.559	-20.04787
899.951	-22.04875
900.342	-56.13383
900.734	1.00241
901.125	-41.10218
901.517	-37.08705
901.908	-42.09439
902.299	-37.08661
902.69	-24.05361
903.082	14.03183
903.473	-3.00687
903.863	20.04893
904.254	-64.14041
904.645	-70.16415
905.036	-25.05852
905.426	-72.15109
905.817	8.0185
906.207	-28.06365
906.597	9.01984
906.987	-40.09782
907.378	-46.11056
907.768	-8.02033
908.158	-8.0185
908.547	-32.07956
908.937	-29.07069
909.327	-13.02967
909.717	-25.05976
910.106	-45.10281
910.495	38.08973
910.885	-64.1526
911.274	-3.00715
911.663	28.06776
912.052	-1.00231
912.441	-39.09592
912.83	7.01491
913.219	-27.0667
913.608	-46.10719
913.997	-38.09095
914.385	-39.08706
914.774	10.02279
915.162	-78.17667
915.55	5.01139
915.939	-29.07024
916.327	5.01178
916.715	23.05607
917.103	-2.0046
917.491	-42.09729
917.878	-44.101
918.266	-36.08921
918.654	26.06368
919.041	-44.11059
919.429	0
919.816	-29.06964
920.203	6.01373
920.591	-31.07245
920.978	1.0023
921.365	-49.123
921.752	-21.04757
922.139	4.00812
922.525	-20.04541
922.912	-12.02752
923.299	10.02362
923.685	1.00249
924.072	-37.07924
924.458	-10.0235
924.844	-36.08472
925.231	-26.05656
925.617	2.00492
926.003	-5.01214
926.389	26.06259
926.774	-40.09742
927.16	23.05342
927.546	-34.08345
927.931	-38.09029
928.317	-68.14541
928.702	-38.08414
929.088	-42.09474
929.473	-9.02182
929.858	-7.01635
930.243	-6.01369
930.628	-3.00686
931.013	28.06627
931.398	-28.0598
931.783	18.04498
932.167	-30.06914
932.552	-54.12732
932.937	-41.09511
933.321	-38.09053
933.705	3.00726
934.09	-36.08521
934.474	-11.02452
934.858	-13.03235
935.242	5.01105
935.626	-22.05344
936.009	-54.13835
936.393	6.01463
936.777	-15.03697
937.16	-30.07363
937.544	0
937.927	-3.00726
938.311	-20.04572
938.694	12.03016
939.077	-67.1516
939.46	32.07392
939.843	-39.07415
940.226	-64.1568
940.609	-58.12531
940.991	-17.04121
941.374	-81.18856
941.757	-25.05831
942.139	-35.07311
942.522	-54.11907
942.904	-21.04788
943.286	-4.00954
943.668	-65.16187
944.05	-26.06073
944.432	1.00234
944.814	-63.1466
945.196	-52.12275
945.578	-7.01592
945.959	-15.03316
946.341	-24.05451
946.722	-39.08695
947.104	-32.07165
947.485	-29.06337
947.866	-1.00241
948.247	-23.05531
948.628	-13.02969
949.009	-43.10591
949.39	-40.09273
949.771	0
950.152	13.03024
950.532	-3.00723
950.913	-68.15439
951.293	-37.09732
951.674	-54.12315
952.054	-5.01178
952.434	-31.07245
952.814	-44.09722
953.194	45.11153
953.574	-37.08512
953.954	-56.12642
954.334	-37.08841
954.714	-12.02778
955.093	-35.08045
955.473	-51.12083
955.853	-33.08215
956.232	-10.02632
956.611	-14.03093
956.99	20.04769
957.37	24.05775
957.749	-47.10509
958.128	-28.06804
958.506	4.00997
958.885	-8.01905
959.264	-2.00464
959.643	4.00851
960.021	-20.04712
960.4	14.03003
960.778	-24.0548
961.156	-31.07398
961.535	-68.14648
961.913	-96.20946
962.291	23.05669
962.669	-34.08252
963.047	-65.15703
963.424	-51.12534
963.802	-31.07151
964.18	23.05437
964.557	-43.09161
964.935	-31.06897
965.312	1.0025
965.69	5.01174
966.067	-63.14498
966.444	22.05084
966.821	-8.01948
967.198	-30.06764
967.575	-18.04133
967.952	26.05714
968.329	-10.02284
968.705	-19.0371
969.082	-23.05674
969.458	-27.06226
969.835	7.01598
970.211	-32.0786
970.587	25.05852
970.963	-20.04873
971.339	1.00251
971.715	-94.2218
972.091	-21.04879
972.467	-71.16633
972.843	-42.09941
973.219	-48.10735
973.594	-22.05514
973.97	-2.0044
974.345	-9.02026
974.721	-3.00678
975.096	-58.13212
975.471	16.03562
975.846	-4.00912
976.221	-29.07038
976.596	-65.14863
976.971	-29.06796
977.346	-5.01072
977.72	-54.13141
978.095	-23.05692
978.469	-36.08147
978.844	-20.04756
979.218	-26.05958
979.593	22.04938
979.967	8.01846
980.341	-33.07089
980.715	-36.08587
981.089	-31.07291
981.463	38.082
981.837	-9.02098
982.21	-13.02805
982.584	-70.16029
982.957	-42.10099
983.331	5.01107
983.704	10.02333
984.078	-45.10484
984.451	-59.13659
984.824	-23.05359
985.197	0
985.57	-44.10402
985.943	-72.16599
986.316	-5.01156
986.688	15.03369
987.061	-39.08522
987.434	-3.00746
987.806	-20.04548
988.179	-38.08407
988.551	-49.1177
988.923	-21.04877
989.295	-91.21768
989.667	-3.00691
990.039	3.00704
990.411	-17.0371
990.783	-48.10357
991.155	-12.0277
991.527	-50.11422
991.898	-38.08946
992.27	-31.07305
992.641	1.00235
993.012	6.01331
993.384	-34.07673
993.755	-37.08952
994.126	-9.02044
994.497	-33.07679
994.868	1.00215
995.239	9.02063
995.61	-27.06439
995.98	-14.03251
996.351	-38.0904
996.722	10.02188
997.092	-12.02709
997.462	-13.02896
997.833	-24.05327
998.203	-24.05456
998.573	-15.03573
998.943	-88.19428
999.313	-21.04783
999.683	-58.13089
1000.053	-29.06307
1000.423	-18.04132
1000.792	-5.01236
1001.162	-23.05403
1001.531	14.0327
1001.901	-47.11101
1002.27	16.03338
1002.639	-31.07591
1003.009	40.09001
1003.378	-45.11035
1003.747	-11.02429
1004.116	-33.07528
1004.485	-16.0363
1004.853	-16.03853
1005.222	5.01207
1005.591	-27.05985
1005.959	39.08262
1006.328	-35.07363
1006.696	-32.07375
1007.064	6.01428
1007.433	29.06852
1007.801	-9.02065
1008.169	-26.0619
1008.537	46.09406
1008.905	-46.1019
1009.273	-6.01397
1009.64	-40.09108
1010.008	-16.03578
1010.375	39.08806
1010.743	-29.06122
1011.11	-11.02457
1011.478	-19.04441
1011.845	-35.07622
1012.212	-73.15465
1012.579	-32.0748
1012.946	-53.11743
1013.313	0
1013.68	-33.06887
1014.047	-9.02054
1014.414	-6.01346
1014.78	-14.03333
1015.147	5.01116
1015.513	13.02991
1015.88	10.02379
1016.246	14.03259
1016.612	-29.06154
1016.978	-43.09967
1017.344	9.02122
1017.71	-87.19821
1018.076	6.01318
1018.442	-31.07568
1018.808	-40.09541
1019.174	-58.13818
1019.539	-16.03329
1019.905	-64.14454
1020.27	0
1020.636	-25.05638
1021.001	-45.10124
1021.366	15.03449
1021.731	14.03425
1022.096	-24.05825
1022.461	-77.17124
1022.826	-13.02913
1023.191	-4.01001
1023.556	-51.11125
1023.92	-47.10842
1024.285	10.0228
1024.649	-4.00925
1025.014	-11.0257
1025.378	1.00241
1025.742	-16.03756
1026.107	-28.05847
1026.471	-58.12494
1026.835	-24.05571
1027.199	13.02957
1027.562	31.06742
1027.926	-15.03446
1028.29	-34.08231
1028.654	1.00212
1029.017	35.08084
1029.381	6.01353
1029.744	-11.02686
1030.107	-68.14962
1030.471	1.00224
1030.834	-67.14119
1031.197	-35.07829
1031.56	13.02903
1031.923	-46.11374
1032.286	-58.12789
1032.648	-21.04692
1033.011	-29.06278
1033.374	-21.0456
1033.736	-44.11098
1034.099	-29.06738
1034.461	-3.00726
1034.823	-68.16114
1035.185	-66.1564
1035.548	-12.02747
1035.91	8.01813
1036.272	-16.03411
1036.634	-17.03867
1036.995	24.05316
1037.357	-11.02533
1037.719	-6.01372
1038.08	-15.03278
1038.442	22.04991
1038.803	-50.11288
1039.165	-35.08433
1039.526	-25.05714
1039.887	1.00226
1040.248	2.00476
1040.609	-9.02094
1040.97	-16.03687
1041.331	-66.15706
1041.692	-21.04661
1042.053	-18.03786
1042.413	-58.12606
1042.774	-25.0571
1043.134	-41.09095
1043.495	-20.04728
1043.855	-2.00457
1044.215	-4.00934
1044.576	-12.02727
1044.936	1.00215
1045.296	-6.01405
1045.656	-6.01387
1046.016	-45.10136
1046.375	3.00691
1046.735	-6.01289
1047.095	6.01315
1047.454	-21.04106
1047.814	-80.18193
1048.173	-45.09954
1048.533	16.03433
1048.892	-40.09189
1049.251	25.05898
1049.61	-70.16254
1049.969	-24.05374
1050.328	-57.11388
1050.687	-22.05044
1051.046	12.02769
1051.405	-69.16164
1051.763	-18.03906
1052.122	-5.01194
1052.48	-58.13446
1052.839	-19.04213
1053.197	-38.0846
1053.555	-104.21661
1053.914	-7.01604
1054.272	2.00452
1054.63	-56.12947
1054.988	-38.08509
1055.345	-66.13134
1055.703	-19.04259
1056.061	-21.05152
1056.419	27.06646
1056.776	-45.10286
1057.134	-11.02375
1057.491	-43.10215
1057.848	-31.07268
1058.206	-22.04853
1058.563	14.0289
1058.92	-9.01913
1059.277	-51.11727
1059.634	-72.15696
1059.991	39.08738
1060.348	-29.06213
1060.704	-27.06092
1061.061	-32.06801
1061.418	-15.03459
1061.774	34.07992
1062.131	8.02062
1062.487	-94.20779
1062.843	-1.00235
1063.199	-4.00946
1063.555	-38.08375
1063.911	-11.02619
1064.267	-1.00186
1064.623	-61.14296
1064.979	-45.0977
1065.335	-45.09974
1065.691	14.03174
1066.046	-47.09564
1066.402	-19.04034
1066.757	-15.03596
1067.112	-36.08263
1067.468	-3.00678
1067.823	-47.10747
1068.178	30.06825
1068.533	-48.10934
1068.888	-54.12071
1069.243	-36.08485
1069.598	-86.19629
1069.952	-27.0582
1070.307	29.06865
1070.662	-46.10385
1071.016	-17.03601
1071.371	-59.12597
1071.725	-75.16568
1072.079	-35.07935
1072.434	-41.09428
1072.788	6.0135
1073.142	40.09284
1073.496	-38.08526
1073.85	-6.01297
1074.203	-22.05011
1074.557	-16.04102
1074.911	-24.05319
1075.265	-61.13222
1075.618	65.14797
1075.971	-15.03332
1076.325	-60.14618
1076.678	-37.07962
1077.031	-1.0021
1077.385	40.0816
1077.738	4.00843
1078.091	9.01939
1078.444	-23.04928
1078.796	-3.00699
1079.149	-44.10253
1079.502	-61.13718
1079.855	-14.03082
1080.207	-21.04873
1080.56	-9.02209
1080.912	-49.11123
1081.264	-18.0408
1081.617	-36.08343
1081.969	28.06791
1082.321	-21.0485
1082.673	-23.04998
1083.025	-33.07308
1083.377	-28.05471
1083.728	-39.0837
1084.08	44.10358
1084.432	-101.2276
1084.783	39.08569
1085.135	20.04796
1085.486	13.02797
1085.838	-26.06066
1086.189	-5.01141
1086.54	-5.0112
1086.891	-9.02192
1087.242	-22.05013
1087.593	-16.03633
1087.944	-34.07182
1088.295	-16.03349
1088.646	-15.03435
1088.996	-26.05903
1089.347	-61.1415
1089.698	-41.09269
1090.048	-7.01712
1090.398	-13.02841
1090.749	9.02023
1091.099	-34.0824
1091.449	-28.06561
1091.799	-24.05683
1092.149	-13.03074
1092.499	-16.03701
1092.849	-32.07764
1093.199	-6.01411
1093.548	23.05206
1093.898	-18.04282
1094.248	-12.02927
1094.597	-22.0544
1094.947	-35.0894
1095.296	4.00925
1095.645	-24.05921
1095.994	-4.00908
1096.343	18.04323
1096.692	-12.03046
1097.041	-41.10792
1097.39	-26.06164
1097.739	-3.00745
1098.088	-44.11182
1098.437	-56.14241
1098.785	-36.09268
1099.134	-14.03496
1099.482	-54.1422
1099.83	0
1100.179	-4.0101
1100.527	-40.10118
1100.875	-26.06582
1101.223	14.03569
1101.571	-16.04279
1101.919	-23.05811
1102.267	1.00275
1102.615	9.02891
1102.962	7.02245
1103.31	9.02889
1103.658	5.01602
