Data from N3 R6 sample 5_Subt2__3__15-22-23-034.txt Node

Date: Fri Sep 19 15:22:23 PDT 2025
User: uwsun
Spectrometer: HDX01956
Trigger mode: 0
Integration Time (sec): 5.000000E-1
Scans to average: 1
Nonlinearity correction enabled: true
Boxcar width: 0
Storing dark spectrum: false
XAxis mode: Wavelengths
Number of Pixels in Spectrum: 2068
>>>>>Begin Spectral Data<<<<<
194.03	-12.03491
194.578	6.0195
195.127	8.02565
195.676	-13.04175
196.225	7.01848
196.773	21.05848
197.321	16.04458
197.87	12.03104
198.418	54.14004
198.966	56.14772
199.513	68.17317
200.061	-10.02563
200.609	54.14211
201.156	37.07989
201.704	51.12784
202.251	41.10879
202.798	15.03935
203.345	59.14559
203.892	16.04047
204.438	23.05517
204.985	0
205.532	85.22726
206.078	53.13006
206.624	35.08694
207.17	-5.01169
207.716	16.0387
208.262	9.01779
208.808	28.07002
209.354	6.01471
209.899	27.06792
210.445	38.09561
210.99	19.04623
211.535	45.10542
212.08	7.01632
212.625	41.10244
213.17	-9.0229
213.715	25.05657
214.259	73.16981
214.804	-1.00247
215.348	-5.0115
215.892	46.1106
216.436	48.11137
216.98	43.09376
217.524	-6.01428
218.068	36.09045
218.612	11.02749
219.155	25.05875
219.698	13.03069
220.242	52.12829
220.785	62.14396
221.328	37.09204
221.871	30.07562
222.414	-4.00984
222.956	46.1109
223.499	18.04037
224.041	-28.06455
224.583	65.13716
225.126	62.13745
225.668	47.11367
226.21	16.04016
226.751	-11.02381
227.293	-11.02491
227.835	-12.02925
228.376	22.04993
228.918	11.02766
229.459	48.12021
230	3.00713
230.541	-22.0505
231.082	30.07241
231.622	57.12976
232.163	58.14057
232.704	21.05173
233.244	26.06415
233.784	39.09383
234.324	61.13436
234.864	-23.05204
235.404	54.12544
235.944	-11.02581
236.484	16.03927
237.023	30.07073
237.563	16.03677
238.102	54.12593
238.641	73.18351
239.18	4.00942
239.719	84.2093
240.258	51.11238
240.797	33.07885
241.335	13.03123
241.874	43.0824
242.412	23.0547
242.95	15.0361
243.488	27.06124
244.026	55.12576
244.564	34.06908
245.102	29.06471
245.64	32.07621
246.177	38.08368
246.715	17.04007
247.252	7.01582
247.789	25.04381
248.326	-10.0238
248.863	5.01086
249.4	86.19399
249.936	23.04674
250.473	30.06969
251.009	48.10996
251.546	-19.04217
252.082	76.16505
252.618	58.12864
253.154	27.06446
253.69	37.08222
254.226	28.06609
254.761	-10.02211
255.297	19.04153
255.832	10.02344
256.367	31.072
256.903	-8.01742
257.438	-23.05348
257.972	27.05905
258.507	25.05772
259.042	-46.09828
259.576	15.03229
260.111	25.05703
260.645	27.05817
261.179	-28.06512
261.713	-20.04423
262.247	66.15161
262.781	52.10845
263.315	50.12131
263.849	27.06712
264.382	16.0363
264.915	65.15132
265.449	31.07551
265.982	29.06449
266.515	52.1255
267.048	50.10511
267.58	-14.03
268.113	27.0584
268.646	72.17685
269.178	18.04004
269.71	55.11758
270.243	35.07903
270.775	44.1111
271.307	17.04004
271.838	29.0677
272.37	18.04428
272.902	27.06137
273.433	42.09008
273.965	59.14366
274.496	-20.04924
275.027	12.0295
275.558	20.04818
276.089	59.14666
276.62	6.01514
277.15	50.12159
277.681	-2.00424
278.211	52.12484
278.741	65.14275
279.272	56.12642
279.802	48.11903
280.332	24.05639
280.861	37.08827
281.391	13.02922
281.921	24.05659
282.45	72.17966
282.98	43.11165
283.509	18.0402
284.038	19.04227
284.567	18.04094
285.096	65.15537
285.625	70.15893
286.153	22.05112
286.682	20.04513
287.21	21.05023
287.739	23.05361
288.267	29.07019
288.795	15.0392
289.323	54.12678
289.851	35.08087
290.378	52.11557
290.906	18.04379
291.433	39.09666
291.961	84.18545
292.488	65.15998
293.015	55.1294
293.542	58.14483
294.069	39.09514
294.596	21.05167
295.122	69.16272
295.649	85.18597
296.175	30.0712
296.702	52.12332
297.228	-1.00239
297.754	56.12389
298.28	44.09864
298.806	62.14839
299.332	21.04628
299.857	52.11562
300.383	43.10689
300.908	60.14569
301.433	58.14035
301.958	5.01131
302.483	116.28798
303.008	54.13102
303.533	-6.01536
304.058	60.1391
304.582	83.19368
305.107	84.21799
305.631	46.10287
306.155	74.17196
306.679	85.19639
307.203	91.20833
307.727	41.09729
308.251	72.17515
308.775	70.16389
309.298	86.20505
309.822	85.21121
310.345	104.24187
310.868	59.13957
311.391	90.21746
311.914	64.15923
312.437	66.14711
312.96	106.24632
313.482	98.22944
314.005	81.20083
314.527	69.18002
315.049	72.17862
315.571	86.19336
316.093	111.27189
316.615	102.24404
317.137	56.11959
317.659	67.15886
318.18	96.22845
318.702	124.28291
319.223	62.12591
319.744	120.26504
320.265	77.18553
320.786	80.19614
321.307	110.27059
321.828	154.34226
322.348	99.23092
322.869	47.10855
323.389	43.08021
323.909	95.21513
324.43	120.28095
324.95	131.2952
325.47	128.31033
325.989	149.34987
326.509	91.19893
327.029	75.16762
327.548	116.25792
328.067	92.21893
328.587	143.34949
329.106	93.20785
329.625	130.32872
330.144	110.24701
330.662	137.31112
331.181	140.32134
331.7	157.35754
332.218	182.38597
332.736	133.30216
333.255	116.2653
333.773	154.35673
334.291	139.33541
334.808	128.27726
335.326	159.35051
335.844	174.39858
336.361	143.35429
336.879	140.31915
337.396	141.32889
337.913	199.43961
338.43	217.47556
338.947	144.33608
339.464	146.30557
339.981	164.3814
340.497	192.4604
341.014	175.41091
341.53	198.43731
342.046	196.46802
342.562	183.44258
343.078	136.31241
343.594	199.46325
344.11	195.44767
344.626	249.6058
345.141	276.60446
345.657	214.46117
346.172	206.47699
346.687	194.43331
347.202	219.47366
347.717	235.54035
348.232	223.5393
348.747	234.51659
349.261	275.58459
349.776	251.56073
350.29	226.54151
350.805	219.51703
351.319	239.5359
351.833	254.55629
352.347	205.45759
352.861	242.54185
353.374	244.53258
353.888	219.50578
354.401	298.64741
354.915	259.55921
355.428	287.68253
355.941	310.68608
356.454	264.56353
356.967	292.65783
357.48	317.68355
357.993	288.67291
358.505	300.70507
359.018	320.73003
359.53	271.61963
360.042	237.49525
360.554	337.76276
361.066	247.57361
361.578	355.72899
362.09	334.74904
362.602	269.56436
363.113	285.61614
363.625	322.68912
364.136	339.69613
364.647	296.654
365.158	346.75839
365.669	331.75923
366.18	289.62933
366.691	343.70784
367.201	324.72333
367.712	305.64441
368.222	388.8368
368.733	354.7248
369.243	387.78107
369.753	328.7059
370.263	380.8336
370.773	378.87204
371.282	356.78721
371.792	353.75104
372.301	395.88818
372.811	403.97374
373.32	362.71165
373.829	467.01231
374.338	439.89171
374.847	439.9153
375.356	525.13053
375.865	494.94234
376.373	524.06329
376.882	505.15566
377.39	596.27569
377.898	597.31825
378.407	554.09151
378.915	581.09141
379.423	680.39172
379.93	678.31311
380.438	720.5182
380.946	789.55503
381.453	761.54964
381.96	883.7259
382.468	945.82636
382.975	960.91772
383.482	987.76069
383.989	965.02157
384.495	1112.97973
385.002	1122.77281
385.509	1111.99269
386.015	1265.82355
386.521	1260.04465
387.028	1373.20387
387.534	1342.0264
388.04	1414.35387
388.546	1506.23354
389.051	1622.28267
389.557	1711.53627
390.063	1809.60215
390.568	1805.67128
391.073	1903.52343
391.578	2023.83097
392.084	2129.51261
392.589	2302.50719
393.093	2459.81569
393.598	2639.64987
394.103	2816.86725
394.607	3073.77241
395.112	3272.91901
395.616	3517.68514
396.12	3787.26934
396.624	4182.10626
397.128	4454.07245
397.632	5078.47638
398.136	5460.25733
398.639	6097.14606
399.143	6975.29361
399.646	7664.37757
400.15	8618.60438
400.653	9691.29954
401.156	10844.2939
401.659	12700.32148
402.162	16518.60509
402.664	24368.14477
403.167	45581.28875
403.67	58745.31738
404.172	55487.84425
404.674	37291.05854
405.176	4428.40989
405.678	533.47942
406.18	0
406.682	0
407.184	6962.89417
407.686	50953.82939
408.187	52703.6837
408.688	34877.06512
409.19	26950.22224
409.691	22412.94261
410.192	19172.91629
410.693	17210.80585
411.194	16098.70583
411.694	14848.96733
412.195	13773.95603
412.696	12898.96705
413.196	12618.09486
413.696	12588.88269
414.196	12298.06916
414.696	11836.59714
415.196	10535.93983
415.696	8712.85792
416.196	6889.72744
416.695	5820.03017
417.195	5498.34699
417.694	5213.63133
418.194	4844.99453
418.693	4527.68031
419.192	4581.92395
419.691	4460.99782
420.19	4253.15917
420.688	4153.45252
421.187	3773.56896
421.685	3567.4135
422.184	3092.64294
422.682	2625.42048
423.18	2375.66503
423.678	2131.57287
424.176	1994.53601
424.674	1835.3057
425.172	1739.49678
425.669	1710.68946
426.167	1499.27993
426.664	1448.19837
427.161	1219.98045
427.659	1218.19006
428.156	1062.65737
428.652	1064.06942
429.149	1047.94775
429.646	915.55148
430.143	905.72643
430.639	860.63134
431.135	845.69049
431.632	740.38561
432.128	716.44567
432.624	708.51637
433.12	726.37743
433.616	628.15179
434.111	629.28401
434.607	623.27232
435.103	518.92447
435.598	562.98491
436.093	495.00319
436.588	486.95813
437.083	471.93227
437.578	436.88016
438.073	397.88426
438.568	364.80355
439.062	377.71965
439.557	337.71326
440.051	352.72169
440.546	370.76407
441.04	306.65997
441.534	340.79033
442.028	309.6783
442.522	344.75401
443.015	347.68393
443.509	330.74099
444.002	325.73021
444.496	239.47416
444.989	281.63913
445.482	261.59989
445.975	244.51813
446.468	259.51336
446.961	220.43269
447.454	234.48323
447.947	278.61809
448.439	292.66132
448.931	264.55081
449.424	194.45152
449.916	216.48324
450.408	266.56534
450.9	205.46515
451.392	247.58358
451.884	165.35122
452.375	169.3928
452.867	208.4361
453.358	126.26826
453.849	214.4205
454.341	211.44405
454.832	198.39861
455.323	148.34256
455.814	166.35619
456.304	176.37863
456.795	194.40926
457.285	184.37776
457.776	153.32072
458.266	210.46962
458.756	119.26794
459.247	155.34627
459.737	207.46626
460.226	176.37113
460.716	179.40336
461.206	118.26552
461.695	188.44445
462.185	257.56297
462.674	158.33713
463.163	110.22869
463.653	100.2003
464.142	76.17431
464.63	170.38957
465.119	158.3478
465.608	112.24364
466.096	104.21574
466.585	84.18203
467.073	102.22952
467.561	181.41503
468.05	106.23137
468.538	143.33643
469.026	126.28805
469.513	91.1824
470.001	77.16654
470.489	99.223
470.976	136.29623
471.463	141.33586
471.951	137.32445
472.438	106.23784
472.925	52.11576
473.412	89.20637
473.899	161.34897
474.385	108.25246
474.872	39.08738
475.359	75.17563
475.845	87.17139
476.331	58.11924
476.817	80.18444
477.303	72.16002
477.789	55.12718
478.275	86.20505
478.761	40.09248
479.247	5.01078
479.732	59.1428
480.218	48.12064
480.703	103.24789
481.188	42.08603
481.673	65.14341
482.158	55.11366
482.643	68.1661
483.128	26.05704
483.612	19.04278
484.097	42.09895
484.581	-6.01333
485.066	59.13713
485.55	31.06504
486.034	35.07398
486.518	33.07518
487.002	22.05233
487.486	35.08279
487.969	47.11251
488.453	25.06146
488.936	-10.02186
489.42	37.07914
489.903	50.12168
490.386	54.11167
490.869	1.00207
491.352	14.03298
491.835	-62.12436
492.318	63.1376
492.8	20.03952
493.283	79.1948
493.765	10.02409
494.247	9.02019
494.73	18.03851
495.212	19.04428
495.694	-20.04574
496.175	0
496.657	121.27668
497.139	-51.08291
497.62	-1.00233
498.102	5.01217
498.583	-8.01931
499.064	50.10909
499.545	-7.01554
500.026	11.0239
500.507	-40.09005
500.988	14.03347
501.469	-8.01945
501.949	-3.00715
502.43	-28.06504
502.91	-6.01201
503.39	-20.04887
503.87	19.04357
504.35	-63.14458
504.83	14.02979
505.31	-6.01427
505.79	-29.06807
506.269	-2.00452
506.749	-59.13252
507.228	6.01372
507.707	-28.06065
508.187	9.02069
508.666	-30.07186
509.145	-38.08715
509.623	-22.05044
510.102	-24.05667
510.581	-98.23232
511.059	23.05667
511.538	-28.07078
512.016	26.06071
512.494	-43.10164
512.972	-18.04228
513.45	30.06836
513.928	-10.02377
514.406	16.03843
514.884	27.06851
515.361	26.06114
515.839	2.00442
516.316	4.00931
516.793	-29.0718
517.27	-24.05733
517.747	-28.07078
518.224	23.0513
518.701	-16.03497
519.178	-1.00247
519.654	-26.0592
520.131	-56.13526
520.607	9.02173
521.083	1.00224
521.56	-44.10176
522.036	-20.04314
522.512	12.02878
522.987	-16.03772
523.463	33.07646
523.939	-29.06974
524.414	-39.0877
524.89	-63.14649
525.365	26.05776
525.84	17.04048
526.315	-47.11075
526.79	-40.0879
527.265	-34.07509
527.74	-62.14902
528.215	-26.06037
528.689	1.00219
529.164	-68.14276
529.638	-9.02272
530.112	-35.08231
530.587	3.00633
531.061	-34.08116
531.534	-39.09226
532.008	-59.14097
532.482	-65.14413
532.956	-14.0356
533.429	-76.17745
533.903	-49.10557
534.376	-7.01504
534.849	-24.05482
535.322	-8.01847
535.795	-23.05512
536.268	-4.00948
536.741	-23.05409
537.213	-17.03862
537.686	-67.16045
538.158	-37.08181
538.631	-74.17664
539.103	-100.22336
539.575	-46.09393
540.047	-22.04721
540.519	-22.05104
540.991	-70.1678
541.463	-34.08138
541.934	-52.11778
542.406	-29.06818
542.877	-39.08634
543.348	-73.17008
543.82	-52.12536
544.291	-61.13813
544.762	-50.11674
545.233	-14.03485
545.703	-46.10083
546.174	-5.01143
546.645	-25.05996
547.115	-15.03557
547.585	-16.03658
548.056	-5.01206
548.526	-31.07205
548.996	-4.00941
549.466	-28.06668
549.935	7.01649
550.405	24.05181
550.875	-42.09772
551.344	-11.02613
551.814	-33.07336
552.283	-41.08705
552.752	-3.00682
553.221	-25.0534
553.69	-12.02626
554.159	1.00245
554.628	-43.09479
555.096	-1.00248
555.565	-16.03487
556.033	37.08406
556.502	13.03061
556.97	9.01932
557.438	-9.02089
557.906	7.01619
558.374	-14.03141
558.842	-11.02582
559.31	-73.16059
559.777	-23.05498
560.245	3.00678
560.712	-59.13241
561.18	-2.0043
561.647	-46.10075
562.114	-32.07177
562.581	7.01692
563.048	-27.06015
563.514	10.02411
563.981	-41.09186
564.448	10.02194
564.914	-1.00226
565.381	-27.0593
565.847	16.03624
566.313	-18.04085
566.779	54.11887
567.245	17.03878
567.711	25.05875
568.176	26.05836
568.642	24.05919
569.108	52.12408
569.573	26.0586
570.038	68.13847
570.504	80.17499
570.969	47.11393
571.434	55.11794
571.899	104.23881
572.363	58.12725
572.828	70.15279
573.293	78.17256
573.757	110.24356
574.222	78.17018
574.686	70.15273
575.15	90.20699
575.614	44.09763
576.078	101.22694
576.542	110.24102
577.006	83.18175
577.469	112.26304
577.933	28.06052
578.396	106.24477
578.86	28.06373
579.323	107.24466
579.786	111.22743
580.249	93.20433
580.712	55.1291
581.175	57.1364
581.637	72.16148
582.1	26.05497
582.563	-3.00609
583.025	37.08729
583.487	-21.04129
583.95	18.03782
584.412	67.13379
584.874	67.15653
585.336	31.07168
585.797	25.05224
586.259	24.05389
586.721	60.13628
587.182	-2.00448
587.643	45.09854
588.105	34.07842
588.566	84.16895
589.027	56.13214
589.488	32.07029
589.949	7.01634
590.41	79.14926
590.87	-3.00653
591.331	48.09788
591.791	24.05299
592.252	-5.01118
592.712	46.1066
593.172	50.10849
593.632	33.06761
594.092	59.12619
594.552	43.0883
595.011	90.19953
595.471	117.24796
595.931	85.18038
596.39	80.18451
596.849	73.16248
597.308	80.16462
597.768	104.25356
598.227	146.33323
598.685	81.17437
599.144	72.16115
599.603	168.37384
600.062	95.18795
600.52	125.26492
600.978	182.40835
601.437	193.40993
601.895	230.44831
602.353	196.39858
602.811	177.36594
603.269	246.54127
603.727	219.48844
604.184	256.53128
604.642	242.54743
605.099	263.55787
605.557	270.59781
606.014	257.50463
606.471	323.74771
606.928	349.70308
607.385	362.81549
607.842	448.91933
608.299	354.74186
608.755	357.77672
609.212	463.90914
609.668	454.8921
610.125	458.96911
610.581	458.93306
611.037	431.86108
611.493	458.94282
611.949	453.9667
612.405	489.85084
612.861	475.95735
613.316	524.09718
613.772	490.98191
614.227	505.03843
614.683	584.05209
615.138	573.16846
615.593	476.95694
616.048	530.02356
616.503	550.16644
616.958	519.13768
617.412	584.17987
617.867	586.11515
618.321	485.83584
618.776	508.96435
619.23	498.02838
619.684	512.98284
620.138	488.95801
620.592	515.08044
621.046	471.95845
621.5	456.97247
621.954	506.97132
622.407	532.00532
622.861	393.83723
623.314	448.89276
623.768	426.87892
624.221	466.79216
624.674	409.82092
625.127	418.86435
625.58	394.77054
626.033	328.63477
626.485	343.73612
626.938	393.82413
627.39	368.76404
627.843	312.64373
628.295	325.67672
628.747	374.79312
629.199	388.79046
629.651	317.65096
630.103	301.62815
630.555	239.45466
631.006	299.63339
631.458	238.50583
631.909	255.52743
632.361	259.54338
632.812	272.57431
633.263	241.46584
633.714	232.44317
634.165	195.42789
634.616	164.3604
635.067	212.42227
635.518	167.36367
635.968	232.41655
636.419	187.36736
636.869	217.46954
637.319	208.44188
637.769	249.5104
638.219	193.41779
638.669	171.3817
639.119	228.50861
639.569	226.50811
640.019	178.37864
640.468	100.20614
640.918	186.41321
641.367	180.37439
641.816	165.34357
642.265	142.30667
642.714	217.46552
643.163	132.2792
643.612	129.29604
644.061	107.2102
644.51	136.29195
644.958	166.33865
645.406	116.26337
645.855	164.37416
646.303	138.29956
646.751	163.34862
647.199	139.28969
647.647	186.40272
648.095	106.22774
648.543	164.3034
648.99	162.36408
649.438	188.41036
649.885	189.43997
650.333	133.23345
650.78	177.40684
651.227	171.39226
651.674	179.38036
652.121	127.28689
652.568	153.34928
653.015	120.28084
653.461	129.28902
653.908	118.25811
654.354	71.15881
654.801	177.38839
655.247	146.2965
655.693	150.36993
656.139	85.19311
656.585	113.25693
657.031	70.15758
657.477	121.24758
657.922	154.33486
658.368	90.20989
658.813	71.15271
659.259	84.19289
659.704	123.27274
660.149	93.20545
660.594	113.25422
661.039	128.27643
661.484	162.36229
661.929	75.16631
662.373	116.28219
662.818	129.30574
663.262	63.14452
663.707	69.16663
664.151	151.35179
664.595	51.1184
665.039	105.24684
665.483	117.28605
665.927	135.29673
666.371	75.16749
666.814	72.16361
667.258	93.21231
667.701	79.15805
668.145	131.3064
668.588	79.18601
669.031	106.2392
669.474	87.19917
669.917	124.25584
670.36	55.13016
670.803	143.32329
671.245	114.22347
671.688	114.26198
672.13	66.1404
672.573	155.37345
673.015	134.30202
673.457	138.28396
673.899	116.26423
674.341	113.25786
674.783	81.18663
675.225	94.21982
675.666	104.2391
676.108	115.23616
676.549	93.20777
676.991	72.14989
677.432	70.12963
677.873	97.21142
678.314	93.21034
678.755	107.24889
679.196	133.28865
679.637	77.17748
680.078	97.21393
680.518	95.20503
680.959	74.1687
681.399	40.0946
681.839	66.15325
682.28	103.24337
682.72	85.18345
683.16	91.21685
683.6	80.17248
684.039	85.16548
684.479	76.17856
684.919	86.1909
685.358	97.23292
685.798	86.21428
686.237	114.25925
686.676	152.32798
687.115	105.23302
687.554	138.30747
687.993	49.10126
688.432	185.39653
688.871	133.28274
689.309	193.44112
689.748	98.19165
690.186	65.14605
690.625	143.32065
691.063	134.30622
691.501	120.28128
691.939	121.28612
692.377	96.22318
692.815	99.22774
693.253	90.20252
693.69	113.23257
694.128	134.31028
694.565	87.19765
695.003	140.33712
695.44	86.1909
695.877	99.22172
696.314	121.24174
696.751	104.22133
697.188	92.2015
697.625	106.22598
698.061	113.25672
698.498	122.27767
698.934	87.19685
699.371	65.14701
699.807	119.26607
700.243	117.26968
700.679	115.24437
701.115	128.2801
701.551	131.29193
701.987	59.12422
702.422	88.19769
702.858	71.15947
703.294	112.23597
703.729	113.26327
704.164	137.31276
704.599	58.12155
705.035	81.17227
705.47	108.25246
705.904	56.12369
706.339	83.17937
706.774	78.17199
707.209	67.14622
707.643	75.17129
708.078	87.20029
708.512	121.29242
708.946	111.2487
709.38	29.06527
709.814	72.15436
710.248	57.1306
710.682	87.19805
711.116	78.17911
711.549	23.05682
711.983	36.07868
712.416	45.09991
712.85	67.16058
713.283	105.23399
713.716	115.27056
714.149	121.26663
714.582	66.1404
715.015	71.16763
715.448	37.0879
715.881	42.08475
716.313	91.2028
716.746	44.0995
717.178	37.08464
717.61	104.24996
718.043	35.0826
718.475	48.11026
718.907	64.15137
719.339	-18.03932
719.77	72.16447
720.202	67.16088
720.634	118.2728
721.065	69.15434
721.497	91.21159
721.928	51.12036
722.359	33.07752
722.79	15.03444
723.221	9.02152
723.652	44.1072
724.083	15.0321
724.514	-14.03018
724.945	40.0896
725.375	65.14353
725.806	28.06545
726.236	59.1435
726.666	-18.04059
727.096	12.02797
727.526	40.09756
727.956	33.07119
728.386	-20.04657
728.816	51.12362
729.246	23.05399
729.675	39.09265
730.105	22.05137
730.534	8.01787
730.964	10.0239
731.393	-34.07967
731.822	93.22569
732.251	21.05142
732.68	-15.03289
733.109	4.00948
733.537	-14.03242
733.966	22.05193
734.395	-26.05707
734.823	-32.06837
735.251	7.01615
735.68	19.04515
736.108	19.04569
736.536	-28.06332
736.964	-2.0044
737.392	6.01425
737.82	6.01365
738.247	-44.10043
738.675	-2.00449
739.102	11.02667
739.53	-19.04714
739.957	-12.02956
740.384	13.03012
740.811	59.14275
741.238	-8.01855
741.665	28.06262
742.092	-18.04062
742.519	-4.00962
742.945	-9.02063
743.372	5.01191
743.798	-5.01234
744.225	-36.082
744.651	-17.04077
745.077	-2.00478
745.503	-31.07202
745.929	3.00683
746.355	8.01857
746.781	7.01653
747.207	38.08582
747.632	15.03521
748.058	-43.10239
748.483	-7.01515
748.908	20.04738
749.334	-3.00704
749.759	-59.13361
750.184	-25.05707
750.609	17.03948
751.033	-54.12002
751.458	60.12719
751.883	-2.0047
752.307	-13.02976
752.732	-1.00243
753.156	62.14453
753.58	-16.03608
754.005	61.14803
754.429	-68.1517
754.853	-13.03106
755.277	-4.0091
755.7	12.02832
756.124	18.04326
756.548	-17.03887
756.971	-18.04186
757.394	-15.03718
757.818	-19.04754
758.241	-37.09003
758.664	24.05856
759.087	27.0583
759.51	-5.01191
759.933	1.00232
760.356	17.04161
760.778	74.17502
761.201	-31.07091
761.623	-42.09602
762.046	-32.07059
762.468	19.04306
762.89	53.12358
763.312	-2.00462
763.734	5.01154
764.156	22.05197
764.578	-3.00647
765	16.03715
765.421	5.01245
765.843	32.08066
766.264	5.01138
766.686	45.10838
767.107	3.00704
767.528	46.1124
767.949	-33.08095
768.37	-16.03746
768.791	-25.05756
769.212	15.03673
769.632	-8.01776
770.053	-37.09474
770.473	16.03717
770.894	-6.01417
771.314	-21.04721
771.734	-68.1517
772.154	18.04428
772.575	34.07396
772.994	10.02162
773.414	-32.0718
773.834	-15.03629
774.254	-15.03495
774.673	1.00231
775.093	-3.00717
775.512	-69.16625
775.931	60.14601
776.351	-14.0331
776.77	-40.09479
777.189	-15.03375
777.607	-16.0395
778.026	23.05506
778.445	-13.03177
778.864	-46.11337
779.282	-66.15174
779.701	5.01207
780.119	-94.23012
780.537	-34.08153
780.955	-4.0097
781.373	33.07734
781.791	-31.06699
782.209	-11.02422
782.627	-2.00511
783.045	1.00218
783.462	-25.06103
783.88	12.02997
784.297	-16.03867
784.715	35.08729
785.132	-14.03237
785.549	-16.03898
785.966	14.03344
786.383	-41.09789
786.8	-3.00662
787.217	-20.04513
787.633	3.00718
788.05	-46.10143
788.466	-44.09828
788.883	5.01236
789.299	-34.0776
789.715	25.05813
790.131	-27.06404
790.547	-56.13214
790.963	12.02839
791.379	-43.10521
791.795	-46.0999
792.21	-7.01546
792.626	-23.05196
793.041	-60.1418
793.457	-13.03053
793.872	-30.06753
794.287	45.10426
794.702	-24.05621
795.117	-30.07101
795.532	28.06771
795.947	-42.09555
796.362	-12.0269
796.776	-28.06013
797.191	8.01851
797.605	-24.05511
798.02	-17.03992
798.434	-16.03325
798.848	-24.05617
799.262	9.02167
799.676	-32.0738
800.09	-75.17714
800.504	-43.09983
800.918	-31.06808
801.331	-7.01744
801.745	-62.13562
802.158	-46.11035
802.572	5.01142
802.985	-39.08875
803.398	-40.09115
803.811	-3.00731
804.224	12.02822
804.637	-108.24491
805.05	9.01963
805.462	2.00464
805.875	8.02028
806.288	-15.03497
806.7	-12.02881
807.112	-32.0705
807.525	-25.0593
807.937	-35.08315
808.349	-20.04767
808.761	-89.20825
809.173	-27.06161
809.584	-30.07035
809.996	-20.04708
810.408	-22.05494
810.819	-21.04713
811.231	-32.08198
811.642	0
812.053	-20.04627
812.464	-26.05958
812.875	-31.07641
813.286	-47.11615
813.697	-40.08624
814.108	-42.09695
814.519	-52.10888
814.929	4.00959
815.34	-44.1018
815.75	-23.05602
816.16	-57.13384
816.571	-6.01494
816.981	-41.09057
817.391	-13.02968
817.801	20.04787
818.211	-1.00227
818.62	-40.0917
819.03	-29.0669
819.44	1.00248
819.849	9.02167
820.259	3.00735
820.668	-21.05002
821.077	-14.03333
821.486	-69.15714
821.895	-14.03217
822.304	-20.05106
822.713	-15.03344
823.122	1.00239
823.531	-6.01355
823.939	-37.08641
824.348	16.0369
824.756	-10.02373
825.164	-37.0883
825.573	-21.05041
825.981	14.03291
826.389	-14.033
826.797	-17.04074
827.205	2.00432
827.612	-42.09822
828.02	-32.07233
828.428	-26.06308
828.835	-15.03806
829.243	-19.04271
829.65	-55.13202
830.057	-8.01866
830.464	-23.05411
830.871	-14.03158
831.278	-47.10738
831.685	-38.07883
832.092	12.02796
832.499	-8.01626
832.905	20.04825
833.312	-35.07476
833.718	-19.04482
834.124	17.03649
834.531	-43.10317
834.937	-56.13684
835.343	-24.05511
835.749	-2.00434
836.155	-48.12077
836.561	-104.24235
836.966	-28.06489
837.372	-15.03625
837.777	-59.14016
838.183	-75.15401
838.588	35.08254
838.993	-47.10773
839.399	-34.07889
839.804	-15.03525
840.209	-31.07647
840.613	-6.01267
841.018	-40.09581
841.423	-98.2408
841.828	-38.09192
842.232	-45.1043
842.637	-68.15044
843.041	3.00747
843.445	-49.11654
843.849	-59.14022
844.253	-7.01552
844.657	29.06985
845.061	-26.05577
845.465	46.10685
845.869	-29.06331
846.272	-54.12588
846.676	19.04343
847.079	-50.12341
847.483	15.03524
847.886	-13.02933
848.289	-11.02872
848.692	-47.1138
849.095	-82.18641
849.498	-27.06372
849.901	-63.13568
850.304	-54.12181
850.707	-34.08265
851.109	-42.09937
851.512	4.00939
851.914	-12.02953
852.316	-30.07287
852.718	-58.14661
853.121	-20.04664
853.523	-57.12634
853.925	-41.10325
854.326	-4.00965
854.728	-30.07396
855.13	-27.06743
855.531	22.05042
855.933	-39.08857
856.334	-34.08159
856.736	-106.22519
857.137	-66.14638
857.538	-83.20165
857.939	-16.03794
858.34	-19.04353
858.741	-11.02745
859.142	2.00455
859.542	0
859.943	-4.00953
860.343	-17.04042
860.744	-27.06293
861.144	-22.05094
861.544	-10.02319
861.945	-64.15575
862.345	-39.08896
862.745	-23.05445
863.145	-73.16275
863.544	19.04609
863.944	-16.0355
864.344	-43.10034
864.743	19.04446
865.143	-34.08367
865.542	-28.06104
865.941	13.03075
866.34	23.05177
866.74	-55.14266
867.139	-13.02971
867.537	-17.04098
867.936	-10.02288
868.335	13.03167
868.734	-16.03953
869.132	-18.03981
869.531	-3.00682
869.929	-20.04351
870.327	-27.06139
870.726	-17.04006
871.124	-14.03047
871.522	-38.09165
871.92	-5.01164
872.318	-24.0559
872.715	-18.04203
873.113	0
873.511	-16.038
873.908	-25.06196
874.306	-37.0883
874.703	-25.05941
875.1	-53.129
875.497	-52.11787
875.894	-5.01186
876.291	32.07448
876.688	-46.1137
877.085	-30.06778
877.482	-42.09949
877.878	-3.00685
878.275	-54.13107
878.671	-64.13027
879.068	11.0249
879.464	11.02512
879.86	-4.00906
880.256	-58.13473
880.652	-42.10213
881.048	-65.15203
881.444	-37.08208
881.84	-22.053
882.236	12.02862
882.631	-35.08199
883.027	-17.03821
883.422	-37.0904
883.817	-12.02913
884.213	16.03905
884.608	-11.02592
885.003	-52.12008
885.398	-72.17331
885.793	-42.10018
886.188	12.02863
886.582	-29.06948
886.977	13.02885
887.371	-40.09654
887.766	-59.14226
888.16	-29.06905
888.554	-29.06722
888.949	-42.09899
889.343	-44.10067
889.737	-50.13114
890.131	-21.05046
890.525	-66.16176
890.918	21.05046
891.312	-40.08883
891.706	4.01011
892.099	-23.05552
892.492	-18.03622
892.886	-45.10414
893.279	-36.08784
893.672	-26.06351
894.065	-22.05213
894.458	-23.05493
894.851	-15.03415
895.244	-56.13771
895.637	-2.00456
896.029	-22.05102
896.422	-47.10877
896.814	-34.08079
897.206	31.07011
897.599	-17.03883
897.991	-12.02757
898.383	-42.09362
898.775	-36.07618
899.167	10.02217
899.559	-17.04067
899.951	13.0286
900.342	-54.129
900.734	-26.06306
901.125	-57.14246
901.517	-50.11793
901.908	-20.04475
902.299	-35.0819
902.69	-13.02897
903.082	9.02048
903.473	-39.08993
903.863	-6.01475
904.254	-78.17163
904.645	-56.13096
905.036	33.07637
905.426	-46.09598
905.817	-28.06522
906.207	-45.10265
906.597	-8.0177
906.987	-58.14231
907.378	-48.11541
907.768	-14.03562
908.158	-21.04869
908.547	-42.10461
908.937	-24.05845
909.327	-10.02281
909.717	-25.05976
910.106	-36.0821
910.495	9.02137
910.885	-92.22053
911.274	-14.03343
911.663	21.05089
912.052	-21.04862
912.441	-20.04902
912.83	-10.02138
913.219	-12.02956
913.608	1.00231
913.997	-61.14664
914.385	-48.10735
914.774	-46.10601
915.162	-34.07632
915.55	3.00683
915.939	-38.0922
916.327	18.04231
916.715	-24.05902
917.103	-17.03922
917.491	-3.0069
917.878	-53.12187
918.266	-32.07924
918.654	13.03191
919.041	-36.09035
919.429	-27.06057
919.816	-29.06964
920.203	-32.07377
920.591	-44.1031
920.978	-34.07876
921.365	-57.14329
921.752	-28.06352
922.139	20.04047
922.525	-57.13039
922.912	-43.09923
923.299	-32.07621
923.685	6.01491
924.072	-34.07277
924.458	-31.07316
924.844	-51.12036
925.231	-68.14925
925.617	36.08807
926.003	-25.06092
926.389	16.03859
926.774	-28.06804
927.16	-13.03041
927.546	-46.11316
927.931	8.01884
928.317	-59.12592
928.702	-43.09531
929.088	-5.01119
929.473	-29.07056
929.858	-9.02103
930.243	-17.03889
930.628	-22.0505
931.013	-14.03341
931.398	-22.04692
931.783	-13.03267
932.167	-54.12504
932.552	-43.10117
932.937	-51.11854
933.321	-56.13388
933.705	29.06982
934.09	-8.01883
934.474	-13.02899
934.858	-46.11516
935.242	-7.01551
935.626	-54.13195
936.009	-66.16944
936.393	17.04136
936.777	-31.07664
937.16	-86.21327
937.544	-57.12671
937.927	-45.10978
938.311	-30.06872
938.694	6.0151
939.077	-38.08547
939.46	37.08539
939.843	-44.08376
940.226	-18.04372
940.609	-36.07741
940.991	-34.08268
941.374	-97.22652
941.757	-31.07239
942.139	-10.02077
942.522	-47.10348
942.904	-10.02275
943.286	-24.05744
943.668	-23.05684
944.05	-40.09369
944.432	15.03504
944.814	-32.07401
945.196	-28.06579
945.578	-14.03189
945.959	-23.05094
946.341	-43.09805
946.722	-18.03996
947.104	-18.04019
947.485	-36.07878
947.866	-14.03388
948.247	-47.11354
948.628	-41.09417
949.009	-29.07125
949.39	-73.17034
949.771	-36.07818
950.152	-25.05859
950.532	11.02644
950.913	-42.09486
951.293	-8.02094
951.674	-53.12085
952.054	-49.11645
952.434	-60.14103
952.814	-105.23496
953.194	21.05228
953.574	-17.03895
953.954	-29.06511
954.334	11.02604
954.714	-18.04171
955.093	-33.07582
955.473	-89.21241
955.853	-15.03722
956.232	-19.05008
956.611	-63.14063
956.99	-31.07464
957.37	-42.10232
957.749	-56.12544
958.128	8.01931
958.506	-8.01998
958.885	-19.04533
959.264	-28.0653
959.643	10.02125
960.021	-16.03767
960.4	25.05349
960.778	-47.10782
961.156	13.03076
961.535	-123.26808
961.913	-84.18281
962.291	1.00247
962.669	-30.07276
963.047	-71.17172
963.424	3.0073
963.802	-60.13921
964.18	-2.00475
964.557	-49.10453
964.935	-6.01328
965.312	7.01746
965.69	18.04216
966.067	-11.02505
966.444	-34.07945
966.821	-21.05125
967.198	-43.09722
967.575	-56.12957
967.952	30.06587
968.329	-57.13144
968.705	-57.11229
969.082	-32.07907
969.458	-25.05763
969.835	-40.09218
970.211	-23.0564
970.587	-2.00471
970.963	1.00243
971.339	-18.04537
971.715	-83.19543
972.091	-11.02551
972.467	-69.16158
972.843	-24.05661
973.219	-20.04447
973.594	-32.08034
973.97	-23.05077
974.345	-20.04511
974.721	-4.00905
975.096	-43.09765
975.471	10.02229
975.846	-16.03658
976.221	-36.08748
976.596	-39.08871
976.971	12.0279
977.346	-38.08203
977.72	-59.14371
978.095	-9.02222
978.469	1.00225
978.844	-1.00237
979.218	-55.12678
979.593	-7.01581
979.967	-3.00694
980.341	-93.20235
980.715	-21.04995
981.089	-31.07291
981.463	28.06055
981.837	-14.03266
982.21	19.04071
982.584	-39.08875
982.957	-10.0239
983.331	-18.04004
983.704	-2.00468
984.078	-80.18767
984.451	-64.14831
984.824	-18.0419
985.197	-12.02738
985.57	1.00234
985.943	-71.16365
986.316	20.04602
986.688	-14.03163
987.061	-54.11837
987.434	-24.05991
987.806	-58.13292
988.179	-62.13785
988.551	5.01189
988.923	-59.13805
989.295	-34.08044
989.667	1.0023
990.039	-8.01881
990.411	-14.03053
990.783	-55.11886
991.155	4.0092
991.527	-44.10039
991.898	-22.05163
992.27	-75.17824
992.641	-20.04727
993.012	9.01996
993.384	-14.03146
993.755	-37.08952
994.126	-27.06154
994.497	-37.08617
994.868	1.00215
995.239	-24.05538
995.61	-67.161
995.98	2.00463
996.351	-68.16269
996.722	-35.07732
997.092	-20.04523
997.462	-32.07156
997.833	-8.0177
998.203	27.06074
998.573	14.03316
998.943	-66.14504
999.313	-11.025
999.683	-70.15835
1000.053	-4.00865
1000.423	-17.03901
1000.792	5.01233
1001.162	-39.0919
1001.531	-19.04467
1001.901	-30.07062
1002.27	-2.00419
1002.639	-13.03173
1003.009	8.01812
1003.378	3.00729
1003.747	-52.11581
1004.116	-52.11907
1004.485	-31.07054
1004.853	-38.09189
1005.222	12.02892
1005.591	2.00441
1005.959	-54.11672
1006.328	-34.07151
1006.696	-31.07143
1007.064	-28.06709
1007.433	46.10833
1007.801	-11.02525
1008.169	-63.15105
1008.537	-27.05612
1008.905	-11.02419
1009.273	-1.00233
1009.64	-9.02036
1010.008	-20.04476
1010.375	15.03404
1010.743	-13.02735
1011.11	-30.06729
1011.478	-28.06556
1011.845	-40.0872
1012.212	-36.07565
1012.579	-10.02328
1012.946	-46.10177
1013.313	7.01553
1013.68	-35.07307
1014.047	13.02953
1014.414	-26.05858
1014.78	-1.00237
1015.147	6.01339
1015.513	30.06878
1015.88	-35.08398
1016.246	0
1016.612	-27.05727
1016.978	-44.10201
1017.344	-20.04743
1017.71	-23.05172
1018.076	16.03507
1018.442	-10.02432
1018.808	-9.02134
1019.174	-48.11414
1019.539	-45.09425
1019.905	-1.00223
1020.27	-1.00236
1020.636	-22.04959
1021.001	-40.0899
1021.366	7.01612
1021.731	-37.09137
1022.096	2.00483
1022.461	-62.13745
1022.826	-17.03812
1023.191	-17.04266
1023.556	-20.04334
1023.92	-36.08286
1024.285	8.01825
1024.649	3.00693
1025.014	-10.02336
1025.378	10.02404
1025.742	-30.07062
1026.107	-40.08375
1026.471	-35.07502
1026.835	-32.07439
1027.199	-7.01599
1027.562	0
1027.926	-38.08771
1028.29	2.00481
1028.654	-27.0576
1029.017	7.01626
1029.381	-23.05217
1029.744	-7.01708
1030.107	-41.0897
1030.471	-9.02016
1030.834	-45.09437
1031.197	-44.0986
1031.56	-10.02244
1031.923	-38.09382
1032.286	-25.05474
1032.648	-45.10103
1033.011	6.01289
1033.374	-42.0916
1033.736	-61.15433
1034.099	-16.03708
1034.461	-34.08274
1034.823	-82.19484
1035.185	-73.17322
1035.548	-36.0828
1035.91	0
1036.272	-15.03197
1036.634	-30.06842
1036.995	14.03108
1037.357	-56.13013
1037.719	-24.05507
1038.08	-20.04375
1038.442	-6.01369
1038.803	-20.04488
1039.165	-28.06737
1039.526	-37.08477
1039.887	-26.0592
1040.248	51.12027
1040.609	-69.16246
1040.97	-11.02532
1041.331	-112.26888
1041.692	-39.08688
1042.053	-44.09307
1042.413	-32.06917
1042.774	15.03398
1043.134	-33.07308
1043.495	-17.04017
1043.855	-25.05737
1044.215	-20.04683
1044.576	14.03165
1044.936	-30.06493
1045.296	-11.02579
1045.656	17.03911
1046.016	-30.06737
1046.375	2.00461
1046.735	-23.0496
1047.095	-9.01979
1047.454	9.01747
1047.814	-50.11302
1048.173	-50.11071
1048.533	16.03433
1048.892	-41.0942
1049.251	-4.00949
1049.61	-46.10631
1049.969	-9.02009
1050.328	-81.16273
1050.687	-19.04353
1051.046	-35.08151
1051.405	-69.16164
1051.763	-44.096
1052.122	29.06879
1052.48	-29.06685
1052.839	-28.0622
1053.197	-73.16369
1053.555	-97.20171
1053.914	-25.05751
1054.272	10.02255
1054.63	-48.11079
1054.988	-26.05807
1055.345	-60.11923
1055.703	-50.11279
1056.061	-23.05644
1056.419	12.02962
1056.776	-44.10055
1057.134	1.00215
1057.491	7.01647
1057.848	-36.08448
1058.206	-37.08187
1058.563	23.04738
1058.92	-32.06837
1059.277	-80.18502
1059.634	-66.1437
1059.991	13.02928
1060.348	-29.06213
1060.704	-86.19637
1061.061	-37.07873
1061.418	-7.01612
1061.774	24.05652
1062.131	21.05402
1062.487	-71.15619
1062.843	-13.03061
1063.199	-45.10731
1063.555	-37.08153
1063.911	-38.09095
1064.267	-45.08448
1064.623	-24.05584
1064.979	-103.2264
1065.335	-38.08411
1065.691	63.14139
1066.046	-28.05673
1066.402	-60.12852
1066.757	0
1067.112	-79.18289
1067.468	60.13385
1067.823	-18.04092
1068.178	-21.04827
1068.533	-26.05896
1068.888	-39.08691
1069.243	27.06286
1069.598	-81.18469
1069.952	-22.04737
1070.307	7.01664
1070.662	-4.00895
1071.016	-53.11316
1071.371	-9.01901
1071.725	-31.06785
1072.079	-33.07479
1072.434	-31.07114
1072.788	-13.02935
1073.142	5.01169
1073.496	-47.10565
1073.85	-49.10689
1074.203	-6.01362
1074.557	-25.0642
1074.911	-29.06433
1075.265	-16.03435
1075.618	27.06194
1075.971	-24.05341
1076.325	-20.04836
1076.678	-40.08613
1077.031	-5.01051
1077.385	-5.0103
1077.738	-11.02325
1078.091	-12.02597
1078.444	-50.10775
1078.796	18.0418
1079.149	-80.18774
1079.502	-34.07604
1079.855	-44.09747
1080.207	-10.02316
1080.56	-55.13612
1080.912	-62.14111
1081.264	-43.09797
1081.617	-2.0046
1081.969	-13.03177
1082.321	-15.0346
1082.673	-43.09384
1083.025	-44.09767
1083.377	-309.64398
1083.728	-68.14686
1084.08	-25.05964
1084.432	-96.21611
1084.783	2.00443
1085.135	47.11213
1085.486	-56.12229
1085.838	-33.0771
1086.189	-41.09428
1086.54	44.09755
1086.891	21.05087
1087.242	-23.05242
1087.593	-28.06373
1087.944	-61.12962
1088.295	-17.03559
1088.646	-18.04125
1088.996	-68.15571
1089.347	-54.12509
1089.698	-25.05634
1090.048	-29.07122
1090.398	30.06496
1090.749	0
1091.099	-29.07022
1091.449	-23.05384
1091.799	-29.06873
1092.149	-6.01417
1092.499	-22.05094
1092.849	-23.05571
1093.199	-40.09471
1093.548	5.01136
1093.898	-28.06674
1094.248	-34.08327
1094.597	0
1094.947	-13.03308
1095.296	-66.15471
1095.645	-37.0915
1095.994	14.03167
1096.343	13.03125
1096.692	-17.04319
1097.041	-39.10262
1097.39	-43.10227
1097.739	-20.04982
1098.088	-34.08625
1098.437	-87.22246
1098.785	-30.07716
1099.134	-77.19447
1099.482	-77.20356
1099.83	-3.00747
1100.179	-17.04304
1100.527	-49.12415
1100.875	-76.19409
1101.223	14.03569
1101.571	-35.09389
1101.919	-80.20417
1102.267	5.01372
1102.615	6.01928
1102.962	-4.01285
1103.31	6.01926
1103.658	-13.04173
