Data from N3 R6 sample 10_Subt2__3__15-26-16-529.txt Node

Date: Fri Sep 19 15:26:16 PDT 2025
User: uwsun
Spectrometer: HDX01956
Trigger mode: 0
Integration Time (sec): 5.000000E-1
Scans to average: 1
Nonlinearity correction enabled: true
Boxcar width: 0
Storing dark spectrum: false
XAxis mode: Wavelengths
Number of Pixels in Spectrum: 2068
>>>>>Begin Spectral Data<<<<<
194.03	1.0029
194.578	5.01625
195.127	8.02565
195.676	-5.01604
196.225	-19.05038
196.773	5.01396
197.321	9.0251
197.87	46.1183
198.418	93.23955
198.966	89.23346
199.513	57.14544
200.061	23.05861
200.609	30.07927
201.156	-6.01307
201.704	25.06296
202.251	42.11142
202.798	62.16134
203.345	103.25211
203.892	44.11075
204.438	109.25714
204.985	55.13096
205.532	64.17171
206.078	63.15432
206.624	20.04982
207.17	67.15443
207.716	-14.03406
208.262	72.14021
208.808	47.11713
209.354	38.09261
209.899	25.06291
210.445	37.09311
210.99	39.09454
211.535	52.12165
212.08	25.05806
212.625	42.10492
213.17	51.12839
213.715	25.05657
214.259	69.16063
214.804	36.08826
215.348	33.07534
215.892	67.16045
216.436	89.20482
216.98	75.16242
217.524	71.16652
218.068	51.12779
218.612	-2.00501
219.155	5.0118
219.698	2.00473
220.242	42.10381
220.785	71.16457
221.328	67.16576
221.871	88.2195
222.414	21.05142
222.956	52.12522
223.499	46.10258
224.041	11.02516
224.583	57.12049
225.126	60.13307
225.668	87.20882
226.21	22.05515
226.751	-28.06083
227.293	-20.04537
227.835	34.08215
228.376	25.0567
228.918	104.25715
229.459	62.15488
230	44.10374
230.541	-3.00686
231.082	2.00485
231.622	62.141
232.163	26.06339
232.704	44.10792
233.244	38.09355
233.784	4.00969
234.324	64.14088
234.864	30.06715
235.404	23.05375
235.944	62.14339
236.484	10.02457
237.023	71.16607
237.563	11.0253
238.102	9.02117
238.641	40.10115
239.18	21.04927
239.719	57.14272
240.258	40.08835
240.797	85.20107
241.335	19.04559
241.874	25.04811
242.412	43.10188
242.95	42.10056
243.488	61.1374
244.026	44.10083
244.564	55.11121
245.102	44.09787
245.64	17.0406
246.177	14.03099
246.715	19.04477
247.252	58.12971
247.789	60.10418
248.326	-20.04769
248.863	5.01086
249.4	68.15395
249.936	13.02648
250.473	73.16813
251.009	53.12129
251.546	16.03525
252.082	48.10486
252.618	65.14395
253.154	34.08107
253.69	1.00224
254.226	54.12682
254.761	1.00221
255.297	63.13644
255.832	34.07932
256.367	41.09503
256.903	59.12663
257.438	23.05299
257.972	9.01976
258.507	44.1012
259.042	-12.02545
259.576	53.11316
260.111	12.02744
260.645	92.19545
261.179	18.04148
261.713	15.03293
262.247	104.23709
262.781	35.07327
263.315	80.19301
263.849	34.08441
264.382	33.07461
264.915	88.20393
265.449	51.12376
265.982	53.11728
266.515	70.16837
267.048	79.16501
267.58	0
268.113	76.16266
268.646	80.19621
269.178	31.06877
269.71	41.08792
270.243	37.08351
270.775	62.15605
271.307	57.13322
271.838	59.13692
272.37	92.22322
272.902	95.21294
273.433	72.15343
273.965	80.19403
274.496	56.13592
275.027	-3.00739
275.558	37.08885
276.089	43.1072
276.62	38.09534
277.15	66.16001
277.681	13.02749
278.211	66.15803
278.741	49.10798
279.272	95.21276
279.802	70.17289
280.332	61.14229
280.861	17.04071
281.391	67.14894
281.921	49.11497
282.45	100.24826
282.98	73.18856
283.509	45.09995
284.038	-35.07874
284.567	20.04547
285.096	69.1648
285.625	77.17458
286.153	40.09262
286.682	11.02487
287.21	73.17289
287.739	73.16847
288.267	87.20827
288.795	67.17354
289.323	82.19146
289.851	35.08087
290.378	78.17242
290.906	71.171
291.433	58.14326
291.961	15.03359
292.488	94.23012
293.015	92.21489
293.542	63.15717
294.069	70.16978
294.596	89.21622
295.122	109.25505
295.649	117.25425
296.175	24.05703
296.702	68.16076
297.228	85.19951
297.754	63.13918
298.28	49.10974
298.806	99.23528
299.332	54.11817
299.857	67.14851
300.383	61.15114
300.908	52.12645
301.433	122.29166
301.958	56.12539
302.483	147.36287
303.008	61.14781
303.533	17.04333
304.058	92.21193
304.582	57.13369
305.107	92.23842
305.631	77.1711
306.155	123.28306
306.679	89.20547
307.203	95.21731
307.727	129.3009
308.251	78.18953
308.775	60.14075
309.298	83.19801
309.822	100.24781
310.345	97.2259
310.868	117.27366
311.391	114.2742
311.914	103.25445
312.437	98.21699
312.96	142.32763
313.482	94.22025
314.005	112.27612
314.527	127.32804
315.049	99.24438
315.571	168.37136
316.093	135.3292
316.615	108.2581
317.137	70.14904
317.659	125.29306
318.18	109.25874
318.702	176.39733
319.223	134.26765
319.744	126.27794
320.265	138.32865
320.786	102.24906
321.307	178.43235
321.828	138.30772
322.348	173.39764
322.869	99.22628
323.389	284.49813
323.909	135.30321
324.43	149.34686
324.95	165.36922
325.47	166.39957
325.989	212.49166
326.509	150.32381
327.029	153.33644
327.548	158.34823
328.067	144.33925
328.587	189.45795
329.106	162.3569
329.625	151.38039
330.144	152.33838
330.662	171.38565
331.181	167.38124
331.7	188.42545
332.218	210.44263
332.736	144.32641
333.255	150.34071
333.773	208.47665
334.291	179.42866
334.808	169.36286
335.326	156.34412
335.844	254.57246
336.361	198.4856
336.879	172.38956
337.396	184.42555
337.913	201.44384
338.43	244.53168
338.947	238.54517
339.464	238.48796
339.981	220.50597
340.497	261.6176
341.014	222.51648
341.53	266.57912
342.046	269.63333
342.562	231.55359
343.078	251.56327
343.594	301.68655
344.11	272.61478
344.626	319.76589
345.141	300.65369
345.657	307.64835
346.172	275.62802
346.687	302.65945
347.202	338.7124
347.717	324.7317
348.232	323.76635
348.747	309.67144
349.261	366.7626
349.776	315.69438
350.29	327.76836
350.805	330.76224
351.319	314.69319
351.833	331.71312
352.347	285.62562
352.861	326.71727
353.374	346.73887
353.888	345.77673
354.401	378.8072
354.915	392.82221
355.428	418.96889
355.941	380.82869
356.454	392.8135
356.967	372.8243
357.48	425.89516
357.993	402.91816
358.505	425.97438
359.018	362.81883
359.53	345.77705
360.042	386.77994
360.554	379.85046
361.066	411.92339
361.578	403.81859
362.09	452.98901
362.602	394.80378
363.113	355.75595
363.625	456.94757
364.136	418.84305
364.647	431.92534
365.158	481.02231
365.669	483.07197
366.18	382.81539
366.691	483.96542
367.201	439.95672
367.712	438.8984
368.222	502.05428
368.733	548.07105
369.243	465.92168
369.753	461.96372
370.263	505.07668
370.773	534.19149
371.282	546.15744
371.792	547.11283
372.301	572.23744
372.811	556.30229
373.32	493.93929
373.829	643.34232
374.338	652.25846
374.847	583.17488
375.356	700.45145
375.865	648.18855
376.373	702.36745
376.882	711.56043
377.39	740.53516
377.898	823.73218
378.407	741.39671
378.915	846.48725
379.423	862.69235
379.93	903.65612
380.438	972.93724
380.946	1034.92209
381.453	1048.99633
381.96	1109.05181
382.468	1258.25077
382.975	1333.43479
383.482	1227.05477
383.989	1270.48382
384.495	1411.32139
385.002	1438.07145
385.509	1472.40054
386.015	1711.14042
386.521	1729.45169
387.028	1866.59623
387.534	1853.39292
388.04	1920.77234
388.546	2028.5596
389.051	2111.54067
389.557	2331.85202
390.063	2442.8758
390.568	2456.97152
391.073	2507.71604
391.578	2697.04043
392.084	2690.59425
392.589	2910.5157
393.093	3204.79276
393.598	3439.50688
394.103	3792.62457
394.607	4145.37431
395.112	4336.48452
395.616	4696.10415
396.12	5217.49561
396.624	5540.37703
397.128	6094.28563
397.632	6699.02403
398.136	7327.19862
398.639	7865.66117
399.143	9078.5349
399.646	10130.60426
400.15	10999.3622
400.653	12686.68259
401.156	14342.74455
401.659	16522.71171
402.162	21189.51286
402.664	30573.36849
403.167	53375.46578
403.67	59596.31772
404.172	55487.84425
404.674	37291.05854
405.176	4428.40989
405.678	533.47942
406.18	0
406.682	0
407.184	6962.89417
407.686	50953.82939
408.187	59237.6763
408.688	49730.4166
409.19	37434.66228
409.691	30845.99773
410.192	26372.64436
410.693	23480.80052
411.194	21772.90887
411.694	20589.56677
412.195	18868.73928
412.696	17445.29564
413.196	16771.0618
413.696	16748.14357
414.196	16864.06732
414.696	16126.27042
415.196	14904.60918
415.696	12506.61184
416.196	9623.10601
416.695	8078.81224
417.195	7477.34977
417.694	7074.63353
418.194	6423.54406
418.693	6337.94244
419.192	6184.19708
419.691	5927.2709
420.19	5829.34686
420.688	5586.67805
421.187	5342.73824
421.685	4931.69944
422.184	4424.07835
422.682	3725.1147
423.18	3277.61013
423.678	2989.64052
424.176	2668.68677
424.674	2559.48696
425.172	2502.81052
425.669	2230.01264
426.167	2087.6534
426.664	1982.5579
427.161	1737.42804
427.659	1739.72393
428.156	1585.11208
428.652	1490.61089
429.149	1407.38741
429.646	1308.98847
430.143	1231.16463
430.639	1189.07636
431.135	1047.99779
431.632	1043.80929
432.128	1054.96516
432.624	922.88421
433.12	952.70815
433.616	907.54866
434.111	883.69986
434.607	883.69823
435.103	832.36439
435.598	814.33181
436.093	710.36929
436.588	741.37212
437.083	675.27084
437.578	622.20045
438.073	582.24461
438.568	582.22421
439.062	592.06981
439.557	496.01141
440.051	499.98908
440.546	502.00418
441.04	478.99284
441.534	497.11726
442.028	506.0627
442.522	498.05414
443.015	441.85001
443.509	461.00523
444.002	475.03232
444.496	360.69404
444.989	469.02401
445.482	390.87317
445.975	406.83164
446.468	402.77017
446.961	378.71579
447.454	393.78261
447.947	412.89046
448.439	382.84927
448.931	371.75565
449.424	354.7978
449.916	306.67186
450.408	368.76472
450.9	342.75436
451.392	327.76057
451.884	268.55767
452.375	282.64076
452.867	318.65051
453.358	307.62786
453.849	275.53258
454.341	378.76623
454.832	272.53825
455.323	290.65225
455.814	267.56041
456.304	265.55916
456.795	288.59501
457.285	252.50942
457.776	205.42477
458.266	286.62953
458.756	189.41944
459.247	225.49538
459.737	255.56872
460.226	295.60578
460.716	233.51923
461.206	216.47626
461.695	291.67418
462.185	251.55053
462.674	206.43496
463.163	176.36052
463.653	237.45965
464.142	176.39554
464.63	200.45556
465.119	238.51508
465.608	216.45948
466.096	225.45411
466.585	199.42064
467.073	141.31474
467.561	273.6144
468.05	211.45031
468.538	189.44067
469.026	174.39393
469.513	135.26783
470.001	144.30699
470.489	181.40085
470.976	152.32995
471.463	198.46646
471.951	131.3106
472.438	167.37
472.925	96.21177
473.412	151.34583
473.899	180.38856
474.385	133.30937
474.872	106.23422
475.359	115.26719
475.845	133.25918
476.331	108.21953
476.817	98.22512
477.303	128.28117
477.789	114.26051
478.275	75.1792
478.761	108.24631
479.247	79.16765
479.732	123.29411
480.218	101.25143
480.703	158.37628
481.188	51.10426
481.673	78.17163
482.158	57.11774
482.643	100.24281
483.128	65.14143
483.612	49.10965
484.097	128.29651
484.581	41.0902
485.066	96.2215
485.55	21.04416
486.034	96.20021
486.518	56.12699
487.002	63.14868
487.486	61.14357
487.969	86.20434
488.453	57.13931
488.936	35.0758
489.42	81.17159
489.903	94.22687
490.386	114.23257
490.869	11.02276
491.352	76.17689
491.835	3.00593
492.318	63.1376
492.8	-3.00596
493.283	45.11166
493.765	76.18079
494.247	20.04476
494.73	53.11252
495.212	46.10664
495.694	25.05666
496.175	21.04852
496.657	94.21611
497.139	-31.05011
497.62	22.0511
498.102	26.06301
498.583	12.02885
499.064	54.11772
499.545	42.0923
500.026	-15.03278
500.507	-17.03809
500.988	27.06439
501.469	-4.00972
501.949	-17.04062
502.43	-56.1308
502.91	-21.04219
503.39	-17.04152
503.87	6.01379
504.35	-5.01134
504.83	11.02343
505.31	-3.00713
505.79	1.00233
506.269	30.06729
506.749	-9.02001
507.228	-52.12027
507.707	18.03861
508.187	-9.02076
508.666	28.06633
509.145	-26.05949
509.623	-13.02975
510.102	-10.02355
510.581	-8.01863
511.059	25.06158
511.538	6.01507
512.016	22.05141
512.494	-4.00938
512.972	-6.01406
513.45	2.00458
513.928	23.05432
514.406	46.10985
514.884	13.03307
515.361	57.13322
515.839	-12.0266
516.316	-55.1295
516.793	-8.01973
517.27	24.05681
517.747	-2.00503
518.224	-26.05858
518.701	6.01305
519.178	11.02714
519.654	-56.12828
520.131	-47.11333
520.607	2.00484
521.083	-7.01572
521.56	-23.05297
522.036	-8.01721
522.512	31.07407
522.987	53.12329
523.463	-34.07982
523.939	-1.00239
524.414	-39.0877
524.89	-34.0786
525.365	-5.01118
525.84	-9.02154
526.315	-87.2066
526.79	-16.03498
527.265	-60.13324
527.74	-39.09333
528.215	-15.03475
528.689	30.06537
529.164	-27.05617
529.638	-27.06838
530.112	3.007
530.587	27.05667
531.061	8.01894
531.534	-39.09226
532.008	-29.06889
532.482	-25.05497
532.956	2.00507
533.429	-80.18693
533.903	-49.10557
534.376	-23.0496
534.849	-7.01594
535.322	-24.05557
535.795	-90.21845
536.268	49.11488
536.741	-20.04701
537.213	4.00905
537.686	-12.02844
538.158	-41.09073
538.631	-6.01414
539.103	-50.11053
539.575	-50.10219
540.047	-53.11449
540.519	-18.04173
540.991	-29.06897
541.463	-12.0286
541.934	-45.10178
542.406	-31.07291
542.877	-12.02642
543.348	-69.16063
543.82	-15.03591
544.291	-49.11069
544.762	-22.05108
545.233	40.09858
545.703	-3.00652
546.174	37.08389
546.645	36.08534
547.115	1.00236
547.585	51.11502
548.056	21.05041
548.526	-27.06271
548.996	14.0328
549.466	-11.02611
549.935	13.0306
550.405	62.13275
550.875	-40.09303
551.344	37.08709
551.814	26.05709
552.283	59.12253
552.752	44.09909
553.221	22.04651
553.69	81.17377
554.159	92.22146
554.628	20.04351
555.096	37.0912
555.565	44.09466
556.033	71.16019
556.502	52.12151
556.97	92.194
557.438	74.1689
557.906	80.1823
558.374	47.10413
558.842	111.25432
559.31	65.13884
559.777	89.20817
560.245	103.22811
560.712	81.17654
561.18	135.28148
561.647	118.24948
562.114	136.29447
562.581	176.41189
563.048	162.34671
563.514	164.38381
563.981	153.32908
564.448	207.43525
564.914	196.42564
565.381	186.39015
565.847	243.52489
566.313	254.54454
566.779	277.58114
567.245	305.65514
567.711	312.69194
568.176	378.7869
568.642	316.73716
569.108	338.76206
569.573	367.76927
570.038	386.72915
570.504	411.83598
570.969	344.78698
571.434	390.77573
571.899	456.97289
572.363	416.84364
572.828	432.87048
573.293	431.88305
573.757	493.00232
574.222	479.95609
574.686	483.96139
575.15	525.10001
575.614	473.95551
576.078	490.01093
576.542	524.04585
577.006	520.03161
577.469	519.1195
577.933	422.83508
578.396	564.18108
578.86	495.01783
579.323	498.04679
579.786	449.84963
580.249	442.89964
580.712	409.89324
581.175	479.05117
581.637	485.99502
582.1	390.75874
582.563	316.59428
583.025	374.82424
583.487	377.67189
583.95	330.64568
584.412	389.7188
584.874	334.73918
585.336	368.79368
585.797	346.67153
586.259	281.59761
586.721	289.62585
587.182	296.62251
587.643	291.60404
588.105	289.63253
588.566	241.46718
589.027	304.68261
589.488	254.53183
589.949	261.57873
590.41	279.50133
590.87	192.40042
591.331	168.33323
591.791	158.33903
592.252	165.35596
592.712	220.49219
593.172	212.44409
593.632	153.30496
594.092	175.36488
594.552	168.33525
595.011	125.2751
595.471	150.31561
595.931	132.27725
596.39	130.29684
596.849	144.31578
597.308	99.20284
597.768	104.25356
598.227	109.25064
598.685	97.20809
599.144	118.2616
599.603	133.29811
600.062	84.16661
600.52	127.26904
600.978	137.31023
601.437	134.28827
601.895	139.2768
602.353	105.21796
602.811	128.26754
603.269	113.25557
603.727	109.24864
604.184	110.23573
604.642	96.22362
605.099	119.26035
605.557	111.25391
606.014	85.17368
606.471	153.36612
606.928	200.41673
607.385	100.23733
607.842	183.398
608.299	139.30514
608.755	134.30535
609.212	176.36901
609.668	187.3906
610.125	199.44493
610.581	147.32066
611.037	151.32128
611.493	115.255
611.949	139.31681
612.405	134.2551
612.861	115.25097
613.316	183.41271
613.772	146.31585
614.227	168.37229
614.683	181.36027
615.138	156.34872
615.593	144.31165
616.048	110.2342
616.503	165.37986
616.958	162.38239
617.412	132.29471
617.867	177.37086
618.321	86.16404
618.776	151.31162
619.23	170.37751
619.684	139.29085
620.138	113.24148
620.592	108.2473
621.046	152.33178
621.5	100.22972
621.954	133.2783
622.407	106.22156
622.861	91.20657
623.314	103.22173
623.768	129.2839
624.221	145.26791
624.674	70.1515
625.127	95.21066
625.58	28.05951
626.033	90.18411
626.485	36.08237
626.938	75.16832
627.39	106.23294
627.843	45.09841
628.295	123.26763
628.747	64.1449
629.199	116.25095
629.651	55.11962
630.103	100.218
630.555	64.12694
631.006	59.13154
631.458	-17.03814
631.909	73.15715
632.361	39.0858
632.812	65.14347
633.263	28.05689
633.714	-6.01212
634.165	-38.08747
634.616	-17.03878
635.067	12.02502
635.518	0
635.968	56.1051
636.419	-2.0041
636.869	15.03386
637.319	8.01774
637.769	44.09437
638.219	26.05829
638.669	1.00231
639.119	13.03029
639.569	46.10723
640.019	19.04182
640.468	-30.06365
640.918	28.06424
641.367	12.02589
641.816	5.01078
642.265	0
642.714	60.13307
643.163	3.00652
643.612	17.03989
644.061	0
644.51	-2.00442
644.958	21.04425
645.406	-19.04432
645.855	6.01412
646.303	21.04672
646.751	-48.10735
647.199	-58.12617
647.647	-4.00901
648.095	-24.05301
648.543	38.07252
648.99	-19.04428
649.438	35.07887
649.885	49.11721
650.333	-14.02552
650.78	87.20357
651.227	-1.00237
651.674	16.03521
652.121	-35.08167
652.568	-31.07339
653.015	-8.01919
653.461	-26.06011
653.908	58.12848
654.354	-43.09844
654.801	1.00228
655.247	-16.03369
655.693	-30.07643
656.139	-37.08614
656.585	1.00233
657.031	-8.0183
657.477	14.02934
657.922	7.0157
658.368	-18.04287
658.813	-93.20708
659.259	-17.03983
659.704	1.00227
660.149	4.009
660.594	5.0115
661.039	38.08365
661.484	37.08488
661.929	-9.02031
662.373	-15.03738
662.818	-35.08557
663.262	-64.15055
663.707	-53.13093
664.151	29.06918
664.595	-23.05418
665.039	-48.1162
665.483	15.03737
665.927	-43.09805
666.371	-29.06615
666.814	6.01382
667.258	40.09229
667.701	-38.07809
668.145	-8.01922
668.588	24.05711
669.031	25.05735
669.474	-42.09864
669.917	-19.04046
670.36	-43.10368
670.803	36.08316
671.245	-53.108
671.688	-48.11388
672.13	-75.16444
672.573	1.00248
673.015	-26.06052
673.457	-12.02553
673.899	-16.03742
674.341	-67.15843
674.783	-39.09201
675.225	-34.0815
675.666	-38.08984
676.108	6.01262
676.549	2.00455
676.991	-32.06816
677.432	-60.11472
677.873	-25.0559
678.314	-12.02772
678.755	-18.0429
679.196	25.05551
679.637	-22.05171
680.078	-28.06337
680.518	-47.10452
680.959	-41.09564
681.399	-62.14953
681.839	-41.09721
682.28	-45.10937
682.72	-43.09535
683.16	-13.0316
683.6	-20.04404
684.039	-60.12085
684.479	-38.09126
684.919	-29.06591
685.358	-29.0713
685.798	-40.10194
686.237	-20.04672
686.676	-7.01562
687.115	-8.01817
687.554	-36.0831
687.993	-40.08431
688.432	19.04218
688.871	-12.02632
689.309	33.07785
689.748	23.04578
690.186	-5.0114
690.625	43.0984
691.063	-25.05896
691.501	44.10467
691.939	-26.06323
692.377	-4.00948
692.815	-7.01644
693.253	-20.04602
693.69	-19.04027
694.128	-17.04054
694.565	22.05064
695.003	13.03206
695.44	-48.10951
695.877	-18.04128
696.314	15.03071
696.751	-13.02837
697.188	0
697.625	29.06286
698.061	-4.0093
698.498	12.02792
698.934	-76.17766
699.371	-71.16502
699.807	-26.05987
700.243	30.07035
700.679	-5.0109
701.115	-52.11811
701.551	2.00458
701.987	-35.07522
702.422	-66.15295
702.858	-31.07108
703.294	-57.12455
703.729	11.02614
704.164	-22.05183
704.599	-26.0555
705.035	-57.12487
705.47	-6.01434
705.904	-12.02688
706.339	-34.07531
706.774	-42.09493
707.209	-26.05786
707.643	-27.06293
708.078	-4.00938
708.512	-21.05211
708.946	-18.0414
709.38	-24.0546
709.814	-43.09448
710.248	-32.07463
710.682	15.03464
711.116	-33.07746
711.549	-40.09996
711.983	-74.16549
712.416	-34.07673
712.85	14.03389
713.283	-2.00456
713.716	-8.01927
714.149	3.00677
714.582	30.06432
715.015	-9.02158
715.448	-44.10616
715.881	-35.07187
716.313	2.00454
716.746	-15.03433
717.178	-38.08824
717.61	-18.04426
718.043	-31.0741
718.475	-50.11711
718.907	-24.05773
719.339	-78.17256
719.77	12.02774
720.202	-24.05862
720.634	-26.06183
721.065	-9.02046
721.497	-39.09301
721.928	-40.09607
722.359	-11.02606
722.79	-37.08583
723.221	-55.13312
723.652	-18.04436
724.083	-69.15032
724.514	-68.1483
724.945	-49.11177
725.375	-22.04946
725.806	-62.14749
726.236	-39.09659
726.666	-34.07691
727.096	-55.1299
727.526	-67.16667
727.956	-16.03488
728.386	-48.11238
728.816	-19.04666
729.246	-20.04734
729.675	-7.01678
730.105	25.05834
730.534	46.10194
730.964	-62.1502
731.393	-16.03736
731.822	-3.00741
732.251	-8.01969
732.68	-75.16652
733.109	-32.07639
733.537	-19.04404
733.966	-19.04521
734.395	-54.11922
734.823	14.02961
735.251	14.03225
735.68	-20.04789
736.108	10.02409
736.536	-53.12046
736.964	-20.04419
737.392	-58.1394
737.82	-50.11504
738.247	-51.11657
738.675	-50.11325
739.102	-10.02434
739.53	26.06398
739.957	-41.10155
740.384	-51.11966
740.811	-4.00979
741.238	-35.08161
741.665	-1.00225
742.092	-20.04515
742.519	-26.06282
742.945	-42.09691
743.372	-10.02388
743.798	-25.06192
744.225	-38.08659
744.651	-46.11094
745.077	-17.04071
745.503	-67.15677
745.929	-26.05951
746.355	-23.05371
746.781	-19.0451
747.207	-40.09178
747.632	-42.09968
748.058	-37.088
748.483	-28.06086
748.908	-20.04774
749.334	8.01874
749.759	-42.09478
750.184	-44.10083
750.609	-56.13193
751.033	-36.07971
751.458	71.15015
751.883	4.00939
752.307	16.03642
752.732	7.01701
753.156	-27.06404
753.58	-20.04513
754.005	7.01716
754.429	-95.21311
754.853	1.00238
755.277	3.00682
755.7	5.01181
756.124	8.01926
756.548	-6.01369
756.971	-7.01624
757.394	-20.04962
757.818	1.00249
758.241	-21.05094
758.664	27.06584
759.087	13.02815
759.51	-1.00238
759.933	-41.0959
760.356	-11.02706
760.778	44.10467
761.201	-37.08474
761.623	-27.06154
762.046	-38.08393
762.468	-2.00455
762.89	20.04694
763.312	-26.06035
763.734	13.02995
764.156	9.02131
764.578	-19.0411
765	-6.01399
765.421	10.02487
765.843	9.02278
766.264	-21.04804
766.686	30.07246
767.107	43.10018
767.528	-14.03459
767.949	-1.00244
768.37	3.007
768.791	-8.01836
769.212	3.00736
769.632	-38.08488
770.053	-3.00764
770.473	4.00931
770.894	-22.05211
771.314	-79.1797
771.734	-40.08872
772.154	5.01233
772.575	32.06964
772.994	7.01514
773.414	-38.08537
773.834	5.01205
774.254	-23.05367
774.673	-15.03471
775.093	-6.01435
775.512	-5.0119
775.931	17.0417
776.351	-40.09504
776.77	8.01878
777.189	-18.04052
777.607	-30.07426
778.026	-9.02168
778.445	-1.00244
778.864	-20.04905
779.282	-10.02273
779.701	-31.07534
780.119	-55.13367
780.537	-33.07912
780.955	-7.01698
781.373	-18.0426
781.791	1.00215
782.209	26.0568
782.627	-2.00511
783.045	-19.04162
783.462	-30.07331
783.88	-40.10082
784.297	-32.07758
784.715	27.06743
785.132	3.00691
785.549	44.10599
785.966	-44.10628
786.383	-10.02373
786.8	-5.01105
787.217	-38.08607
787.633	-39.09415
788.05	-31.06814
788.466	-30.06681
788.883	28.0689
789.299	-46.10525
789.715	28.06507
790.131	-35.08315
790.547	-46.10833
790.963	-8.019
791.379	-11.02675
791.795	-11.02371
792.21	-26.05767
792.626	-25.0565
793.041	-58.13702
793.457	-24.05648
793.872	-41.0925
794.287	4.00934
794.702	-21.04916
795.117	-52.1236
795.532	-32.07825
795.947	-16.03621
796.362	7.01563
796.776	-87.18922
797.191	-30.06994
797.605	16.03645
798.02	-11.0258
798.434	-34.07094
798.848	-11.02568
799.262	28.06717
799.676	5.01145
800.09	-54.12702
800.504	-14.03232
800.918	-46.10134
801.331	-16.03992
801.745	-57.12455
802.158	-22.05254
802.572	26.05913
802.985	-38.08645
803.398	28.06293
803.811	-1.00243
804.224	-1.00236
804.637	-90.20335
805.05	-10.0219
805.462	22.05088
805.875	27.06821
806.288	-33.07722
806.7	-7.01679
807.112	-3.00657
807.525	1.00236
807.937	-24.05689
808.349	-10.02379
808.761	-50.1161
809.173	-48.11
809.584	-24.05621
809.996	-40.09453
810.408	-26.06497
810.819	-36.08104
811.231	22.05583
811.642	46.10804
812.053	-18.04163
812.464	-7.01598
812.875	-42.10374
813.286	-27.06648
813.697	-38.08189
814.108	-21.04827
814.519	-17.03532
814.929	-26.0627
815.34	-36.08316
815.75	-46.11253
816.16	-64.15049
816.571	-23.05744
816.981	-57.12634
817.391	-23.05261
817.801	2.0048
818.211	22.04963
818.62	-50.11486
819.03	-43.09947
819.44	-18.04483
819.849	-12.02901
820.259	20.04884
820.668	12.0284
821.077	28.06612
821.486	-35.07916
821.895	-42.09706
822.304	-41.10506
822.713	-16.03568
823.122	8.01911
823.531	-8.01808
823.939	-7.01625
824.348	2.00463
824.756	-31.07387
825.164	-31.0739
825.573	-36.08666
825.981	8.01883
826.389	-45.1067
826.797	-14.03353
827.205	-28.06086
827.612	-16.03723
828.02	-6.01349
828.428	3.00724
828.835	-38.09681
829.243	-54.12226
829.65	-54.12959
830.057	8.01861
830.464	16.03736
830.871	-4.009
831.278	-48.10969
831.685	-83.17391
832.092	16.03725
832.499	-50.10261
832.905	4.00968
833.312	-8.01699
833.718	20.04683
834.124	1.00215
834.531	-21.05018
834.937	-20.04854
835.343	-41.09447
835.749	-48.10522
836.155	-35.08786
836.561	-105.24472
836.966	-19.04395
837.372	1.00241
837.777	-24.05663
838.183	-56.1145
838.588	-37.08847
838.993	-37.08464
839.399	-61.14229
839.804	-9.02113
840.209	-27.06655
840.613	-16.03387
841.018	-107.25956
841.423	-76.18599
841.828	-51.12367
842.232	-17.03919
842.637	-60.13252
843.041	7.01742
843.445	-43.10215
843.849	-17.04007
844.253	-25.05564
844.657	-8.0194
845.061	-10.02137
845.465	15.03506
845.869	-68.14969
846.272	-26.06028
846.676	26.05934
847.079	-6.01469
847.483	19.0446
847.886	-43.09761
848.289	6.01562
848.692	-32.07726
849.095	-30.06748
849.498	-61.14491
849.901	-63.13568
850.304	-33.07412
850.707	-3.00725
851.109	-87.20763
851.512	17.03983
851.914	30.07325
852.316	7.01689
852.718	-23.05778
853.121	-21.04898
853.523	-7.01535
853.925	-10.02504
854.326	-37.08982
854.728	-37.09134
855.13	13.03223
855.531	40.09134
855.933	-18.0407
856.334	-19.04547
856.736	-81.17114
857.137	-31.06825
857.538	-34.08184
857.939	-7.01657
858.34	-4.00914
858.741	-5.01247
859.142	0
859.542	19.04896
859.943	23.05451
860.343	-55.13172
860.744	-15.03488
861.144	-34.07892
861.544	-14.0325
861.945	-42.10179
862.345	-102.23562
862.745	-37.08783
863.145	-17.03746
863.544	5.01216
863.944	-59.13208
864.344	-75.17611
864.743	-30.07087
865.143	27.06569
865.542	-92.20328
865.941	33.07776
866.34	-14.03175
866.74	-24.06192
867.139	-18.04118
867.537	-46.11148
867.936	-2.00457
868.335	-4.00977
868.734	5.01231
869.132	-30.06651
869.531	11.02495
869.929	8.0173
870.327	-38.08659
870.726	7.01642
871.124	-16.03484
871.522	-31.07466
871.92	-28.0655
872.318	-5.0116
872.715	-8.01864
873.113	-4.00925
873.511	-23.0547
873.908	-2.00494
874.306	-37.0883
874.703	-9.02132
875.1	-3.00723
875.497	-79.18006
875.894	11.026
876.291	-17.03995
876.688	-39.09627
877.085	-29.06551
877.482	-32.07565
877.878	-26.05963
878.275	-49.11882
878.671	-51.1035
879.068	9.02038
879.464	10.02284
879.86	24.05405
880.256	-13.02993
880.652	-43.10459
881.048	-7.01619
881.444	-70.15635
881.84	-37.08939
882.236	-1.00239
882.631	-35.08199
883.027	-65.14755
883.422	-43.10517
883.817	-2.00485
884.213	-10.02453
884.608	-39.0924
885.003	-24.05511
885.398	-23.05485
885.793	-28.06661
886.188	0
886.582	-16.03824
886.977	-20.04469
887.371	-19.04568
887.766	-30.07194
888.16	-4.00948
888.554	-28.06489
888.949	-30.07054
889.343	-52.11917
889.737	1.0026
890.131	0
890.525	-33.08038
890.918	-12.02902
891.312	-61.13605
891.706	17.04286
892.099	-9.02167
892.492	-25.05039
892.886	-28.06458
893.279	-37.09029
893.672	-16.03901
894.065	-18.04262
894.458	-25.05973
894.851	-30.0685
895.244	-31.07588
895.637	-12.0274
896.029	-19.04404
896.422	5.01145
896.814	-9.02128
897.206	-11.02509
897.599	-103.23931
897.991	-4.00917
898.383	-12.02658
898.775	11.02304
899.167	-8.0178
899.559	-16.03827
899.951	-17.03763
900.342	-39.0929
900.734	-40.09727
901.125	-54.13489
901.517	-23.05397
901.908	12.02667
902.299	-25.05838
902.69	-3.00667
903.082	17.03862
903.473	-19.04364
903.863	-40.09894
904.254	0
904.645	-47.10972
905.036	-7.01633
905.426	-56.1171
905.817	12.02773
906.207	-15.03401
906.597	-27.05997
906.987	-49.12003
907.378	-43.10329
907.768	12.03039
908.158	-32.07436
908.547	-41.1021
908.937	-34.08296
909.327	-13.02967
909.717	-31.07418
910.106	-4.00906
910.495	-3.00714
910.885	-81.19376
911.274	-22.05262
911.663	17.04122
912.052	-49.11407
912.441	9.02194
912.83	0
913.219	-44.10904
913.608	26.05973
913.997	-60.14421
914.385	-78.17552
914.774	3.00685
915.162	-76.17207
915.55	-3.00684
915.939	-34.08243
916.327	29.06802
916.715	-12.02944
917.103	-7.01612
917.491	13.02979
917.878	-86.19906
918.266	-19.04694
918.654	-7.01725
919.041	-43.10806
919.429	34.07531
919.816	-54.13028
920.203	-44.10168
920.591	1.00232
920.978	-18.04156
921.365	-13.03242
921.752	-21.04757
922.139	34.06857
922.525	-12.0272
922.912	-23.05287
923.299	-26.06185
923.685	-56.14075
924.072	-5.01063
924.458	-28.06604
924.844	-38.08946
925.231	-52.11375
925.617	28.0686
926.003	-16.03892
926.389	-3.00726
926.774	15.03616
927.16	-1.00233
927.546	-24.0588
927.931	-16.03786
928.317	-58.12376
928.702	-38.08414
929.088	-41.09247
929.473	-22.05346
929.858	15.03489
930.243	-2.00456
930.628	-22.0505
931.013	34.08038
931.398	23.04857
931.783	-12.03015
932.167	-20.046
932.552	-11.02572
932.937	-74.17278
933.321	-33.07855
933.705	-18.04372
934.09	-15.03536
934.474	-5.01113
934.858	6.01488
935.242	-13.02884
935.626	-61.14925
936.009	-47.12026
936.393	-20.049
936.777	39.09518
937.16	-52.12815
937.544	-3.00659
937.927	-9.02181
938.311	-6.01368
938.694	4.01007
939.077	-50.11274
939.46	29.06703
939.843	-39.07415
940.226	-25.06081
940.609	-44.09478
940.991	-12.02906
941.374	-64.14849
941.757	-12.02792
942.139	-28.05839
942.522	14.03043
942.904	-44.10079
943.286	17.04037
943.668	-14.03454
944.05	2.00465
944.432	-17.03997
944.814	-18.04151
945.196	-53.12513
945.578	-25.05707
945.959	-26.05762
946.341	-47.10725
946.722	27.05937
947.104	-29.0649
947.485	-12.02613
947.866	13.0313
948.247	-23.05531
948.628	-31.07106
949.009	-28.06878
949.39	-55.12789
949.771	-49.10671
950.152	-10.02337
950.532	38.09088
950.913	-42.09486
951.293	-7.01832
951.674	-69.15784
952.054	-50.11885
952.434	-71.16724
952.814	-72.16002
953.194	23.05724
953.574	-45.10368
953.954	-25.05608
954.334	-3.00712
954.714	-42.09779
955.093	-48.11062
955.473	-66.15682
955.853	16.03948
956.232	-29.07656
956.611	-64.14289
956.99	-24.05771
957.37	-39.09496
957.749	-74.16638
958.128	-33.08026
958.506	-17.04254
958.885	-57.13697
959.264	-26.06061
959.643	0
960.021	-23.05422
960.4	23.04924
960.778	-39.08932
961.156	-25.0596
961.535	-83.17937
961.913	-89.1939
962.291	-11.02728
962.669	-61.14881
963.047	-66.15947
963.424	-43.10552
963.802	-54.12514
964.18	26.06142
964.557	-46.09807
964.935	-24.05332
965.312	4.00998
965.69	-50.11867
966.067	-18.04105
966.444	17.03933
966.821	-65.15993
967.198	-19.04275
967.575	-8.01833
967.952	9.01985
968.329	-27.06189
968.705	-31.0607
969.082	3.00736
969.458	-6.01378
969.835	-28.06437
970.211	-34.08355
970.587	-31.07336
970.963	-66.16218
971.339	-13.03274
971.715	-53.12406
972.091	-30.06983
972.467	-28.06504
972.843	-5.01175
973.219	-43.09606
973.594	-1.0025
973.97	25.05463
974.345	-17.03832
974.721	-4.00905
975.096	-63.14365
975.471	13.02896
975.846	26.05894
976.221	-4.00966
976.596	-33.07497
976.971	-22.05149
977.346	-28.06031
977.72	-8.0193
978.095	-22.05444
978.469	16.03583
978.844	27.06362
979.218	-21.04808
979.593	-21.04755
979.967	19.04374
980.341	-50.1078
980.715	-24.05711
981.089	-58.13712
981.463	-8.01743
981.837	-33.07728
982.21	-29.06278
982.584	-20.04534
982.957	-16.03828
983.331	20.04414
983.704	21.04889
984.078	-60.1402
984.451	-74.17183
984.824	15.03469
985.197	-29.06639
985.57	-45.10641
985.943	-91.21059
986.316	8.01845
986.688	-20.04524
987.061	-47.10287
987.434	-23.0574
987.806	-7.01588
988.179	-32.07071
988.551	5.01189
988.923	-80.18796
989.295	-11.02591
989.667	-14.0323
990.039	0
990.411	13.02819
990.783	9.01918
991.155	-16.03696
991.527	-4.00905
991.898	-45.10608
992.27	-27.06357
992.641	-2.00471
993.012	33.07281
993.384	2.00448
993.755	-24.05792
994.126	-10.02271
994.497	-13.03013
994.868	-1.00215
995.239	2.00459
995.61	-60.14399
995.98	-25.05818
996.351	-8.01892
996.722	-41.09069
997.092	6.0135
997.462	-22.0491
997.833	-4.00884
998.203	13.02933
998.573	-6.01427
998.943	-53.11615
999.313	-26.05927
999.683	-80.18134
1000.053	-2.00432
1000.423	-16.03671
1000.792	34.08342
1001.162	-1.00234
1001.531	14.0327
1001.901	-27.06352
1002.27	-4.00838
1002.639	1.00243
1003.009	20.04519
1003.378	-10.02436
1003.747	-19.04203
1004.116	-19.04322
1004.485	-37.0843
1004.853	-24.05788
1005.222	31.07444
1005.591	-20.04427
1005.959	-3.00641
1006.328	-18.03772
1006.696	-36.08303
1007.064	-15.03585
1007.433	20.04734
1007.801	-17.03908
1008.169	-15.03563
1008.537	38.07784
1008.905	-10.02199
1009.273	-9.02097
1009.64	-45.10257
1010.008	-3.00669
1010.375	20.04534
1010.743	1.0021
1011.11	-6.01339
1011.478	-9.02099
1011.845	-64.14023
1012.212	-67.14175
1012.579	-25.05836
1012.946	-74.16467
1013.313	43.09467
1013.68	-13.02701
1014.047	-12.0274
1014.414	-33.07445
1014.78	23.05437
1015.147	-55.12424
1015.513	19.04366
1015.88	-48.11546
1016.246	-26.06099
1016.612	-49.10444
1016.978	-37.08566
1017.344	3.00708
1017.71	-58.13137
1018.076	-5.01101
1018.442	-30.07323
1018.808	-38.0906
1019.174	-51.12134
1019.539	-30.06262
1019.905	-19.04252
1020.27	-47.11174
1020.636	31.06911
1021.001	-44.09897
1021.366	2.00461
1021.731	25.06103
1022.096	-16.03878
1022.461	-27.05942
1022.826	-30.06745
1023.191	-36.09064
1023.556	-52.11346
1023.92	-23.0528
1024.285	-47.10838
1024.649	-7.01619
1025.014	-60.14152
1025.378	10.02404
1025.742	5.01169
1026.107	-35.0732
1026.471	-47.101
1026.835	-95.2236
1027.199	-3.00685
1027.562	6.01312
1027.926	-12.02756
1028.29	-22.05314
1028.654	-35.07479
1029.017	-6.01397
1029.381	-38.08645
1029.744	-5.0122
1030.107	-12.02609
1030.471	-9.02016
1030.834	-10.02081
1031.197	-14.03118
1031.56	31.06897
1031.923	-39.09631
1032.286	-5.0109
1032.648	4.00889
1033.011	18.03857
1033.374	-12.026
1033.736	-41.10336
1034.099	14.03225
1034.461	20.04818
1034.823	-46.10854
1035.185	-42.09907
1035.548	-37.08512
1035.91	15.03394
1036.272	-6.01276
1036.634	-1.00227
1036.995	-1.00223
1037.357	-67.15604
1037.719	-32.07354
1038.08	-107.23835
1038.442	25.05668
1038.803	-36.08104
1039.165	-33.07948
1039.526	-33.07555
1039.887	19.04287
1040.248	24.05689
1040.609	-24.05601
1040.97	-16.03687
1041.331	-72.17154
1041.692	-12.02658
1042.053	-1.0021
1042.413	-17.03663
1042.774	16.03624
1043.134	-36.07978
1043.495	1.00235
1043.855	-24.05507
1044.215	-10.02337
1044.576	31.06983
1044.936	48.10215
1045.296	-19.04462
1045.656	-23.05333
1046.016	-19.04257
1046.375	15.03446
1046.735	-7.01504
1047.095	-28.06182
1047.454	-27.05287
1047.814	-74.16808
1048.173	-85.18958
1048.533	-26.0563
1048.892	-33.0757
1049.251	1.00237
1049.61	-95.22168
1049.969	12.02667
1050.328	-48.0957
1050.687	-39.08972
1051.046	-1.00231
1051.405	-70.16402
1051.763	-52.11365
1052.122	28.06643
1052.48	-28.06453
1052.839	-28.0622
1053.197	-40.08909
1053.555	-83.17206
1053.914	-30.06908
1054.272	-3.00678
1054.63	-87.20237
1054.988	-46.10317
1055.345	-33.06516
1055.703	-32.07192
1056.061	-41.10095
1056.419	-37.09214
1056.776	-28.06378
1057.134	-48.10446
1057.491	-59.14059
1057.848	-41.09631
1058.206	-51.11318
1058.563	10.02066
1058.92	-36.07698
1059.277	-50.11495
1059.634	-82.17914
1059.991	-31.07046
1060.348	13.0276
1060.704	-2.00449
1061.061	47.09817
1061.418	-29.06706
1061.774	34.07992
1062.131	39.1
1062.487	-55.12059
1062.843	-39.09229
1063.199	-16.03794
1063.555	-45.09933
1063.911	-59.14178
1064.267	-10.01861
1064.623	-39.09101
1064.979	-29.06275
1065.335	-59.13116
1065.691	-2.00455
1066.046	-37.07512
1066.402	-20.04247
1066.757	13.031
1067.112	-72.16646
1067.468	-10.02263
1067.823	-9.02042
1068.178	-31.0714
1068.533	-31.07037
1068.888	-13.02881
1069.243	2.00468
1069.598	-89.20326
1069.952	-16.03441
1070.307	-11.02624
1070.662	-78.17724
1071.016	-26.05519
1071.371	-43.09149
1071.725	-81.17916
1072.079	-47.10682
1072.434	-94.21844
1072.788	-1.00225
1073.142	50.11582
1073.496	-44.09885
1073.85	-31.06737
1074.203	-37.08454
1074.557	-6.01536
1074.911	-6.01325
1075.265	-87.18962
1075.618	9.02072
1075.971	-34.07582
1076.325	-22.05322
1076.678	-60.12975
1077.031	-23.04855
1077.385	-20.04136
1077.738	-8.0169
1078.091	-21.04554
1078.444	-80.17351
1078.796	14.03253
1079.149	-66.15446
1079.502	-49.10992
1079.855	-39.0863
1080.207	-17.03942
1080.56	-55.13612
1080.912	-45.10207
1081.264	-3.00678
1081.617	-22.05084
1081.969	-18.04403
1082.321	-17.03923
1082.673	-45.09825
1083.025	-28.06195
1083.377	-284.58859
1083.728	-79.17101
1084.08	22.05201
1084.432	-89.20006
1084.783	28.06166
1085.135	37.08844
1085.486	-53.11566
1085.838	-44.10302
1086.189	-53.12217
1086.54	-5.0112
1086.891	-16.03902
1087.242	-48.10996
1087.593	-47.10738
1087.944	-15.03155
1088.295	-20.0419
1088.646	-45.10368
1088.996	-62.1418
1089.347	-35.08077
1089.698	-6.01347
1090.048	-61.15069
1090.398	-10.02184
1090.749	-24.05431
1091.099	-9.02171
1091.449	-36.08448
1091.799	-11.02598
1092.149	-10.02363
1092.499	-18.04165
1092.849	-19.04599
1093.199	12.02813
1093.548	7.0159
1093.898	-32.07633
1094.248	-10.02438
1094.597	-26.06434
1094.947	-19.0484
1095.296	-54.12628
1095.645	-30.0741
1095.994	-15.03413
1096.343	8.01925
1096.692	-32.08152
1097.041	-48.12649
1097.39	-22.05211
1097.739	-5.01242
1098.088	-48.12207
1098.437	-24.06069
1098.785	-3.00768
1099.134	-54.13582
1099.482	-20.05237
1099.83	-4.00996
1100.179	-15.03796
1100.527	-50.1267
1100.875	-56.14251
1101.223	19.0484
1101.571	-44.11821
1101.919	-35.08861
1102.267	-7.01924
1102.615	8.0257
1102.962	8.02565
1103.31	5.01606
1103.658	4.01282
