Data from N3 R6 sample 2_Subt2__0__16-14-54-451.txt Node

Date: Fri Sep 19 16:14:54 PDT 2025
User: uwsun
Spectrometer: HDX01956
Trigger mode: 0
Integration Time (sec): 5.000000E-1
Scans to average: 1
Nonlinearity correction enabled: true
Boxcar width: 0
Storing dark spectrum: false
XAxis mode: Wavelengths
Number of Pixels in Spectrum: 2068
>>>>>Begin Spectral Data<<<<<
194.03	63.18127
194.578	84.27058
195.127	65.20703
195.676	50.15939
196.225	70.18284
196.773	105.28857
197.321	130.35574
197.87	168.42283
198.418	227.571
198.966	254.64748
199.513	241.59488
200.061	164.40743
200.609	187.48099
201.156	139.29356
201.704	166.40743
202.251	174.45137
202.798	216.54713
203.345	261.61999
203.892	170.41817
204.438	198.45901
204.985	195.45179
205.532	246.64009
206.078	206.49115
206.624	176.42589
207.17	178.40118
207.716	134.31692
208.262	189.35779
208.808	171.41652
209.354	173.41097
209.899	197.48038
210.445	180.4413
210.99	170.4019
211.535	219.4955
212.08	171.38565
212.625	212.51319
213.17	223.54397
213.715	192.41962
214.259	228.51408
214.804	225.53222
215.348	197.43482
215.892	216.50252
216.436	218.48872
216.98	166.3525
217.524	196.44843
218.068	237.5738
218.612	203.48965
219.155	225.50804
219.698	189.43094
220.242	176.42428
220.785	203.45818
221.328	175.42435
221.871	211.51451
222.414	154.36774
222.956	190.44552
223.499	189.40895
224.041	132.29459
224.583	179.36824
225.126	206.44297
225.668	176.41528
226.21	185.45011
226.751	160.33368
227.293	116.25588
227.835	173.40701
228.376	169.37209
228.918	202.49045
229.459	192.46827
230	123.28555
230.541	168.3709
231.082	164.38576
231.622	147.32854
232.163	184.43533
232.704	165.39559
233.244	168.40362
233.784	170.39879
234.324	209.44604
234.864	151.32953
235.404	175.39676
235.944	154.34965
236.484	180.42834
237.023	182.4164
237.563	179.39791
238.102	220.49625
238.641	179.44137
239.18	201.45497
239.719	195.47603
240.258	174.37352
240.797	217.50016
241.335	174.40514
241.874	157.29256
242.412	162.37497
242.95	206.47775
243.488	216.47107
244.026	175.39047
244.564	206.4021
245.102	163.3536
245.64	195.44982
246.177	188.40096
246.715	173.39541
247.252	151.3312
247.789	145.2461
248.326	161.37051
248.863	153.32171
249.4	224.491
249.936	118.2346
250.473	202.45323
251.009	232.51175
251.546	197.41751
252.082	210.44302
252.618	199.42838
253.154	190.43942
253.69	205.43959
254.226	178.40791
254.761	122.26235
255.297	220.46044
255.832	190.42963
256.367	176.397
256.903	135.28499
257.438	138.31065
257.972	188.39713
258.507	193.43063
259.042	137.28108
259.576	152.31756
260.111	215.47157
260.645	186.38704
261.179	190.4228
261.713	203.42797
262.247	255.56354
262.781	227.45499
263.315	202.47607
263.849	188.45355
264.382	205.44718
264.915	209.47269
265.449	183.43305
265.982	165.35657
266.515	219.51181
267.048	257.5156
267.58	208.42433
268.113	249.51294
268.646	233.55519
269.178	203.43417
269.71	186.38635
270.243	159.34992
270.775	193.47431
271.307	183.41709
271.838	189.42728
272.37	253.5952
272.902	219.47832
273.433	187.38852
273.965	218.51497
274.496	169.40147
275.027	208.49268
275.558	195.45412
276.089	196.475
276.62	219.53143
277.15	206.48625
277.681	157.32153
278.211	195.45537
278.741	236.49961
279.272	182.40029
279.802	194.4682
280.332	189.42972
280.861	226.51956
281.391	204.44056
281.921	178.40709
282.45	240.58052
282.98	240.60185
283.509	234.49928
284.038	173.37257
284.567	195.42753
285.096	231.53455
285.625	261.56956
286.153	182.40953
286.682	246.52944
287.21	244.55869
287.739	211.47351
288.267	233.54217
288.795	245.61494
289.323	254.57293
289.851	220.48955
290.378	231.49427
290.906	208.48792
291.433	294.69447
291.961	206.44316
292.488	234.55789
293.015	275.61915
293.542	229.55402
294.069	264.61684
294.596	241.56874
295.122	220.50354
295.649	278.58337
296.175	248.56374
296.702	188.4341
297.228	192.44122
297.754	212.45372
298.28	251.53869
298.806	243.56143
299.332	221.46653
299.857	217.46592
300.383	250.59786
300.908	252.58973
301.433	282.65346
301.958	216.46767
302.483	271.65364
303.008	276.64159
303.533	235.5758
304.058	241.53861
304.582	278.62373
305.107	256.64451
305.631	261.55773
306.155	289.64294
306.679	252.56284
307.203	271.5979
307.727	260.59077
308.251	296.6897
308.775	252.56888
309.298	223.51768
309.822	244.58864
310.345	296.6622
310.868	295.66581
311.391	337.77608
311.914	295.7029
312.437	262.56023
312.96	309.68914
313.482	281.63421
314.005	270.64618
314.527	332.8268
315.049	309.73314
315.571	335.71461
316.093	365.8516
316.615	309.70991
317.137	323.6498
317.659	323.7278
318.18	339.76884
318.702	351.76399
319.223	290.55827
319.744	361.75703
320.265	319.73317
320.786	334.78006
321.307	398.92657
321.828	425.89122
322.348	380.83711
322.869	315.68856
323.389	275.48348
323.909	385.82018
324.43	385.85434
324.95	445.9381
325.47	407.93463
325.989	457.00617
326.509	374.76852
327.029	428.88662
327.548	439.91042
328.067	393.88079
328.587	451.03643
329.106	411.85806
329.625	447.06356
330.144	394.83297
330.662	418.89492
331.181	486.03587
331.7	456.97542
332.218	482.95516
332.736	436.92942
333.255	468.99416
333.773	466.01036
334.291	527.1756
334.808	458.92203
335.326	514.04676
335.844	530.12494
336.361	530.21708
336.879	493.04149
337.396	515.11039
337.913	521.0714
338.43	621.24298
338.947	584.24243
339.464	549.04486
339.981	598.26895
340.497	556.23809
341.014	530.15572
341.53	625.25504
342.046	612.34212
342.562	601.33594
343.078	594.23687
343.594	602.28744
344.11	614.28878
344.626	666.49067
345.141	668.33998
345.657	687.32835
346.172	591.26143
346.687	673.3522
347.202	680.3239
347.717	726.50274
348.232	694.52597
348.747	647.30288
349.261	703.3535
349.776	686.39262
350.29	690.50383
350.805	716.52428
351.319	742.48933
351.833	745.46063
352.347	685.37508
352.861	767.52931
353.374	761.47729
353.888	710.47679
354.401	782.52209
354.915	786.50379
355.428	795.70249
355.941	807.59874
356.454	847.57816
356.967	790.596
357.48	776.50682
357.993	774.63289
358.505	829.74405
359.018	837.70766
359.53	783.60316
360.042	800.46207
360.554	905.80899
361.066	845.72711
361.578	905.62736
362.09	864.72416
362.602	916.64677
363.113	830.58352
363.625	900.68414
364.136	935.6617
364.647	849.657
365.158	951.81696
365.669	965.92906
366.18	918.73056
366.691	997.75573
367.201	895.76011
367.712	949.72149
368.222	1005.87963
368.733	942.67201
369.243	950.6697
369.753	967.7942
370.263	1025.9416
370.773	1023.05205
371.282	1066.00479
371.792	1096.95518
372.301	1119.13914
372.811	1119.33125
373.32	1094.78291
373.829	1151.13398
374.338	1251.07361
374.847	1229.11404
375.356	1315.35618
375.865	1325.02606
376.373	1408.29161
376.882	1474.71954
377.39	1450.53781
377.898	1486.6768
378.407	1505.31879
378.915	1590.2693
379.423	1740.72784
379.93	1736.53923
380.438	1814.92633
380.946	1930.81934
381.453	1986.95344
381.96	2069.9529
382.468	2253.05536
382.975	2381.26337
383.482	2463.83694
383.989	2470.52913
384.495	2601.98139
385.002	2721.52209
385.509	2897.02853
386.015	3078.27631
386.521	3190.7202
387.028	3338.77182
387.534	3331.4739
388.04	3574.92167
388.546	3620.49437
389.051	3770.35488
389.557	4122.52911
390.063	4528.30571
390.568	4491.45396
391.073	4783.92944
391.578	4877.27663
392.084	5039.61878
392.589	5233.44556
393.093	5654.61774
393.598	6195.21362
394.103	6747.38646
394.607	7375.47373
395.112	7853.89427
395.616	8518.56053
396.12	9316.08388
396.624	9985.97784
397.128	10948.59347
397.632	12066.75736
398.136	13278.20893
398.639	14256.12447
399.143	15585.51873
399.646	17677.6999
400.15	19910.75475
400.653	21683.0082
401.156	24837.19658
401.659	28647.47755
402.162	35119.17882
402.664	46082.57746
403.167	60355.21977
403.67	60731.40778
404.172	55487.84425
404.674	37291.05854
405.176	4428.40989
405.678	533.47942
406.18	0
406.682	0
407.184	6962.89417
407.686	50953.82939
408.187	59237.6763
408.688	61091.12691
409.19	61923.45898
409.691	62441.93235
410.192	55945.38145
410.693	48917.7568
411.194	43942.65706
411.694	41566.89618
412.195	38217.86381
412.696	34600.05163
413.196	31992.55428
413.696	31181.50727
414.196	31439.7334
414.696	30750.96802
415.196	29222.83897
415.696	26639.65967
416.196	21630.44628
416.695	16718.77571
417.195	14282.38925
417.694	13524.14234
418.194	12820.02326
418.693	11814.41059
419.192	11511.38771
419.691	11337.49274
420.19	11026.96655
420.688	10944.40273
421.187	10234.35008
421.685	9687.06002
422.184	8762.91826
422.682	7509.27661
423.18	6494.21887
423.678	5706.38381
424.176	5304.59441
424.674	4991.50992
425.172	4825.0337
425.669	4426.65615
426.167	4105.37314
426.664	3848.42392
427.161	3512.57678
427.659	3329.12028
428.156	3203.31718
428.652	2862.36376
429.149	2773.12073
429.646	2550.57524
430.143	2499.03954
430.639	2401.94549
431.135	2153.05437
431.632	2050.65699
432.128	2054.92114
432.624	1845.00002
433.12	1907.61857
433.616	1719.32102
434.111	1741.68047
434.607	1622.57872
435.103	1566.06375
435.598	1570.04854
436.093	1431.29252
436.588	1420.19492
437.083	1329.10876
437.578	1319.1285
438.073	1181.20059
438.568	1182.16078
439.062	1150.78923
439.557	1120.96532
440.051	1062.82925
440.546	1011.78786
441.04	947.7605
441.534	1018.04434
442.028	992.86302
442.522	893.72901
443.015	931.5838
443.509	913.80228
444.002	947.85378
444.496	827.41548
444.989	901.78936
445.482	869.75138
445.975	871.59571
446.468	809.39719
446.961	780.33161
447.454	750.36844
447.947	827.62697
448.439	834.67807
448.931	767.42036
449.424	712.4849
449.916	775.53169
450.408	752.42754
450.9	700.42625
451.392	714.5312
451.884	625.19558
452.375	609.28979
452.867	640.21221
453.358	605.15222
453.849	657.15521
454.341	668.26288
454.832	603.09945
455.323	630.31601
455.814	657.25872
456.304	604.17793
456.795	642.21956
457.285	603.11947
457.776	530.01671
458.266	577.19049
458.756	527.08522
459.247	571.16385
459.737	535.12198
460.226	598.14245
460.716	529.10449
461.206	511.05504
461.695	513.13395
462.185	531.09396
462.674	471.93663
463.163	494.93914
463.653	503.9137
464.142	469.99043
464.63	479.02733
465.119	485.99412
465.608	421.85554
466.096	437.83906
466.585	411.82836
467.073	429.90041
467.561	462.99936
468.05	413.84273
468.538	474.04084
469.026	412.88741
469.513	400.74449
470.001	396.79795
470.489	431.9046
470.976	381.78661
471.463	481.06841
471.951	416.93175
472.438	397.83729
472.925	322.67659
473.412	391.85213
473.899	371.76803
474.385	315.70629
474.872	316.6675
475.359	306.684
475.845	265.5002
476.331	309.59929
476.817	244.54408
477.303	278.59135
477.789	314.68855
478.275	297.67934
478.761	286.62874
479.247	255.52033
479.732	283.65591
480.218	246.59615
480.703	316.72962
481.188	233.45664
481.673	256.54219
482.158	250.49402
482.643	247.58312
483.128	210.44282
483.612	187.40653
484.097	250.56506
484.581	208.4415
485.066	212.47781
485.55	170.34571
486.034	255.513
486.518	229.50101
487.002	217.49677
487.486	211.48207
487.969	233.5379
488.453	187.44593
488.936	176.36966
489.42	198.40871
489.903	185.4388
490.386	204.40766
490.869	169.33733
491.352	155.35513
491.835	140.26769
492.318	217.45849
492.8	141.27071
493.283	156.3792
493.765	143.33578
494.247	173.37498
494.73	152.31573
495.212	131.29858
495.694	150.3313
496.175	106.24077
496.657	233.52073
497.139	73.11453
497.62	155.35056
498.102	131.3112
498.583	98.23178
499.064	166.35327
499.545	157.33666
500.026	127.26916
500.507	98.21437
500.988	146.34021
501.469	77.18419
501.949	136.31541
502.43	109.24633
502.91	143.27641
503.39	122.29021
503.87	106.23881
504.35	86.19145
504.83	94.19656
505.31	116.26946
505.79	114.26009
506.269	75.16665
506.749	99.21513
507.228	87.19565
507.707	108.22714
508.187	108.24332
508.666	47.11092
509.145	87.19452
509.623	69.1553
510.102	48.11176
510.581	100.22797
511.059	87.21184
511.538	113.27843
512.016	133.30399
512.494	71.16411
512.972	110.25188
513.45	79.17824
513.928	108.25087
514.406	127.29856
514.884	112.27987
515.361	109.25214
515.839	73.15897
516.316	44.1016
516.793	75.18214
517.27	76.17808
517.747	73.1812
518.224	28.06239
518.701	78.16708
519.178	84.2045
519.654	11.02486
520.131	21.04998
520.607	57.1364
521.083	77.16996
521.56	18.04112
522.036	90.18953
522.512	72.17068
522.987	64.14855
523.463	69.15873
523.939	65.15352
524.414	74.16255
524.89	74.1674
525.365	82.18005
525.84	67.158
526.315	14.0326
526.79	21.04556
527.265	34.07403
527.74	68.15939
528.215	98.22196
528.689	99.21257
529.164	23.04732
529.638	57.14221
530.112	67.15443
530.587	69.14349
531.061	64.1499
531.534	76.17577
532.008	43.10073
532.482	20.04356
532.956	46.11574
533.429	-21.0485
533.903	23.04879
534.376	45.09562
534.849	73.16349
535.322	43.09824
535.795	33.07824
536.268	69.16114
536.741	49.11362
537.213	73.16282
537.686	26.06116
538.158	35.07622
538.631	31.07251
539.103	27.05872
539.575	34.06816
540.047	25.0531
540.519	48.10982
540.991	26.06118
541.463	100.23321
541.934	20.04464
542.406	55.12718
542.877	80.1727
543.348	-33.07628
543.82	22.05229
544.291	3.0067
544.762	8.01847
545.233	50.123
545.703	35.07541
546.174	54.12201
546.645	69.16253
547.115	72.16784
547.585	71.15947
548.056	78.18519
548.526	92.20863
548.996	84.19412
549.466	34.08001
549.935	109.25174
550.405	63.13486
550.875	62.14128
551.344	100.23247
551.814	48.10491
552.283	110.22584
552.752	63.14133
553.221	61.12787
553.69	97.20737
554.159	117.2803
554.628	74.15913
555.096	48.11808
555.565	83.17706
556.033	54.12226
556.502	69.16069
556.97	82.17329
557.438	88.20029
557.906	34.0782
558.374	18.04012
558.842	36.08372
559.31	30.06457
559.777	31.07333
560.245	16.03608
560.712	-32.07142
561.18	15.03211
561.647	-2.00434
562.114	9.02002
562.581	59.14124
563.048	28.06166
563.514	51.122
563.981	47.10339
564.448	67.14522
564.914	65.14509
565.381	1.00218
565.847	83.18543
566.313	57.12739
566.779	135.29211
567.245	91.20447
567.711	33.07743
568.176	106.23402
568.642	72.176
569.108	82.19454
569.573	65.14533
570.038	102.2061
570.504	148.31908
570.969	58.1403
571.434	119.25165
571.899	135.30807
572.363	110.23868
572.828	170.3632
573.293	97.21375
573.757	167.36537
574.222	192.40878
574.686	161.3445
575.15	152.34525
575.614	129.28116
576.078	130.29037
576.542	208.44631
577.006	179.384
577.469	177.41041
577.933	138.29126
578.396	214.4835
578.86	187.41189
579.323	164.37069
579.786	179.3611
580.249	167.3612
580.712	155.3567
581.175	193.44981
581.637	217.47215
582.1	166.34019
582.563	146.28607
583.025	184.42165
583.487	131.24836
583.95	133.27238
584.412	155.3032
584.874	148.34025
585.336	169.38004
585.797	126.2574
586.259	87.19284
586.721	134.29979
587.182	150.32561
587.643	132.28373
588.105	136.30728
588.566	165.32567
589.027	157.36318
589.488	71.15468
589.949	110.25157
590.41	146.27132
590.87	108.22944
591.331	77.15598
591.791	32.07053
592.252	66.14541
592.712	79.18188
593.172	83.17883
593.632	62.1262
594.092	101.21406
594.552	122.24606
595.011	121.26652
595.471	76.16251
595.931	83.17621
596.39	77.1777
596.849	42.09408
597.308	69.14233
597.768	77.18868
598.227	85.19639
598.685	57.12334
599.144	34.0767
599.603	134.30029
600.062	2.00404
600.52	72.15436
600.978	66.15161
601.437	25.05504
601.895	71.14363
602.353	44.09258
602.811	92.19383
603.269	62.14168
603.727	44.10168
604.184	81.17467
604.642	87.20301
605.099	108.23684
605.557	22.05123
606.014	83.16967
606.471	136.3265
606.928	182.38074
607.385	145.34114
607.842	175.38125
608.299	151.33064
608.755	137.312
609.212	165.34679
609.668	110.23369
610.125	113.25714
610.581	103.22678
611.037	130.27786
611.493	92.20498
611.949	63.14579
612.405	157.29721
612.861	95.2082
613.316	171.38659
613.772	115.25043
614.227	97.21814
614.683	198.39255
615.138	133.29872
615.593	73.16039
616.048	99.21128
616.503	150.34636
616.958	92.22011
617.412	149.3315
617.867	155.32634
618.321	106.2012
618.776	133.27559
619.23	139.31066
619.684	144.30098
620.138	63.13609
620.592	66.1524
621.046	128.28081
621.5	84.19358
621.954	114.23955
622.407	136.28237
622.861	44.10083
623.314	91.1964
623.768	87.19316
624.221	146.26969
624.674	84.18125
625.127	94.20848
625.58	67.14119
626.033	88.1801
626.485	63.14336
626.938	93.20794
627.39	87.19195
627.843	76.16512
628.295	99.21651
628.747	78.17609
629.199	130.28039
629.651	62.13464
630.103	118.25626
630.555	82.16196
631.006	68.15132
631.458	19.04231
631.909	83.17829
632.361	35.07706
632.812	69.15217
633.263	73.14679
633.714	20.04017
634.165	-23.05278
634.616	41.09243
635.067	70.14404
635.518	-6.01355
635.968	39.0735
636.419	46.09337
636.869	12.0271
637.319	88.19184
637.769	71.1514
638.219	11.02474
638.669	42.09625
639.119	52.12022
639.569	36.08409
640.019	47.10283
640.468	49.10217
640.918	80.18164
641.367	53.11336
641.816	43.09197
642.265	58.12751
642.714	57.1265
643.163	54.11617
643.612	50.11656
644.061	21.04209
644.51	61.13307
644.958	65.13565
645.406	27.06241
645.855	43.1005
646.303	65.14329
646.751	91.19766
647.199	-18.03882
647.647	56.12462
648.095	8.01755
648.543	36.06873
648.99	70.16029
649.438	47.10565
649.885	38.09109
650.333	37.06658
650.78	88.20587
651.227	77.17996
651.674	67.14584
652.121	10.02313
652.568	27.0632
653.015	32.07618
653.461	43.09805
653.908	39.08673
654.354	29.06543
654.801	44.09925
655.247	89.18309
655.693	42.10564
656.139	42.09625
656.585	52.11969
657.031	38.0861
657.477	45.09366
657.922	68.15057
658.368	55.12915
658.813	22.04782
659.259	44.10184
659.704	89.19875
660.149	66.14663
660.594	99.22336
661.039	97.21088
661.484	105.23758
661.929	67.14882
662.373	101.24639
662.818	84.20082
663.262	33.07616
663.707	40.09712
664.151	111.26064
664.595	40.09306
665.039	74.17502
665.483	81.19936
665.927	91.20187
666.371	82.18285
666.814	59.13442
667.258	111.25248
667.701	83.1659
668.145	57.13525
668.588	135.31439
669.031	63.14342
669.474	90.20592
669.917	81.16874
670.36	33.07843
670.803	99.22583
671.245	106.20818
671.688	69.16
672.13	39.08345
672.573	84.20511
673.015	70.15984
673.457	134.27598
673.899	73.16773
674.341	74.1702
674.783	69.15936
675.225	94.21982
675.666	109.25034
676.108	70.14521
676.549	93.20777
676.991	98.20284
677.432	61.11322
677.873	78.17069
678.314	34.07782
678.755	97.22608
679.196	125.27175
679.637	107.24516
680.078	85.18793
680.518	63.1369
680.959	59.13491
681.399	66.15531
681.839	104.23967
682.28	82.19454
682.72	70.15156
683.16	94.22387
683.6	111.23772
684.039	115.22229
684.479	67.15769
684.919	107.23647
685.358	115.27519
685.798	57.14277
686.237	121.27478
686.676	128.27762
687.115	99.21998
687.554	109.24432
687.993	40.08283
688.432	120.26082
688.871	115.24543
689.309	182.4169
689.748	123.23912
690.186	101.22527
690.625	154.34454
691.063	161.36591
691.501	110.25834
691.939	105.24905
692.377	119.27539
692.815	149.33933
693.253	112.25089
693.69	106.21851
694.128	145.33502
694.565	154.34511
695.003	174.41629
695.44	116.25588
695.877	88.19753
696.314	152.30149
696.751	134.28331
697.188	142.30772
697.625	132.27982
698.061	125.28329
698.498	156.35261
698.934	146.32637
699.371	103.23115
699.807	151.33539
700.243	193.4381
700.679	121.25678
701.115	124.27158
701.551	181.39918
701.987	173.3551
702.422	184.4052
702.858	162.35705
703.294	144.30125
703.729	212.48425
704.164	199.4486
704.599	192.39045
705.035	151.31624
705.47	233.53125
705.904	194.41609
706.339	141.30092
706.774	148.32154
707.209	138.29662
707.643	199.4431
708.078	156.35419
708.512	163.39079
708.946	187.41241
709.38	195.42392
709.814	185.38693
710.248	176.39359
710.682	205.45551
711.116	177.39836
711.549	141.34075
711.983	174.36917
712.416	170.36761
712.85	255.58915
713.283	160.35249
713.716	239.54867
714.149	163.35602
714.582	217.44642
715.015	203.46697
715.448	124.28963
715.881	156.30653
716.313	239.51625
716.746	214.4671
717.178	211.46572
717.61	207.48775
718.043	184.42165
718.475	151.33971
718.907	178.41167
719.339	191.39877
719.77	209.4642
720.202	205.47928
720.634	182.4154
721.065	221.47881
721.497	233.52653
721.928	183.42079
722.359	187.42603
722.79	210.46323
723.221	161.37376
723.652	180.42735
724.083	166.34358
724.514	146.30394
724.945	161.35165
725.375	166.3588
725.806	143.32672
726.236	181.43014
726.666	157.34131
727.096	211.47254
727.526	181.42981
727.956	190.39607
728.386	155.34842
728.816	199.4689
729.246	208.47052
729.675	204.46917
730.105	187.42242
730.534	194.41663
730.964	176.40721
731.393	184.41267
731.822	201.47785
732.251	244.57258
732.68	125.26596
733.109	166.38117
733.537	197.43701
733.966	158.36309
734.395	183.38394
734.823	193.39221
735.251	173.38585
735.68	275.62118
736.108	168.39255
736.536	192.41465
736.964	144.30725
737.392	162.37303
737.82	133.29479
738.247	169.36912
738.675	202.434
739.102	194.45419
739.53	228.54005
739.957	164.39087
740.384	166.37292
740.811	181.42782
741.238	216.47865
741.665	244.52129
742.092	189.40843
742.519	161.37524
742.945	172.37988
743.372	212.48464
743.798	188.44737
744.225	195.42338
744.651	144.33476
745.077	220.50293
745.503	207.45823
745.929	235.50957
746.355	211.47001
746.781	208.47205
747.207	210.4576
747.632	193.43721
748.058	205.46477
748.483	170.35391
748.908	185.4242
749.334	241.53861
749.759	175.37737
750.184	163.35797
750.609	226.50311
751.033	204.42904
751.458	233.47523
751.883	222.49871
752.307	255.55223
752.732	176.41415
753.156	178.40545
753.58	214.45978
754.005	253.59172
754.429	123.26353
754.853	196.44951
755.277	218.47362
755.7	193.43935
756.124	198.45956
756.548	250.54082
756.971	215.47694
757.394	177.42322
757.818	278.65795
758.241	193.44928
758.664	209.49227
759.087	249.51202
759.51	222.50566
759.933	228.50503
760.356	238.5585
760.778	294.66558
761.201	161.35403
761.623	207.44943
762.046	192.40362
762.468	263.56639
762.89	227.51109
763.312	224.49411
763.734	234.5153
764.156	246.55579
764.578	181.37471
765	185.41517
765.421	203.48705
765.843	218.53108
766.264	213.46423
766.686	273.62897
767.107	200.4515
767.528	223.52688
767.949	197.46257
768.37	163.36821
768.791	213.46699
769.212	222.52259
769.632	116.25084
770.053	174.42896
770.473	187.41966
770.894	160.36563
771.314	178.38375
771.734	150.3195
772.154	179.42719
772.575	212.4437
772.994	169.35284
773.414	114.2481
773.834	185.43066
774.254	158.35553
774.673	156.34872
775.093	184.42402
775.512	135.31266
775.931	185.43964
776.351	119.27407
776.77	148.33793
777.189	141.30705
777.607	144.34504
778.026	210.48471
778.445	122.29066
778.864	115.27498
779.282	106.23529
779.701	161.37716
780.119	99.23364
780.537	96.2245
780.955	139.32792
781.373	104.24034
781.791	173.35751
782.209	168.35597
782.627	126.3144
783.045	95.2031
783.462	73.17495
783.88	70.17296
784.297	126.29638
784.715	123.30184
785.132	79.17926
785.549	128.30343
785.966	98.23034
786.383	67.15665
786.8	99.21394
787.217	79.17467
787.633	84.19805
788.05	83.17806
788.466	96.20821
788.883	86.20936
789.299	55.12328
789.715	108.247
790.131	96.22229
790.547	5.01166
790.963	61.14296
791.379	91.2171
791.795	74.15659
792.21	74.1607
792.626	81.17909
793.041	28.06504
793.457	30.06985
793.872	35.07774
794.287	88.20215
794.702	62.14277
795.117	-17.04014
795.532	64.15371
795.947	56.12488
796.362	81.17812
796.776	17.03616
797.191	12.02774
797.605	73.16437
798.02	88.20239
798.434	52.10642
798.848	-2.00466
799.262	47.11234
799.676	37.08416
800.09	37.08549
800.504	21.04813
800.918	13.02829
801.331	62.15252
801.745	-28.06081
802.158	27.06387
802.572	52.11763
802.985	12.02702
803.398	-18.04084
803.811	38.09185
804.224	48.11207
804.637	-10.02223
805.05	33.07162
805.462	39.0899
805.875	46.11582
806.288	51.11737
806.7	13.03106
807.112	-13.02853
807.525	45.1053
807.937	22.05169
808.349	19.04495
808.761	-46.10673
809.173	-20.04558
809.584	18.04181
809.996	-9.02114
810.408	-8.01993
810.819	49.10838
811.231	40.10118
811.642	76.17745
812.053	61.13886
812.464	88.19704
812.875	61.14781
813.286	16.03908
813.697	-8.01713
814.108	1.00229
814.519	-18.03741
814.929	2.0048
815.34	-10.02298
815.75	15.03628
816.16	-25.05834
816.571	-24.05995
816.981	-39.08612
817.391	4.0091
817.801	43.10247
818.211	25.05636
818.62	-34.07785
819.03	-8.01838
819.44	12.02973
819.849	57.13598
820.259	43.10455
820.668	46.10816
821.077	-13.03094
821.486	-17.03831
821.895	-10.02296
822.304	-14.0357
822.713	-5.01112
823.122	2.00478
823.531	65.14467
823.939	0
824.348	18.0415
824.756	16.03778
825.164	4.00947
825.573	-3.00718
825.981	41.09586
826.389	-25.05905
826.797	13.03098
827.205	59.12586
827.612	28.06458
828.02	17.03804
828.428	16.03851
828.835	-34.08656
829.243	23.05126
829.65	7.0166
830.057	37.08556
830.464	-4.00938
830.871	10.02245
831.278	-48.10969
831.685	38.07749
832.092	29.06735
832.499	13.0263
832.905	44.10567
833.312	7.01482
833.718	2.0047
834.124	46.09811
834.531	22.05213
834.937	-38.09255
835.343	43.09741
835.749	-11.02392
836.155	-5.01248
836.561	-28.06427
836.966	15.03446
837.372	-12.02898
837.777	-8.01882
838.183	-49.10003
838.588	14.03315
838.993	10.02266
839.399	-51.11873
839.804	1.00234
840.209	-1.00245
840.613	30.06287
841.018	-32.07653
841.423	-34.08256
841.828	-23.05548
842.232	-1.0023
842.637	-25.05481
843.041	31.07681
843.445	2.00471
843.849	-1.00235
844.253	-28.06236
844.657	24.05786
845.061	26.05514
845.465	69.15955
845.869	-4.00869
846.272	0
846.676	31.07069
847.079	19.0463
847.483	21.04927
847.886	-19.04292
848.289	39.10095
848.692	-68.1653
849.095	-27.06069
849.498	6.01407
849.901	-40.08572
850.304	-8.01788
850.707	1.00241
851.109	-27.0637
851.512	12.02814
851.914	34.08296
852.316	35.08398
852.718	33.08206
853.121	33.07616
853.523	-13.02855
853.925	0
854.326	40.0957
854.728	2.0049
855.13	23.05692
855.531	17.039
855.933	16.03593
856.334	-18.04307
856.736	-45.09433
857.137	-28.06161
857.538	-4.00957
857.939	-15.03557
858.34	5.0114
858.741	-9.02245
859.142	15.03402
859.542	67.1712
859.943	41.09684
860.343	-5.01186
860.744	36.08286
861.144	1.00231
861.544	-12.02784
861.945	-43.10423
862.345	-61.13976
862.745	6.01412
863.145	-7.01539
863.544	52.12536
863.944	31.06811
864.344	-2.00463
864.743	43.10014
865.143	11.02684
865.542	21.0453
865.941	85.19827
866.34	32.07189
866.74	-16.04122
867.139	-25.05728
867.537	-15.03614
867.936	16.03642
868.335	52.12574
868.734	19.04664
869.132	52.11331
869.531	16.03625
869.929	37.07951
870.327	0
870.726	7.01642
871.124	24.05181
871.522	-29.06982
871.92	15.0348
872.318	-2.00464
872.715	9.0209
873.113	20.04604
873.511	4.00946
873.908	7.01725
874.306	6.0142
874.703	-8.01895
875.1	4.00963
875.497	19.04245
875.894	15.03543
876.291	40.09295
876.688	-26.06403
877.085	1.00225
877.482	53.12324
877.878	22.04997
878.275	-15.03614
878.671	13.026
879.068	35.07884
879.464	-22.05058
879.86	56.12529
880.256	-19.0438
880.652	-12.02902
881.048	-26.06035
881.444	-58.12923
881.84	-26.06268
882.236	-3.00718
882.631	0
883.027	-78.17753
883.422	-38.09286
883.817	27.06505
884.213	10.02444
884.608	24.05617
885.003	25.05684
885.398	-37.08847
885.793	6.01418
886.188	36.08551
886.582	-8.01909
886.977	10.02221
887.371	24.05722
887.766	33.07818
888.16	17.04012
888.554	3.00691
888.949	-43.10136
889.343	3.0068
889.737	24.06215
890.131	1.00239
890.525	11.02657
890.918	34.0815
891.312	-30.06648
891.706	55.13771
892.099	17.04073
892.492	47.09316
892.886	-59.13692
893.279	-5.01213
893.672	17.04119
894.065	-20.04738
894.458	0
894.851	-5.01136
895.244	-13.03171
895.637	-4.00912
896.029	15.03453
896.422	22.05021
896.814	-30.07123
897.206	27.06112
897.599	-6.01367
897.991	-8.01836
898.383	9.01985
898.775	-6.01261
899.167	-18.04014
899.559	-2.00477
899.951	26.05704
900.342	-47.11213
900.734	1.00241
901.125	-13.03223
901.517	33.07658
901.908	3.00668
902.299	-12.02795
902.69	28.06187
903.082	8.01821
903.473	44.09978
903.863	23.05623
904.254	8.01728
904.645	4.00924
905.036	9.02093
905.426	-68.14257
905.817	-3.00695
906.207	-2.00452
906.597	-28.0622
906.987	-18.04384
907.378	-23.05504
907.768	-8.02033
908.158	0
908.547	-9.02228
908.937	-11.02672
909.327	4.0091
909.717	-18.04297
910.106	-14.03179
910.495	73.17121
910.885	-45.1069
911.274	10.02377
911.663	45.10855
912.052	1.00231
912.441	44.10656
912.83	-6.01282
913.219	-50.12404
913.608	0
913.997	-33.07891
914.385	14.03091
914.774	-11.02517
915.162	-39.08763
915.55	33.07473
915.939	-9.02172
916.327	27.06335
916.715	4.00979
917.103	24.05491
917.491	1.0023
917.878	-13.02965
918.266	-6.01479
918.654	45.10982
919.041	3.00748
919.429	49.1082
919.816	21.04995
920.203	18.04108
920.591	-19.0443
920.978	34.0777
921.365	-8.01993
921.752	25.05611
922.139	60.12029
922.525	-21.04769
922.912	-25.05749
923.299	2.00473
923.685	4.00994
924.072	-18.03839
924.458	-22.05183
924.844	18.04191
925.231	4.00865
925.617	13.03194
926.003	19.04592
926.389	20.0482
926.774	46.11022
927.16	5.01165
927.546	-12.02933
927.931	17.03997
928.317	-30.06362
928.702	-16.03526
929.088	-19.04266
929.473	25.06021
929.858	11.02561
930.243	-2.00456
930.628	-22.0505
931.013	83.19436
931.398	32.06745
931.783	18.04498
932.167	-44.10168
932.552	-31.07276
932.937	-1.0023
933.321	-29.06897
933.705	38.09133
934.09	9.02112
934.474	-4.0089
934.858	20.04947
935.242	40.08776
935.626	-45.10978
936.009	-10.02542
936.393	32.07764
936.777	50.12177
937.16	-62.15308
937.544	13.02848
937.927	-25.06076
938.311	20.04535
938.694	28.07017
939.077	-51.11502
939.46	40.09226
939.843	-37.07032
940.226	-37.09019
940.609	3.0064
940.991	-19.04607
941.374	-30.06914
941.757	18.04163
942.139	25.05152
942.522	19.04125
942.904	42.09455
943.286	-20.04783
943.668	15.03681
944.05	8.01856
944.432	41.0953
944.814	-16.03689
945.196	37.08583
945.578	-2.00454
945.959	33.07223
946.341	-32.0728
946.722	62.13533
947.104	-28.06264
947.485	-36.07878
947.866	-4.00966
948.247	31.07379
948.628	-11.02511
949.009	-6.01468
949.39	-30.06941
949.771	0
950.152	12.02792
950.532	35.08375
950.913	-8.01794
951.293	8.02088
951.674	15.03373
952.054	-38.09012
952.434	-36.08422
952.814	2.00438
953.194	20.0498
953.574	-33.07585
953.954	-8.01788
954.334	39.09183
954.714	-17.03939
955.093	-10.02287
955.473	-82.19544
955.853	16.03948
956.232	-22.05801
956.611	-39.08662
956.99	7.01673
957.37	-9.02179
957.749	-53.11865
958.128	28.06732
958.506	18.04475
958.885	-18.04293
959.264	-12.0279
959.643	-18.03849
960.021	38.08852
960.4	38.08108
960.778	10.02268
961.156	-16.03808
961.535	-76.16399
961.913	-59.12772
962.291	-13.03226
962.669	-29.07032
963.047	-13.0311
963.424	18.04367
963.802	-62.14391
964.18	30.07082
964.557	-9.01903
964.935	32.07026
965.312	21.05226
965.69	-23.0543
966.067	27.06102
966.444	5.01159
966.821	-16.03901
967.198	-12.02696
967.575	30.06823
967.952	86.18661
968.329	-15.0343
968.705	2.00389
969.082	42.10236
969.458	27.06159
969.835	15.03419
970.211	23.05592
970.587	18.04219
970.963	-21.05117
971.339	-10.02517
971.715	-37.08634
972.091	-1.00231
972.467	-33.07673
972.843	28.06538
973.219	-16.03555
973.594	-28.07025
973.97	4.00878
974.345	-18.04059
974.721	-28.06363
975.096	-91.20867
975.471	84.18436
975.846	29.0657
976.221	-11.0266
976.596	-10.02261
976.971	10.02326
977.346	-46.09947
977.72	-6.01447
978.095	19.04666
978.469	54.11997
978.844	2.00474
979.218	5.01139
979.593	16.03596
979.967	53.12119
980.341	-26.05577
980.715	5.01183
981.089	-34.08001
981.463	6.01304
981.837	-10.02331
982.21	25.05349
982.584	-49.11173
982.957	-2.00477
983.331	61.13346
983.704	35.08125
984.078	-27.06268
984.451	-10.02293
984.824	-16.03723
985.197	5.01137
985.57	-27.06362
985.943	-34.07779
986.316	26.05975
986.688	-11.02484
987.061	6.01299
987.434	24.05939
987.806	10.0226
988.179	-44.09747
988.551	-15.0358
988.923	10.02308
989.295	21.04916
989.667	-3.00691
990.039	8.01875
990.411	58.12456
990.783	-9.01926
991.155	1.0023
991.527	-25.05682
991.898	7.01633
992.27	5.0117
992.641	13.03053
993.012	64.14029
993.384	-3.00673
993.755	-30.07249
994.126	50.11219
994.497	-2.00463
994.868	12.02578
995.239	40.09111
995.61	-21.05002
995.98	-6.01391
996.351	23.05407
996.722	-9.01977
997.092	15.03368
997.462	0
997.833	17.03741
998.203	-35.07974
998.573	36.08491
998.943	-29.06323
999.313	-20.04554
999.683	-42.09447
1000.053	25.05375
1000.423	-10.02292
1000.792	-15.03714
1001.162	-9.02108
1001.531	35.08141
1001.901	1.00234
1002.27	8.01672
1002.639	28.06781
1003.009	65.14551
1003.378	-4.00973
1003.747	51.11116
1004.116	14.03163
1004.485	37.08304
1004.853	-2.0048
1005.222	34.08159
1005.591	-3.00662
1005.959	29.06157
1006.328	-17.03562
1006.696	-20.04598
1007.064	-1.00238
1007.433	38.08963
1007.801	14.03198
1008.169	-18.04279
1008.537	21.04318
1008.905	-22.04849
1009.273	21.04864
1009.64	19.04275
1010.008	28.06205
1010.375	67.15042
1010.743	49.10167
1011.11	-23.05151
1011.478	-2.00466
1011.845	-20.04342
1012.212	-34.07141
1012.579	-1.00232
1012.946	-17.03738
1013.313	39.08594
1013.68	-1.00207
1014.047	53.11943
1014.414	39.0867
1014.78	56.13152
1015.147	0
1015.513	62.14123
1015.88	-48.11546
1016.246	50.11555
1016.612	-9.01902
1016.978	-17.0392
1017.344	46.1077
1017.71	-34.07663
1018.076	58.12601
1018.442	13.03148
1018.808	-2.00474
1019.174	-45.10694
1019.539	-10.02078
1019.905	16.03555
1020.27	54.12588
1020.636	17.03801
1021.001	-9.0201
1021.366	31.07106
1021.731	56.13592
1022.096	-23.05582
1022.461	-35.07716
1022.826	23.05115
1023.191	28.06969
1023.556	-32.06952
1023.92	-10.0229
1024.285	6.01369
1024.649	6.01384
1025.014	4.00932
1025.378	30.07183
1025.742	33.07673
1026.107	-4.00831
1026.471	-12.02559
1026.835	-49.1143
1027.199	-41.09428
1027.562	33.07174
1027.926	12.02742
1028.29	3.00721
1028.654	11.02327
1029.017	6.01394
1029.381	-18.04079
1029.744	23.05582
1030.107	38.08175
1030.471	-4.00895
1030.834	-45.09437
1031.197	-18.04012
1031.56	31.06897
1031.923	-4.00981
1032.286	13.02824
1032.648	29.06412
1033.011	12.02575
1033.374	22.04733
1033.736	-7.01754
1034.099	27.06204
1034.461	19.04578
1034.823	0
1035.185	-11.02579
1035.548	-39.08975
1035.91	7.01586
1036.272	5.01061
1036.634	-13.02955
1036.995	43.09487
1037.357	-8.01841
1037.719	-13.02976
1038.08	-29.06356
1038.442	59.13284
1038.803	-22.04938
1039.165	-31.07464
1039.526	6.01363
1039.887	17.03837
1040.248	22.05217
1040.609	-19.0443
1040.97	-28.06468
1041.331	-60.14262
1041.692	26.05714
1042.053	-20.04208
1042.413	-12.02583
1042.774	13.02946
1043.134	-26.0575
1043.495	-28.0663
1043.855	37.08385
1044.215	-5.01167
1044.576	-17.03867
1044.936	74.15659
1045.296	-6.01405
1045.656	-11.02545
1046.016	-10.02236
1046.375	40.09145
1046.735	44.09352
1047.095	46.09998
1047.454	3.00583
1047.814	-16.03591
1048.173	-15.03297
1048.533	-8.01726
1048.892	-9.02055
1049.251	-8.01899
1049.61	-42.09698
1049.969	14.0311
1050.328	-13.02571
1050.687	28.06355
1051.046	28.0644
1051.405	-36.08379
1051.763	18.03876
1052.122	14.0333
1052.48	-59.13681
1052.839	6.01324
1053.197	-23.05104
1053.555	-48.09873
1053.914	2.00458
1054.272	23.05172
1054.63	-51.11779
1054.988	-44.09864
1055.345	-32.06317
1055.703	-13.0291
1056.061	-20.04905
1056.419	6.01483
1056.776	-9.02042
1057.134	-44.09568
1057.491	-8.01888
1057.848	-14.03271
1058.206	-27.05962
1058.563	47.0963
1058.92	-16.03407
1059.277	-29.06639
1059.634	-31.06699
1059.991	54.12061
1060.348	39.08233
1060.704	-33.07455
1061.061	-55.11748
1061.418	10.02294
1061.774	28.06589
1062.131	24.0617
1062.487	-31.06762
1062.843	0
1063.199	8.01888
1063.555	18.03921
1063.911	2.00475
1064.267	-12.02234
1064.623	2.00463
1064.979	-6.01292
1065.335	-38.08411
1065.691	2.00454
1066.046	11.02209
1066.402	9.01899
1066.757	30.07131
1067.112	-19.04346
1067.468	23.0517
1067.823	-4.00907
1068.178	30.06825
1068.533	-9.02034
1068.888	-6.01328
1069.243	29.06748
1069.598	-55.12475
1069.952	16.03417
1070.307	30.07101
1070.662	9.02009
1071.016	42.08783
1071.371	-21.04447
1071.725	-63.13883
1072.079	5.01124
1072.434	-8.01827
1072.788	55.12247
1073.142	53.1227
1073.496	-22.0492
1073.85	0
1074.203	-65.14935
1074.557	14.0357
1074.911	20.04391
1075.265	1.00214
1075.618	53.12095
1075.971	-32.07133
1076.325	5.01203
1076.678	-22.04719
1077.031	-21.04431
1077.385	48.09775
1077.738	24.05034
1078.091	28.06008
1078.444	-20.04282
1078.796	-15.03506
1079.149	-8.01851
1079.502	3.00666
1079.855	25.05458
1080.207	10.02306
1080.56	-4.00981
1080.912	-51.11582
1081.264	-7.01583
1081.617	-7.01613
1081.969	40.0968
1082.321	39.089
1082.673	-12.02602
1083.025	-41.09095
1083.377	0
1083.728	-4.00852
1084.08	17.04023
1084.432	-53.11826
1084.783	57.12476
1085.135	42.10029
1085.486	2.00431
1085.838	2.00464
1086.189	9.02049
1086.54	45.09974
1086.891	6.01457
1087.242	-39.08918
1087.593	-27.06144
1087.944	-9.01891
1088.295	-9.01881
1088.646	13.02961
1088.996	15.03377
1089.347	-67.1556
1089.698	-20.04502
1090.048	-36.08853
1090.398	26.05634
1090.749	11.02472
1091.099	32.07659
1091.449	-58.1367
1091.799	24.0563
1092.149	-11.026
1092.499	-22.05094
1092.849	20.04805
1093.199	0
1093.548	-10.02279
1093.898	16.03781
1094.248	17.04124
1094.597	14.03439
1094.947	-30.07656
1095.296	11.0254
1095.645	4.00982
1095.994	28.06316
1096.343	25.05996
1096.692	34.08561
1097.041	-12.03143
1097.39	-6.01417
1097.739	-1.00248
1098.088	-35.0888
1098.437	12.03015
1098.785	-21.05392
1099.134	9.02238
1099.482	-48.12628
1099.83	-14.03491
1100.179	49.1226
1100.527	-39.09864
1100.875	-25.06327
1101.223	36.09142
1101.571	-13.03475
1101.919	-26.06572
1102.267	-5.01374
1102.615	10.03211
1102.962	6.01925
1103.31	9.02889
1103.658	0
