Data from N3 R6 sample 10_Subt2__1__15-26-15-029.txt Node

Date: Fri Sep 19 15:26:15 PDT 2025
User: uwsun
Spectrometer: HDX01956
Trigger mode: 0
Integration Time (sec): 5.000000E-1
Scans to average: 1
Nonlinearity correction enabled: true
Boxcar width: 0
Storing dark spectrum: false
XAxis mode: Wavelengths
Number of Pixels in Spectrum: 2068
>>>>>Begin Spectral Data<<<<<
194.03	-3.00872
194.578	12.03898
195.127	10.03206
195.676	-9.02889
196.225	-17.04506
196.773	27.07512
197.321	-2.00559
197.87	71.1818
198.418	91.23448
198.966	54.14249
199.513	54.13786
200.061	86.21669
200.609	37.09765
201.156	25.05412
201.704	47.11789
202.251	36.0956
202.798	47.12262
203.345	85.20875
203.892	61.15307
204.438	64.1523
204.985	36.08603
205.532	87.23253
206.078	53.13006
206.624	70.17277
207.17	106.24243
207.716	3.00727
208.262	51.09981
208.808	32.07997
209.354	32.07808
209.899	18.04535
210.445	44.11059
210.99	46.11136
211.535	56.13091
212.08	51.11784
212.625	72.17888
213.17	67.16818
213.715	19.04304
214.259	80.18583
214.804	27.06631
215.348	30.06853
215.892	89.21224
216.436	90.20708
216.98	54.11747
217.524	32.07562
218.068	77.19203
218.612	45.11178
219.155	20.04705
219.698	46.10791
220.242	45.11117
220.785	61.14167
221.328	97.23866
221.871	57.14298
222.414	43.10486
222.956	-1.00243
223.499	86.19018
224.041	-3.00688
224.583	98.20529
225.126	29.06473
225.668	39.09447
226.21	33.08257
226.751	-34.07396
227.293	48.10739
227.835	13.03154
228.376	69.15511
228.918	75.18643
229.459	31.07787
230	55.1294
230.541	81.18208
231.082	41.09875
231.622	22.05044
232.163	95.22863
232.704	10.02468
233.244	28.06906
233.784	42.10099
234.324	38.08411
234.864	47.10483
235.404	35.08161
235.944	39.09061
236.484	15.03682
237.023	63.14759
237.563	29.06647
238.102	19.04462
238.641	78.1959
239.18	49.11434
239.719	71.17733
240.258	18.03994
240.797	50.11908
241.335	-7.01688
241.874	73.13887
242.412	37.08776
242.95	44.10531
243.488	27.06124
244.026	34.07807
244.564	79.15886
245.102	12.02687
245.64	73.17248
246.177	-19.04234
246.715	57.13332
247.252	11.02484
247.789	33.05771
248.326	16.03789
248.863	41.08834
249.4	83.18734
249.936	31.06288
250.473	45.10422
251.009	31.07126
251.546	43.0942
252.082	58.12644
252.618	70.15487
253.154	18.04305
253.69	25.05569
254.226	26.0614
254.761	56.12213
255.297	23.05024
255.832	27.06308
256.367	37.08583
256.903	9.01952
257.438	54.12365
257.972	9.01976
258.507	71.16241
259.042	-4.00847
259.576	35.07502
260.111	40.09097
260.645	91.19337
261.179	26.05982
261.713	39.08518
262.247	67.15388
262.781	42.08779
263.315	45.10929
263.849	64.15802
264.382	88.19672
264.915	73.16967
265.449	27.06582
265.982	15.03346
266.515	91.21801
267.048	69.14445
267.58	14.02982
268.113	63.13521
268.646	81.19863
269.178	30.06657
269.71	28.06021
270.243	42.0947
270.775	32.08098
271.307	4.00945
271.838	57.13233
272.37	103.24939
272.902	68.15326
273.433	31.06665
273.965	94.22738
274.496	26.06346
275.027	84.20373
275.558	49.11739
276.089	61.15158
276.62	8.02018
277.15	57.13843
277.681	8.01694
278.211	35.0843
278.741	71.15573
279.272	58.13089
279.802	82.20209
280.332	57.13306
280.861	82.19394
281.391	43.09606
281.921	57.13353
282.45	123.30407
282.98	96.24698
283.509	54.11972
284.038	17.03784
284.567	30.06806
285.096	84.20005
285.625	88.19907
286.153	27.06268
286.682	48.1077
287.21	68.1612
287.739	29.06751
288.267	53.1277
288.795	68.1761
289.323	109.25315
289.851	49.1129
290.378	64.14189
290.906	64.15435
291.433	76.18709
291.961	42.09354
292.488	86.21085
293.015	109.25375
293.542	71.17688
294.069	89.21509
294.596	119.28748
295.122	66.15573
295.649	115.25001
296.175	86.2019
296.702	90.21187
297.228	57.13452
297.754	82.18043
298.28	17.03832
298.806	115.27246
299.332	40.08779
299.857	42.09358
300.383	77.19022
300.908	119.28574
301.433	123.294
301.958	23.05185
302.483	86.21467
303.008	31.07554
303.533	33.08388
304.058	78.18018
304.582	82.19138
305.107	91.23587
305.631	113.24921
306.155	108.24929
306.679	59.13703
307.203	106.24194
307.727	96.22538
308.251	113.27278
308.775	87.20301
309.298	78.18626
309.822	77.19161
310.345	115.26687
310.868	64.15125
311.391	106.25535
311.914	110.27139
312.437	78.17343
312.96	109.25315
313.482	140.32507
314.005	120.29541
314.527	124.32045
315.049	99.24438
315.571	142.31559
316.093	159.38599
316.615	153.36248
317.137	106.22392
317.659	131.30676
318.18	166.38971
318.702	124.28291
319.223	128.25602
319.744	137.30151
320.265	106.25399
320.786	169.40749
321.307	148.36151
321.828	186.41063
322.348	175.40208
322.869	58.13366
323.389	266.46876
323.909	152.3402
324.43	142.33102
324.95	133.29958
325.47	174.41819
325.989	214.4961
326.509	149.32172
327.029	125.27649
327.548	174.38221
328.067	135.3186
328.587	187.45327
329.106	212.46215
329.625	164.41218
330.144	220.48284
330.662	173.39
331.181	223.50332
331.7	156.35534
332.218	242.50648
332.736	175.39418
333.255	216.48404
333.773	178.41036
334.291	210.49991
334.808	170.36493
335.326	222.48292
335.844	269.60441
336.361	195.47851
336.879	208.46765
337.396	208.47875
337.913	191.42264
338.43	276.59732
338.947	267.60803
339.464	227.46657
339.981	253.57801
340.497	235.55888
341.014	210.48972
341.53	276.59962
342.046	256.60425
342.562	282.66922
343.078	259.58027
343.594	331.7504
344.11	274.61905
344.626	346.82644
345.141	299.65165
345.657	264.5628
346.172	289.65812
346.687	343.74246
347.202	309.65543
347.717	359.80493
348.232	338.79961
348.747	349.7519
349.261	417.859
349.776	269.5987
350.29	321.75514
350.805	357.82016
351.319	373.81325
351.833	359.76879
352.347	314.68507
352.861	349.76416
353.374	356.75858
353.888	335.75576
354.401	348.74797
354.915	406.84894
355.428	416.96464
355.941	392.85268
356.454	458.93645
356.967	378.83654
357.48	391.82971
357.993	364.83775
358.505	414.95127
359.018	458.01365
359.53	386.86208
360.042	367.74478
360.554	411.91619
361.066	386.87168
361.578	472.94365
362.09	399.88282
362.602	401.81675
363.113	393.82995
363.625	467.96805
364.136	414.83575
364.647	429.92145
365.158	499.05649
365.669	549.20202
366.18	449.94446
366.691	479.95831
367.201	442.96264
367.712	461.94066
368.222	570.17945
368.733	534.04709
369.243	423.84667
369.753	470.98057
370.263	493.05378
370.773	549.22122
371.282	536.13868
371.792	530.08235
372.301	535.1664
372.811	572.33562
373.32	551.03341
373.829	673.39571
374.338	647.25028
374.847	607.2166
375.356	702.45495
375.865	703.27184
376.373	745.43656
376.882	773.67456
377.39	734.52474
377.898	850.77847
378.407	807.49681
378.915	808.43438
379.423	871.70643
379.93	909.66464
380.438	965.92639
380.946	1045.9373
381.453	1056.00629
381.96	1173.13622
382.468	1249.23974
382.975	1282.3712
383.482	1274.10675
383.989	1336.57281
384.495	1382.2915
385.002	1455.08524
385.509	1513.43997
386.015	1689.12836
386.521	1724.44828
387.028	1835.57722
387.534	1864.39859
388.04	1850.72666
388.546	1997.54595
389.051	2139.55022
389.557	2277.83549
390.063	2459.87934
390.568	2439.96746
391.073	2590.72397
391.578	2682.03898
392.084	2753.59181
392.589	2896.51775
393.093	3136.80674
393.598	3524.47583
394.103	3780.62973
394.607	4144.37483
395.112	4498.396
395.616	4674.11664
396.12	5157.5267
396.624	5609.34718
397.128	6053.29682
397.632	6694.02355
398.136	7269.16839
398.639	7979.77585
399.143	9032.4397
399.646	10208.88642
400.15	11256.63793
400.653	12628.26538
401.156	14413.42643
401.659	16628.98898
402.162	21322.44543
402.664	30652.06348
403.167	54074.12374
403.67	59668.61626
404.172	55487.84425
404.674	37291.05854
405.176	4428.40989
405.678	533.47942
406.18	0
406.682	0
407.184	6962.89417
407.686	50953.82939
408.187	59237.6763
408.688	49838.19629
409.19	37598.07096
409.691	31031.7221
410.192	26431.37834
410.693	23570.05392
411.194	21871.33794
411.694	20529.70005
412.195	18752.1294
412.696	17359.18384
413.196	16876.39001
413.696	16911.1517
414.196	16819.50875
414.696	16008.91698
415.196	14973.3216
415.696	12569.06713
416.196	9622.10291
416.695	7943.65516
417.195	7365.28432
417.694	7204.71688
418.194	6597.56691
418.693	6334.94271
419.192	6221.18952
419.691	6046.23547
420.19	5787.36241
420.688	5652.6481
421.187	5223.78945
421.685	5007.65759
422.184	4392.09621
422.682	3784.08663
423.18	3378.57976
423.678	2971.6433
424.176	2715.68684
424.674	2611.48741
425.172	2451.80195
425.669	2248.02023
426.167	2100.65874
426.664	1975.55459
427.161	1775.45249
427.659	1684.67829
428.156	1561.096
428.652	1490.61089
429.149	1462.44489
429.646	1309.98941
430.143	1258.19683
430.639	1182.06786
431.135	1048.99922
431.632	1093.87135
432.128	994.8805
432.624	954.9356
433.12	943.69586
433.616	884.51858
434.111	898.72257
434.607	872.68146
435.103	778.29475
435.598	764.26719
436.093	723.39007
436.588	739.36909
437.083	681.28028
437.578	623.2021
438.073	565.21263
438.568	612.27893
439.062	572.03886
439.557	474.97312
440.051	512.01002
440.546	546.08127
441.04	460.95929
441.534	518.15954
442.028	515.07949
442.522	435.93514
443.015	457.87746
443.509	497.07563
444.002	450.98505
444.496	379.72733
444.989	471.02795
445.482	394.88139
445.975	441.89618
446.468	378.72839
446.961	359.68296
447.454	341.68728
447.947	406.87862
448.439	421.92838
448.931	367.74819
449.424	308.70067
449.916	337.73508
450.408	328.68768
450.9	317.70288
451.392	335.77794
451.884	315.6486
452.375	304.68766
452.867	318.65051
453.358	260.53741
453.849	308.59178
454.341	311.64008
454.832	280.55304
455.323	311.69647
455.814	297.61925
456.304	323.67286
456.795	271.56203
457.285	293.58673
457.776	228.47
458.266	316.69118
458.756	241.52904
459.247	267.58266
459.737	297.65662
460.226	283.58272
460.716	279.6158
461.206	218.48047
461.695	247.57724
462.185	292.63491
462.674	226.47509
463.163	171.35068
463.653	189.37076
464.142	183.41068
464.63	206.46865
465.119	266.57223
465.608	232.49179
466.096	213.43108
466.585	177.37594
467.073	148.32989
467.561	221.50267
468.05	169.36396
468.538	254.58462
469.026	170.38519
469.513	164.32316
470.001	151.32142
470.489	200.44117
470.976	163.353
471.463	194.45739
471.951	169.39776
472.438	153.33997
472.925	98.21609
473.412	169.38565
473.899	196.42165
474.385	157.36346
474.872	111.24501
475.359	124.28758
475.845	145.28175
476.331	167.33488
476.817	104.23862
477.303	167.36382
477.789	163.36881
478.275	131.30964
478.761	119.27079
479.247	110.23185
479.732	157.37296
480.218	123.30497
480.703	145.34618
481.188	86.17441
481.673	100.21902
482.158	102.20856
482.643	105.25471
483.128	62.13499
483.612	121.26674
484.097	117.27162
484.581	70.15305
485.066	110.25309
485.55	77.15991
486.034	93.19408
486.518	117.26203
487.002	62.14635
487.486	104.24273
487.969	82.19499
488.453	92.22338
488.936	74.15892
489.42	117.2459
489.903	97.23398
490.386	128.2603
490.869	33.06795
491.352	46.1077
491.835	53.10348
492.318	79.17196
492.8	74.14437
493.283	107.26248
493.765	15.0361
494.247	21.04699
494.73	73.15431
495.212	79.18195
495.694	38.08589
496.175	3.00696
496.657	132.30116
497.139	-27.04359
497.62	43.09947
498.102	50.12063
498.583	8.01925
499.064	57.12418
499.545	61.13352
500.026	-1.00218
500.507	7.01561
500.988	50.11871
501.469	-6.01458
501.949	-3.00715
502.43	22.0506
502.91	19.03782
503.39	16.03884
503.87	-2.00461
504.35	-5.01134
504.83	25.05308
505.31	20.04734
505.79	35.08113
506.269	-7.01582
506.749	-13.02892
507.228	-10.02294
507.707	26.05567
508.187	-30.06949
508.666	-57.13723
509.145	-38.08715
509.623	-33.07582
510.102	-5.01176
510.581	-28.06548
511.059	4.00989
511.538	0
512.016	14.03277
512.494	-33.07785
512.972	-11.0258
513.45	-8.01837
513.928	20.04727
514.406	18.04321
514.884	40.10126
515.361	14.033
515.839	19.04185
516.316	-38.08918
516.793	28.0686
517.27	-1.00238
517.747	0
518.224	-38.08582
518.701	12.02607
519.178	37.09087
519.654	-85.19585
520.131	-58.14014
520.607	-25.06076
521.083	-8.01797
521.56	-30.06919
522.036	-7.01506
522.512	17.04073
522.987	10.02346
523.463	-8.01869
523.939	-3.00718
524.414	-36.08091
524.89	-27.06233
525.365	24.05334
525.84	43.10188
526.315	-28.06574
526.79	-43.09456
527.265	-50.1108
527.74	-30.07167
528.215	9.02075
528.689	-18.03962
529.164	-47.09822
529.638	16.04021
530.112	-21.04925
530.587	-11.02328
531.061	-18.04284
531.534	-5.01175
532.008	-5.01182
532.482	-55.12171
532.956	20.05056
533.429	-59.1373
533.903	3.00639
534.376	-27.05827
534.849	2.00454
535.322	-30.06955
535.795	-26.06235
536.268	1.00237
536.741	-54.12776
537.213	17.03836
537.686	-57.13624
538.158	-32.07068
538.631	-51.1212
539.103	-19.04173
539.575	-14.02838
540.047	-43.09269
540.519	-77.1806
540.991	33.07755
541.463	-23.05493
541.934	6.01343
542.406	-7.01639
542.877	20.04373
543.348	-61.14178
543.82	5.01192
544.291	-53.11982
544.762	-19.04409
545.233	32.07898
545.703	-30.06554
546.174	12.02735
546.645	18.04282
547.115	30.07051
547.585	42.0949
548.056	-7.01689
548.526	20.04602
548.996	5.01174
549.466	-36.08587
549.935	16.03764
550.405	60.12852
550.875	-27.06263
551.344	46.10808
551.814	-57.12734
552.283	30.0627
552.752	33.07449
553.221	30.06332
553.69	84.18009
554.159	61.1477
554.628	55.11876
555.096	26.06422
555.565	40.08613
556.033	96.21549
556.502	52.12151
556.97	72.15249
557.438	79.18013
557.906	54.1237
558.374	87.19115
558.842	89.20482
559.31	96.20368
559.777	139.32192
560.245	106.23461
560.712	81.17654
561.18	104.21834
561.647	78.16636
562.114	148.31963
562.581	164.38471
563.048	156.3343
563.514	189.44014
563.981	179.38284
564.448	207.43525
564.914	212.45882
565.381	196.41021
565.847	243.52489
566.313	261.5587
566.779	283.59295
567.245	282.60874
567.711	347.76395
568.176	384.79832
568.642	354.81961
569.108	348.783
569.573	386.8057
570.038	409.76825
570.504	370.75962
570.969	402.90891
571.434	410.81172
571.899	458.97673
572.363	468.93782
572.828	472.94234
573.293	486.98334
573.757	560.12147
574.222	561.09677
574.686	500.99129
575.15	560.16442
575.614	538.06888
576.078	535.09282
576.542	567.12058
577.006	531.05077
577.469	528.13676
577.933	491.95594
578.396	623.28785
578.86	526.07416
579.323	518.08412
579.786	535.99113
580.249	481.97033
580.712	493.0556
581.175	489.07091
581.637	513.04401
582.1	473.90206
582.563	393.7251
583.025	477.02656
583.487	381.67832
583.95	405.77836
584.412	365.6785
584.874	400.87303
585.336	367.79169
585.797	327.63754
586.259	314.66298
586.721	348.74411
587.182	338.70426
587.643	287.59627
588.105	304.66325
588.566	294.5627
589.027	293.6594
589.488	199.42175
589.949	245.54506
590.41	239.43387
590.87	163.34213
591.331	184.3636
591.791	167.35764
592.252	223.47509
592.712	209.46864
593.172	156.33083
593.632	153.30496
594.092	147.30841
594.552	148.29671
595.011	151.3305
595.471	208.43205
595.931	198.40981
596.39	149.33891
596.849	150.32852
597.308	146.29595
597.768	135.32724
598.227	146.33323
598.685	127.27069
599.144	115.25511
599.603	154.34369
600.062	23.04627
600.52	119.25253
600.978	146.33001
601.437	106.22941
601.895	129.25748
602.353	80.16699
602.811	128.26754
603.269	134.30177
603.727	131.29749
604.184	78.16831
604.642	147.33896
605.099	94.20675
605.557	93.21351
606.014	123.24916
606.471	187.44457
606.928	191.39877
607.385	156.36623
607.842	192.41678
608.299	146.32003
608.755	151.34291
609.212	137.28972
609.668	162.34026
610.125	187.41914
610.581	138.3016
611.037	166.35204
611.493	145.31952
611.949	128.29239
612.405	173.32622
612.861	141.30601
613.316	185.41705
613.772	197.42152
614.227	210.46129
614.683	174.3469
615.138	176.39181
615.593	130.2822
616.048	158.33288
616.503	165.37986
616.958	151.35719
617.412	190.41911
617.867	180.37689
618.321	173.32301
618.776	171.35131
619.23	153.34096
619.684	167.34727
620.138	136.28918
620.592	133.30301
621.046	124.27227
621.5	111.25442
621.954	108.22724
622.407	147.30446
622.861	62.14157
623.314	136.29069
623.768	167.3646
624.221	143.26435
624.674	60.13013
625.127	141.30966
625.58	59.12455
626.033	104.21207
626.485	95.21478
626.938	72.16168
627.39	118.25866
627.843	82.17793
628.295	125.27186
628.747	94.21152
629.199	142.30548
629.651	49.10671
630.103	90.19662
630.555	22.04407
631.006	83.18412
631.458	36.07988
631.909	72.15503
632.361	6.01329
632.812	55.12165
633.263	50.10108
633.714	7.0141
634.165	-26.0597
634.616	24.05429
635.067	18.03747
635.518	33.07391
635.968	40.07537
636.419	63.12739
636.869	24.05407
637.319	7.01552
637.769	47.10074
638.219	72.15989
638.669	-9.02084
639.119	19.04421
639.569	55.12799
640.019	12.02645
640.468	-37.07862
640.918	22.05054
641.367	40.08579
641.816	40.08561
642.265	3.00667
642.714	24.05363
643.163	-36.07895
643.612	2.00471
644.061	-1.00201
644.51	25.05495
644.958	1.00212
645.406	-2.00465
645.855	13.03056
646.303	9.02007
646.751	-16.03555
647.199	-45.09762
647.647	38.08488
648.095	18.03941
648.543	25.04786
648.99	51.11723
649.438	20.04521
649.885	38.09109
650.333	-35.06415
650.78	15.03559
651.227	34.08013
651.674	-2.00442
652.121	-22.05121
652.568	27.0632
653.015	-24.05775
653.461	-39.0904
653.908	-7.01572
654.354	-44.10075
654.801	-62.14288
655.247	7.01467
655.693	-19.04831
656.139	17.03915
656.585	8.01858
657.031	-5.01143
657.477	-26.05497
657.922	15.03358
658.368	-19.04526
658.813	-69.15288
659.259	13.03028
659.704	-25.05714
660.149	-4.00902
660.594	-17.03926
661.039	11.02435
661.484	-4.00925
661.929	1.00225
662.373	-13.03239
662.818	-31.07574
663.262	-53.1244
663.707	-23.05651
664.151	49.11645
664.595	-9.02114
665.039	-67.16277
665.483	17.04234
665.927	-12.02719
666.371	-31.07074
666.814	1.00231
667.258	0
667.701	7.01424
668.145	-23.05542
668.588	-48.11581
669.031	16.03677
669.474	-29.06794
669.917	-42.08989
670.36	-51.12316
670.803	-28.0655
671.245	8.01608
671.688	-8.01883
672.13	-58.12671
672.573	14.03463
673.015	-20.0465
673.457	9.01906
673.899	-24.05621
674.341	3.007
674.783	-35.08251
675.225	2.00476
675.666	41.09545
676.108	-34.07217
676.549	6.01365
676.991	-43.09181
677.432	-60.11472
677.873	-39.08745
678.314	-50.11638
678.755	-13.03095
679.196	-7.01564
679.637	-28.06589
680.078	-21.04746
680.518	-22.04867
680.959	-20.04646
681.399	-21.05025
681.839	5.01175
682.28	-42.10202
682.72	-86.19241
683.16	-9.02186
683.6	22.04802
684.039	-6.01193
684.479	-9.0215
684.919	-9.02037
685.358	28.06811
685.798	-40.10194
686.237	-49.1151
686.676	12.02667
687.115	-16.0364
687.554	-41.09473
687.993	-43.09069
688.432	49.10811
688.871	-15.03292
689.309	65.15239
689.748	23.04578
690.186	-29.06642
690.625	25.05742
691.063	34.07926
691.501	-26.06268
691.939	-7.01696
692.377	14.03307
692.815	-19.04474
693.253	-45.10406
693.69	-45.09591
694.128	0
694.565	-13.03013
695.003	38.09327
695.44	-4.00905
695.877	12.02736
696.314	6.01231
696.751	-29.0635
697.188	-7.01565
697.625	9.01959
698.061	-63.14822
698.498	8.01863
698.934	-22.05088
699.371	-40.0924
699.807	-23.05293
700.243	48.11216
700.679	21.04554
701.115	4.00898
701.551	5.01143
701.987	-38.08172
702.422	-25.05746
702.858	-27.06186
703.294	-75.16451
703.729	6.01427
704.164	-4.00939
704.599	1.00212
705.035	-25.0544
705.47	45.10649
705.904	-53.11973
706.339	-19.04196
706.774	-10.02246
707.209	-69.15491
707.643	-19.04421
708.078	-46.10871
708.512	-9.02228
708.946	-26.05989
709.38	-42.0959
709.814	14.03039
710.248	-69.16209
710.682	-14.03252
711.116	-18.04213
711.549	-55.13781
711.983	-71.15868
712.416	-38.08582
712.85	12.02906
713.283	-21.04802
713.716	-7.01686
714.149	-5.01131
714.582	-19.04117
715.015	-12.02879
715.448	-23.05527
715.881	-56.11554
716.313	14.0317
716.746	29.06578
717.178	-19.04395
717.61	29.07069
718.043	-25.05969
718.475	-61.14318
718.907	-43.1038
719.339	-39.08558
719.77	-12.02788
720.202	-67.16497
720.634	5.01182
721.065	-11.02501
721.497	-2.00474
721.928	-18.04305
722.359	-12.02844
722.79	-39.0905
723.221	-29.06985
723.652	-16.03942
724.083	-66.1437
724.514	-73.15938
724.945	-21.04763
725.375	-21.04721
725.806	-57.13546
726.236	-21.05184
726.666	4.00898
727.096	-29.06815
727.526	-35.08656
727.956	-37.08102
728.386	-39.09115
728.816	-25.06146
729.246	-28.06638
729.675	-10.02398
730.105	15.03507
730.534	-18.04042
730.964	-35.08436
731.393	-52.12227
731.822	-5.01236
732.251	-32.07912
732.68	-67.14851
733.109	-17.04046
733.537	-40.0931
733.966	-18.04282
734.395	1.00218
734.823	-10.02126
735.251	-44.10253
735.68	36.08528
736.108	-51.12427
736.536	-34.07698
736.964	-47.10444
737.392	-38.09099
737.82	-17.03886
738.247	-18.04087
738.675	-29.0654
739.102	-25.06103
739.53	-10.02477
739.957	-53.13155
740.384	-31.07245
740.811	-6.01469
741.238	-60.14059
741.665	-12.02706
742.092	-36.08154
742.519	-30.07254
742.945	-21.04825
743.372	-20.04785
743.798	-53.13194
744.225	12.02707
744.651	-20.048
745.077	-51.12293
745.503	-10.02314
745.929	-25.05721
746.355	17.03939
746.781	-62.14839
747.207	6.01364
747.632	-25.05914
748.058	-26.06171
748.483	-1.00216
748.908	-33.07897
749.334	-23.0542
749.759	-48.10845
750.184	-29.06626
750.609	-16.0374
751.033	-35.07748
751.458	28.05977
751.883	-17.04006
752.307	6.01368
752.732	-54.13274
753.156	4.00943
753.58	-1.00225
754.005	24.05865
754.429	-62.13814
754.853	-47.11303
755.277	3.00682
755.7	10.02361
756.124	-15.03628
756.548	-10.02283
756.971	-2.00464
757.394	-29.07206
757.818	34.08425
758.241	-15.03635
758.664	27.06584
759.087	-54.11862
759.51	6.01426
759.933	1.00232
760.356	-26.06415
760.778	22.05256
761.201	-56.12875
761.623	-17.03867
762.046	-52.11519
762.468	6.01363
762.89	20.04694
763.312	-12.02778
763.734	12.02765
764.156	13.03076
764.578	-31.06722
765	30.06947
765.421	18.0447
765.843	20.05052
766.264	18.04085
766.686	19.04599
767.107	1.00235
767.528	-1.00246
767.949	-13.03177
768.37	-46.10833
768.791	-9.02065
769.212	-4.00983
769.632	-11.02443
770.053	-21.05362
770.473	-6.014
770.894	-22.05211
771.314	-9.02018
771.734	-46.10215
772.154	10.02464
772.575	-15.03297
772.994	10.02162
773.414	-52.11715
773.834	-10.02417
774.254	-47.11019
774.673	-13.03007
775.093	-38.09144
775.512	6.01425
775.931	24.0588
776.351	-25.05923
776.77	-1.00235
777.189	-35.07906
777.607	-33.08173
778.026	33.07885
778.445	-32.07849
778.864	-1.00244
779.282	-47.10764
779.701	-20.04851
780.119	-113.27761
780.537	-40.09603
780.955	-5.01212
781.373	-8.0189
781.791	8.01714
782.209	40.08713
782.627	0
783.045	-43.09467
783.462	-39.09546
783.88	-3.00751
784.297	22.0528
784.715	29.0724
785.132	-28.06491
785.549	4.00971
785.966	-89.21679
786.383	-4.00948
786.8	-5.01105
787.217	-44.09978
787.633	-40.09658
788.05	-54.11927
788.466	-18.03999
788.883	-12.02975
789.299	-30.06842
789.715	-14.0328
790.131	-15.0355
790.547	-44.10358
790.963	1.00237
791.379	-28.06832
791.795	14.03001
792.21	-4.00883
792.626	18.04032
793.041	-48.11317
793.457	-35.08254
793.872	11.02455
794.287	51.11802
794.702	-19.04446
795.117	-58.13802
795.532	20.04843
795.947	-24.0544
796.362	-40.09019
796.776	-79.17153
797.191	-20.04653
797.605	-2.00457
798.02	-10.02345
798.434	-32.06674
798.848	-20.04677
799.262	37.08861
799.676	6.01373
800.09	-3.00699
800.504	-36.08346
800.918	-55.1214
801.331	-11.02742
801.745	-30.06518
802.158	-5.0119
802.572	-25.05744
802.985	-11.02489
803.398	-28.06365
803.811	-1.00243
804.224	-9.02125
804.637	-67.15067
805.05	-25.05493
805.462	28.06468
805.875	-2.00508
806.288	-13.0303
806.7	-15.03603
807.112	-46.10164
807.525	18.04234
807.937	-15.0355
808.349	-27.06444
808.761	-24.05544
809.173	-78.17983
809.584	-23.05386
809.996	-38.08977
810.408	-17.04241
810.819	-36.08104
811.231	-14.03575
811.642	10.02365
812.053	-17.03931
812.464	11.02502
812.875	-37.0913
813.286	-43.10619
813.697	-61.13211
814.108	-35.08068
814.519	-66.13862
814.929	-53.12847
815.34	-44.1018
815.75	-37.09036
816.16	-85.20068
816.571	14.03473
816.981	-39.08612
817.391	13.02952
817.801	39.09301
818.211	15.03388
818.62	-45.10327
819.03	-20.04605
819.44	3.00744
819.849	-19.04599
820.259	-6.01472
820.668	-3.00712
821.077	-39.09329
821.486	-62.141
821.895	-38.08775
822.304	-7.01783
822.713	-60.13501
823.122	18.04292
823.531	10.02251
823.939	-38.08876
824.348	10.02309
824.756	15.03543
825.164	-37.0883
825.573	-19.04559
825.981	-3.00707
826.389	-53.12586
826.797	-23.05519
827.205	-23.04994
827.612	-39.09115
828.02	-36.08144
828.428	-33.08017
828.835	-19.04824
829.243	-58.13142
829.65	-35.08369
830.057	46.10618
830.464	6.01404
830.871	-17.03837
831.278	-81.18633
831.685	-53.11031
832.092	5.01167
832.499	-41.08397
832.905	29.06985
833.312	-39.08338
833.718	-4.00941
834.124	-15.03242
834.531	-57.13713
834.937	-26.06318
835.343	-2.00457
835.749	-31.06771
836.155	-22.0551
836.561	-80.18554
836.966	-33.07655
837.372	-30.07271
837.777	-24.05663
838.183	-87.17914
838.588	-12.02856
838.993	-33.07543
839.399	-36.08356
839.804	-48.11352
840.209	18.044
840.613	11.02315
841.018	-38.09099
841.423	-49.11931
841.828	-48.11633
842.232	-61.14184
842.637	-29.06364
843.041	22.0546
843.445	-51.12134
843.849	-41.0971
844.253	-48.10735
844.657	-26.06327
845.061	-6.01281
845.465	36.08379
845.869	-40.08753
846.272	-70.1637
846.676	-31.07157
847.079	19.0463
847.483	-12.02834
847.886	2.0045
848.289	41.10609
848.692	-39.09429
849.095	-45.10153
849.498	-52.12332
849.901	-28.05985
850.304	-45.10132
850.707	-12.02905
851.109	-30.07082
851.512	0
851.914	8.01961
852.316	-12.02905
852.718	-5.01252
853.121	-11.02561
853.523	-39.08612
853.925	-44.11087
854.326	-35.08494
854.728	-17.04181
855.13	-44.11023
855.531	-13.03
855.933	-32.07257
856.334	46.10871
856.736	-46.09645
857.137	-52.11499
857.538	-47.11341
857.939	-15.03557
858.34	-10.02287
858.741	-13.03246
859.142	-18.0411
859.542	66.16867
859.943	28.0663
860.343	-26.06192
860.744	28.06455
861.144	6.01382
861.544	-30.06985
861.945	-44.10668
862.345	-62.14208
862.745	-47.11178
863.145	-42.09304
863.544	-1.00243
863.944	-57.12755
864.344	-12.02783
864.743	9.0211
865.143	-22.05402
865.542	-25.05447
865.941	19.04489
866.34	32.07189
866.74	-11.02831
867.139	-8.01827
867.537	-3.00721
867.936	-7.01601
868.335	14.0341
868.734	-9.02221
869.132	27.05915
869.531	-29.06631
869.929	-33.07199
870.327	-20.04541
870.726	-35.08276
871.124	-6.01304
871.522	-54.13063
871.92	-7.01631
872.318	-23.05356
872.715	-9.02098
873.113	-31.07208
873.511	-14.03324
873.908	40.09796
874.306	-6.01423
874.703	-3.0071
875.1	-33.08002
875.497	-36.08134
875.894	-9.02136
876.291	6.01404
876.688	-31.07641
877.085	-13.02927
877.482	-48.11383
877.878	-15.03433
878.275	-10.02407
878.671	-67.13647
879.068	-27.06159
879.464	-10.02294
879.86	23.05181
880.256	-16.03686
880.652	-43.10459
881.048	-57.13311
881.444	-54.12022
881.84	-41.09912
882.236	14.03338
882.631	8.01858
883.027	-42.0949
883.422	-38.09286
883.817	-6.01455
884.213	-32.07881
884.608	-28.0662
885.003	-13.02979
885.398	-35.08366
885.793	-11.02608
886.188	-12.02877
886.582	-42.10087
886.977	-26.05817
887.371	-18.04326
887.766	-53.12765
888.16	-16.038
888.554	4.00921
888.949	-58.13712
889.343	-20.04554
889.737	3.0078
890.131	10.02389
890.525	-36.08774
890.918	-6.01449
891.312	-70.15642
891.706	40.10043
892.099	10.02399
892.492	-4.00802
892.886	-43.09947
893.279	-38.09275
893.672	-27.06596
894.065	-57.13598
894.458	-51.12246
894.851	-40.09152
895.244	-29.07096
895.637	-35.08029
896.029	-59.13784
896.422	-20.04604
896.814	-47.11196
897.206	7.01591
897.599	-79.18268
897.991	-8.01836
898.383	-56.12519
898.775	-4.00841
899.167	-53.11904
899.559	-28.06712
899.951	-31.06883
900.342	-39.0929
900.734	0
901.125	-40.09967
901.517	-4.00935
901.908	-13.02904
902.299	-18.04198
902.69	-8.01781
903.082	2.00456
903.473	-7.01604
903.863	34.08296
904.254	-64.14041
904.645	-23.05344
905.036	-32.07501
905.426	-36.07495
905.817	-16.03718
906.207	-55.12571
906.597	-11.02435
906.987	-78.19209
907.378	-70.16901
907.768	25.06316
908.158	-44.10249
908.547	-36.08957
908.937	-41.10017
909.327	-60.13822
909.717	-6.01429
910.106	-35.07981
910.495	24.05683
910.885	-37.08776
911.274	8.01902
911.663	57.13718
912.052	-23.05327
912.441	37.08972
912.83	-31.06659
913.219	-11.02709
913.608	-18.04171
913.997	-48.1151
914.385	-19.04224
914.774	-35.08048
915.162	-40.0899
915.55	-18.04118
915.939	-25.06051
916.327	3.00707
916.715	4.00979
917.103	-23.05312
917.491	-19.04381
917.878	-43.09868
918.266	-44.1092
918.654	16.03926
919.041	-71.17931
919.429	-31.0696
919.816	-39.09383
920.203	-20.046
920.591	-7.01628
920.978	-31.07177
921.365	-28.07002
921.752	-11.02487
922.139	40.08056
922.525	-39.08889
922.912	-19.04364
923.299	-8.01896
923.685	-1.00249
924.072	-28.05985
924.458	-20.0471
924.844	-61.14424
925.231	-44.09608
925.617	-21.05192
926.003	-27.06582
926.389	-5.01211
926.774	4.00966
927.16	-11.02572
927.546	-41.10076
927.931	-19.04498
928.317	-90.19337
928.702	-58.12896
929.088	-48.10841
929.473	1.00242
929.858	-4.00934
930.243	11.02502
930.628	-41.09447
931.013	26.06156
931.398	-21.04478
931.783	-35.0883
932.167	-20.046
932.552	-70.16556
932.937	-54.12559
933.321	-37.08814
933.705	10.02416
934.09	-42.09953
934.474	-21.04692
934.858	-10.02487
935.242	-15.03329
935.626	-52.12702
936.009	-41.1048
936.393	34.08246
936.777	-8.01969
937.16	-56.13811
937.544	4.00878
937.927	-55.13442
938.311	-9.02053
938.694	8.02012
939.077	-49.11046
939.46	36.0831
939.843	-28.0531
940.226	-52.12711
940.609	-34.07308
940.991	-36.08758
941.374	-41.09469
941.757	-20.04661
942.139	-37.07732
942.522	-18.03939
942.904	-4.00909
943.286	-24.05744
943.668	-40.09916
944.05	10.02319
944.432	-21.04941
944.814	-45.10435
945.196	-37.08709
945.578	-23.05249
945.959	-12.02652
946.341	-51.11648
946.722	-4.00885
947.104	-14.03123
947.485	-34.07437
947.866	3.00724
948.247	-47.11354
948.628	-6.01368
949.009	-42.10343
949.39	-74.17271
949.771	-3.00647
950.152	-5.01167
950.532	-4.00964
950.913	-29.06532
951.293	-19.04982
951.674	-13.0294
952.054	-25.05914
952.434	-47.11019
952.814	-48.10615
953.194	2.005
953.574	-41.09439
953.954	0
954.334	-8.01901
954.714	-48.1119
955.093	-35.08045
955.473	-58.1376
955.853	-7.01734
956.232	5.01312
956.611	-36.07991
956.99	-39.09404
957.37	-42.10232
957.749	0
958.128	-5.0121
958.506	10.0249
958.885	-11.0262
959.264	-79.18608
959.643	-12.02563
960.021	-39.09222
960.4	16.0343
960.778	-42.09625
961.156	-49.11735
961.535	-76.16399
961.913	-98.21391
962.291	27.0665
962.669	-24.05814
963.047	-36.08649
963.424	10.0243
963.802	-75.17453
964.18	-12.02856
964.557	-25.05305
964.935	-41.09141
965.312	-22.05517
965.69	6.01409
966.067	-44.10087
966.444	-10.02326
966.821	-8.01948
967.198	-83.18918
967.575	-25.05749
967.952	-38.08463
968.329	-52.11979
968.705	-38.07453
969.082	-28.06913
969.458	-35.08084
969.835	-43.09915
970.211	-46.11328
970.587	-22.05197
970.963	-5.01215
971.339	-28.0707
971.715	-71.16678
972.091	-20.04646
972.467	-33.07673
972.843	-46.10896
973.219	-14.03109
973.594	-61.15395
973.97	-20.04412
974.345	-18.04059
974.721	-11.02491
975.096	-65.14827
975.471	27.05997
975.846	-20.04576
976.221	-25.06062
976.596	-22.04987
976.971	-16.0374
977.346	-58.12574
977.72	-21.05079
978.095	-13.03211
978.469	-7.01575
978.844	-1.00237
979.218	-14.03201
979.593	-22.04983
979.967	-21.04873
980.341	-88.19127
980.715	2.00474
981.089	-39.09186
981.463	34.07343
981.837	-25.05845
982.21	10.02147
982.584	-56.12787
982.957	-42.10099
983.331	15.03314
983.704	-22.05165
984.078	-34.07904
984.451	-72.16712
984.824	-4.00928
985.197	-54.12425
985.57	-31.07311
985.943	-13.02962
986.316	9.02075
986.688	-38.08628
987.061	-23.05009
987.434	8.01985
987.806	-26.0592
988.179	-55.12211
988.551	-17.04059
988.923	-1.00231
989.295	9.02112
989.667	-7.01613
990.039	-21.0495
990.411	18.03899
990.783	-36.07748
991.155	-21.04856
991.527	-59.13502
991.898	-46.10846
992.27	-25.05884
992.641	-28.06627
993.012	43.09467
993.384	-6.01346
993.755	-41.09927
994.126	-31.07071
994.497	-24.05575
994.868	-20.04327
995.239	-21.04842
995.61	-23.05481
995.98	35.08048
996.351	13.03062
996.722	-17.03741
997.092	3.00675
997.462	-30.06706
997.833	-43.09583
998.203	-4.00906
998.573	-27.06446
998.943	-120.2667
999.313	22.04967
999.683	-52.1172
1000.053	9.01942
1000.423	-64.14826
1000.792	-4.00988
1001.162	2.00468
1001.531	-4.00938
1001.901	-28.06589
1002.27	51.10558
1002.639	-39.09564
1003.009	31.06989
1003.378	-10.02436
1003.747	-41.0911
1004.116	-68.15621
1004.485	-42.09579
1004.853	4.0096
1005.222	-4.00967
1005.591	-29.06431
1005.959	40.08472
1006.328	-35.07363
1006.696	7.01601
1007.064	-27.06468
1007.433	42.09899
1007.801	-2.00458
1008.169	-50.11958
1008.537	29.05953
1008.905	-37.08181
1009.273	17.0394
1009.64	-26.05903
1010.008	-18.04027
1010.375	50.11265
1010.743	-46.09747
1011.11	-36.08084
1011.478	-41.09624
1011.845	-65.14245
1012.212	-51.10752
1012.579	-2.00465
1012.946	-71.1579
1013.313	13.0288
1013.68	-20.04162
1014.047	-3.00684
1014.414	-8.01796
1014.78	30.07082
1015.147	-19.04261
1015.513	0
1015.88	-21.05025
1016.246	-36.08462
1016.612	-2.00422
1016.978	-39.09033
1017.344	14.03298
1017.71	-12.02693
1018.076	13.02851
1018.442	-32.07814
1018.808	-5.01185
1019.174	-26.06156
1019.539	3.00622
1019.905	-27.06052
1020.27	-34.08063
1020.636	12.02686
1021.001	-12.02681
1021.366	3.00692
1021.731	-8.01965
1022.096	-28.06801
1022.461	-57.12624
1022.826	-26.05841
1023.191	-59.14917
1023.556	-34.0739
1023.92	-51.11774
1024.285	-38.08747
1024.649	-19.04406
1025.014	-13.03038
1025.378	-21.05077
1025.742	-40.09435
1026.107	-7.01455
1026.471	-64.13804
1026.835	-69.16158
1027.199	-50.11518
1027.562	-6.01315
1027.926	11.02514
1028.29	-8.01927
1028.654	-61.13109
1029.017	34.07854
1029.381	-24.05445
1029.744	-24.05876
1030.107	-40.0875
1030.471	-12.0269
1030.834	-13.02707
1031.197	-35.07829
1031.56	-6.01345
1031.923	-57.14122
1032.286	-8.01745
1032.648	-29.0649
1033.011	-27.05842
1033.374	-46.10041
1033.736	-43.10844
1034.099	-30.06972
1034.461	-20.04854
1034.823	-58.13718
1035.185	-75.17803
1035.548	-36.0828
1035.91	-11.02502
1036.272	2.00425
1036.634	-33.07531
1036.995	39.08612
1037.357	-24.05542
1037.719	-52.11998
1038.08	-63.13906
1038.442	15.03408
1038.803	-45.10149
1039.165	4.00957
1039.526	-2.00455
1039.887	2.00453
1040.248	21.04981
1040.609	-11.02561
1040.97	-45.1043
1041.331	-93.22246
1041.692	-50.11163
1042.053	-24.05054
1042.413	-28.06047
1042.774	16.03624
1043.134	-6.01321
1043.495	5.01176
1043.855	-94.2187
1044.215	-14.03274
1044.576	-32.07301
1044.936	15.03215
1045.296	-28.06586
1045.656	-14.03241
1046.016	-48.10819
1046.375	-11.02541
1046.735	21.04486
1047.095	18.03936
1047.454	-19.03713
1047.814	-41.0925
1048.173	-45.09954
1048.533	-28.06065
1048.892	-29.06647
1049.251	31.07305
1049.61	-88.20506
1049.969	7.01557
1050.328	-45.08965
1050.687	-38.0874
1051.046	-3.00694
1051.405	-86.20214
1051.763	-43.0938
1052.122	19.04515
1052.48	-34.07845
1052.839	-21.04659
1053.197	-43.09583
1053.555	-112.23368
1053.914	-34.07835
1054.272	15.03379
1054.63	-122.28574
1054.988	-63.14179
1055.345	-71.14145
1055.703	-25.05611
1056.061	-30.07372
1056.419	-12.02975
1056.776	-33.07525
1057.134	-32.06941
1057.491	-30.07109
1057.848	-39.09158
1058.206	-42.09304
1058.563	8.01654
1058.92	-33.07052
1059.277	-73.1686
1059.634	-51.11069
1059.991	30.06734
1060.348	12.02548
1060.704	-98.22431
1061.061	-41.08731
1061.418	-37.08569
1061.774	13.03068
1062.131	-5.01292
1062.487	-56.12281
1062.843	-41.09706
1063.199	-21.04985
1063.555	-12.0263
1063.911	-40.09577
1064.267	-17.03169
1064.623	-24.05584
1064.979	-79.17277
1065.335	-17.03746
1065.691	10.02269
1066.046	-35.07103
1066.402	-93.20063
1066.757	-56.13531
1067.112	-23.05266
1067.468	4.00903
1067.823	-26.0592
1068.178	-3.00687
1068.533	-64.14625
1068.888	-26.05779
1069.243	2.00468
1069.598	-76.17312
1069.952	-42.09082
1070.307	-16.03821
1070.662	-52.11754
1071.016	-18.03814
1071.371	-73.15634
1071.725	-76.16793
1072.079	-23.05202
1072.434	-12.02743
1072.788	-2.00451
1073.142	28.06514
1073.496	-33.07397
1073.85	-46.10028
1074.203	-44.10067
1074.557	-41.10557
1074.911	9.01981
1075.265	-62.13441
1075.618	16.03678
1075.971	-47.10509
1076.325	-45.10933
1076.678	-85.18479
1077.031	-49.10403
1077.385	22.04507
1077.738	3.00632
1078.091	-4.00864
1078.444	-23.04928
1078.796	-16.0374
1079.149	-72.1687
1079.502	-78.17602
1079.855	-4.00879
1080.207	4.00924
1080.56	-47.11615
1080.912	-47.10665
1081.264	-40.09108
1081.617	-50.11619
1081.969	3.00731
1082.321	-4.00921
1082.673	-19.04125
1083.025	-37.08201
1083.377	-304.63286
1083.728	-73.15782
1084.08	-3.00713
1084.432	-95.21381
1084.783	-10.0222
1085.135	-7.01687
1085.486	-10.02162
1085.838	-10.02326
1086.189	-40.09196
1086.54	13.02901
1086.891	11.02669
1087.242	-30.06847
1087.593	-44.10047
1087.944	-33.06969
1088.295	-12.02509
1088.646	17.03868
1088.996	-67.15339
1089.347	-53.12275
1089.698	-33.07449
1090.048	-31.07616
1090.398	-4.00872
1090.749	-21.0475
1091.099	-24.05806
1091.449	-51.12004
1091.799	-22.05207
1092.149	-10.02363
1092.499	-32.07425
1092.849	-24.05814
1093.199	20.04681
1093.548	18.04079
1093.898	-12.02851
1094.248	-21.05131
1094.597	-19.04695
1094.947	-38.09712
1095.296	-55.12864
1095.645	-30.0741
1095.994	-23.05242
1096.343	38.09092
1096.692	-29.07384
1097.041	-41.10792
1097.39	-27.06402
1097.739	-14.03483
1098.088	-32.08115
1098.437	-32.08103
1098.785	-37.09527
1099.134	-62.15616
1099.482	-14.03662
1099.83	-30.07502
1100.179	-8.02022
1100.527	-52.13182
1100.875	-57.14508
1101.223	-51.13151
1101.571	-38.10199
1101.919	-64.16287
1102.267	2.00549
1102.615	6.01928
1102.962	1.00321
1103.31	9.02889
1103.658	-5.01604
