Data from N3 R6 sample 4_Subt2__5__15-28-15-515.txt Node

Date: Fri Sep 19 15:28:15 PDT 2025
User: uwsun
Spectrometer: HDX01956
Trigger mode: 0
Integration Time (sec): 5.000000E-1
Scans to average: 1
Nonlinearity correction enabled: true
Boxcar width: 0
Storing dark spectrum: false
XAxis mode: Wavelengths
Number of Pixels in Spectrum: 2068
>>>>>Begin Spectral Data<<<<<
194.03	-9.02617
194.578	-1.00325
195.127	7.02245
195.676	-16.05141
196.225	-17.04506
196.773	-6.01678
197.321	-1.00279
197.87	16.04136
198.418	-13.0341
198.966	19.05043
199.513	32.08201
200.061	-29.07457
200.609	-31.08275
201.156	-61.13448
201.704	-48.12246
202.251	-10.02676
202.798	12.03149
203.345	-9.02249
203.892	17.043
204.438	-29.07024
204.985	-12.02894
205.532	46.12378
206.078	-25.06224
206.624	-25.06278
207.17	9.02098
207.716	-39.09532
208.262	8.01582
208.808	-27.06819
209.354	-40.09891
209.899	-12.0304
210.445	-5.01268
210.99	-26.06379
211.535	6.01416
212.08	-10.02339
212.625	2.00503
213.17	0
213.715	-14.03193
214.259	15.03529
214.804	18.04428
215.348	-33.07634
215.892	15.03628
216.436	20.04666
216.98	-29.0642
217.524	-18.04295
218.068	-12.03041
218.612	-59.14933
219.155	-5.01182
219.698	-15.03561
220.242	17.04221
220.785	14.03282
221.328	-18.04522
221.871	35.08814
222.414	-29.07167
222.956	9.02185
223.499	-18.04067
224.041	-51.11812
224.583	14.02987
225.126	35.07803
225.668	10.02435
226.21	21.05266
226.751	-74.16235
227.293	21.04724
227.835	-13.03169
228.376	26.05896
228.918	-5.01261
229.459	47.11772
230	-7.01667
230.541	-18.04128
231.082	21.05077
231.622	28.06412
232.163	26.06339
232.704	-17.04217
233.244	-5.01241
233.784	27.0651
234.324	31.06871
234.864	-24.05431
235.404	-30.07084
235.944	-8.01876
236.484	6.01475
237.023	-3.00712
237.563	20.04593
238.102	-10.02361
238.641	11.02796
239.18	-13.0307
239.719	8.02021
240.258	-29.06498
240.797	13.03118
241.335	-66.16092
241.874	25.04811
242.412	-9.02154
242.95	28.06722
243.488	-2.00456
244.026	6.01385
244.564	2.00409
245.102	29.06471
245.64	20.04774
246.177	-53.11894
246.715	-3.0071
247.252	-24.05458
247.789	7.01233
248.326	-35.08369
248.863	-43.09432
249.4	59.13382
249.936	1.00204
250.473	5.01167
251.009	10.02308
251.546	33.07244
252.082	15.033
252.618	34.07579
253.154	26.06209
253.69	-15.03369
254.226	11.02605
254.761	-29.06439
255.297	-12.0264
255.832	-20.04716
256.367	-16.0375
256.903	-17.03708
257.438	-37.08627
257.972	-30.0664
258.507	25.05772
259.042	-63.1351
259.576	-4.00865
260.111	-31.07151
260.645	8.01731
261.179	-48.11207
261.713	-27.0598
262.247	25.0579
262.781	-5.01056
263.315	-11.02699
263.849	-6.015
264.382	-29.06639
264.915	-7.01653
265.449	-22.05412
265.982	-17.03817
266.515	-24.05876
267.048	-27.05772
267.58	-32.06884
268.113	35.07557
268.646	55.13552
269.178	-31.06966
269.71	-9.01951
270.243	8.01816
270.775	-4.01019
271.307	-53.12654
271.838	26.06073
272.37	27.06631
272.902	16.03645
273.433	-35.07632
273.965	53.1292
274.496	-32.07895
275.027	-25.06187
275.558	-14.03394
276.089	-15.03779
276.62	-8.02024
277.15	-13.03199
277.681	-30.06404
278.211	-30.07314
278.741	38.08393
279.272	24.05454
279.802	4.01
280.332	-3.00709
280.861	13.03116
281.391	-24.05436
281.921	-20.04756
282.45	42.10537
282.98	8.0209
283.509	12.02684
284.038	-31.06969
284.567	-30.06889
285.096	3.00726
285.625	27.06184
286.153	9.02097
286.682	-31.07069
287.21	-35.08462
287.739	-64.15172
288.267	52.12531
288.795	9.02354
289.323	40.09416
289.851	-6.01398
290.378	19.04252
290.906	10.02436
291.433	40.09912
291.961	-16.03606
292.488	23.05705
293.015	36.08501
293.542	5.01261
294.069	29.07088
294.596	-10.02474
295.122	74.17434
295.649	33.07299
296.175	-10.02392
296.702	20.04772
297.228	-27.06476
297.754	-1.00224
298.28	-12.02721
298.806	-9.02183
299.332	-42.09377
299.857	21.04699
300.383	13.03249
300.908	-3.00737
301.433	13.03173
301.958	-19.0432
302.483	6.01519
303.008	-39.09627
303.533	-19.04874
304.058	13.03042
304.582	1.00237
305.107	29.07597
305.631	27.06062
306.155	45.10517
306.679	-23.05428
307.203	9.02094
307.727	13.03101
308.251	-16.03956
308.775	25.05905
309.298	21.05069
309.822	25.0628
310.345	10.02369
310.868	19.04529
311.391	40.09756
311.914	17.04266
312.437	-16.03627
312.96	51.1198
313.482	4.00954
314.005	-8.02016
314.527	-18.04766
315.049	-11.0277
315.571	60.13562
316.093	17.04237
316.615	13.03163
317.137	9.01942
317.659	7.01679
318.18	-2.00485
318.702	28.06512
319.223	-36.07475
319.744	16.03611
320.265	25.06083
320.786	18.04464
321.307	63.15632
321.828	20.04569
322.348	26.06152
322.869	-16.03742
323.389	208.37211
323.909	38.08705
324.43	7.01675
324.95	28.06442
325.47	32.07898
325.989	93.22076
326.509	16.03553
327.029	16.0362
327.548	40.09034
328.067	-32.07796
328.587	48.11938
329.106	17.03859
329.625	0
330.144	3.00688
330.662	23.05344
331.181	43.10062
331.7	47.10941
332.218	77.16704
332.736	41.09488
333.255	50.11587
333.773	18.04282
334.291	18.04443
334.808	26.05755
335.326	56.12612
335.844	27.06367
336.361	36.09094
336.879	11.02573
337.396	27.06439
337.913	22.0504
338.43	75.16928
338.947	46.10943
339.464	24.05159
339.981	47.11183
340.497	71.17417
341.014	12.02907
341.53	40.09126
342.046	90.21927
342.562	54.13377
343.078	36.08435
343.594	56.13403
344.11	58.1368
344.626	83.2082
345.141	85.19366
345.657	31.06943
346.172	43.10278
346.687	85.19413
347.202	69.15402
347.717	17.04079
348.232	76.18888
348.747	34.0782
349.261	100.22068
349.776	31.07239
350.29	48.1189
350.805	46.11224
351.319	87.20117
351.833	25.0574
352.347	19.04404
352.861	85.19647
353.374	64.14502
353.888	21.05041
354.401	31.07117
354.915	65.14617
355.428	80.19781
355.941	97.22421
356.454	98.21672
356.967	95.22264
357.48	70.15893
357.993	87.21128
358.505	114.27763
359.018	66.15827
359.53	51.12176
360.042	78.16874
360.554	66.15761
361.066	63.15162
361.578	145.31187
362.09	75.17714
362.602	105.22827
363.113	24.05478
363.625	95.21329
364.136	94.2037
364.647	65.15054
365.158	127.29121
365.669	139.3311
366.18	48.10987
366.691	126.2727
367.201	86.20143
367.712	95.20995
368.222	147.33342
368.733	110.23766
369.243	67.14516
369.753	100.22576
370.263	107.24821
370.773	95.23149
371.282	137.31679
371.792	84.18917
372.301	101.24077
372.811	116.29541
373.32	100.20874
373.829	105.24559
374.338	129.28056
374.847	116.2592
375.356	126.295
375.865	144.29804
376.373	145.32019
376.882	147.36113
377.39	188.43842
377.898	182.43725
378.407	124.2694
378.915	167.34619
379.423	215.48685
379.93	209.45068
380.438	225.52645
380.946	252.55982
381.453	177.40863
381.96	269.60267
382.468	299.66767
382.975	325.74517
383.482	283.59714
383.989	312.74866
384.495	331.70883
385.002	357.68908
385.509	317.68502
386.015	432.78529
386.521	416.83632
387.028	467.94339
387.534	404.78261
388.04	441.9313
388.546	446.87596
389.051	455.87952
389.557	533.07247
390.063	636.24867
390.568	565.15108
391.073	617.16942
391.578	610.23812
392.084	613.12789
392.589	698.23998
393.093	725.37318
393.598	814.44281
394.103	906.65039
394.607	1017.77336
395.112	1046.883
395.616	1120.91315
396.12	1222.90083
396.624	1282.97631
397.128	1397.13587
397.632	1530.12574
398.136	1695.21847
398.639	1923.41098
399.143	2197.6612
399.646	2433.38468
400.15	2708.24522
400.653	2995.06579
401.156	3341.55752
401.659	3871.45755
402.162	4963.43726
402.664	6932.24923
403.167	12382.3711
403.67	32365.6571
404.172	51989.57017
404.674	37291.05854
405.176	4428.40989
405.678	533.47942
406.18	0
406.682	0
407.184	6962.89417
407.686	29240.10823
408.187	17846.96479
408.688	11622.81171
409.19	8769.12431
409.691	7240.44512
410.192	6213.63398
410.693	5579.45565
411.194	5106.80713
411.694	4840.21464
412.195	4395.84423
412.696	4071.90196
413.196	3945.52568
413.696	4046.20095
414.196	3971.72871
414.696	3760.46276
415.196	3450.43562
415.696	2934.60207
416.196	2256.10963
416.695	1918.27406
417.195	1746.31167
417.694	1704.77363
418.194	1510.79296
418.693	1515.06257
419.192	1515.20053
419.691	1403.10869
420.19	1351.08192
420.688	1397.23512
421.187	1263.62197
421.685	1204.9031
422.184	1049.76322
422.682	867.42948
423.18	739.34935
423.678	714.30262
424.176	624.16976
424.674	589.06248
425.172	567.11167
425.669	543.14079
426.167	470.93486
426.664	439.86811
427.161	374.75258
427.659	384.83883
428.156	356.6705
428.652	297.68371
429.149	295.65166
429.646	264.52707
430.143	285.62588
430.639	268.58224
431.135	243.55428
431.632	193.41064
432.128	243.54442
432.624	141.33921
433.12	235.49978
433.616	159.32651
434.111	164.37054
434.607	151.34179
435.103	123.24197
435.598	122.23859
436.093	159.34757
436.588	161.34166
437.083	115.2466
437.578	78.1704
438.073	107.25262
438.568	130.30102
439.062	94.19177
439.557	76.17003
440.051	99.21458
440.546	86.18891
441.04	53.12051
441.534	98.23867
442.028	88.20215
442.522	50.11638
443.015	63.13247
443.509	133.31071
444.002	56.13275
444.496	-3.00629
444.989	56.13316
445.482	16.03857
445.975	71.15645
446.468	28.0585
446.961	13.02682
447.454	3.00652
447.947	65.1509
448.439	62.14698
448.931	39.08544
449.424	-8.01936
449.916	58.13398
450.408	53.11787
450.9	-31.0737
451.392	35.08608
451.884	-34.0755
452.375	9.02158
452.867	18.03932
453.358	-13.02851
453.849	29.05947
454.341	61.13261
454.832	67.13895
455.323	31.07342
455.814	-8.01781
456.304	-21.04709
456.795	-21.04639
457.285	1.00214
457.776	-39.08522
458.266	5.01165
458.756	-13.03006
459.247	-28.06491
459.737	-2.0047
460.226	77.1659
460.716	21.04885
461.206	-10.02309
461.695	8.01957
462.185	57.13013
462.674	-17.03765
463.163	-14.02991
463.653	-3.00615
464.142	12.02788
464.63	-1.00237
465.119	-19.04338
465.608	-12.02679
466.096	4.00848
466.585	-4.00883
467.073	-34.07864
467.561	42.09899
468.05	-13.02909
468.538	21.05058
469.026	-16.03762
469.513	-37.07636
470.001	-22.04859
470.489	4.00919
470.976	0
471.463	20.04874
471.951	-9.02191
472.438	-20.04604
472.925	-54.12286
473.412	-48.11432
473.899	-26.0586
474.385	-46.11077
474.872	-61.13948
475.359	-20.0477
475.845	-13.02621
476.331	-10.02087
476.817	-31.07305
477.303	-15.03394
477.789	-11.02577
478.275	-14.03402
478.761	-55.12955
479.247	-32.06955
479.732	-12.02943
480.218	7.01772
480.703	48.11672
481.188	-55.11514
481.673	-27.06072
482.158	-16.03359
482.643	-10.02478
483.128	-74.16576
483.612	-47.10725
484.097	12.02844
484.581	-35.07822
485.066	-27.06382
485.55	-47.10031
486.034	-11.02349
486.518	9.0206
487.002	-8.01914
487.486	-53.12751
487.969	-24.05823
488.453	27.06636
488.936	-35.07693
489.42	0
489.903	-8.01968
490.386	21.04375
490.869	-64.13466
491.352	-19.04505
491.835	-70.14066
492.318	-30.06681
492.8	-37.07409
493.283	3.0075
493.765	-6.0145
494.247	-44.09978
494.73	-35.07573
495.212	9.02102
495.694	-35.08029
496.175	-65.15275
496.657	36.08372
497.139	-153.25588
497.62	-60.14163
498.102	-42.10309
498.583	-112.27561
499.064	-25.05541
499.545	16.03535
500.026	-47.10339
500.507	-39.08778
500.988	-16.03847
501.469	-32.07814
501.949	-37.08874
502.43	-60.14026
502.91	-10.02004
503.39	2.00487
503.87	-9.02075
504.35	-22.05007
504.83	-54.11662
505.31	-26.06209
505.79	-36.08462
506.269	-42.09559
506.749	-82.18505
507.228	-50.11559
507.707	-14.03024
508.187	-45.10455
508.666	-30.07186
509.145	-68.1569
509.623	-5.01142
510.102	-36.08521
510.581	38.08771
511.059	-5.01238
511.538	3.00754
512.016	29.06767
512.494	39.09072
512.972	-39.09197
513.45	-1.00229
513.928	40.09416
514.406	19.04561
514.884	64.16132
515.361	113.26119
515.839	47.10292
516.316	51.1176
516.793	91.22033
517.27	100.23321
517.747	99.24456
518.224	81.17849
518.701	90.19228
519.178	142.34194
519.654	43.09654
520.131	78.18362
520.607	95.22568
521.083	111.24326
521.56	70.15822
522.036	122.25511
522.512	110.25885
522.987	116.26647
523.463	64.14737
523.939	75.1768
524.414	73.16039
524.89	63.14284
525.365	102.22302
525.84	86.20206
526.315	49.11331
526.79	34.07355
527.265	-24.0529
527.74	0
528.215	54.1234
528.689	71.15337
529.164	16.03297
529.638	56.13974
530.112	85.19522
530.587	25.0525
531.061	26.06135
531.534	-2.0047
532.008	27.06345
532.482	-80.17795
532.956	52.13069
533.429	-93.21787
533.903	-32.06869
534.376	-2.00429
534.849	-6.01366
535.322	-24.05557
535.795	-8.01912
536.268	-3.0071
536.741	-29.06828
537.213	25.05631
537.686	-41.0977
538.158	-16.03522
538.631	-26.06149
539.103	-46.1016
539.575	-45.09187
540.047	-15.03214
540.519	-65.15209
540.991	-82.19701
541.463	-26.06213
541.934	-27.06084
542.406	-37.08712
542.877	-43.09527
543.348	-94.21991
543.82	-40.09621
544.291	-83.18879
544.762	-55.12854
545.233	-15.03734
545.703	-75.16541
546.174	-7.01601
546.645	-5.01195
547.115	-34.08091
547.585	-12.02741
548.056	26.06235
548.526	-41.09548
548.996	-3.00705
549.466	-60.14377
549.935	-31.07359
550.405	-48.10522
550.875	-89.20898
551.344	-29.06913
551.814	-85.19099
552.283	-93.19968
552.752	-62.14265
553.221	-61.13132
553.69	-33.07254
554.159	-47.11611
554.628	-33.0726
555.096	-21.05232
555.565	-51.11196
556.033	-46.10626
556.502	-48.11436
556.97	-66.144
557.438	-45.10517
557.906	-63.1477
558.374	-47.10617
558.842	-19.04467
559.31	-49.10725
559.777	3.00714
560.245	17.03832
560.712	-45.1007
561.18	-28.0605
561.647	-1.00217
562.114	17.03774
562.581	82.19544
563.048	-11.02442
563.514	22.05292
563.981	9.01996
564.448	58.12596
564.914	45.10087
565.381	4.00873
565.847	66.14797
566.313	39.08749
566.779	147.31726
567.245	69.15574
567.711	152.34833
568.176	148.32387
568.642	173.41492
569.108	202.4681
569.573	133.2932
570.038	190.37616
570.504	225.47706
570.969	201.47306
571.434	222.45887
571.899	258.5741
572.363	260.54608
572.828	293.60928
573.293	282.59725
573.757	289.61596
574.222	363.74407
574.686	342.70309
575.15	351.76497
575.614	373.77079
576.078	385.81448
576.542	391.80581
577.006	424.86144
577.469	368.82087
577.933	402.79923
578.396	457.98115
578.86	403.84733
579.323	451.95951
579.786	480.90142
580.249	427.87208
580.712	400.87525
581.175	384.86115
581.637	495.01143
582.1	445.85442
582.563	382.70675
583.025	408.89275
583.487	352.63139
583.95	364.70647
584.412	395.72879
584.874	329.72888
585.336	398.85285
585.797	334.6501
586.259	323.68064
586.721	289.62585
587.182	296.62251
587.643	303.62727
588.105	284.62224
588.566	283.54309
589.027	298.66997
589.488	211.44601
589.949	234.52178
590.41	257.46441
590.87	197.41039
591.331	168.33323
591.791	142.30575
592.252	225.47914
592.712	213.47722
593.172	173.36552
593.632	143.28569
594.092	152.31855
594.552	198.39236
595.011	160.34954
595.471	119.25209
595.931	107.22598
596.39	167.37847
596.849	116.25588
597.308	98.20084
597.768	113.27504
598.227	138.31548
598.685	78.16802
599.144	129.28533
599.603	94.21239
600.062	74.14712
600.52	100.21309
600.978	107.24378
601.437	106.22941
601.895	86.17337
602.353	74.15467
602.811	35.07466
603.269	53.12134
603.727	67.15413
604.184	57.12355
604.642	50.11752
605.099	75.16562
605.557	18.04194
606.014	55.11315
606.471	91.22033
606.928	112.23794
607.385	61.14586
607.842	129.28378
608.299	69.1537
608.755	86.19787
609.212	107.22776
609.668	103.21915
610.125	123.27932
610.581	70.15519
611.037	81.17497
611.493	97.2159
611.949	66.15265
612.405	58.11246
612.861	84.18452
613.316	108.2473
613.772	83.18198
614.227	107.24013
614.683	90.18294
615.138	98.22169
615.593	42.09288
616.048	80.17144
616.503	108.25147
616.958	81.1942
617.412	87.19605
617.867	97.20684
618.321	48.0924
618.776	78.16361
619.23	86.19431
619.684	121.2542
620.138	97.208
620.592	72.16606
621.046	73.16201
621.5	96.22071
621.954	53.11287
622.407	72.15163
622.861	40.09174
623.314	51.11102
623.768	103.22792
624.221	124.23032
624.674	-15.03305
625.127	54.12076
625.58	0
626.033	63.12966
626.485	-2.00461
626.938	72.16168
627.39	55.12216
627.843	32.07017
628.295	56.12358
628.747	57.12923
629.199	56.1227
629.651	-24.05307
630.103	42.09269
630.555	-4.00806
631.006	4.00902
631.458	-16.03589
631.909	22.04788
632.361	-44.09848
632.812	11.02455
633.263	-22.04521
633.714	-34.06914
634.165	-46.10605
634.616	-72.16606
635.067	-33.06948
635.518	9.02026
635.968	50.09398
636.419	-46.09534
636.869	-20.04547
637.319	4.00888
637.769	-14.0304
638.219	-15.03391
638.669	-24.05573
639.119	-25.05868
639.569	20.04686
640.019	-48.10712
640.468	-57.12165
640.918	-14.03239
641.367	5.01081
641.816	0
642.265	7.01555
642.714	1.00225
643.163	-36.07895
643.612	-32.0758
644.061	-37.07516
644.51	2.00442
644.958	-9.01909
645.406	-14.03262
645.855	-49.11658
646.303	-7.01566
646.751	-20.04447
647.199	-37.08013
647.647	32.07156
648.095	-57.12676
648.543	5.00962
648.99	-13.03026
649.438	34.07663
649.885	7.01688
650.333	-66.12192
650.78	29.06863
651.227	-2.00475
651.674	6.01323
652.121	-33.07697
652.568	-15.0354
653.015	-78.1896
653.461	-40.09273
653.908	22.0491
654.354	-27.06161
654.801	-9.02052
655.247	14.02929
655.693	-5.01268
656.139	-6.01388
656.585	4.0093
657.031	-46.10601
657.477	4.0084
657.922	-1.00225
658.368	-26.06202
658.813	-48.10588
659.259	0
659.704	-10.02279
660.149	-47.10686
660.594	-35.08113
661.039	-14.03115
661.484	13.02997
661.929	-6.01353
662.373	-14.03488
662.818	24.05803
663.262	-6.01395
663.707	-52.12844
664.151	20.0478
664.595	-27.06365
665.039	-31.07481
665.483	5.01248
665.927	18.04054
666.371	-41.09375
666.814	-5.01154
667.258	-15.03499
667.701	-4.00816
668.145	-6.01441
668.588	-19.04559
669.031	-46.10702
669.474	-1.00233
669.917	-15.03192
670.36	-30.07216
670.803	-8.01864
671.245	-45.09153
671.688	-47.11148
672.13	0
672.573	23.0568
673.015	-10.0232
673.457	19.04014
673.899	-32.07507
674.341	-54.12737
674.783	-17.03993
675.225	-8.01908
675.666	0
676.108	51.10624
676.549	-2.00456
676.991	10.02111
677.432	-35.06652
677.873	10.0222
678.314	-23.05325
678.755	32.07554
679.196	-5.01117
679.637	1.00234
680.078	35.07819
680.518	-97.21796
680.959	-28.06514
681.399	-74.17887
681.839	-36.08528
682.28	-6.01448
682.72	-38.08418
683.16	-16.03891
683.6	-17.03741
684.039	-23.04593
684.479	-18.04307
684.919	-31.07049
685.358	-24.05895
685.798	-61.15603
686.237	23.05327
686.676	12.02667
687.115	-28.06386
687.554	19.04338
687.993	-16.03355
688.432	-30.06729
688.871	-20.04393
689.309	59.13849
689.748	16.0319
690.186	-40.09181
690.625	22.05056
691.063	7.01641
691.501	5.01198
691.939	-6.01454
692.377	-7.0166
692.815	-38.0898
693.253	-1.00229
693.69	-10.02115
694.128	-29.06932
694.565	30.06894
695.003	-1.00247
695.44	-53.12104
695.877	-8.01831
696.314	21.04293
696.751	-31.06791
697.188	8.01783
697.625	25.05423
698.061	-23.05369
698.498	19.04414
698.934	-63.14689
699.371	-20.04602
699.807	-25.05756
700.243	30.07035
700.679	34.07352
701.115	11.02467
701.551	10.02284
701.987	-37.07955
702.422	-58.1342
702.858	-38.08726
703.294	-28.06081
703.729	11.02614
704.164	35.08154
704.599	11.02329
705.035	-38.08291
705.47	-17.04071
705.904	-52.11744
706.339	-7.01542
706.774	-20.045
707.209	-61.13673
707.643	-25.05825
708.078	-59.13978
708.512	10.02467
708.946	-57.13212
709.38	-49.11204
709.814	-15.03276
710.248	-57.13358
710.682	-25.0582
711.116	-17.03978
711.549	-84.21158
711.983	-83.18596
712.416	-21.04726
712.85	14.03389
713.283	-66.15228
713.716	-12.02893
714.149	-56.12797
714.582	-35.07609
715.015	-21.05046
715.448	-45.10859
715.881	-32.06567
716.313	-2.00454
716.746	-1.00228
717.178	-13.03004
717.61	-29.07146
718.043	-42.1006
718.475	-46.10766
718.907	-30.07224
719.339	-47.10331
719.77	35.08055
720.202	-60.14754
720.634	-43.10258
721.065	-10.02273
721.497	11.02598
721.928	-12.02867
722.359	-29.06895
722.79	-46.1069
723.221	-44.10628
723.652	25.06112
724.083	-33.07134
724.514	-59.12843
724.945	-48.10947
725.375	-32.0721
725.806	-62.14749
726.236	-24.05928
726.666	-40.0906
727.096	-20.04692
727.526	-42.104
727.956	-44.09649
728.386	-80.18847
728.816	-38.09365
729.246	-47.11183
729.675	1.00239
730.105	-19.04472
730.534	-14.03141
730.964	-29.06982
731.393	-40.09383
731.822	20.0492
732.251	-32.07912
732.68	-63.13952
733.109	-47.11251
733.537	-35.08138
733.966	-69.16575
734.395	-50.11029
734.823	-38.08129
735.251	-29.06738
735.68	-43.10341
736.108	-24.05819
736.536	-17.03836
736.964	-35.07758
737.392	-32.07653
737.82	-21.04804
738.247	-39.08893
738.675	-3.00673
739.102	0
739.53	-10.02477
739.957	-57.14159
740.384	-41.09601
740.811	24.05845
741.238	-53.12401
741.665	38.08481
742.092	-39.08839
742.519	5.01201
742.945	-34.07832
743.372	-16.03825
743.798	-22.05446
744.225	-35.07971
744.651	-35.08423
745.077	-23.05514
745.503	-37.08607
745.929	-54.1243
746.355	-40.09372
746.781	-8.01895
747.207	-17.03883
747.632	-36.08534
748.058	-39.09279
748.483	-38.08277
748.908	-26.06213
749.334	-25.05893
749.759	-28.06301
750.184	-53.12168
750.609	-24.05619
751.033	-68.15157
751.458	-7.01506
751.883	-51.12097
752.307	25.0568
752.732	-26.06358
753.156	-2.00472
753.58	-29.06556
754.005	16.03916
754.429	-47.10439
754.853	-22.05266
755.277	-22.05023
755.7	-50.1194
756.124	18.04326
756.548	-60.13838
756.971	-27.0629
757.394	-40.09959
757.818	8.01992
758.241	-28.06801
758.664	3.00735
759.087	-33.07217
759.51	-20.04778
759.933	-59.13849
760.356	-13.032
760.778	1.0024
761.201	-49.11249
761.623	-77.17727
762.046	-63.13987
762.468	11.02497
762.89	15.03524
763.312	-26.06035
763.734	-22.05104
764.156	45.10583
764.578	-16.03458
765	15.03484
765.421	-8.01996
765.843	3.0076
766.264	-50.11504
766.686	-7.01703
767.107	-7.01647
767.528	-41.10181
767.949	-22.05386
768.37	-30.07043
768.791	-27.06219
769.212	-22.05424
769.632	-28.06241
770.053	-2.00509
770.473	-12.02803
770.894	-25.05925
771.314	-52.11763
771.734	-82.18346
772.154	-9.02225
772.575	0
772.994	-25.05444
773.414	-56.12627
773.834	-16.03872
774.254	-30.0701
774.673	-35.08132
775.093	-23.05519
775.512	-59.14189
775.931	14.03436
776.351	-31.07353
776.77	-39.0924
777.189	-15.03375
777.607	-16.0395
778.026	22.05268
778.445	-54.13298
778.864	-23.05644
779.282	-71.16339
779.701	-36.08758
780.119	-79.19286
780.537	-79.19106
780.955	-33.08044
781.373	-45.10707
781.791	-24.05179
782.209	12.02629
782.627	-38.09763
783.045	-70.15499
783.462	-53.13006
783.88	-28.07042
784.297	-37.08979
784.715	-2.00502
785.132	-1.00231
785.549	-9.0219
785.966	-79.19207
786.383	-61.1462
786.8	20.04395
787.217	-57.1296
787.633	-30.0723
788.05	-49.10811
788.466	-35.07803
788.883	-47.11726
789.299	-43.09832
789.715	-38.08946
790.131	-15.0355
790.547	-79.18724
790.963	-42.10041
791.379	-7.01701
791.795	-49.10648
792.21	-61.13628
792.626	-20.04515
793.041	-49.11555
793.457	-11.02582
793.872	-21.04719
794.287	17.03961
794.702	-48.11295
795.117	-23.05437
795.532	32.07732
795.947	-36.0818
796.362	-19.04266
796.776	-33.07095
797.191	-31.07228
797.605	-9.0206
798.02	29.06748
798.434	-28.05834
798.848	-43.10101
799.262	21.05044
799.676	-20.04602
800.09	-21.04908
800.504	27.06181
800.918	-44.0969
801.331	-9.02243
801.745	-45.09808
802.158	-50.12004
802.572	-57.1318
802.985	-52.11864
803.398	-55.12571
803.811	-8.01951
804.224	-28.06635
804.637	-52.11658
805.05	-33.07263
805.462	-30.0701
805.875	31.07826
806.288	-13.0303
806.7	-15.03603
807.112	-34.07494
807.525	-5.01181
807.937	-43.10231
808.349	6.01423
808.761	-51.11845
809.173	-53.12158
809.584	-38.08925
809.996	-8.01879
810.408	-37.09264
810.819	-44.09921
811.231	-48.12332
811.642	-24.05714
812.053	-23.05325
812.464	-20.04578
812.875	8.01958
813.286	-38.09375
813.697	-37.07972
814.108	-40.09229
814.519	6.0124
814.929	-6.01442
815.34	-47.10881
815.75	-32.07808
816.16	-83.19588
816.571	-50.12549
816.981	-86.19177
817.391	-9.02053
817.801	8.01919
818.211	22.04963
818.62	-62.14277
819.03	-38.08782
819.44	3.00744
819.849	-7.0169
820.259	24.05856
820.668	0
821.077	-39.09329
821.486	-14.03153
821.895	-34.07845
822.304	-15.03826
822.713	-15.03344
823.122	17.04054
823.531	-4.00903
823.939	-13.03022
824.348	9.02079
824.756	-34.08107
825.164	-49.11721
825.573	-51.12311
825.981	9.02117
826.389	-22.05193
826.797	-27.06483
827.205	21.04517
827.612	-16.03723
828.02	-55.1249
828.428	-38.09241
828.835	-54.13796
829.243	-44.09942
829.65	-5.01189
830.057	31.07177
830.464	19.04434
830.871	-29.06562
831.278	-42.09586
831.685	-46.09559
832.092	10.02331
832.499	-23.04691
832.905	-3.00727
833.312	-51.10932
833.718	-54.12826
834.124	-5.01078
834.531	-45.10801
834.937	-42.10236
835.343	-28.06435
835.749	-33.07211
836.155	-40.1005
836.561	-48.11062
836.966	-1.00231
837.372	-10.02414
837.777	-41.09706
838.183	-41.08355
838.588	29.06847
838.993	-36.08233
839.399	-9.02078
839.804	-40.09446
840.209	-21.05171
840.613	14.02944
841.018	-48.11515
841.423	-48.11686
841.828	-53.12857
842.232	-29.06701
842.637	-53.11689
843.041	-6.01497
843.445	-54.12856
843.849	-20.04717
844.253	-70.15726
844.657	-11.02669
845.061	-26.05577
845.465	29.06759
845.869	-5.01086
846.272	-45.10472
846.676	17.03887
847.079	-7.01714
847.483	-11.02597
847.886	-12.02707
848.289	20.05194
848.692	-50.12113
849.095	-66.14955
849.498	-24.05661
849.901	5.01061
850.304	-23.05155
850.707	-9.02178
851.109	-33.07794
851.512	15.03515
851.914	42.10232
852.316	5.01207
852.718	-29.07293
853.121	-2.00465
853.523	-32.07056
853.925	-42.10579
854.326	-24.05812
854.728	-39.09631
855.13	-25.06242
855.531	-2.00461
855.933	-43.09773
856.334	-46.11064
856.736	-98.20783
857.137	-7.01533
857.538	-39.09397
857.939	10.0236
858.34	-20.04583
858.741	-32.08017
859.142	-27.06176
859.542	16.04125
859.943	7.01664
860.343	-32.0763
860.744	21.04848
861.144	-44.10233
861.544	2.00463
861.945	-44.10668
862.345	-46.10508
862.745	-26.06159
863.145	-46.10198
863.544	25.06058
863.944	-48.10721
864.344	-52.12156
864.743	24.0561
865.143	0
865.542	-64.14059
865.941	10.02367
866.34	-12.0272
866.74	-57.1479
867.139	-6.01369
867.537	0
867.936	-4.00914
868.335	45.10896
868.734	16.0393
869.132	23.05043
869.531	41.09243
869.929	-18.03914
870.327	-8.01812
870.726	12.02812
871.124	-38.08312
871.522	-51.1233
871.92	-11.02565
872.318	-14.03255
872.715	-36.08435
873.113	-13.03012
873.511	-34.08104
873.908	-2.00494
874.306	-34.0811
874.703	-28.06658
875.1	-52.12655
875.497	-20.04504
875.894	34.08001
876.291	35.08141
876.688	-54.13367
877.085	-24.05416
877.482	-47.11144
877.878	8.01822
878.275	-30.07249
878.671	-74.15097
879.068	-8.01818
879.464	-6.01375
879.86	-23.0523
880.256	-50.11596
880.652	-55.13407
881.048	-59.13784
881.444	-41.09103
881.84	-30.07238
882.236	-1.00239
882.631	-6.01398
883.027	-68.15446
883.422	-31.07565
883.817	-11.02669
884.213	-28.0689
884.608	-33.07809
885.003	-7.01602
885.398	-25.05964
885.793	-1.00237
886.188	-17.04079
886.582	-73.17635
886.977	-7.0156
887.371	-51.12335
887.766	-30.07194
888.16	15.03541
888.554	-6.01384
888.949	-60.14191
889.343	-21.04783
889.737	-33.0863
890.131	6.01434
890.525	-46.11232
890.918	33.07912
891.312	-66.14736
891.706	22.05541
892.099	-3.00721
892.492	-15.03016
892.886	-65.15102
893.279	-33.08047
893.672	10.02426
894.065	-33.07837
894.458	-36.0862
894.851	-37.0846
895.244	-41.10054
895.637	56.12612
896.029	-4.00924
896.422	-10.02297
896.814	-11.02602
897.206	-21.048
897.599	-13.02967
897.991	1.00229
898.383	-20.04438
898.775	24.05012
899.167	-21.04686
899.559	-16.03827
899.951	-16.03541
900.342	-43.10251
900.734	-15.03631
901.125	-45.11223
901.517	4.00934
901.908	-16.03577
902.299	-23.05369
902.69	-24.05361
903.082	31.07023
903.473	-25.05749
903.863	7.01717
904.254	-30.06534
904.645	-45.10501
905.036	-31.07265
905.426	-73.15322
905.817	-27.06288
906.207	-34.07738
906.597	-64.14325
906.987	-68.16715
907.378	-44.10571
907.768	-4.01016
908.158	2.00462
908.547	-47.11717
908.937	-24.05845
909.327	-21.048
909.717	0
910.106	-59.13518
910.495	0
910.885	-31.07345
911.274	4.00952
911.663	39.09418
912.052	-19.04397
912.441	2.00488
912.83	-38.08175
913.219	-41.10155
913.608	-3.00693
913.997	-34.08132
914.385	-41.09156
914.774	-33.07585
915.162	-60.1354
915.55	-4.00913
915.939	-36.08731
916.327	-52.12389
916.715	12.02931
917.103	-34.0787
917.491	-44.10197
917.878	-34.07789
918.266	-1.00246
918.654	29.07098
919.041	-57.1436
919.429	-4.00893
919.816	-14.03352
920.203	-14.03216
920.591	-34.07951
920.978	-41.09511
921.365	-15.03742
921.752	-25.05668
922.139	23.04651
922.525	-38.08659
922.912	-22.05056
923.299	-16.03799
923.685	-38.0952
924.072	-50.10738
924.458	-46.10888
924.844	-38.08946
925.231	-46.10049
925.617	-15.03704
926.003	-5.01214
926.389	-11.02666
926.774	18.04336
927.16	9.02096
927.546	2.00488
927.931	27.06335
928.317	-59.12592
928.702	-28.06187
929.088	-30.06751
929.473	-5.01211
929.858	3.00699
930.243	-47.10816
930.628	-54.12474
931.013	6.01426
931.398	4.00848
931.783	31.07728
932.167	-33.0761
932.552	-36.08458
932.937	-37.08576
933.321	-95.22881
933.705	5.01209
934.09	-49.11627
934.474	-13.02899
934.858	-31.0774
935.242	-7.01551
935.626	-55.13442
936.009	-56.14352
936.393	7.01706
936.777	28.06847
937.16	-79.19566
937.544	-18.03969
937.927	-40.09749
938.311	-13.02968
938.694	2.00504
939.077	-52.1173
939.46	6.01393
939.843	-32.06074
940.226	-43.10494
940.609	-61.13188
940.991	-34.08268
941.374	-70.1626
941.757	-36.08415
942.139	13.02686
942.522	-29.06361
942.904	7.01587
943.286	-3.00715
943.668	-28.06926
944.05	-29.06778
944.432	4.00937
944.814	-73.17021
945.196	-28.06579
945.578	-73.16826
945.959	-15.03316
946.341	-26.05908
946.722	-5.01107
947.104	-51.11464
947.485	-32.06997
947.866	1.00241
948.247	-39.09407
948.628	-31.07106
949.009	-21.05152
949.39	-81.18931
949.771	4.00861
950.152	-32.0751
950.532	-10.02414
950.913	-33.07439
951.293	4.01045
951.674	-24.0544
952.054	-40.0949
952.434	-82.19356
952.814	-61.13526
953.194	2.005
953.574	0
953.954	-12.02685
954.334	32.07545
954.714	-47.10954
955.093	-67.15499
955.473	-82.19544
955.853	-8.01982
956.232	-9.02368
956.611	-46.10232
956.99	-1.00239
957.37	-42.10232
957.749	-76.17095
958.128	37.08881
958.506	15.03731
958.885	-32.07653
959.264	-60.14081
959.643	13.02761
960.021	-36.08508
960.4	56.11902
960.778	-30.06858
961.156	-57.13671
961.535	-73.15742
961.913	-79.17175
962.291	44.10804
962.669	-8.01932
963.047	-64.15458
963.424	18.04367
963.802	-52.12046
964.18	4.00949
964.557	-50.10669
964.935	-36.08018
965.312	-30.07535
965.69	-15.03536
966.067	7.01588
966.444	20.04624
966.821	-2.00486
967.198	-29.06538
967.575	-15.03442
967.952	38.0833
968.329	-16.03659
968.705	-45.0884
969.082	23.05625
969.458	-34.07851
969.835	-14.0321
970.211	-34.08355
970.587	-5.01177
970.963	10.02423
971.339	-20.05043
971.715	-55.1288
972.091	15.0346
972.467	-67.15683
972.843	21.0491
973.219	-41.09156
973.594	2.00499
973.97	-37.08191
974.345	-53.12036
974.721	-12.02718
975.096	-43.09765
975.471	-2.00447
975.846	39.08817
976.221	-1.00241
976.596	-17.0385
976.971	-19.04444
977.346	-80.17425
977.72	13.03124
978.095	16.03932
978.469	-2.00449
978.844	0
979.218	-24.05498
979.593	-24.05438
979.967	-20.0464
980.341	-22.04715
980.715	-39.09308
981.089	-39.09186
981.463	1.00217
981.837	-28.0655
982.21	4.0086
982.584	-25.05673
982.957	-22.0527
983.331	-6.01331
983.704	-17.03987
984.078	-58.13547
984.451	-57.13191
984.824	11.02546
985.197	-14.03195
985.57	-59.13989
985.943	-52.11941
986.316	28.06432
986.688	-6.01353
987.061	-32.06982
987.434	13.03223
987.806	-10.0227
988.179	-34.07516
988.551	-20.04778
988.923	-64.1499
989.295	20.04683
989.667	42.09582
990.039	-13.0306
990.411	-3.00653
990.783	10.02131
991.155	-47.10924
991.527	-50.11422
991.898	-43.10133
992.27	-26.06121
992.641	7.01646
993.012	18.03984
993.384	-5.01122
993.755	-28.06763
994.126	-6.01362
994.497	-50.11674
994.868	-21.04544
995.239	32.07301
995.61	-68.16344
995.98	2.00463
996.351	-4.00945
996.722	-17.03741
997.092	28.0627
997.462	-51.1145
997.833	24.05274
998.203	4.00904
998.573	-44.10539
998.943	-52.11394
999.313	-24.05469
999.683	-77.17444
1000.053	-33.07183
1000.423	-24.05515
1000.792	-3.00741
1001.162	-35.08241
1001.531	3.00702
1001.901	-36.08485
1002.27	14.02922
1002.639	16.03884
1003.009	8.01812
1003.378	-15.03658
1003.747	-7.01544
1004.116	-78.17954
1004.485	0
1004.853	-12.02887
1005.222	2.00483
1005.591	-67.14974
1005.959	-34.07318
1006.328	-91.19379
1006.696	-31.07143
1007.064	-15.03585
1007.433	-7.01666
1007.801	7.01601
1008.169	-22.05233
1008.537	37.07581
1008.905	-28.06179
1009.273	-20.0467
1009.64	-46.10487
1010.008	-35.07858
1010.375	14.03177
1010.743	-58.12322
1011.11	-6.01339
1011.478	-43.10097
1011.845	-57.12471
1012.212	-59.12461
1012.579	-26.06071
1012.946	-48.10624
1013.313	24.05305
1013.68	2.00414
1014.047	6.01365
1014.414	-19.04275
1014.78	29.06847
1015.147	-45.10145
1015.513	50.11417
1015.88	-36.08639
1016.246	-2.00467
1016.612	8.01684
1016.978	-13.02995
1017.344	10.02358
1017.71	-59.13366
1018.076	18.03944
1018.442	-44.10768
1018.808	27.06357
1019.174	-61.14542
1019.539	14.02894
1019.905	-37.0831
1020.27	-7.01651
1020.636	30.0669
1021.001	17.03776
1021.366	1.00231
1021.731	33.08044
1022.096	-19.04607
1022.461	-45.09941
1022.826	-9.02015
1023.191	-36.09064
1023.556	-73.15998
1023.92	-46.10609
1024.285	-15.03437
1024.649	-40.09314
1025.014	-15.03507
1025.378	-16.03865
1025.742	-4.00937
1026.107	-18.03751
1026.471	-47.101
1026.835	-48.11194
1027.199	-22.0504
1027.562	21.04577
1027.926	-18.04138
1028.29	29.06937
1028.654	-31.06619
1029.017	6.01394
1029.381	-17.03851
1029.744	-17.04156
1030.107	-44.09633
1030.471	-2.00447
1030.834	-3.00623
1031.197	-15.03341
1031.56	14.03126
1031.923	-13.03195
1032.286	-12.0262
1032.648	-9.02006
1033.011	0
1033.374	-27.0587
1033.736	-84.21339
1034.099	4.00923
1034.461	-20.04854
1034.823	-52.12284
1035.185	-40.09431
1035.548	-2.00457
1035.91	-9.02046
1036.272	-13.0277
1036.634	-67.15394
1036.995	-2.00445
1037.357	-29.06703
1037.719	6.01368
1038.08	-67.14801
1038.442	-4.00912
1038.803	-74.16788
1039.165	-15.036
1039.526	-50.11486
1039.887	10.0226
1040.248	6.01427
1040.609	4.00928
1040.97	-32.07398
1041.331	-53.12581
1041.692	7.01544
1042.053	-45.0952
1042.413	-54.11727
1042.774	-25.0571
1043.134	-5.01101
1043.495	-11.02596
1043.855	-9.02059
1044.215	-25.05859
1044.576	-1.00227
1044.936	5.01074
1045.296	-18.04226
1045.656	-5.01155
1046.016	-68.15389
1046.375	42.09598
1046.735	-28.06044
1047.095	-9.01979
1047.454	13.02521
1047.814	-32.07207
1048.173	-39.08616
1048.533	-26.0563
1048.892	-36.08263
1049.251	-5.01186
1049.61	-77.17904
1049.969	34.07522
1050.328	-41.08161
1050.687	-31.0712
1051.046	53.12129
1051.405	-35.08145
1051.763	-57.12471
1052.122	-22.0527
1052.48	-28.06453
1052.839	-13.02879
1053.197	-5.01105
1053.555	-47.09665
1053.914	8.01828
1054.272	1.00226
1054.63	-51.11779
1054.988	-54.12131
1055.345	-66.13134
1055.703	-31.06966
1056.061	-64.15825
1056.419	-15.03721
1056.776	-27.06149
1057.134	-33.07159
1057.491	-22.05205
1057.848	-7.01633
1058.206	12.02628
1058.563	-14.02908
1058.92	-51.10941
1059.277	-55.12657
1059.634	-111.24398
1059.991	59.13165
1060.348	32.06766
1060.704	-55.1248
1061.061	-75.1609
1061.418	-3.0069
1061.774	-11.02608
1062.131	21.05402
1062.487	-84.18529
1062.843	-4.0094
1063.199	8.01888
1063.555	27.0587
1063.911	-25.05969
1064.267	-62.11688
1064.623	-36.08396
1064.979	-32.06929
1065.335	-14.03083
1065.691	63.14139
1066.046	-35.07103
1066.402	-43.09177
1066.757	-30.07213
1067.112	-63.14539
1067.468	27.06064
1067.823	21.04736
1068.178	8.01828
1068.533	-31.07037
1068.888	-39.08691
1069.243	12.02802
1069.598	-69.15695
1069.952	-26.05603
1070.307	13.03087
1070.662	-26.05846
1071.016	36.07538
1071.371	-11.02324
1071.725	-65.14329
1072.079	-26.05884
1072.434	-70.1619
1072.788	-6.01353
1073.142	17.03964
1073.496	-67.15123
1073.85	-34.07393
1074.203	-29.06615
1074.557	-13.03331
1074.911	-7.01546
1075.265	-31.06676
1075.618	56.12771
1075.971	-30.06684
1076.325	-5.01206
1076.678	-14.02998
1077.031	-37.07835
1077.385	11.02259
1077.738	-47.10013
1078.091	-35.07612
1078.444	-22.04713
1078.796	-31.07268
1079.149	-28.06504
1079.502	-4.00889
1079.855	3.00658
1080.207	-3.00694
1080.56	-56.13862
1080.912	-47.10665
1081.264	11.02479
1081.617	-46.10681
1081.969	-1.00244
1082.321	-13.02998
1082.673	-11.02384
1083.025	-53.11787
1083.377	-326.68198
1083.728	-22.04704
1084.08	17.04023
1084.432	-80.1795
1084.783	51.11177
1085.135	26.06228
1085.486	-56.12229
1085.838	-43.10066
1086.189	19.04317
1086.54	8.01787
1086.891	2.00486
1087.242	-31.07077
1087.593	-14.03177
1087.944	-17.03578
1088.295	-14.02929
1088.646	4.00913
1088.996	-51.11638
1089.347	-74.1721
1089.698	-3.00673
1090.048	-46.11332
1090.398	0
1090.749	6.0135
1091.099	15.03602
1091.449	-41.09631
1091.799	-43.10219
1092.149	-5.0118
1092.499	-24.0556
1092.849	-9.02174
1093.199	15.03514
1093.548	9.02043
1093.898	-16.03805
1094.248	-15.03661
1094.597	-14.03457
1094.947	-10.02543
1095.296	-27.06281
1095.645	-54.13396
1095.994	6.0136
1096.343	19.04562
1096.692	-20.05084
1097.041	-16.04194
1097.39	9.02119
1097.739	-26.06483
1098.088	-46.11694
1098.437	-45.11422
1098.785	-35.09009
1099.134	-2.00498
1099.482	-39.10244
1099.83	-41.10273
1100.179	30.07532
1100.527	-27.06814
1100.875	-54.13738
1101.223	30.07627
1101.571	-30.08041
1101.919	-44.11158
1102.267	2.00549
1102.615	3.00964
1102.962	8.02565
1103.31	2.00642
1103.658	0
