Data from N3 R6 sample 1_Subt2__2__16-14-11-465.txt Node

Date: Fri Sep 19 16:14:11 PDT 2025
User: uwsun
Spectrometer: HDX01956
Trigger mode: 0
Integration Time (sec): 5.000000E-1
Scans to average: 1
Nonlinearity correction enabled: true
Boxcar width: 0
Storing dark spectrum: false
XAxis mode: Wavelengths
Number of Pixels in Spectrum: 2068
>>>>>Begin Spectral Data<<<<<
194.03	25.07234
194.578	43.13918
195.127	44.1405
195.676	33.10541
196.225	58.15181
196.773	55.15235
197.321	77.21249
197.87	121.30711
198.418	148.37756
198.966	115.30033
199.513	133.33481
200.061	92.23156
200.609	115.29951
201.156	89.19002
201.704	84.2093
202.251	115.30135
202.798	115.29653
203.345	114.27846
203.892	117.29062
204.438	114.26868
204.985	127.29821
205.532	153.40446
206.078	119.28845
206.624	144.35056
207.17	132.30031
207.716	87.20763
208.262	117.22539
208.808	82.20305
209.354	105.2527
209.899	146.35941
210.445	123.30474
210.99	91.21843
211.535	156.35749
212.08	144.32655
212.625	104.25687
213.17	147.36367
213.715	89.19875
214.259	136.31241
214.804	74.18015
215.348	154.34297
215.892	160.37635
216.436	165.37394
216.98	116.24901
217.524	125.29007
218.068	126.31143
218.612	101.24831
219.155	130.29923
219.698	110.25481
220.242	112.27327
220.785	170.38629
221.328	156.37963
221.871	108.26841
222.414	83.20089
222.956	105.2503
223.499	73.16187
224.041	82.18489
224.583	117.24406
225.126	143.31167
225.668	96.23003
226.21	116.28588
226.751	54.11527
227.293	42.09408
227.835	83.19869
228.376	121.26909
228.918	113.27894
229.459	132.32554
230	113.26285
230.541	77.17323
231.082	104.24749
231.622	104.2345
232.163	153.36416
232.704	102.24748
233.244	110.26719
233.784	118.27962
234.324	128.27797
234.864	79.17503
235.404	88.20304
235.944	107.24526
236.484	88.21311
237.023	145.33422
237.563	117.26343
238.102	106.24467
238.641	143.35494
239.18	103.23779
239.719	116.28735
240.258	128.2775
240.797	131.30712
241.335	82.19439
241.874	130.24387
242.412	91.2136
242.95	117.27612
243.488	131.29085
244.026	138.31027
244.564	172.33845
245.102	95.20908
245.64	95.22351
246.177	100.21735
246.715	83.19314
247.252	93.20648
247.789	49.08533
248.326	65.15245
248.863	85.18141
249.4	178.39396
249.936	105.20939
250.473	146.33135
251.009	136.30602
251.546	141.30249
252.082	149.31854
252.618	103.2263
253.154	97.22848
253.69	106.23216
254.226	107.2487
254.761	93.20123
255.297	178.37601
255.832	89.20539
256.367	80.18399
256.903	131.27679
257.438	100.22686
257.972	122.26144
258.507	116.26295
259.042	95.19676
259.576	136.28514
260.111	98.22025
260.645	171.35702
261.179	126.2841
261.713	158.33639
262.247	162.36498
262.781	186.37635
263.315	143.34088
263.849	150.36448
264.382	87.19452
264.915	138.31663
265.449	117.2804
265.982	120.26182
266.515	116.27658
267.048	173.35382
267.58	92.19264
268.113	122.2585
268.646	145.35134
269.178	134.29088
269.71	94.19926
270.243	110.24458
270.775	177.43628
271.307	108.24988
271.838	130.29743
272.37	151.3623
272.902	136.30226
273.433	95.20143
273.965	151.36133
274.496	107.25722
275.027	94.22756
275.558	116.27435
276.089	119.29257
276.62	135.33276
277.15	105.2527
277.681	96.19932
278.211	104.24721
278.741	160.34436
279.272	145.32139
279.802	164.39805
280.332	149.34152
280.861	136.31828
281.391	105.23157
281.921	106.24594
282.45	232.56202
282.98	177.44891
283.509	152.33009
284.038	139.30154
284.567	105.23458
285.096	134.31606
285.625	200.44209
286.153	145.32875
286.682	128.28247
287.21	167.3883
287.739	76.17528
288.267	163.38453
288.795	168.42752
289.323	178.40774
289.851	135.3057
290.378	114.2501
290.906	171.40403
291.433	124.30255
291.961	136.29698
292.488	199.47764
293.015	181.41536
293.542	146.35874
294.069	146.34904
294.596	188.44823
295.122	176.4064
295.649	188.40235
296.175	132.30711
296.702	139.32409
297.228	115.26835
297.754	152.32953
298.28	156.34166
298.806	163.38259
299.332	122.26314
299.857	190.41033
300.383	151.36794
300.908	150.35805
301.433	208.48906
301.958	115.25437
302.483	212.51705
303.008	163.38737
303.533	134.33448
304.058	175.39644
304.582	201.45811
305.107	160.40976
305.631	140.30701
306.155	212.47918
306.679	187.42328
307.203	190.4263
307.727	232.53015
308.251	150.35956
308.775	191.43655
309.298	198.46192
309.822	203.49353
310.345	205.46723
310.868	206.47339
311.391	232.54549
311.914	199.4829
312.437	147.32216
312.96	238.5386
313.482	189.43459
314.005	199.48272
314.527	211.53703
315.049	168.40944
315.571	249.54108
316.093	231.55317
316.615	213.49877
317.137	164.34202
317.659	199.45978
318.18	243.56187
318.702	218.48792
319.223	222.43436
319.744	268.57356
320.265	226.5291
320.786	260.61607
321.307	233.56008
321.828	294.63437
322.348	253.57219
322.869	192.43061
323.389	453.75944
323.909	262.57308
324.43	276.62636
324.95	254.55793
325.47	242.57409
325.989	308.70067
326.509	242.51209
327.029	236.50988
327.548	242.52396
328.067	264.60739
328.587	327.77165
329.106	319.6796
329.625	274.67495
330.144	285.61693
330.662	294.64633
331.181	315.69758
331.7	279.61967
332.218	345.70558
332.736	312.68301
333.255	290.63994
333.773	330.73764
334.291	300.70177
334.808	309.64341
335.326	366.77175
335.844	357.78761
336.361	306.73539
336.879	351.76594
337.396	334.74935
337.913	336.72094
338.43	419.87903
338.947	372.8291
339.464	352.70309
339.981	406.89887
340.497	387.89333
341.014	356.80624
341.53	431.9054
342.046	428.97634
342.562	403.93395
343.078	415.89982
343.594	443.98138
344.11	415.91056
344.626	423.9954
345.141	441.93212
345.657	398.82374
346.172	467.02307
346.687	489.02354
347.202	431.88983
347.717	449.98804
348.232	468.07707
348.747	468.98247
349.261	492.9964
349.776	444.95222
350.29	523.17964
350.805	467.04713
351.319	462.98825
351.833	513.06013
352.347	431.91697
352.861	525.10485
353.374	520.06669
353.888	521.12863
354.401	544.11803
354.915	522.06164
355.428	522.18289
355.941	540.13573
356.454	576.14452
356.967	530.13374
357.48	569.15872
357.993	563.24205
358.505	611.34639
359.018	551.19626
359.53	567.21693
360.042	570.1015
360.554	579.24379
361.066	537.17324
361.578	641.22979
362.09	600.26988
362.602	596.15844
363.113	589.18863
363.625	674.33087
364.136	657.25084
364.647	586.21423
365.158	662.35239
365.669	699.48258
366.18	652.30844
366.691	692.31472
367.201	698.4357
367.712	601.18567
368.222	694.3967
368.733	710.33523
369.243	659.24553
369.753	666.32735
370.263	734.48816
370.773	762.62089
371.282	729.4844
371.792	705.38339
372.301	780.6132
372.811	777.74176
373.32	774.37317
373.829	797.60759
374.338	855.57106
374.847	869.63763
375.356	888.76474
375.865	933.59063
376.373	982.78735
376.882	1000.06054
377.39	1017.98069
377.898	1049.09755
378.407	1036.8137
378.915	1106.81461
379.423	1217.19104
379.93	1246.09073
380.438	1309.40635
380.946	1358.32414
381.453	1369.40719
381.96	1455.4654
382.468	1556.57652
382.975	1678.80591
383.482	1703.49555
383.989	1780.07159
384.495	1815.66543
385.002	1877.355
385.509	1925.76022
386.015	2175.31425
386.521	2211.69195
387.028	2356.80337
387.534	2410.57386
388.04	2478.00754
388.546	2541.69065
389.051	2675.63524
389.557	2817.91714
390.063	3149.87971
390.568	3175.98573
391.073	3335.63034
391.578	3455.95619
392.084	3498.42023
392.589	3701.26762
393.093	3890.55128
393.598	4272.11911
394.103	4704.15003
394.607	5119.8331
395.112	5599.79755
395.616	5857.51592
396.12	6322.10637
396.624	6962.16259
397.128	7651.55799
397.632	8388.26476
398.136	9138.67575
398.639	9668.0204
399.143	10773.79244
399.646	12284.34592
400.15	13636.74999
400.653	15084.73177
401.156	16827.15623
401.659	19711.8671
402.162	23861.02457
402.664	31934.00137
403.167	44066.13909
403.67	58576.77568
404.172	55487.84425
404.674	37291.05854
405.176	4428.40989
405.678	533.47942
406.18	0
406.682	0
407.184	6962.89417
407.686	50953.82939
408.187	59237.6763
408.688	61091.12691
409.19	57232.67425
409.691	46378.809
410.192	39036.41742
410.693	33773.55971
411.194	30514.47135
411.694	29149.06455
412.195	26768.3926
412.696	24119.72124
413.196	22541.94524
413.696	21957.13373
414.196	22077.8658
414.696	21695.75678
415.196	20670.91411
415.696	18874.70023
416.196	15298.09465
416.695	11864.73825
417.195	10005.0621
417.694	9483.83944
418.194	8920.25137
418.693	8389.24438
419.192	8208.06745
419.691	7935.76625
420.19	7899.7517
420.688	7560.62156
421.187	7172.78005
421.685	6785.14133
422.184	6204.24963
422.682	5379.23128
423.18	4557.0171
423.678	3939.3116
424.176	3758.42279
424.674	3559.26845
425.172	3385.73057
425.669	3128.13637
426.167	2943.77177
426.664	2761.72102
427.161	2411.70562
427.659	2341.06988
428.156	2107.35612
428.652	1991.04923
429.149	1940.83934
429.646	1887.4004
430.143	1709.64281
430.639	1616.51549
431.135	1497.55058
431.632	1464.26356
432.128	1389.37812
432.624	1274.39715
433.12	1262.08679
433.616	1220.91201
434.111	1128.04418
434.607	1111.01989
435.103	1100.67233
435.598	1079.6378
436.093	1013.81369
436.588	1017.75568
437.083	968.69344
437.578	894.61452
438.073	784.60412
438.568	806.61275
439.062	792.35941
439.557	761.45974
440.051	772.43141
440.546	719.36711
441.04	610.22798
441.534	682.47571
442.028	649.3207
442.522	645.32208
443.015	653.19322
443.509	674.40431
444.002	638.33922
444.496	580.0577
444.989	673.40689
445.482	511.11352
445.975	592.15995
446.468	580.06197
446.961	561.01341
447.454	495.96235
447.947	523.1016
448.439	573.22137
448.931	558.08651
449.424	482.05577
449.916	490.0322
450.408	507.01912
450.9	490.04532
451.392	476.07238
451.884	430.86247
452.375	437.96164
452.867	437.86983
453.358	440.87274
453.849	405.75999
454.341	473.93798
454.832	433.82456
455.323	449.97684
455.814	373.76457
456.304	444.90001
456.795	374.75778
457.285	419.81459
457.776	387.76923
458.266	390.83967
458.756	367.78422
459.247	374.79762
459.737	409.88303
460.226	396.79464
460.716	389.83878
461.206	309.66802
461.695	342.7843
462.185	377.80489
462.674	343.70244
463.163	314.62311
463.653	339.64146
464.142	293.64264
464.63	334.74011
465.119	352.74321
465.608	319.66334
466.096	287.57099
466.585	299.61815
467.073	272.59067
467.561	333.7402
468.05	307.64152
468.538	325.7374
469.026	311.68441
469.513	265.50978
470.001	265.55008
470.489	239.52288
470.976	292.61491
471.463	302.69702
471.951	284.6534
472.438	289.62398
472.925	211.45421
473.412	197.447
473.899	231.4932
474.385	212.48542
474.872	206.44564
475.359	214.48744
475.845	192.3689
476.331	206.40936
476.817	142.32332
477.303	224.48209
477.789	164.37099
478.275	209.48653
478.761	212.47331
479.247	159.33152
479.732	192.45303
480.218	192.47002
480.703	227.53342
481.188	76.15448
481.673	169.36474
482.158	135.27397
482.643	137.33033
483.128	142.30391
483.612	192.41696
484.097	127.29425
484.581	113.24482
485.066	136.31129
485.55	114.23479
486.034	165.33883
486.518	157.34871
487.002	126.29373
487.486	125.29053
487.969	174.40641
488.453	144.34623
488.936	84.18001
489.42	134.28058
489.903	109.26233
490.386	168.33852
490.869	83.16898
491.352	85.19749
491.835	92.17796
492.318	117.25262
492.8	79.15395
493.283	115.28169
493.765	136.31978
494.247	118.25877
494.73	78.1647
495.212	113.25849
495.694	65.14611
496.175	72.16467
496.657	145.32995
497.139	48.07586
497.62	71.16333
498.102	98.23429
498.583	13.03125
499.064	91.19682
499.545	95.20644
500.026	105.2236
500.507	69.15186
500.988	65.15388
501.469	24.05799
501.949	72.1691
502.43	32.07345
502.91	67.13187
503.39	117.27859
503.87	99.22336
504.35	20.04513
504.83	22.04674
505.31	72.1687
505.79	42.09722
506.269	46.10283
506.749	13.02877
507.228	24.05467
507.707	46.09807
508.187	45.10269
508.666	30.07104
509.145	25.05661
509.623	8.01823
510.102	57.13248
510.581	56.1288
511.059	56.13715
511.538	27.06758
512.016	67.15517
512.494	14.03273
512.972	50.11587
513.45	33.07515
513.928	49.11515
514.406	47.11221
514.884	40.10126
515.361	89.2067
515.839	39.08554
516.316	1.00233
516.793	61.14853
517.27	95.22177
517.747	64.15912
518.224	7.01566
518.701	55.1184
519.178	100.24272
519.654	-10.0227
520.131	-10.02394
520.607	15.03618
521.083	29.06465
521.56	-26.05992
522.036	75.15847
522.512	39.09304
522.987	57.13248
523.463	37.08566
523.939	47.1114
524.414	28.0621
524.89	34.07754
525.365	82.18005
525.84	44.10423
526.315	-4.00935
526.79	17.03691
527.265	0
527.74	-11.02618
528.215	15.03455
528.689	55.11921
529.164	-16.03321
529.638	34.08518
530.112	29.06735
530.587	50.10442
531.061	29.06839
531.534	-1.00235
532.008	44.10306
532.482	-34.07491
532.956	26.06565
533.429	-33.0764
533.903	-7.01495
534.376	21.04486
534.849	35.079
535.322	23.05276
535.795	-21.05031
536.268	31.07293
536.741	33.07676
537.213	24.05407
537.686	15.03536
538.158	12.02626
538.631	11.02583
539.103	27.05872
539.575	25.05022
540.047	19.04041
540.519	-25.05804
540.991	5.01181
541.463	13.03084
541.934	14.03128
542.406	-20.04694
542.877	-38.08411
543.348	-71.16535
543.82	-17.04071
544.291	-8.01792
544.762	9.02077
545.233	59.1449
545.703	-10.02175
546.174	37.08389
546.645	58.13691
547.115	19.04475
547.585	21.04765
548.056	28.06712
548.526	36.08257
548.996	4.00939
549.466	13.03072
549.935	67.15604
550.405	80.17062
550.875	22.05054
551.344	33.07773
551.814	-41.09129
552.283	-6.01264
552.752	12.0272
553.221	56.11752
553.69	52.11225
554.159	60.1453
554.628	22.04784
555.096	34.08385
555.565	-10.02176
556.033	36.0818
556.502	11.02591
556.97	0
557.438	-6.01392
557.906	54.1237
558.374	-6.01344
558.842	29.06754
559.31	-5.01084
559.777	10.02375
560.245	29.06522
560.712	-17.03782
561.18	24.05128
561.647	-23.05013
562.114	-5.01115
562.581	46.11039
563.048	3.00664
563.514	-2.00483
563.981	-2.00445
564.448	44.09584
564.914	6.01356
565.381	5.01091
565.847	44.09909
566.313	-2.00452
566.779	67.14708
567.245	32.07277
567.711	67.15616
568.176	126.27701
568.642	75.18323
569.108	49.11699
569.573	22.04963
570.038	102.2061
570.504	59.12963
570.969	82.19746
571.434	95.20196
571.899	102.23431
572.363	88.19184
572.828	95.20627
573.293	92.20294
573.757	147.32297
574.222	177.37807
574.686	96.2083
575.15	138.31434
575.614	134.29175
576.078	103.23134
576.542	130.28364
577.006	111.24162
577.469	119.2791
577.933	60.1288
578.396	130.29875
578.86	127.28325
579.323	126.28701
579.786	133.27114
580.249	102.22368
580.712	110.25542
581.175	86.20466
581.637	140.3096
582.1	52.10932
582.563	132.25949
583.025	113.26264
583.487	73.14036
583.95	78.16173
584.412	71.14165
584.874	85.19788
585.336	115.26147
585.797	65.13463
586.259	28.06283
586.721	74.16761
587.182	48.10646
587.643	81.17602
588.105	90.20525
588.566	112.22381
589.027	112.2614
589.488	31.06811
589.949	109.24934
590.41	119.22263
590.87	20.0433
591.331	34.06955
591.791	22.04859
592.252	22.04892
592.712	69.15917
593.172	29.06321
593.632	45.09195
594.092	44.09441
594.552	67.13684
595.011	64.14266
595.471	52.11177
595.931	30.06443
596.39	51.11831
596.849	8.01805
597.308	40.08305
597.768	71.17417
598.227	26.06078
598.685	10.02186
599.144	61.13684
599.603	53.12075
600.062	73.14517
600.52	86.18382
600.978	85.19452
601.437	67.14622
601.895	59.11968
602.353	65.13613
602.811	79.16692
603.269	112.25336
603.727	61.14049
604.184	79.17043
604.642	121.28046
605.099	67.1482
605.557	116.26508
606.014	58.11924
606.471	130.31245
606.928	173.36264
607.385	149.35028
607.842	153.33488
608.299	185.40218
608.755	187.42155
609.212	190.39713
609.668	183.38258
610.125	174.39105
610.581	164.35645
611.037	199.41898
611.493	136.30025
611.949	182.41121
612.405	207.38707
612.861	165.35626
613.316	232.51796
613.772	200.42766
614.227	164.36373
614.683	230.45258
615.138	248.54383
615.593	152.3284
616.048	193.40349
616.503	208.47474
616.958	172.40521
617.412	202.44446
617.867	185.38693
618.321	134.25261
618.776	182.37298
619.23	169.37537
619.684	224.45988
620.138	199.41732
620.592	157.35595
621.046	174.37803
621.5	204.45884
621.954	200.41228
622.407	181.37202
622.861	148.33207
623.314	183.38716
623.768	226.48723
624.221	239.43122
624.674	124.26527
625.127	198.42962
625.58	108.22554
626.033	159.32017
626.485	133.29835
626.938	177.38888
627.39	204.43905
627.843	119.25617
628.295	174.37449
628.747	180.39789
629.199	178.37996
629.651	144.30725
630.103	151.32562
630.555	98.19284
631.006	121.2663
631.458	112.24457
631.909	117.24948
632.361	112.24261
632.812	133.28939
633.263	118.23482
633.714	87.17204
634.165	72.16208
634.616	104.23143
635.067	127.25797
635.518	73.16214
635.968	147.2697
636.419	163.32202
636.869	39.0876
637.319	120.25982
637.769	118.24905
638.219	103.22725
638.669	77.17522
639.119	119.27145
639.569	142.32476
640.019	115.24799
640.468	108.22223
640.918	138.30963
641.367	151.3161
641.816	155.32347
642.265	149.3213
642.714	124.27135
643.163	94.20048
643.612	147.33613
644.061	119.23311
644.51	132.28361
644.958	153.31305
645.406	145.32728
645.855	149.34097
646.303	170.36651
646.751	139.29884
647.199	97.20405
647.647	179.38815
648.095	99.21303
648.543	97.18246
648.99	150.33794
649.438	205.44585
649.885	195.4534
650.333	154.26882
650.78	167.38462
651.227	164.37673
651.674	180.3824
652.121	96.21823
652.568	102.23525
653.015	96.22573
653.461	130.29121
653.908	164.35524
654.354	145.31938
654.801	148.32674
655.247	165.33363
655.693	122.30243
656.139	145.32541
656.585	179.40154
657.031	125.27822
657.477	190.38268
657.922	173.37466
658.368	129.29853
658.813	122.25952
659.259	139.31566
659.704	183.40071
660.149	145.31684
660.594	156.34786
661.039	170.36383
661.484	163.36445
661.929	161.3506
662.373	168.40469
662.818	156.3678
663.262	152.34245
663.707	148.35206
664.151	233.53404
664.595	147.33477
665.039	209.48134
665.483	183.44191
665.927	192.41696
666.371	165.3616
666.814	171.38076
667.258	228.5063
667.701	185.36102
668.145	201.46366
668.588	160.37078
669.031	197.43628
669.474	218.4859
669.917	218.44029
670.36	178.41118
670.803	256.5654
671.245	219.41864
671.688	208.46899
672.13	161.33539
672.573	243.57568
673.015	256.56256
673.457	224.45199
673.899	233.51815
674.341	231.51456
674.783	241.5375
675.225	253.57312
675.666	231.51754
676.108	296.583
676.549	231.50132
676.991	263.52422
677.432	248.43887
677.873	275.57669
678.314	271.59063
678.755	332.73782
679.196	250.52902
679.637	255.56684
680.078	278.58981
680.518	214.45007
680.959	274.59932
681.399	181.41636
681.839	305.67459
682.28	332.74945
682.72	271.56152
683.16	272.62554
683.6	330.67322
684.039	348.63514
684.479	313.70123
684.919	297.63026
685.358	317.72916
685.798	303.725
686.237	376.80954
686.676	337.69827
687.115	339.71561
687.554	333.71188
687.993	331.64073
688.432	368.75756
688.871	360.72741
689.309	401.87799
689.748	341.62851
690.186	368.77529
690.625	408.86483
691.063	429.92184
691.501	453.99224
691.939	399.89239
692.377	411.89571
692.815	449.96024
693.253	449.93573
693.69	404.777
694.128	507.08469
694.565	456.95812
695.003	433.98436
695.44	423.87293
695.877	490.00685
696.314	469.86146
696.751	418.82872
697.188	493.98815
697.625	492.96085
698.061	485.0165
698.498	543.12826
698.934	502.03759
699.371	533.08824
699.807	562.1395
700.243	564.1816
700.679	582.10914
701.115	520.0417
701.551	585.17892
701.987	589.09397
702.422	540.09831
702.858	586.17471
703.294	539.02729
703.729	645.34233
704.164	676.37291
704.599	612.12408
705.035	623.16702
705.47	673.39571
705.904	560.10439
706.339	622.18724
706.774	652.26267
707.209	583.13124
707.643	703.39958
708.078	672.36354
708.512	718.53582
708.946	724.41505
709.38	669.30584
709.814	692.28345
710.248	685.36876
710.682	751.47726
711.116	757.49886
711.549	707.52237
711.983	692.30068
712.416	732.39085
712.85	802.64839
713.283	768.47425
713.716	791.61226
714.149	773.46854
714.582	757.36696
715.015	749.53209
715.448	736.5092
715.881	793.32449
716.313	827.55987
716.746	782.49973
717.178	756.47629
717.61	783.63493
718.043	816.62977
718.475	779.52451
718.907	814.64154
719.339	755.37793
719.77	837.61426
720.202	778.61121
720.634	877.7182
721.065	783.49118
721.497	840.66072
721.928	814.63253
722.359	813.61515
722.79	824.58193
723.221	770.56905
723.652	845.74503
724.083	806.4286
724.514	759.3636
724.945	860.59887
725.375	819.52137
725.806	738.48129
726.236	774.62576
726.666	804.50567
727.096	757.50235
727.526	812.68992
727.956	815.46218
728.386	761.49555
728.816	761.59386
729.246	788.56942
729.675	859.71378
730.105	797.57376
730.534	724.37563
730.964	722.48646
731.393	778.52937
731.822	799.67721
732.251	789.65111
732.68	725.33976
733.109	746.51114
733.537	773.50704
733.966	726.47594
734.395	735.35286
734.823	817.42377
735.251	718.41855
735.68	774.56793
736.108	745.54039
736.536	813.52069
736.964	765.41101
737.392	682.40464
737.82	768.47496
738.247	757.44577
738.675	707.35208
739.102	703.47875
739.53	736.56893
739.957	687.46977
740.384	749.47885
740.811	728.53509
741.238	713.41425
741.665	708.35889
742.092	689.32777
742.519	772.57954
742.945	667.31857
743.372	684.41255
743.798	719.53299
744.225	689.33668
744.651	586.24074
745.077	624.30807
745.503	647.29869
745.929	683.33763
746.355	667.34321
746.781	623.29246
747.207	636.25866
747.632	642.31918
748.058	607.26146
748.483	621.16154
748.908	611.27881
749.334	616.26796
749.759	615.19913
750.184	571.14433
750.609	653.32282
751.033	636.20873
751.458	686.25397
751.883	607.25361
752.307	623.24124
752.732	588.26993
753.156	570.19314
753.58	574.13576
754.005	675.44531
754.429	492.96996
754.853	530.13178
755.277	575.15236
755.7	565.18709
756.124	564.21179
756.548	558.12571
756.971	531.09838
757.394	535.18905
757.818	555.24071
758.241	513.11647
758.664	556.21865
759.087	633.18754
759.51	562.18985
759.933	483.01096
760.356	466.04253
760.778	583.24003
761.201	506.02997
761.623	487.99416
762.046	515.00382
762.468	523.0615
762.89	547.14871
763.312	480.00001
763.734	488.01536
764.156	519.10514
764.578	491.94594
765	477.0041
765.421	516.1617
765.843	465.07803
766.264	470.96839
766.686	481.06
767.107	510.07629
767.528	424.96254
767.949	433.96961
768.37	402.86365
768.791	459.95401
769.212	442.99566
769.632	398.80862
770.053	391.92513
770.473	434.92436
770.894	378.82572
771.314	417.85282
771.734	376.76148
772.154	392.89713
772.575	333.67826
772.994	383.76163
773.414	343.71007
773.834	386.86279
774.254	324.70418
774.673	347.74502
775.093	390.86166
775.512	354.78409
775.931	412.93607
776.351	321.70938
776.77	362.79078
777.189	307.64493
777.607	335.77333
778.026	352.7894
778.445	331.75679
778.864	279.64612
779.282	281.60099
779.701	349.78734
780.119	236.54211
780.537	279.62893
780.955	296.67692
781.373	295.65574
781.791	296.5948
782.209	264.54763
782.627	282.68363
783.045	282.57843
783.462	191.44743
783.88	263.62666
784.297	215.49694
784.715	264.63086
785.132	241.52882
785.549	237.54996
785.966	217.49817
786.383	192.43787
786.8	269.56012
787.217	150.32672
787.633	151.35138
788.05	152.32123
788.466	238.50054
788.883	222.52665
789.299	103.22859
789.715	231.5152
790.131	146.33471
790.547	139.31553
790.963	195.44498
791.379	196.45815
791.795	175.36213
792.21	151.32254
792.626	148.32264
793.041	107.24466
793.457	140.3189
793.872	164.35448
794.287	206.46201
794.702	143.32395
795.117	74.17162
795.532	127.30135
795.947	123.27047
796.362	109.23828
796.776	93.19451
797.191	89.20261
797.605	125.27845
798.02	148.3363
798.434	131.2633
798.848	66.15174
799.262	168.39224
799.676	87.19589
800.09	95.21696
800.504	115.25861
800.918	53.11434
801.331	53.13059
801.745	105.22156
802.158	80.1873
802.572	96.21522
802.985	75.16672
803.398	97.21491
803.811	69.16581
804.224	68.15815
804.637	-2.00444
805.05	89.19085
805.462	45.1036
805.875	84.21006
806.288	46.10597
806.7	29.06908
807.112	64.13816
807.525	72.16758
807.937	46.10757
808.349	68.15933
808.761	64.14525
809.173	34.07663
809.584	27.06261
809.996	29.06762
810.408	34.08404
810.819	73.16066
811.231	62.15622
811.642	103.23921
812.053	96.21699
812.464	99.22117
812.875	51.12381
813.286	21.05125
813.697	-1.00214
814.108	50.11329
814.519	17.03505
814.929	20.04781
815.34	-8.01838
815.75	32.07715
816.16	-54.12673
816.571	28.06928
816.981	12.02622
817.391	17.03857
817.801	40.09537
818.211	80.17832
818.62	4.00909
819.03	26.05932
819.44	34.08388
819.849	45.1076
820.259	42.10213
820.668	29.06842
821.077	35.08254
821.486	23.0514
821.895	20.04565
822.304	23.05827
822.713	27.05967
823.122	62.14658
823.531	50.11163
823.939	24.05538
824.348	45.10319
824.756	63.14741
825.164	49.11501
825.573	12.02862
825.981	54.12593
826.389	15.03515
826.797	69.16265
827.205	38.08143
827.612	-2.00464
828.02	8.01794
828.428	-13.03146
828.835	43.10798
829.243	38.08442
829.65	16.03789
830.057	52.11988
830.464	18.04201
830.871	29.06484
831.278	-32.07289
831.685	-4.00823
832.092	27.06273
832.499	2.00406
832.905	47.11281
833.312	12.02537
833.718	13.03048
834.124	2.00431
834.531	16.03796
834.937	7.0169
835.343	71.15993
835.749	40.08605
836.155	0
836.561	-16.03664
836.966	13.02988
837.372	-5.01206
837.777	-25.059
838.183	-60.12279
838.588	73.17088
838.993	-5.01136
839.399	-27.06256
839.804	-15.03525
840.209	19.04644
840.613	38.0795
841.018	-54.12969
841.423	-15.03629
841.828	-10.02406
842.232	-11.02532
842.637	-43.09464
843.041	20.04965
843.445	-18.04256
843.849	-24.05665
844.253	-6.0133
844.657	-51.12469
845.061	7.01491
845.465	39.09072
845.869	7.01517
846.272	-15.0347
846.676	32.07295
847.079	0
847.483	55.12819
847.886	-39.08846
848.289	38.09838
848.692	-25.06028
849.095	-33.07427
849.498	10.02343
849.901	-14.02983
850.304	-36.08091
850.707	2.00483
851.109	-16.03767
851.512	13.03048
851.914	58.14088
852.316	-9.02178
852.718	14.03493
853.121	12.02781
853.523	-32.07056
853.925	-21.0527
854.326	57.13593
854.728	-6.01473
855.13	47.11581
855.531	31.07091
855.933	3.00675
856.334	10.0238
856.736	-57.1198
857.137	20.04356
857.538	-44.10612
857.939	27.0635
858.34	-21.04813
858.741	-8.01996
859.142	18.0408
859.542	61.15603
859.943	9.02139
860.343	-22.05235
860.744	39.08972
861.144	12.0276
861.544	-1.00232
861.945	-19.04585
862.345	-48.10969
862.745	-7.01652
863.145	-22.04853
863.544	32.07744
863.944	8.01766
864.344	-39.09093
864.743	34.07932
865.143	40.09709
865.542	-38.08302
865.941	22.05195
866.34	62.13843
866.74	-5.01286
867.139	12.02729
867.537	-28.06763
867.936	9.02051
868.335	30.07284
868.734	53.12929
869.132	34.07437
869.531	1.00227
869.929	5.01082
870.327	-2.00452
870.726	-16.0377
871.124	34.07324
871.522	-19.04566
871.92	1.00233
872.318	32.07372
872.715	2.00465
873.113	-17.03942
873.511	-26.06187
873.908	-3.00741
874.306	20.04721
874.703	-3.0071
875.1	-7.01689
875.497	-4.00898
875.894	32.07533
876.291	14.0327
876.688	-2.0049
877.085	-5.01124
877.482	-34.08041
877.878	-31.07117
878.275	-29.07006
878.671	-66.1344
879.068	24.05418
879.464	2.00458
879.86	-6.0136
880.256	-6.01379
880.652	0
881.048	-3.00693
881.444	10.02197
881.84	31.07393
882.236	28.06658
882.631	2.00465
883.027	11.02458
883.422	-29.07075
883.817	-17.0413
884.213	28.06819
884.608	36.08405
885.003	19.04325
885.398	-4.0095
885.793	10.02361
886.188	-4.00957
886.582	-15.03584
886.977	13.02885
887.371	9.02152
887.766	-9.0215
888.16	23.05422
888.554	-8.01847
888.949	-20.04694
889.343	-52.11917
889.737	-8.02083
890.131	-5.01198
890.525	-8.0194
890.918	1.00241
891.312	-33.07318
891.706	48.12034
892.099	5.01201
892.492	29.05772
892.886	-26.05994
893.279	-10.02428
893.672	10.02426
894.065	-6.01417
894.458	-21.05014
894.851	-31.0708
895.244	40.09661
895.637	40.09038
896.029	9.02075
896.422	-20.04604
896.814	-7.01655
897.206	17.03856
897.599	-32.0733
897.991	11.02515
898.383	6.01324
898.775	-10.02104
899.167	-9.02003
899.559	8.01905
899.951	12.0264
900.342	-6.0142
900.734	23.05527
901.125	-30.07461
901.517	19.04421
901.908	-6.01339
902.299	3.00697
902.69	-20.04464
903.082	3.00683
903.473	30.06823
903.863	37.09023
904.254	11.02375
904.645	-13.03014
905.036	12.02789
905.426	-71.14896
905.817	26.05992
906.207	-23.05223
906.597	47.10279
906.987	-22.05362
907.378	-12.02866
907.768	3.00761
908.158	4.00923
908.547	-47.11717
908.937	5.01211
909.327	-25.05719
909.717	17.04031
910.106	-16.03634
910.495	41.09676
910.885	-18.04254
911.274	34.08044
911.663	66.15857
912.052	-3.00692
912.441	24.05834
912.83	16.03402
913.219	-11.02709
913.608	-9.02082
913.997	-1.00238
914.385	-16.03555
914.774	9.02051
915.162	-27.06052
915.55	4.00911
915.939	-6.01447
916.327	-4.00944
916.715	5.01223
917.103	21.04808
917.491	-56.13008
917.878	-38.08712
918.266	-18.04446
918.654	56.13638
919.041	-34.0853
919.429	41.09069
919.816	-29.06964
920.203	22.05017
920.591	-35.08186
920.978	-14.0323
921.365	-31.07756
921.752	41.09171
922.139	-3.0061
922.525	3.00678
922.912	-5.01145
923.299	-31.07381
923.685	0
924.072	-60.12913
924.458	-41.09695
924.844	-15.03515
925.231	-28.06094
925.617	-9.0222
926.003	31.07475
926.389	58.13877
926.774	29.06971
927.16	1.00233
927.546	-12.02933
927.931	30.07035
928.317	-25.05296
928.702	-61.13571
929.088	6.0134
929.473	11.02656
929.858	31.07188
930.243	39.08821
930.628	-45.10377
931.013	40.09446
931.398	-10.02127
931.783	38.09461
932.167	-15.03446
932.552	-51.12018
932.937	-41.09511
933.321	-33.07855
933.705	41.09849
934.09	-7.01648
934.474	36.07948
934.858	8.01983
935.242	7.01546
935.626	-37.09013
936.009	-37.09451
936.393	27.06557
936.777	11.02698
937.16	-36.08846
937.544	-10.02201
937.927	18.04339
938.311	8.01819
938.694	27.06768
939.077	-38.08547
939.46	70.16048
939.843	-12.02267
940.226	-11.02668
940.609	-50.10784
940.991	4.00966
941.374	-24.05524
941.757	4.00928
942.139	-45.0942
942.522	-34.07465
942.904	23.05198
943.286	-45.10814
943.668	17.0417
944.05	19.04399
944.432	12.02805
944.814	-17.0392
945.196	-15.03515
945.578	8.01814
945.959	22.04827
946.341	0
946.722	60.13102
947.104	-21.04692
947.485	2.00434
947.866	25.06005
948.247	19.04533
948.628	11.025
949.009	0
949.39	-8.01843
949.771	6.01291
950.152	4.00932
950.532	22.05278
950.913	-16.03594
951.293	1.00261
951.674	-9.02034
952.054	3.00706
952.434	-5.01163
952.814	-31.06831
953.194	11.02743
953.574	-26.05968
953.954	19.04224
954.334	30.07076
954.714	-11.02546
955.093	-8.01829
955.473	-29.06842
955.853	26.06403
956.232	21.05498
956.611	-22.04869
956.99	-2.00479
957.37	-6.01452
957.749	-10.02219
958.128	21.05056
958.506	20.04971
958.885	-47.11273
959.264	-44.10294
959.643	16.03396
960.021	-21.04948
960.4	56.11902
960.778	-31.07088
961.156	-2.00475
961.535	-64.13774
961.913	-36.07755
962.291	44.10804
962.669	-11.02658
963.047	-33.07924
963.424	35.08465
963.802	-26.05992
964.18	11.02606
964.557	-13.02752
964.935	13.02866
965.312	-14.03506
965.69	-34.08044
966.067	0
966.444	-13.03025
966.821	-7.01704
967.198	-43.09722
967.575	-25.05749
967.952	53.11581
968.329	-15.0343
968.705	-7.01363
969.082	3.00736
969.458	20.04569
969.835	2.00457
970.211	24.05834
970.587	3.00705
970.963	7.01697
971.339	1.00251
971.715	-27.06288
972.091	-7.01622
972.467	-37.0861
972.843	-1.00235
973.219	-11.02441
973.594	-7.0175
973.97	-13.02863
974.345	-21.04738
974.721	26.05843
975.096	-38.08621
975.471	38.08421
975.846	47.10609
976.221	24.05766
976.596	-16.03622
976.971	11.02558
977.346	-17.03653
977.72	-30.07268
978.095	25.06133
978.469	48.10677
978.844	62.1451
979.218	4.00911
979.593	-5.01129
979.967	54.12345
980.341	33.06988
980.715	-2.00474
981.089	-66.15628
981.463	50.10761
981.837	31.07168
982.21	1.00215
982.584	-29.06586
982.957	40.09468
983.331	41.09008
983.704	-9.02108
984.078	-27.06268
984.451	-19.04364
984.824	-10.02324
985.197	-32.0733
985.57	-29.06836
985.943	-2.00455
986.316	38.08712
986.688	-14.03163
987.061	38.08168
987.434	31.07661
987.806	-1.00227
988.179	-74.16494
988.551	-4.00953
988.923	-1.00231
989.295	-10.02355
989.667	35.07997
990.039	2.00469
990.411	53.11395
990.783	28.05943
991.155	21.04815
991.527	-28.06368
991.898	-7.01638
992.27	47.10907
992.641	62.14419
993.012	18.03984
993.384	-24.05405
993.755	-29.07006
994.126	-23.05238
994.497	-34.07914
994.868	44.09388
995.239	41.09337
995.61	-53.12702
995.98	27.06219
996.351	6.01415
996.722	37.08051
997.092	-22.04977
997.462	6.01331
997.833	7.01544
998.203	38.0853
998.573	13.0308
998.943	6.01299
999.313	4.00906
999.683	-62.14003
1000.053	52.11115
1000.423	38.08624
1000.792	8.01972
1001.162	-26.06111
1001.531	10.02338
1001.901	-11.0258
1002.27	57.11784
1002.639	-10.02439
1003.009	71.15875
1003.378	-9.02192
1003.747	28.06133
1004.116	-50.11445
1004.485	47.10526
1004.853	-3.00721
1005.222	23.05531
1005.591	-11.0243
1005.959	35.07421
1006.328	18.03742
1006.696	10.02285
1007.064	-17.04065
1007.433	55.1293
1007.801	21.0479
1008.169	-32.07627
1008.537	83.16829
1008.905	-24.05292
1009.273	-1.00233
1009.64	-29.06588
1010.008	14.03112
1010.375	44.09925
1010.743	-20.04214
1011.11	-7.01563
1011.478	-8.01866
1011.845	-32.06964
1012.212	12.02495
1012.579	-6.01395
1012.946	20.04364
1013.313	3.00666
1013.68	-8.0166
1014.047	33.07467
1014.414	36.08008
1014.78	14.03315
1015.147	18.04006
1015.513	65.14797
1015.88	9.02141
1016.246	-11.02573
1016.612	-2.00422
1016.978	-20.04615
1017.344	78.18147
1017.71	-18.04044
1018.076	-2.0044
1018.442	-7.01701
1018.808	42.0986
1019.174	-42.09976
1019.539	-24.05003
1019.905	15.03333
1020.27	-10.02361
1020.636	38.0846
1021.001	-25.05601
1021.366	1.00231
1021.731	-18.0443
1022.096	-4.00967
1022.461	-49.10834
1022.826	38.08425
1023.191	-7.01753
1023.556	-40.08705
1023.92	-5.01144
1024.285	5.01141
1024.649	0
1025.014	-5.01167
1025.378	-26.06292
1025.742	-14.03285
1026.107	-32.06689
1026.471	2.00425
1026.835	-40.09314
1027.199	-23.0527
1027.562	8.01748
1027.926	-10.02295
1028.29	-10.0241
1028.654	-2.00424
1029.017	42.09687
1029.381	19.04273
1029.744	30.07271
1030.107	-42.09191
1030.471	7.01563
1030.834	-26.0543
1031.197	-4.00889
1031.56	28.06233
1031.923	-46.11374
1032.286	35.07567
1032.648	39.08605
1033.011	-52.11312
1033.374	-21.0456
1033.736	-15.03764
1034.099	59.13469
1034.461	-5.0121
1034.823	-32.0753
1035.185	-28.06586
1035.548	-12.02747
1035.91	33.07439
1036.272	-4.00851
1036.634	9.02036
1036.995	24.05316
1037.357	1.0023
1037.719	-23.05276
1038.08	-46.10117
1038.442	59.13284
1038.803	14.03119
1039.165	-3.00718
1039.526	-17.03879
1039.887	22.04961
1040.248	18.04272
1040.609	12.02781
1040.97	-18.0415
1041.331	-50.11862
1041.692	-25.05553
1042.053	13.02715
1042.413	29.06186
1042.774	20.04526
1043.134	14.0307
1043.495	-35.08299
1043.855	21.04775
1044.215	-23.05388
1044.576	-5.01135
1044.936	35.0747
1045.296	11.02568
1045.656	13.02993
1046.016	-3.0067
1046.375	-22.05092
1046.735	36.07665
1047.095	19.04153
1047.454	37.07135
1047.814	-9.02017
1048.173	-10.02196
1048.533	11.02363
1048.892	-11.02512
1049.251	32.07539
1049.61	-35.08071
1049.969	31.06863
1050.328	-4.00789
1050.687	-33.07582
1051.046	35.08039
1051.405	-46.10728
1051.763	-1.00216
1052.122	40.09468
1052.48	-8.01836
1052.839	-15.03323
1053.197	26.05711
1053.555	-25.05115
1053.914	3.00686
1054.272	15.03379
1054.63	-25.05744
1054.988	19.04204
1055.345	-28.05523
1055.703	10.02228
1056.061	-29.07125
1056.419	11.02715
1056.776	8.01809
1057.134	21.04503
1057.491	-18.04256
1057.848	-15.03506
1058.206	-13.02862
1058.563	33.06783
1058.92	0
1059.277	-51.11727
1059.634	-35.0757
1059.991	45.1007
1060.348	52.10946
1060.704	-44.09962
1061.061	-26.05519
1061.418	15.03438
1061.774	38.08925
1062.131	27.06938
1062.487	-48.10508
1062.843	18.04213
1063.199	26.06116
1063.555	-5.01094
1063.911	-41.09819
1064.267	-40.075
1064.623	-20.0465
1064.979	-41.08894
1065.335	6.01316
1065.691	34.07676
1066.046	-22.04451
1066.402	7.01478
1066.757	5.01194
1067.112	12.02728
1067.468	1.00226
1067.823	15.03387
1068.178	44.09982
1068.533	0
1068.888	0
1069.243	34.07904
1069.598	-25.05636
1069.952	3.00642
1070.307	22.05215
1070.662	44.09751
1071.016	40.08368
1071.371	-20.04234
1071.725	-61.13436
1072.079	-19.04294
1072.434	-34.07807
1072.788	42.09377
1073.142	49.11353
1073.496	3.00667
1073.85	-19.04118
1074.203	-3.00681
1074.557	-8.02048
1074.911	1.0022
1075.265	7.01495
1075.618	77.17486
1075.971	-11.02441
1076.325	14.03364
1076.678	-46.09917
1077.031	-23.04855
1077.385	8.01644
1077.738	-4.00844
1078.091	33.07073
1078.444	-39.08385
1078.796	8.01861
1079.149	-20.04639
1079.502	-38.08505
1079.855	4.00877
1080.207	-1.00231
1080.56	-15.03685
1080.912	-29.06556
1081.264	6.01353
1081.617	-9.02075
1081.969	17.04132
1082.321	7.01608
1082.673	0
1083.025	-46.10215
1083.377	-6.01166
1083.728	-50.10757
1084.08	-9.02141
1084.432	-69.15447
1084.783	62.13556
1085.135	32.07656
1085.486	0
1085.838	-26.06066
1086.189	-5.01141
1086.54	11.02455
1086.891	31.07495
1087.242	-38.08687
1087.593	-38.08666
1087.944	-14.02944
1088.295	-14.02929
1088.646	-40.09207
1088.996	-67.15339
1089.347	-14.03217
1089.698	-16.03599
1090.048	-37.091
1090.398	17.03691
1090.749	3.00675
1091.099	21.05037
1091.449	-42.09868
1091.799	-21.0497
1092.149	49.11448
1092.499	-24.0556
1092.849	-13.03143
1093.199	-13.03062
1093.548	7.0159
1093.898	11.02602
1094.248	-1.00243
1094.597	-4.00986
1094.947	8.02028
1095.296	-20.04646
1095.645	26.06356
1095.994	1.00227
1096.343	76.18051
1096.692	-13.03301
1097.041	-1.00261
1097.39	-11.026
1097.739	35.0863
1098.088	-16.04046
1098.437	-43.1091
1098.785	-3.00768
1099.134	-43.10794
1099.482	-29.07605
1099.83	-31.07754
1100.179	25.06282
1100.527	7.01756
1100.875	-16.04043
1101.223	18.04586
1101.571	-17.04547
1101.919	-21.05304
1102.267	17.04656
1102.615	6.01928
1102.962	7.02245
1103.31	10.03209
1103.658	-12.03852
