Data from N3 R6 sample 11_Subt2__0__15-26-39-019.txt Node

Date: Fri Sep 19 15:26:39 PDT 2025
User: uwsun
Spectrometer: HDX01956
Trigger mode: 0
Integration Time (sec): 5.000000E-1
Scans to average: 1
Nonlinearity correction enabled: true
Boxcar width: 0
Storing dark spectrum: false
XAxis mode: Wavelengths
Number of Pixels in Spectrum: 2068
>>>>>Begin Spectral Data<<<<<
194.03	31.08962
194.578	51.16491
195.127	43.13732
195.676	24.07675
196.225	18.04743
196.773	48.13311
197.321	60.16602
197.87	97.24724
198.418	119.30513
198.966	138.35898
199.513	124.31266
200.061	89.22413
200.609	101.26368
201.156	107.22756
201.704	123.3043
202.251	114.29878
202.798	117.30158
203.345	122.29756
203.892	87.21728
204.438	137.32144
204.985	109.25685
205.532	173.45579
206.078	118.28608
206.624	111.27189
207.17	85.19522
207.716	78.18647
208.262	112.21602
208.808	112.27581
209.354	74.17914
209.899	113.27987
210.445	95.23658
210.99	80.19242
211.535	93.21582
212.08	85.19506
212.625	89.22043
213.17	136.33713
213.715	74.16576
214.259	118.27204
214.804	92.22322
215.348	138.30836
215.892	123.29141
216.436	140.3189
216.98	69.14962
217.524	75.17577
218.068	105.26053
218.612	108.26518
219.155	102.23609
219.698	88.20474
220.242	95.23253
220.785	124.28439
221.328	119.29159
221.871	122.30243
222.414	86.20803
222.956	103.24563
223.499	76.16842
224.041	77.1738
224.583	107.2237
225.126	134.29261
225.668	103.24648
226.21	97.23989
226.751	36.07715
227.293	27.06067
227.835	69.16562
228.376	109.24301
228.918	104.25715
229.459	130.32073
230	74.17346
230.541	83.1865
231.082	90.21475
231.622	93.21017
232.163	110.26398
232.704	105.25461
233.244	99.24097
233.784	114.27035
234.324	109.23767
234.864	83.18374
235.404	69.15981
235.944	79.18209
236.484	96.23213
237.023	114.26439
237.563	37.08467
238.102	83.19246
238.641	128.31858
239.18	107.24683
239.719	116.28735
240.258	89.19456
240.797	114.26816
241.335	74.17569
241.874	122.22931
242.412	89.20898
242.95	128.30144
243.488	158.34882
244.026	103.23324
244.564	113.22544
245.102	111.24347
245.64	135.31514
246.177	73.15958
246.715	99.22965
247.252	47.10535
247.789	69.11952
248.326	62.1455
248.863	95.20231
249.4	147.32745
249.936	104.20744
250.473	72.16586
251.009	123.27751
251.546	99.21431
252.082	105.22662
252.618	112.24561
253.154	101.23772
253.69	72.15882
254.226	95.22133
254.761	76.16505
255.297	96.20644
255.832	70.16215
256.367	62.14311
256.903	80.17092
257.438	110.24904
257.972	70.15169
258.507	127.28724
259.042	67.13964
259.576	54.11527
260.111	80.18046
260.645	127.26775
261.179	127.2863
261.713	88.19021
262.247	174.39105
262.781	114.23447
263.315	132.31533
263.849	122.298
264.382	131.29024
264.915	105.24251
265.449	100.24044
265.982	80.17603
266.515	110.26257
267.048	129.26646
267.58	84.1762
268.113	131.27703
268.646	149.36076
269.178	73.16052
269.71	108.22824
270.243	114.25326
270.775	117.29157
271.307	68.15858
271.838	100.23018
272.37	134.32255
272.902	150.3324
273.433	126.26535
273.965	192.45584
274.496	79.19092
275.027	147.3523
275.558	116.27435
276.089	126.30937
276.62	91.22612
277.15	147.35096
277.681	45.0945
278.211	106.25186
278.741	162.34851
279.272	105.23467
279.802	134.32707
280.332	171.39021
280.861	57.13546
281.391	95.20995
281.921	87.20261
282.45	195.47568
282.98	149.37978
283.509	107.2346
284.038	103.22516
284.567	97.21706
285.096	107.2537
285.625	144.32203
286.153	79.18151
286.682	103.22849
287.21	87.20548
287.739	112.25646
288.267	135.32021
288.795	153.39039
289.323	180.41216
289.851	123.27921
290.378	143.3118
290.906	95.22777
291.433	171.41356
291.961	72.15936
292.488	154.3728
293.015	167.38431
293.542	132.32518
294.069	107.25771
294.596	170.40672
295.122	171.39525
295.649	160.3445
296.175	120.27985
296.702	145.33768
297.228	114.26607
297.754	148.32113
298.28	137.30126
298.806	152.35754
299.332	128.27572
299.857	114.25021
300.383	146.35609
300.908	156.37194
301.433	170.40268
301.958	132.29093
302.483	181.444
303.008	139.33186
303.533	123.30764
304.058	144.32827
304.582	153.3521
305.107	183.46676
305.631	112.24706
306.155	177.40293
306.679	184.41674
307.203	179.40253
307.727	210.482
308.251	187.44508
308.775	156.35907
309.298	216.50213
309.822	186.45364
310.345	192.43875
310.868	200.46016
311.391	211.49814
311.914	192.46653
312.437	162.35391
312.96	200.45611
313.482	207.47426
314.005	194.47103
314.527	211.53703
315.049	191.46349
315.571	291.62668
316.093	235.56232
316.615	186.43785
317.137	167.34805
317.659	182.42192
318.18	244.56407
318.702	201.45144
319.223	222.43436
319.744	221.47778
320.265	225.52686
320.786	241.57315
321.307	269.64219
321.828	248.54039
322.348	252.57004
322.869	197.44137
323.389	168.30365
323.909	253.55445
324.43	250.57036
324.95	270.59107
325.47	279.65713
325.989	291.66428
326.509	286.59936
327.029	267.57302
327.548	289.61943
328.067	269.61827
328.587	288.68477
329.106	284.60964
329.625	274.67495
330.144	238.52037
330.662	294.64633
331.181	289.64347
331.7	342.74962
332.218	319.65625
332.736	295.64812
333.255	336.7343
333.773	326.7293
334.291	304.71057
334.808	279.58482
335.326	352.74451
335.844	318.7073
336.361	349.83185
336.879	329.72128
337.396	363.80955
337.913	389.8251
338.43	381.80602
338.947	382.84962
339.464	314.63272
339.981	381.84793
340.497	377.87199
341.014	385.86676
341.53	390.82668
342.046	377.86887
342.562	381.88683
343.078	388.84613
343.594	433.96123
344.11	444.96822
344.626	422.99324
345.141	430.91106
345.657	415.85565
346.172	428.94717
346.687	452.95558
347.202	469.96003
347.717	463.01387
348.232	501.14557
348.747	470.98623
349.261	496.00178
349.776	517.08942
350.29	531.19576
350.805	450.01246
351.319	481.02275
351.833	515.06379
352.347	469.98956
352.861	546.14383
353.374	517.06124
353.888	516.11897
354.401	513.06155
354.915	550.11157
355.428	629.39478
355.941	548.15056
356.454	567.12896
356.967	543.15834
357.48	547.1194
357.993	532.18115
358.505	606.33676
359.018	546.18664
359.53	583.24702
360.042	551.06955
360.554	597.27756
361.066	574.24441
361.578	659.25891
362.09	642.34645
362.602	684.30202
363.113	579.17109
363.625	660.30745
364.136	661.25725
364.647	649.32609
365.158	681.38528
365.669	669.42813
366.18	542.11491
366.691	699.32579
367.201	671.38846
367.712	647.26283
368.222	744.4803
368.733	712.33834
369.243	704.31613
369.753	725.42537
370.263	685.40418
370.773	737.57616
371.282	769.55175
371.792	755.46424
372.301	787.62515
372.811	800.7849
373.32	785.38877
373.829	868.72255
374.338	812.50797
374.847	858.62122
375.356	904.78991
375.865	1003.67831
376.373	1045.8721
376.882	1041.12554
377.39	1099.09779
377.898	1088.15619
378.407	1089.88039
378.915	1136.84857
379.423	1260.24401
379.93	1326.17766
380.438	1386.49972
380.946	1416.38672
381.453	1498.54754
381.96	1557.56765
382.468	1717.72133
382.975	1838.94411
383.482	1711.50137
383.989	1765.05744
384.495	1903.72306
385.002	2049.4269
385.509	2127.86909
386.015	2243.32751
386.521	2393.74016
387.028	2505.83382
387.534	2615.5901
388.04	2626.03454
388.546	2702.6978
389.051	2936.61624
389.557	3170.8807
390.063	3334.83837
390.568	3423.92902
391.073	3519.56913
391.578	3665.88706
392.084	3797.29313
392.589	4088.07698
393.093	4409.285
393.598	4808.81693
394.103	5185.88045
394.607	5669.56065
395.112	5986.63642
395.616	6335.37917
396.12	7001.14627
396.624	7675.51572
397.128	8369.30181
397.632	9228.88415
398.136	9925.85295
398.639	10810.11729
399.143	12435.59049
399.646	13904.60887
400.15	15248.95268
400.653	17439.98611
401.156	19566.70492
401.659	22569.15226
402.162	28765.59427
402.664	41480.93899
403.167	59930.81187
403.67	61009.11914
404.172	55487.84425
404.674	37291.05854
405.176	4428.40989
405.678	533.47942
406.18	0
406.682	0
407.184	6962.89417
407.686	50953.82939
408.187	59237.6763
408.688	61091.12691
409.19	51210.39328
409.691	42574.81297
410.192	36055.35789
410.693	31920.93899
411.194	30067.05874
411.694	28039.68998
412.195	25533.38877
412.696	23746.46946
413.196	22820.96049
413.696	22919.0719
414.196	22674.49839
414.696	21624.72351
415.196	19905.92053
415.696	16731.56249
416.196	13154.28544
416.695	10845.4646
417.195	10022.1184
417.694	9549.04296
418.194	8893.18913
418.693	8359.19909
419.192	8297.18197
419.691	8098.93954
420.19	7777.64341
420.688	7643.67266
421.187	7146.76446
421.685	6593.12999
422.184	5857.34942
422.682	5057.39145
423.18	4442.08191
423.678	3994.28427
424.176	3746.42811
424.674	3543.27505
425.172	3367.7359
425.669	3169.13099
426.167	2799.78214
426.664	2602.71842
427.161	2468.71495
427.659	2269.04249
428.156	2201.37981
428.652	1983.04381
429.149	1927.83103
429.646	1796.3527
430.143	1678.61757
430.639	1612.51209
431.135	1473.52546
431.632	1429.23141
432.128	1394.38357
432.624	1277.40106
433.12	1356.18557
433.616	1295.98659
434.111	1215.15412
434.607	1199.13221
435.103	1110.68262
435.598	1171.72994
436.093	942.71698
436.588	988.71858
437.083	927.63894
437.578	882.59766
438.073	830.68073
438.568	828.64842
439.062	780.34305
439.557	783.49407
440.051	727.3629
440.546	751.41698
441.04	711.39846
441.534	730.56353
442.028	701.40984
442.522	653.33609
443.015	619.14067
443.509	646.35425
444.002	645.35185
444.496	580.0577
444.989	665.3926
445.482	607.29619
445.975	621.20856
446.468	594.08383
446.961	548.99472
447.454	498.96749
447.947	599.24094
448.439	568.21201
448.931	570.10676
449.424	492.07545
449.916	463.9829
450.408	547.08957
450.9	456.98175
451.392	480.08052
451.884	454.90556
452.375	407.90127
452.867	464.91777
453.358	434.86205
453.849	432.80526
454.341	478.94679
454.832	474.89365
455.323	434.94722
455.814	426.86274
456.304	425.86524
456.795	392.79098
457.285	381.74741
457.776	431.8479
458.266	400.85935
458.756	309.66859
459.247	379.8074
459.737	444.9514
460.226	369.74508
460.716	359.77908
461.206	355.7599
461.695	372.84795
462.185	383.81663
462.674	325.66829
463.163	318.63046
463.653	358.67426
464.142	324.70598
464.63	330.73186
465.119	342.72368
465.608	321.66721
466.096	326.64269
466.585	277.5755
467.073	260.56606
467.561	337.74847
468.05	289.60632
468.538	329.74586
469.026	307.67618
469.513	285.54561
470.001	205.43123
470.489	270.58683
470.976	269.56935
471.463	289.66875
471.951	253.58569
472.438	224.49038
472.925	230.49309
473.412	222.50117
473.899	270.57159
474.385	243.55293
474.872	205.44357
475.359	184.42165
475.845	225.42886
476.331	154.30974
476.817	199.44787
477.303	209.45126
477.789	188.4232
478.275	202.47088
478.761	184.41318
479.247	180.37356
479.732	185.4371
480.218	214.52173
480.703	221.51993
481.188	126.25319
481.673	173.37305
482.158	160.32285
482.643	176.42123
483.128	141.30183
483.612	117.25814
484.097	164.37718
484.581	111.24059
485.066	148.33793
485.55	120.24681
486.034	145.29911
486.518	117.26203
487.002	102.2389
487.486	99.23129
487.969	124.29247
488.453	127.30634
488.936	77.16526
489.42	107.22538
489.903	106.25525
490.386	127.25832
490.869	77.15698
491.352	118.27237
491.835	100.19306
492.318	104.22518
492.8	96.18632
493.283	151.36739
493.765	85.20185
494.247	51.11342
494.73	103.21629
495.212	54.12499
495.694	81.18148
496.175	64.14661
496.657	139.31668
497.139	41.06493
497.62	76.17466
498.102	91.21784
498.583	24.05757
499.064	98.21165
499.545	79.17226
500.026	39.08424
500.507	2.00446
500.988	41.09751
501.469	-7.01701
501.949	56.13193
502.43	35.08029
502.91	34.06744
503.39	57.13729
503.87	46.10491
504.35	-21.04779
504.83	77.16162
505.31	50.11766
505.79	30.06961
506.269	27.06059
506.749	41.0902
507.228	20.04559
507.707	41.0875
508.187	25.05728
508.666	-4.00953
509.145	-8.01824
509.623	13.02959
510.102	38.08865
510.581	47.10829
511.059	37.09093
511.538	8.02009
512.016	45.10468
512.494	34.07917
512.972	13.03035
513.45	48.10898
513.928	44.1035
514.406	38.09088
514.884	55.13885
515.361	63.14707
515.839	52.11375
516.316	-14.0327
516.793	-6.01479
517.27	6.01425
517.747	35.08748
518.224	-6.01346
518.701	-7.01527
519.178	40.09818
519.654	-12.02725
520.131	-6.01436
520.607	45.10793
521.083	17.03799
521.56	-18.04142
522.036	53.11252
522.512	17.04073
522.987	46.10715
523.463	-1.00233
523.939	11.02625
524.414	2.00446
524.89	13.02977
525.365	55.12145
525.84	85.19975
526.315	-26.06102
526.79	34.07355
527.265	-28.06177
527.74	-18.0429
528.215	5.01154
528.689	44.09559
529.164	-79.16626
529.638	19.04773
530.112	23.05348
530.587	2.00422
531.061	31.07308
531.534	-4.0094
532.008	15.03533
532.482	-51.11276
532.956	4.01014
533.429	-56.13024
533.903	-34.07302
534.376	-3.00644
534.849	0
535.322	47.1073
535.795	7.01668
536.268	8.01891
536.741	-33.07776
537.213	17.03836
537.686	4.00945
538.158	-11.02419
538.631	-5.01178
539.103	-60.13291
539.575	-3.00607
540.047	-41.08834
540.519	-4.00925
540.991	11.02596
541.463	-6.01428
541.934	-45.10178
542.406	-14.03282
542.877	-38.08411
543.348	-66.15355
543.82	3.00716
544.291	-42.09474
544.762	-10.02316
545.233	18.04454
545.703	-5.01087
546.174	30.06811
546.645	8.01907
547.115	32.07519
547.585	40.09041
548.056	31.07427
548.526	44.10075
548.996	40.09325
549.466	34.08001
549.935	39.09133
550.405	55.11794
550.875	2.00461
551.344	10.02366
551.814	-16.03544
552.283	-22.04651
552.752	24.05427
553.221	-23.04911
553.69	9.01961
554.159	16.03907
554.628	-2.00437
555.096	37.0912
555.565	6.01301
556.033	52.11778
556.502	-2.00472
556.97	-30.06496
557.438	2.00463
557.906	-3.00695
558.374	-16.03591
558.842	8.01871
559.31	-10.02171
559.777	-12.02862
560.245	-19.04315
560.712	-66.14833
561.18	-42.09102
561.647	-14.03046
562.114	-9.02009
562.581	2.00484
563.048	-18.04002
563.514	31.07444
563.981	-6.01335
564.448	4.00879
564.914	50.11196
565.381	-32.07035
565.847	6.01362
566.313	1.00226
566.779	29.06417
567.245	26.0592
567.711	50.11693
568.176	103.22754
568.642	79.19286
569.108	46.10989
569.573	21.04738
570.038	89.18037
570.504	146.3149
570.969	107.25644
571.434	127.2681
571.899	147.33464
572.363	163.34968
572.828	155.33223
573.293	177.38348
573.757	193.41993
574.222	190.4047
574.686	155.33209
575.15	225.50348
575.614	172.37146
576.078	239.52178
576.542	282.59542
577.006	296.61895
577.469	273.62094
577.933	242.49908
578.396	309.68458
578.86	239.52067
579.323	253.56146
579.786	317.61921
580.249	241.51299
580.712	232.52566
581.175	259.59577
581.637	327.69482
582.1	277.55341
582.563	225.43262
583.025	250.56529
583.487	279.50984
583.95	210.42257
584.412	269.51199
584.874	257.57792
585.336	260.57375
585.797	220.43984
586.259	169.36818
586.721	214.47086
587.182	202.43362
587.643	195.41345
588.105	205.45665
588.566	205.40081
589.027	202.46309
589.488	138.29637
589.949	110.25157
590.41	193.35446
590.87	130.27485
591.331	126.25237
591.791	92.20022
592.252	105.22943
592.712	99.22701
593.172	106.22725
593.632	46.09397
594.092	148.31044
594.552	104.21062
595.011	136.29862
595.471	142.2993
595.931	143.29962
596.39	152.34553
596.849	124.27307
597.308	94.19281
597.768	86.21038
598.227	127.29098
598.685	106.22696
599.144	118.2616
599.603	124.27845
600.062	104.20532
600.52	110.23389
600.978	139.31463
601.437	91.19758
601.895	123.24585
602.353	97.20171
602.811	186.38377
603.269	121.27322
603.727	192.43061
604.184	184.388
604.642	109.25325
605.099	166.35957
605.557	177.3995
606.014	169.33874
606.471	238.56024
606.928	302.61498
607.385	267.61319
607.842	260.5562
608.299	272.58036
608.755	263.58365
609.212	336.67954
609.668	313.63549
610.125	293.64237
610.581	297.62723
611.037	298.61374
611.493	260.55908
611.949	355.77368
612.405	359.6461
612.861	316.66018
613.316	392.84616
613.772	354.73169
614.227	345.73626
614.683	420.7895
615.138	354.7589
615.593	352.72788
616.048	382.76513
616.503	456.98849
616.958	361.81906
617.412	408.85879
617.867	434.85762
618.321	359.63947
618.776	408.79339
619.23	427.8974
619.684	367.72913
620.138	358.72436
620.592	385.83229
621.046	339.71058
621.5	367.7978
621.954	331.66221
622.407	377.74061
622.861	256.56161
623.314	365.7414
623.768	344.72282
624.221	372.6484
624.674	317.64978
625.127	337.70951
625.58	272.54733
626.033	258.50767
626.485	263.57417
626.938	298.63803
627.39	276.5848
627.843	248.51904
628.295	281.59084
628.747	246.53626
629.199	275.57466
629.651	195.41146
630.103	226.47949
630.555	222.42407
631.006	253.54134
631.458	185.39773
631.909	201.42077
632.361	178.38013
632.812	219.46778
633.263	200.39039
633.714	161.31284
634.165	173.38137
634.616	147.3242
635.067	209.41658
635.518	132.28959
635.968	246.4401
636.419	143.28384
636.869	198.43017
637.319	186.39704
637.769	192.39864
638.219	146.31922
638.669	169.37739
639.119	163.36851
639.569	200.45206
640.019	139.29819
640.468	152.30967
640.918	175.38966
641.367	165.34434
641.816	209.43093
642.265	141.30457
642.714	204.43886
643.163	119.25242
643.612	169.38472
644.061	110.21594
644.51	186.39497
644.958	157.32095
645.406	171.38391
645.855	165.37637
646.303	126.27421
646.751	199.4223
647.199	151.31386
647.647	179.38815
648.095	117.25078
648.543	198.36319
648.99	173.38792
649.438	175.38303
649.885	231.53328
650.333	135.23683
650.78	227.51653
651.227	162.37228
651.674	148.31661
652.121	117.26484
652.568	187.42397
653.015	124.28997
653.461	144.32163
653.908	187.40307
654.354	112.2484
654.801	113.2513
655.247	153.31022
655.693	105.2611
656.139	121.27289
656.585	123.2791
657.031	113.25213
657.477	173.3498
657.922	170.36839
658.368	126.29176
658.813	85.18227
659.259	134.30461
659.704	143.31577
660.149	135.29561
660.594	156.34786
661.039	146.31409
661.484	168.37524
661.929	107.23568
662.373	170.40936
662.818	137.3242
663.262	97.221
663.707	116.27764
664.151	151.35179
664.595	92.21185
665.039	74.17502
665.483	146.35503
665.927	114.25168
666.371	140.30843
666.814	97.2193
667.258	123.2791
667.701	111.22042
668.145	100.23532
668.588	127.29623
669.031	101.22815
669.474	109.24844
669.917	132.27186
670.36	105.24607
670.803	134.3035
671.245	98.19284
671.688	103.23722
672.13	90.19045
672.573	174.41772
673.015	100.22696
673.457	150.30782
673.899	95.21731
674.341	111.2534
674.783	125.28548
675.225	129.29959
675.666	134.30622
676.108	119.24415
676.549	118.26226
676.991	65.13553
677.432	53.09856
677.873	92.20073
678.314	118.26552
678.755	142.32802
679.196	98.21427
679.637	105.24067
680.078	91.20095
680.518	102.21981
680.959	85.19334
681.399	109.25435
681.839	94.21706
682.28	78.18519
682.72	84.18133
683.16	147.34652
683.6	123.26273
684.039	44.0865
684.479	93.21778
684.919	79.17562
685.358	121.28922
685.798	52.13037
686.237	132.29909
686.676	120.26071
687.115	116.25685
687.554	127.28361
687.993	82.1682
688.432	125.2714
688.871	99.21202
689.309	206.4696
689.748	95.18592
690.186	111.24706
690.625	158.3532
691.063	136.31066
691.501	154.35857
691.939	122.28843
692.377	107.24821
692.815	119.27265
693.253	104.23335
693.69	106.21851
694.128	104.24225
694.565	115.25978
695.003	162.38847
695.44	65.14491
695.877	93.20854
696.314	114.22813
696.751	96.20466
697.188	152.32869
697.625	142.30036
698.061	107.24338
698.498	125.28433
698.934	43.09817
699.371	96.21575
699.807	134.29868
700.243	109.25164
700.679	131.27739
701.115	97.21366
701.551	158.35013
701.987	164.33731
702.422	113.25255
702.858	34.07695
703.294	99.20917
703.729	161.37154
704.164	128.29274
704.599	79.16479
705.035	114.24071
705.47	106.24788
705.904	73.16066
706.339	79.17087
706.774	96.21088
707.209	83.18052
707.643	123.27819
708.078	105.24086
708.512	151.36285
708.946	133.29664
709.38	78.17379
709.814	104.22142
710.248	38.0874
710.682	141.31747
711.116	123.27989
711.549	71.17385
711.983	48.10464
712.416	73.16113
712.85	91.2171
713.283	104.23181
713.716	83.19649
714.149	80.1778
714.582	90.19045
715.015	113.26461
715.448	62.14658
715.881	98.1952
716.313	136.30025
716.746	107.23885
717.178	55.12536
717.61	80.19315
718.043	89.20784
718.475	104.23623
718.907	49.11623
719.339	91.19421
719.77	125.28248
720.202	81.19398
720.634	134.3088
721.065	134.29571
721.497	131.30219
721.928	104.24292
722.359	87.20221
722.79	97.21903
723.221	75.17707
723.652	74.17928
724.083	94.1977
724.514	70.14819
724.945	66.14705
725.375	85.18691
725.806	59.13708
726.236	128.30729
726.666	85.18762
727.096	81.18626
727.526	64.1554
727.956	69.14771
728.386	45.10344
728.816	72.17384
729.246	109.25154
729.675	86.20245
730.105	57.13217
730.534	113.24691
730.964	77.18165
731.393	82.18777
731.822	135.32502
732.251	114.27431
732.68	25.05435
733.109	87.20293
733.537	95.21521
733.966	77.17982
734.395	64.1378
734.823	100.20753
735.251	59.13469
735.68	132.30686
736.108	88.20885
736.536	98.21591
736.964	57.12392
737.392	52.12237
737.82	65.14611
738.247	78.17364
738.675	117.25598
739.102	102.2431
739.53	126.30433
739.957	71.17223
740.384	89.2031
740.811	136.32426
741.238	79.18006
741.665	119.26113
742.092	57.12666
742.519	97.22892
742.945	101.22638
743.372	98.22917
743.798	124.29871
744.225	68.15163
744.651	65.15346
745.077	144.33423
745.503	89.20187
745.929	101.22527
746.355	72.165
746.781	96.22282
747.207	115.25564
747.632	107.24663
748.058	56.1308
748.483	105.22175
748.908	63.14799
749.334	103.23675
749.759	72.15869
750.184	97.21599
750.609	110.25076
751.033	96.2067
751.458	151.31372
751.883	102.23478
752.307	136.30201
752.732	91.21768
753.156	117.26979
753.58	109.23948
754.005	143.34167
754.429	84.18149
754.853	79.18543
755.277	135.29848
755.7	104.24101
756.124	116.2736
756.548	106.23637
756.971	91.20707
757.394	130.31363
757.818	148.35908
758.241	83.1974
758.664	140.33418
759.087	101.21462
759.51	111.2585
759.933	124.28062
760.356	116.2787
760.778	176.40801
761.201	72.16128
761.623	52.11663
762.046	84.18079
762.468	139.30732
762.89	106.24457
763.312	123.27706
763.734	128.28814
764.156	109.25315
764.578	74.15687
765	125.28398
765.421	100.24463
765.843	155.38205
766.264	69.15498
766.686	141.33341
767.107	161.36636
767.528	124.29859
767.949	106.25332
768.37	101.23104
768.791	87.19581
769.212	119.28574
769.632	99.21486
770.053	96.24007
770.473	80.18348
770.894	80.18576
771.314	116.25342
771.734	68.14742
772.154	137.32958
772.575	128.27288
772.994	101.21406
773.414	53.11684
773.834	100.23669
774.254	82.18739
774.673	66.15028
775.093	86.20206
775.512	110.25602
775.931	129.30987
776.351	89.20621
776.77	67.15548
777.189	9.02015
777.607	52.12678
778.026	96.22661
778.445	97.23221
778.864	79.1902
779.282	43.0967
779.701	58.13861
780.119	83.19649
780.537	9.02141
780.955	97.2307
781.373	2.00472
781.791	103.21619
782.209	145.30878
782.627	74.18639
783.045	51.11007
783.462	46.11081
783.88	54.13382
784.297	8.01925
784.715	106.26094
785.132	82.18595
785.549	71.17016
785.966	41.09744
786.383	75.17508
786.8	66.14364
787.217	29.06479
787.633	33.07858
788.05	0
788.466	90.19545
788.883	69.16851
789.299	12.02714
789.715	67.1545
790.131	73.16981
790.547	9.02097
790.963	57.13369
791.379	36.08679
791.795	34.07258
792.21	14.03079
792.626	66.14638
793.041	20.04653
793.457	34.0791
793.872	31.06891
794.287	97.22242
794.702	9.02094
795.117	-25.05912
795.532	43.10368
795.947	-10.0226
796.362	38.08432
796.776	-41.0883
797.191	-7.01624
797.605	-25.05742
798.02	31.07211
798.434	41.08412
798.848	-6.01399
799.262	42.10049
799.676	18.0411
800.09	-11.02566
800.504	-7.01614
800.918	-51.11248
801.331	-3.00747
801.745	-31.06737
802.158	7.01662
802.572	-2.00457
802.985	-46.10482
803.398	17.03829
803.811	15.03641
804.224	18.04228
804.637	-72.16208
805.05	38.08238
805.462	-12.02794
805.875	28.07073
806.288	27.06243
806.7	-12.02881
807.112	-14.03073
807.525	24.05639
807.937	-20.04738
808.349	-15.03572
808.761	-53.12314
809.173	-55.12622
809.584	11.02559
809.996	-20.04708
810.408	-18.04492
810.819	-6.01342
811.231	6.01527
811.642	52.12198
812.053	27.06189
812.464	48.10836
812.875	-1.00245
813.286	-46.11366
813.697	-56.12115
814.108	-33.07603
814.519	-29.06041
814.929	-1.0024
815.34	-25.05763
815.75	-10.0243
816.16	-64.15049
816.571	-17.04241
816.981	-5.01096
817.391	-23.05261
817.801	32.07642
818.211	0
818.62	-7.01594
819.03	-49.11349
819.44	15.03714
819.849	-1.00241
820.259	11.0269
820.668	0
821.077	22.05201
821.486	-38.086
821.895	-13.02987
822.304	-18.04594
822.713	-30.06709
823.122	29.069
823.531	19.04269
823.939	-27.06293
824.348	48.11
824.756	-30.07147
825.164	16.0378
825.573	-21.05041
825.981	20.04695
826.389	-30.07093
826.797	-28.06725
827.205	-64.14017
827.612	-58.13606
828.02	-39.08828
828.428	-47.11449
828.835	6.01517
829.243	-16.03594
829.65	-64.15388
830.057	-10.02334
830.464	-4.00938
830.871	-17.03837
831.278	-46.10508
831.685	-40.08301
832.092	23.05348
832.499	-41.08397
832.905	-8.0194
833.312	-37.07907
833.718	37.08634
834.124	20.0429
834.531	-11.02623
834.937	-53.12944
835.343	-4.00915
835.749	-29.06331
836.155	-35.08786
836.561	-82.19025
836.966	-14.03235
837.372	-35.0849
837.777	-53.12576
838.183	-66.13526
838.588	1.00237
838.993	-47.10773
839.399	-44.10229
839.804	0
840.209	-21.05171
840.613	29.06079
841.018	-63.15156
841.423	-57.139
841.828	-31.07489
842.232	-47.10898
842.637	-63.13923
843.041	-18.045
843.445	-69.16474
843.849	-14.03298
844.253	-18.04001
844.657	-25.06083
845.061	-8.01709
845.465	25.05831
845.869	-4.00869
846.272	-42.09768
846.676	-5.01148
847.079	0
847.483	-15.03544
847.886	-4.00901
848.289	11.02861
848.692	-48.11624
849.095	-50.11293
849.498	-11.02588
849.901	-29.062
850.304	-30.06734
850.707	-24.05823
851.109	-34.08032
851.512	29.06778
851.914	16.03917
852.316	14.03373
852.718	-27.06787
853.121	-1.00232
853.523	-6.01316
853.925	-36.09058
854.326	18.04325
854.728	-38.09382
855.13	-26.06492
855.531	35.08
855.933	-8.01805
856.334	-26.0623
856.736	-119.25353
857.137	-10.02192
857.538	-23.05525
857.939	6.01417
858.34	-28.06427
858.741	10.02486
859.142	-10.0228
859.542	45.11543
859.943	-7.01669
860.343	-23.05474
860.744	10.02314
861.144	-42.09764
861.544	-5.01158
861.945	-52.12626
862.345	-55.12586
862.745	-16.03783
863.145	8.01754
863.544	36.08705
863.944	-23.05111
864.344	-42.09799
864.743	60.13926
865.143	22.05358
865.542	-16.03479
865.941	-3.00712
866.34	-25.05682
866.74	-25.06451
867.139	-12.02742
867.537	-40.09683
867.936	-24.05507
868.335	28.06801
868.734	0
869.132	-23.05092
869.531	2.00454
869.929	6.01298
870.327	-39.08889
870.726	-4.0094
871.124	-40.08753
871.522	-75.18214
871.92	-18.04203
872.318	-15.03488
872.715	-49.1151
873.113	13.02997
873.511	-10.02372
873.908	10.02463
874.306	-26.06192
874.703	-7.01658
875.1	-33.08002
875.497	-23.05183
875.894	11.026
876.291	8.01871
876.688	-66.16373
877.085	-32.07233
877.482	-60.14262
877.878	10.02277
878.275	-27.0652
878.671	-57.11583
879.068	42.09447
879.464	-4.00916
879.86	-18.04089
880.256	-32.07395
880.652	-38.09234
881.048	-19.04404
881.444	-24.0531
881.84	-26.06268
882.236	1.00239
882.631	-13.03032
883.027	-43.09718
883.422	-6.01457
883.817	-5.01212
884.213	7.01711
884.608	7.01644
885.003	1.00228
885.398	-14.03333
885.793	-37.08817
886.188	-41.09882
886.582	-53.12755
886.977	-13.02901
887.371	-30.07227
887.766	-40.0961
888.16	34.07998
888.554	-38.08824
888.949	-15.03517
889.343	-32.07304
889.737	-21.05481
890.131	-21.05046
890.525	-6.01454
890.918	-9.02175
891.312	-86.1928
891.706	24.06043
892.099	15.03595
892.492	-15.03016
892.886	-29.0669
893.279	-2.00485
893.672	-44.10784
894.065	5.01179
894.458	-23.05493
894.851	-30.0685
895.244	-46.11291
895.637	4.0091
896.029	-38.08841
896.422	-25.0576
896.814	-13.03076
897.206	-22.0503
897.599	-20.0457
897.991	6.01373
898.383	-14.03102
898.775	-32.06766
899.167	16.03543
899.559	9.02142
899.951	3.00661
900.342	-49.11694
900.734	20.04809
901.125	-71.1779
901.517	-21.04925
901.908	-29.065
902.299	15.03475
902.69	1.00222
903.082	-37.08498
903.473	-27.06211
903.863	-1.00246
904.254	-57.12487
904.645	-32.07448
905.036	-11.02568
905.426	-51.10653
905.817	-8.01856
906.207	-73.16746
906.597	-12.02657
906.987	-50.1225
907.378	-48.11541
907.768	-18.04582
908.158	-15.03474
908.547	-44.10963
908.937	-10.02429
909.327	-42.0964
909.717	4.00951
910.106	-1.00226
910.495	6.01426
910.885	-37.08776
911.274	-10.02386
911.663	29.07016
912.052	-8.01847
912.441	10.02437
912.83	-47.10131
913.219	-17.04192
913.608	1.00231
913.997	-66.15881
914.385	-47.10509
914.774	-31.07123
915.162	-26.05827
915.55	11.02502
915.939	-23.05565
916.327	-39.09269
916.715	-19.04668
917.103	-23.05312
917.491	-33.07631
917.878	-70.16151
918.266	-28.06928
918.654	-10.02465
919.041	-40.10046
919.429	-44.09905
919.816	-31.07447
920.203	-49.11335
920.591	-55.12915
920.978	-37.08576
921.365	-37.09268
921.752	11.02476
922.139	32.06457
922.525	-54.12345
922.912	3.00686
923.299	-7.01659
923.685	-5.01245
924.072	-46.09871
924.458	-30.07079
924.844	-47.11084
925.231	-51.11153
925.617	4.00984
926.003	5.01212
926.389	32.07694
926.774	-9.02179
927.16	-5.01168
927.546	-46.11316
927.931	-11.026
928.317	-38.08073
928.702	-10.02201
929.088	-32.07204
929.473	-32.0779
929.858	-21.0492
930.243	-14.03201
930.628	-20.04589
931.013	17.04032
931.398	-38.08133
931.783	-31.07815
932.167	-55.12738
932.552	-56.13209
932.937	-66.15386
933.321	-57.1363
933.705	-14.03398
934.09	19.04449
934.474	22.04871
934.858	1.00248
935.242	26.05721
935.626	-26.0632
936.009	-68.17464
936.393	21.05106
936.777	2.00491
937.16	-54.13313
937.544	-35.07745
937.927	-23.05588
938.311	-25.05721
938.694	5.01258
939.077	-27.06059
939.46	34.07851
939.843	-4.00754
940.226	-24.05836
940.609	-37.07958
940.991	-45.10965
941.374	-47.10868
941.757	-18.04193
942.139	-73.15377
942.522	24.05205
942.904	-10.02275
943.286	-30.07189
943.668	-4.00985
944.05	-23.05369
944.432	-24.0565
944.814	8.01836
945.196	-46.10846
945.578	16.03622
945.959	-35.07771
946.341	-32.0728
946.722	-10.02216
947.104	-26.05815
947.485	-8.0174
947.866	-26.06306
948.247	-35.08436
948.628	-23.05263
949.009	-16.03921
949.39	-87.20357
949.771	-18.03894
950.152	34.07876
950.532	22.05278
950.913	-48.10854
951.293	-17.04456
951.674	-20.0453
952.054	-9.02122
952.434	-77.18158
952.814	-62.13751
953.194	26.06467
953.574	-60.13866
953.954	-30.06737
954.334	10.02368
954.714	-32.07436
955.093	-22.05044
955.473	-83.19786
955.853	6.01483
956.232	-18.04743
956.611	-21.04647
956.99	-7.01678
957.37	43.1031
957.749	-57.12771
958.128	-4.00968
958.506	-13.0325
958.885	-27.06451
959.264	-37.08644
959.643	3.00639
960.021	-38.08984
960.4	64.13579
960.778	14.03172
961.156	7.01658
961.535	-78.16838
961.913	-53.11458
962.291	36.08853
962.669	-36.08741
963.047	-55.13262
963.424	2.00487
963.802	-32.07383
964.18	-48.11502
964.557	-34.07229
964.935	-10.02215
965.312	-37.09304
965.69	-26.06142
966.067	-29.06628
966.444	15.03471
966.821	-33.08071
967.198	-20.045
967.575	-53.12255
967.952	17.03743
968.329	-37.08498
968.705	-34.06662
969.082	28.06842
969.458	-9.02068
969.835	-31.07131
970.211	-13.03182
970.587	-4.00942
970.963	-56.13735
971.339	-22.05549
971.715	-56.13116
972.091	-47.10976
972.467	-45.10488
972.843	-49.11614
973.219	-20.04447
973.594	-35.08792
973.97	-34.07522
974.345	-26.05872
974.721	3.00677
975.096	-32.07251
975.471	45.09958
975.846	-6.01369
976.221	-10.02418
976.596	-9.02035
976.971	-12.02803
977.346	-53.11478
977.72	-38.0922
978.095	-12.02964
978.469	31.0692
978.844	-7.0166
979.218	-46.10584
979.593	2.00451
979.967	25.05749
980.341	-40.08605
980.715	-19.04517
981.089	-19.04458
981.463	60.12886
981.837	-21.04906
982.21	-28.0606
982.584	-64.14637
982.957	3.00715
983.331	-15.03334
983.704	7.01634
984.078	-71.16626
984.451	-49.11322
984.824	-23.05359
985.197	-36.08253
985.57	-53.12552
985.943	-47.10782
986.316	2.00462
986.688	3.00675
987.061	-7.01519
987.434	-9.0224
987.806	-21.04777
988.179	-79.17627
988.551	-23.05498
988.923	-30.0698
989.295	-15.03536
989.667	-25.05781
990.039	1.00235
990.411	-14.03053
990.783	-8.01711
991.155	-2.00461
991.527	-31.07054
991.898	-17.03986
992.27	-52.12303
992.641	-13.03068
993.012	33.07281
993.384	-24.05405
993.755	-55.13352
994.126	-9.02044
994.497	-59.138
994.868	33.07058
995.239	8.01834
995.61	-63.15128
995.98	-18.04183
996.351	-29.06887
996.722	-31.06843
997.092	-33.07482
997.462	-19.04238
997.833	-30.06668
998.203	-4.00906
998.573	-25.05967
998.943	-60.13169
999.313	15.03391
999.683	-33.07409
1000.053	-11.02383
1000.423	27.06142
1000.792	15.03693
1001.162	-18.04224
1001.531	-6.01407
1001.901	-40.09435
1002.27	27.0562
1002.639	-13.03173
1003.009	39.08778
1003.378	-13.03169
1003.747	-43.09559
1004.116	-11.02498
1004.485	-63.14429
1004.853	-40.09676
1005.222	-6.01451
1005.591	-43.09563
1005.959	-17.03645
1006.328	-84.17861
1006.696	-11.02524
1007.064	-7.01671
1007.433	-17.04053
1007.801	-35.08074
1008.169	-83.19975
1008.537	35.07174
1008.905	-19.04185
1009.273	-21.04904
1009.64	-17.03853
1010.008	-37.0831
1010.375	26.05887
1010.743	-48.10175
1011.11	-20.04476
1011.478	-58.13659
1011.845	-64.14023
1012.212	-79.16758
1012.579	21.04858
1012.946	-60.13313
1013.313	-15.03343
1013.68	-12.02493
1014.047	-20.04574
1014.414	-14.03146
1014.78	19.04495
1015.147	-23.05162
1015.513	66.15022
1015.88	-25.05987
1016.246	2.00467
1016.612	-7.01478
1016.978	-40.09266
1017.344	27.06345
1017.71	-31.06983
1018.076	6.01318
1018.442	-31.07568
1018.808	-10.02372
1019.174	-75.17927
1019.539	-16.03329
1019.905	-52.11715
1020.27	19.0446
1020.636	23.05136
1021.001	-7.01563
1021.366	7.01612
1021.731	-19.04676
1022.096	-26.06313
1022.461	-48.1061
1022.826	-8.01791
1023.191	-14.03511
1023.556	-64.13999
1023.92	-33.07591
1024.285	-15.03437
1024.649	44.10075
1025.014	-19.04446
1025.378	5.01203
1025.742	-13.0305
1026.107	8.01657
1026.471	-65.14023
1026.835	-65.15209
1027.199	-9.02056
1027.562	-6.01315
1027.926	-43.09935
1028.29	-42.10183
1028.654	-25.05331
1029.017	8.01858
1029.381	2.00451
1029.744	-17.04156
1030.107	-29.06329
1030.471	-43.09702
1030.834	-27.0564
1031.197	-61.13718
1031.56	5.01118
1031.923	-36.08885
1032.286	-20.04375
1032.648	-15.03347
1033.011	-46.09994
1033.374	-1.00216
1033.736	-59.14922
1034.099	-31.07205
1034.461	12.02895
1034.823	-58.13718
1035.185	-89.21184
1035.548	-25.05737
1035.91	26.0587
1036.272	-3.00638
1036.634	-44.10063
1036.995	-5.01114
1037.357	-47.10903
1037.719	-26.05968
1038.08	-55.1212
1038.442	-12.02741
1038.803	-4.00895
1039.165	-27.06496
1039.526	0
1039.887	-49.11209
1040.248	15.03562
1040.609	-12.02794
1040.97	-7.0161
1041.331	-70.16671
1041.692	-63.14104
1042.053	-51.10804
1042.413	0
1042.774	16.03624
1043.134	-53.11787
1043.495	-31.07345
1043.855	-10.02288
1044.215	4.00932
1044.576	-4.00907
1044.936	16.03429
1045.296	-33.0777
1045.656	-23.05333
1046.016	-57.12871
1046.375	14.03217
1046.735	32.06819
1047.095	-25.05516
1047.454	3.00583
1047.814	-25.05622
1048.173	-40.08838
1048.533	8.0172
1048.892	12.02728
1049.251	-11.02613
1049.61	-76.17668
1049.969	-56.12622
1050.328	-57.11388
1050.687	-44.10132
1051.046	-21.04877
1051.405	-40.09317
1051.763	1.00216
1052.122	-48.11554
1052.48	-63.1462
1052.839	-28.0622
1053.197	-50.11159
1053.555	-89.18475
1053.914	-60.13899
1054.272	8.01805
1054.63	-62.14351
1054.988	-45.10091
1055.345	-79.15768
1055.703	-29.06514
1056.061	-25.06137
1056.419	2.00495
1056.776	21.04736
1057.134	-26.05632
1057.491	10.02351
1057.848	-13.03037
1058.206	-37.08187
1058.563	10.02066
1058.92	-23.04904
1059.277	-47.10799
1059.634	-70.15254
1059.991	4.00903
1060.348	-37.07941
1060.704	-55.1248
1061.061	0
1061.418	-29.06706
1061.774	2.00473
1062.131	8.02062
1062.487	-61.13391
1062.843	-51.12097
1063.199	-5.01183
1063.555	-14.0307
1063.911	-47.11269
1064.267	-84.15921
1064.623	-37.0863
1064.979	-45.0977
1065.335	-32.07074
1065.691	-4.0091
1066.046	-55.11213
1066.402	-50.10687
1066.757	-1.00239
1067.112	-21.04806
1067.468	2.00452
1067.823	23.05185
1068.178	12.0274
1068.533	-43.09785
1068.888	-38.08467
1069.243	-17.03992
1069.598	-67.15234
1069.952	-49.10612
1070.307	-14.03342
1070.662	-16.0359
1071.016	-19.04027
1071.371	-25.05298
1071.725	-90.19944
1072.079	-34.07707
1072.434	-17.0389
1072.788	40.08934
1073.142	-6.01405
1073.496	-23.05145
1073.85	-40.08709
1074.203	-85.19608
1074.557	12.03061
1074.911	-7.01546
1075.265	-39.08414
1075.618	10.02302
1075.971	15.03311
1076.325	-38.0922
1076.678	-76.16491
1077.031	-21.04431
1077.385	-14.02891
1077.738	-35.07437
1078.091	-12.02597
1078.444	-31.06653
1078.796	4.00931
1079.149	-40.09314
1079.502	-65.14629
1079.855	10.0219
1080.207	-7.0162
1080.56	-55.13612
1080.912	-54.12271
1081.264	-13.02944
1081.617	-30.06944
1081.969	27.0655
1082.321	-19.04387
1082.673	-18.03907
1083.025	-34.07531
1083.377	-310.64621
1083.728	-47.10105
1084.08	17.04023
1084.432	-83.18635
1084.783	15.03312
1085.135	0
1085.486	-22.0477
1085.838	-24.05597
1086.189	-43.09892
1086.54	-12.02691
1086.891	1.00243
1087.242	-31.07077
1087.593	-15.03405
1087.944	-25.05271
1088.295	-17.03559
1088.646	16.03642
1088.996	-54.1233
1089.347	-60.13915
1089.698	-18.0405
1090.048	-26.06382
1090.398	-21.04596
1090.749	-33.07482
1091.099	0
1091.449	-43.10105
1091.799	-24.05683
1092.149	-7.01653
1092.499	31.07103
1092.849	-46.1119
1093.199	-3.00705
1093.548	-21.04796
1093.898	-37.08834
1094.248	15.0364
1094.597	-28.06931
1094.947	-20.05095
1095.296	-74.17373
1095.645	-35.08653
1095.994	-45.10302
1096.343	38.09092
1096.692	-33.08409
1097.041	-35.09203
1097.39	20.04699
1097.739	4.00992
1098.088	-11.02779
1098.437	-69.17588
1098.785	-41.10565
1099.134	-35.08773
1099.482	-75.1982
1099.83	-54.13562
1100.179	-26.06593
1100.527	-45.11393
1100.875	-65.16568
1101.223	-24.0616
1101.571	-23.06158
1101.919	-74.18865
1102.267	4.01098
1102.615	7.02249
1102.962	3.00963
1103.31	5.01606
1103.658	-8.02567
