Data from N3 R6 sample 5_Subt2__0__15-22-20-035.txt Node

Date: Fri Sep 19 15:22:20 PDT 2025
User: uwsun
Spectrometer: HDX01956
Trigger mode: 0
Integration Time (sec): 5.000000E-1
Scans to average: 1
Nonlinearity correction enabled: true
Boxcar width: 0
Storing dark spectrum: false
XAxis mode: Wavelengths
Number of Pixels in Spectrum: 2068
>>>>>Begin Spectral Data<<<<<
194.03	0
194.578	6.0195
195.127	7.02245
195.676	-3.00962
196.225	-8.02117
196.773	32.08896
197.321	15.0418
197.87	30.07737
198.418	78.20144
198.966	30.07948
199.513	53.13533
200.061	-3.00768
200.609	33.08715
201.156	7.01521
201.704	2.00506
202.251	32.08504
202.798	37.0967
203.345	30.07442
203.892	-2.00508
204.438	74.17576
204.985	5.01202
205.532	68.18232
206.078	28.06903
206.624	33.082
207.17	33.07658
207.716	-29.07075
208.262	16.03157
208.808	40.09981
209.354	-5.01228
209.899	5.01263
210.445	53.13299
210.99	10.02437
211.535	49.1147
212.08	-11.02573
212.625	6.01509
213.17	44.11091
213.715	31.07006
214.259	61.14223
214.804	2.00493
215.348	44.10023
215.892	16.03869
216.436	18.04201
216.98	0
217.524	14.0332
218.068	27.06795
218.612	29.07225
219.155	20.04705
219.698	20.04716
220.242	39.09645
220.785	54.12559
221.328	15.03746
221.871	79.19738
222.414	-20.04934
222.956	3.00729
223.499	-20.04521
224.041	-2.00459
224.583	41.08697
225.126	56.12431
225.668	6.01462
226.21	16.04016
226.751	-35.07615
227.293	23.05172
227.835	-19.04637
228.376	-7.01598
228.918	6.0151
229.459	52.13013
230	26.06152
230.541	14.0319
231.082	6.01455
231.622	22.05044
232.163	30.07309
232.704	9.02222
233.244	40.09843
233.784	16.03866
234.324	25.05548
234.864	-2.00451
235.404	14.03278
235.944	-8.01876
236.484	2.00492
237.023	62.14527
237.563	-8.01847
238.102	26.06097
238.641	45.11369
239.18	-22.05205
239.719	60.15015
240.258	-11.02455
240.797	10.024
241.335	-22.0532
241.874	35.0672
242.412	-15.03594
242.95	34.08153
243.488	52.11735
244.026	-18.04176
244.564	63.12715
245.102	37.08242
245.64	17.0406
246.177	-11.02447
246.715	30.07054
247.252	-30.06831
247.789	12.0211
248.326	-11.02618
248.863	0
249.4	101.22713
249.936	-10.02048
250.473	2.00467
251.009	28.0644
251.546	37.08116
252.082	66.14364
252.618	24.05361
253.154	-2.0048
253.69	64.14141
254.226	14.03314
254.761	6.01322
255.297	22.04806
255.832	15.03513
256.367	34.07892
256.903	19.04113
257.438	3.00694
257.972	1.0022
258.507	41.09435
259.042	-33.07031
259.576	33.07076
260.111	21.04794
260.645	72.15363
261.179	9.02078
261.713	33.07217
262.247	67.15388
262.781	33.06911
263.315	18.04394
263.849	6.01497
264.382	8.01818
264.915	19.04463
265.449	13.03177
265.982	42.09315
266.515	15.03646
267.048	47.09887
267.58	43.09101
268.113	35.07557
268.646	72.17685
269.178	3.00669
269.71	20.04308
270.243	30.06781
270.775	15.03807
271.307	28.06581
271.838	33.07697
272.37	83.20172
272.902	39.08842
273.433	-16.03475
273.965	104.2511
274.496	-10.02457
275.027	42.10267
275.558	39.09361
276.089	19.04757
276.62	31.07787
277.15	21.05134
277.681	-28.05974
278.211	25.06033
278.741	30.06637
279.272	45.10182
279.802	48.11903
280.332	70.16299
280.861	48.11427
281.391	-8.01806
281.921	-11.02611
282.45	77.19196
282.98	33.08583
283.509	70.15467
284.038	-28.0629
284.567	28.06355
285.096	72.17187
285.625	33.07549
286.153	4.00933
286.682	34.07651
287.21	48.11423
287.739	-25.05882
288.267	32.07741
288.795	46.11958
289.323	73.17075
289.851	15.0348
290.378	-16.03606
290.906	36.08728
291.433	40.09912
291.961	11.02466
292.488	58.14294
293.015	89.208
293.542	46.11512
294.069	46.11207
294.596	54.13205
295.122	58.13707
295.649	60.13197
296.175	34.08063
296.702	49.11627
297.228	-17.0407
297.754	39.08659
298.28	9.02032
298.806	31.07464
299.332	67.14622
299.857	59.13099
300.383	37.09207
300.908	64.15528
301.433	94.22593
301.958	14.03162
302.483	105.26119
303.008	40.09731
303.533	41.10406
304.058	55.12763
304.582	40.09413
305.107	45.11756
305.631	31.06954
306.155	79.1834
306.679	60.13932
307.203	96.21956
307.727	42.09964
308.251	54.13181
308.775	41.09654
309.298	55.13192
309.822	41.1027
310.345	74.17312
310.868	27.06427
311.391	85.20558
311.914	80.19846
312.437	72.16029
312.96	79.18456
313.482	87.20413
314.005	84.20816
314.527	56.14642
315.049	78.19329
315.571	108.24173
316.093	131.31969
316.615	120.28611
317.137	75.15951
317.659	54.12836
318.18	107.25409
318.702	113.25838
319.223	75.15186
319.744	102.22613
320.265	88.21159
320.786	50.12327
321.307	111.273
321.828	133.29688
322.348	105.24463
322.869	22.05106
323.389	51.09494
323.909	138.30976
324.43	101.23735
324.95	124.27982
325.47	122.29611
325.989	157.36808
326.509	102.22245
327.029	127.28079
327.548	147.32474
328.067	108.25622
328.587	200.48359
329.106	156.34412
329.625	88.22419
330.144	85.19186
330.662	99.22655
331.181	138.31688
331.7	127.29098
332.218	153.32653
332.736	126.28666
333.255	118.26976
333.773	166.38361
334.291	119.28824
334.808	114.24768
335.326	146.32273
335.844	189.43163
336.361	158.39038
336.879	155.35228
337.396	163.37855
337.913	143.3196
338.43	208.4567
338.947	179.41489
339.464	155.32376
339.981	184.42622
340.497	196.46963
341.014	152.35851
341.53	222.48785
342.046	188.44961
342.562	174.42153
343.078	166.37903
343.594	211.49002
344.11	203.46529
344.626	244.59419
345.141	219.4854
345.657	151.32981
346.172	234.53881
346.687	177.39673
347.202	211.45714
347.717	222.51179
348.232	264.63351
348.747	269.58951
349.261	246.52625
349.776	202.45583
350.29	220.52774
350.805	222.52381
351.319	230.51668
351.833	268.58521
352.347	190.42543
352.861	269.59895
353.374	228.49935
353.888	258.59122
354.401	246.54036
354.915	249.53877
355.428	267.63741
355.941	228.51324
356.454	293.6215
356.967	293.65994
357.48	253.55304
357.993	320.74297
358.505	302.70949
359.018	285.65478
359.53	244.56093
360.042	211.44346
360.554	282.64543
361.066	271.62636
361.578	316.65462
362.09	348.77819
362.602	260.54656
363.113	278.6019
363.625	340.7248
364.136	306.63305
364.647	267.59351
365.158	295.65356
365.669	377.85674
366.18	272.59445
366.691	308.64061
367.201	319.71291
367.712	297.6286
368.222	400.86046
368.733	353.72292
369.243	328.67096
369.753	372.79301
370.263	302.67339
370.773	363.83995
371.282	416.90833
371.792	386.81535
372.301	395.88818
372.811	396.9581
373.32	393.76695
373.829	433.94724
374.338	440.89354
374.847	410.86034
375.356	504.09011
375.865	515.9774
376.373	588.17601
376.882	526.19872
377.39	582.24944
377.898	571.2676
378.407	547.07946
378.915	575.08171
379.423	653.34453
379.93	648.26389
380.438	761.59036
380.946	777.53565
381.453	781.5832
381.96	830.64245
382.468	947.82936
382.975	981.95023
383.482	977.74729
383.989	951.99999
384.495	1032.87478
385.002	1114.76414
385.509	1095.97195
386.015	1234.79556
386.521	1305.09161
387.028	1383.2138
387.534	1403.08111
388.04	1427.36726
388.546	1498.22689
389.051	1649.30162
389.557	1677.51054
390.063	1825.61269
390.568	1884.7244
391.073	1950.54754
391.578	2017.82768
392.084	2027.47586
392.589	2301.507
393.093	2363.79518
393.598	2594.64832
394.103	2884.86449
394.607	3160.7559
395.112	3336.90366
395.616	3508.68827
396.12	3856.23659
396.624	4204.09438
397.128	4599.98999
397.632	4995.52087
398.136	5511.23487
398.639	6083.14943
399.143	6975.29361
399.646	7781.48352
400.15	8557.49368
400.653	9697.31856
401.156	10789.02599
401.659	12647.93897
402.162	16473.05293
402.664	24558.59954
403.167	45605.6445
403.67	58753.44152
404.172	55487.84425
404.674	37291.05854
405.176	4428.40989
405.678	533.47942
406.18	0
406.682	0
407.184	6962.89417
407.686	50953.82939
408.187	52428.91801
408.688	34950.6569
409.19	26807.55451
409.691	22317.57131
410.192	19177.98823
410.693	17102.38662
411.194	15944.86667
411.694	15084.47722
412.195	13694.24595
412.696	12757.86979
413.196	12505.22562
413.696	12428.73461
414.196	12421.97144
414.696	11790.31263
415.196	10800.17918
415.696	8780.01238
416.196	6838.71045
416.695	5937.99535
417.195	5432.37716
417.694	5243.61857
418.194	4777.03082
418.693	4706.57887
419.192	4457.9941
419.691	4405.02926
420.19	4165.20647
420.688	4194.43126
421.187	3853.52667
421.685	3573.4111
422.184	3045.65197
422.682	2703.41639
423.18	2367.66346
423.678	2110.56544
424.176	2027.55047
424.674	1887.33057
425.172	1799.53682
425.669	1655.64284
426.167	1487.26948
426.664	1407.16139
427.161	1271.03445
427.659	1203.17124
428.156	1150.74984
428.652	1080.09267
429.149	987.86315
429.646	1002.65974
430.143	956.80145
430.639	870.64633
431.135	772.57028
431.632	751.40244
432.128	756.51258
432.624	669.44478
433.12	673.29316
433.616	673.22055
434.111	672.35857
434.607	612.25293
435.103	551.97501
435.598	540.95181
436.093	488.99236
436.588	561.08485
437.083	451.89686
437.578	408.82893
438.073	410.91075
438.568	378.83201
439.062	357.68478
439.557	327.69361
440.051	316.65315
440.546	324.67599
441.04	319.68609
441.534	350.81196
442.028	368.79776
442.522	315.69467
443.015	353.69477
443.509	300.67778
444.002	292.66052
444.496	253.5003
444.989	311.70306
445.482	259.59553
445.975	299.6273
446.468	236.47029
446.961	221.43456
447.454	250.51442
447.947	248.55482
448.439	289.65493
448.931	251.5252
449.424	212.49166
449.916	227.5067
450.408	238.50892
450.9	234.52782
451.392	239.56555
451.884	148.3162
452.375	193.44645
452.867	187.39389
453.358	160.33813
453.849	166.32987
454.341	194.4098
454.832	222.44445
455.323	218.49756
455.814	160.34376
456.304	170.36619
456.795	134.28641
457.285	159.32828
457.776	184.38305
458.266	178.40069
458.756	153.34209
459.247	146.32678
459.737	181.40986
460.226	148.31401
460.716	175.39467
461.206	122.2743
461.695	223.52361
462.185	173.38569
462.674	104.22451
463.163	88.18385
463.653	128.25472
464.142	89.20359
464.63	150.34512
465.119	182.39861
465.608	159.34242
466.096	164.33564
466.585	93.20115
467.073	92.20744
467.561	116.26946
468.05	99.21642
468.538	162.37972
469.026	153.34787
469.513	94.18828
470.001	75.16229
470.489	99.223
470.976	118.258
471.463	112.26827
471.951	111.2642
472.438	65.14707
472.925	87.19227
473.412	108.24948
473.899	128.27939
474.385	102.23871
474.872	45.1007
475.359	76.17794
475.845	74.14623
476.331	77.15762
476.817	38.08834
477.303	47.105
477.789	98.22467
478.275	72.17213
478.761	53.12221
479.247	44.09409
479.732	46.11161
480.218	56.14055
480.703	112.26909
481.188	12.02475
481.673	74.16296
482.158	15.03128
482.643	73.17815
483.128	12.0264
483.612	25.05622
484.097	77.18017
484.581	8.01772
485.066	28.06548
485.55	16.03368
486.034	83.1736
486.518	63.14266
487.002	10.02384
487.486	28.06633
487.969	62.148
488.453	77.18749
488.936	12.02612
489.42	37.07914
489.903	32.07814
490.386	27.05617
490.869	10.0207
491.352	-17.04029
491.835	-24.04771
492.318	58.12682
492.8	12.02376
493.283	44.1092
493.765	54.129
494.247	18.0403
494.73	-5.01075
495.212	1.00234
495.694	-17.03886
496.175	5.01159
496.657	108.2476
497.139	-125.20744
497.62	19.04416
498.102	3.0073
498.583	-10.02414
499.064	21.0461
499.545	38.08358
500.026	23.04985
500.507	-4.00894
500.988	11.02631
501.469	-54.1324
501.949	-28.06704
502.43	-46.10723
502.91	34.06744
503.39	-56.13776
503.87	0
504.35	-15.03409
504.83	-21.04503
505.31	-3.00713
505.79	-7.01636
506.269	-18.04077
506.749	-41.09175
507.228	-10.02294
507.707	5.01075
508.187	-16.03696
508.666	-41.09841
509.145	-44.10104
509.623	-52.11993
510.102	-37.08759
510.581	-27.06313
511.059	20.04931
511.538	-18.04542
512.016	34.07926
512.494	-37.08736
512.972	0
513.45	-21.04835
513.928	-19.04524
514.406	17.04082
514.884	10.02545
515.361	48.11238
515.839	-47.10496
516.316	-32.07501
516.793	-9.0222
517.27	6.01425
517.747	-29.07332
518.224	-45.10178
518.701	14.0304
519.178	-6.01485
519.654	-124.28792
520.131	-50.12063
520.607	12.02896
521.083	-12.02698
521.56	-59.13686
522.036	-19.04097
522.512	16.03834
522.987	8.01877
523.463	-26.06094
523.939	-13.03117
524.414	-27.06057
524.89	-29.06698
525.365	-19.04261
525.84	32.07598
526.315	-65.1537
526.79	-32.0702
527.265	-91.20338
527.74	-52.12474
528.215	-41.09548
528.689	-14.03079
529.164	-69.14489
529.638	-12.03031
530.112	-11.02575
530.587	-22.04668
531.061	-26.06197
531.534	-49.11614
532.008	-32.07606
532.482	-63.13964
532.956	-12.03051
533.429	-109.25615
533.903	-19.04067
534.376	-52.11283
534.849	7.01589
535.322	-21.0486
535.795	-26.06235
536.268	-24.05707
536.741	-25.05882
537.213	-8.01814
537.686	-81.1945
538.158	-59.13105
538.631	-84.2009
539.103	-73.16214
539.575	-29.05899
540.047	-41.08834
540.519	-64.14972
540.991	-63.15082
541.463	-28.06694
541.934	-24.05405
542.406	-65.15388
542.877	-96.21505
543.348	-86.20088
543.82	-48.11563
544.291	-48.10841
544.762	-52.12146
545.233	-1.00248
545.703	-65.14305
546.174	-41.09443
546.645	11.0262
547.115	-32.07612
547.585	-30.06878
548.056	-32.07758
548.526	-38.08845
548.996	-17.04007
549.466	-55.13166
549.935	20.04701
550.405	-25.05454
550.875	-47.10946
551.344	-31.07393
551.814	-37.08232
552.283	-21.04439
552.752	-18.04105
553.221	-50.10738
553.69	-60.13263
554.159	-5.01226
554.628	-21.04608
555.096	-35.08741
555.565	-13.02831
556.033	-3.00687
556.502	-42.09995
556.97	-14.03021
557.438	-47.10989
557.906	-14.03251
558.374	-10.02242
558.842	-7.01642
559.31	-24.05225
559.777	-17.04059
560.245	0
560.712	-52.11653
561.18	2.00429
561.647	-32.06988
562.114	-6.01339
562.581	30.07221
563.048	10.02211
563.514	-5.01209
563.981	-58.13041
564.448	-5.011
564.914	7.01581
565.381	-2.00437
565.847	44.09909
566.313	-5.01132
566.779	25.05537
567.245	33.07503
567.711	49.11461
568.176	3.00677
568.642	30.07391
569.108	78.18519
569.573	-15.03409
570.038	35.07181
570.504	102.22208
570.969	59.14269
571.434	104.22065
571.899	94.21628
572.363	60.13158
572.828	102.22113
573.293	109.23959
573.757	94.20883
574.222	135.29099
574.686	80.17418
575.15	69.15936
575.614	54.11957
576.078	49.11128
576.542	116.25385
577.006	125.27129
577.469	89.20996
577.933	75.16048
578.396	98.22665
578.86	51.11554
579.323	75.1726
579.786	81.16709
580.249	104.22797
580.712	43.10117
581.175	75.17886
581.637	90.20111
582.1	71.14863
582.563	21.04236
583.025	38.08963
583.487	29.05635
583.95	54.11257
584.412	49.09826
584.874	66.15422
585.336	65.14929
585.797	53.11007
586.259	8.01802
586.721	39.08896
587.182	46.10207
587.643	92.19945
588.105	61.13993
588.566	34.06917
589.027	75.17632
589.488	43.09424
589.949	15.03496
590.41	127.23712
590.87	56.12032
591.331	27.05532
591.791	37.08146
592.252	7.01561
592.712	51.11807
593.172	100.21467
593.632	13.02676
594.092	108.22854
594.552	63.12879
595.011	77.17117
595.471	105.22312
595.931	57.1217
596.39	98.22521
596.849	93.20614
597.308	106.21684
597.768	181.43493
598.227	176.39927
598.685	96.20599
599.144	140.30895
599.603	195.43149
600.062	176.34158
600.52	175.36683
600.978	215.47912
601.437	204.43225
601.895	228.44462
602.353	199.4044
602.811	240.48917
603.269	225.49725
603.727	271.5979
604.184	296.6088
604.642	295.6601
605.099	332.69361
605.557	340.74178
606.014	361.69145
606.471	412.93682
606.928	488.95168
607.385	424.94301
607.842	492.99959
608.299	453.92854
608.755	507.06597
609.212	554.06284
609.668	518.00082
610.125	499.04451
610.581	536.07084
611.037	563.08872
611.493	541.0911
611.949	564.17275
612.405	573.97497
612.861	577.13398
613.316	638.3027
613.772	665.27715
614.227	620.24241
614.683	615.09929
615.138	660.31964
615.593	611.1885
616.048	636.19758
616.503	675.393
616.958	631.351
617.412	629.25786
617.867	630.18626
618.321	541.91849
618.776	629.15739
619.23	664.32091
619.684	570.07728
620.138	606.15497
620.592	567.17611
621.046	569.13032
621.5	636.30155
621.954	532.01318
622.407	556.04461
622.861	466.97697
623.314	550.06836
623.768	505.02163
624.221	524.87687
624.674	454.90177
625.127	485.98784
625.58	437.84594
626.033	450.84548
626.485	393.83432
626.938	452.93549
627.39	455.92631
627.843	451.90146
628.295	415.84681
628.747	420.88171
629.199	414.83844
629.651	373.75627
630.103	370.7603
630.555	297.55703
631.006	336.70601
631.458	305.63876
631.909	377.75844
632.361	267.55918
632.812	336.69947
633.263	278.53259
633.714	239.45577
634.165	249.54016
634.616	260.55981
635.067	287.56168
635.518	244.52265
635.968	327.57281
636.419	253.48927
636.869	219.47366
637.319	266.55794
637.769	258.52777
638.219	196.42401
638.669	233.51342
639.119	197.44228
639.569	241.54017
640.019	200.4234
640.468	177.35855
640.918	261.57077
641.367	233.4789
641.816	240.4914
642.265	234.49538
642.714	274.58056
643.163	221.45834
643.612	209.47192
644.061	216.41341
644.51	199.42138
644.958	187.37967
645.406	229.50799
645.855	193.43775
646.303	179.38516
646.751	229.48278
647.199	173.35783
647.647	222.47697
648.095	162.34386
648.543	168.31049
648.99	208.46304
649.438	209.45416
649.885	229.52887
650.333	172.29881
650.78	281.6324
651.227	189.43198
651.674	193.40885
652.121	119.26925
652.568	182.41305
653.015	169.39171
653.461	167.37123
653.908	199.42783
654.354	148.32578
654.801	172.37782
655.247	198.39732
655.693	151.37233
656.139	203.45013
656.585	198.44242
657.031	163.35993
657.477	196.39422
657.922	202.43475
658.368	142.32776
658.813	116.24708
659.259	172.38798
659.704	160.35205
660.149	119.26146
660.594	180.39938
661.039	187.39874
661.484	207.45862
661.929	150.32741
662.373	144.34846
662.818	158.37237
663.262	148.33371
663.707	110.26358
664.151	173.4013
664.595	150.3414
665.039	130.30412
665.483	202.48604
665.927	157.34349
666.371	97.21563
666.814	153.34195
667.258	179.40154
667.701	150.29516
668.145	156.36308
668.588	157.36404
669.031	140.31373
669.474	145.32808
669.917	110.22767
670.36	95.22307
670.803	135.3057
671.245	110.21584
671.688	155.35328
672.13	88.1863
672.573	172.41307
673.015	146.32826
673.457	182.37079
673.899	139.31515
674.341	130.29564
674.783	149.33864
675.225	111.25871
675.666	118.27052
676.108	151.30756
676.549	200.43692
676.991	149.30487
677.432	142.25823
677.873	150.32325
678.314	134.30054
678.755	158.36382
679.196	162.34941
679.637	112.25636
680.078	138.30173
680.518	119.25551
680.959	137.30834
681.399	100.23376
681.839	100.23064
682.28	131.30784
682.72	117.25078
683.16	159.37393
683.6	146.3103
684.039	141.27084
684.479	145.33608
684.919	172.37496
685.358	112.26817
685.798	123.30441
686.237	158.35611
686.676	170.36541
687.115	156.34253
687.554	119.26618
687.993	84.17222
688.432	171.36763
688.871	124.26412
689.309	227.51528
689.748	154.29717
690.186	133.29467
690.625	188.41765
691.063	209.47038
691.501	158.36759
691.939	120.28381
692.377	161.36947
692.815	188.42476
693.253	118.264
693.69	126.25857
694.128	165.37971
694.565	130.29276
695.003	144.34649
695.44	102.22566
695.877	137.30442
696.314	143.28423
696.751	152.3201
697.188	125.27186
697.625	133.28187
698.061	112.2545
698.498	163.3679
698.934	140.31335
699.371	162.35915
699.807	167.36969
700.243	162.37005
700.679	130.27534
701.115	163.35406
701.551	159.35227
701.987	124.25734
702.422	126.28085
702.858	135.29923
703.294	191.39541
703.729	169.38938
704.164	159.36137
704.599	110.22788
705.035	141.29595
705.47	178.41036
705.904	110.24021
706.339	112.24053
706.774	114.24947
707.209	124.26734
707.643	126.2848
708.078	93.21385
708.512	172.41166
708.946	118.264
709.38	111.24562
709.814	111.23597
710.248	104.23603
710.682	141.31747
711.116	113.25766
711.549	49.12047
711.983	54.11757
712.416	57.12624
712.85	139.32855
713.283	148.32688
713.716	96.2267
714.149	88.19526
714.582	96.20288
715.015	81.19087
715.448	54.12786
715.881	101.20103
716.313	112.24851
716.746	121.26931
717.178	45.10277
717.61	117.28051
718.043	45.106
718.475	56.12844
718.907	91.2141
719.339	50.10766
719.77	94.21377
720.202	74.17745
720.634	56.13106
721.065	106.23529
721.497	74.17264
721.928	88.20619
722.359	69.16095
722.79	77.17458
723.221	47.11157
723.652	60.14574
724.083	25.05338
724.514	16.03427
724.945	36.08071
725.375	58.12826
725.806	-17.04009
726.236	49.1194
726.666	2.00449
727.096	58.13398
727.526	58.14099
727.956	34.07333
728.386	3.00695
728.816	5.01222
729.246	72.16738
729.675	42.09972
730.105	27.06298
730.534	49.10852
730.964	0
731.393	20.04637
731.822	57.13926
732.251	54.13141
732.68	-14.03069
733.109	20.04727
733.537	39.08936
733.966	32.07539
734.395	-24.05265
734.823	17.03593
735.251	16.03684
735.68	10.02381
736.108	36.0863
736.536	61.13543
736.964	-27.05975
737.392	-20.04772
737.82	-8.01825
738.247	4.00904
738.675	15.03352
739.102	24.05806
739.53	50.1225
739.957	-14.0345
740.384	28.06468
740.811	60.14514
741.238	33.07591
741.665	62.13768
742.092	51.11347
742.519	47.112
742.945	-3.00687
743.372	16.03802
743.798	6.01478
744.225	-2.00452
744.651	0
745.077	17.04045
745.503	-36.08372
745.929	2.00455
746.355	-7.0163
746.781	-6.01421
747.207	19.04308
747.632	0
748.058	-13.03078
748.483	-36.07838
748.908	2.00475
749.334	-38.0898
749.759	3.00671
750.184	5.01135
750.609	-22.05149
751.033	6.01317
751.458	39.08305
751.883	-2.0047
752.307	51.11525
752.732	-38.09313
753.156	-28.06643
753.58	33.07366
754.005	17.0416
754.429	-40.08872
754.853	-23.05506
755.277	3.00682
755.7	-10.0237
756.124	35.08385
756.548	27.06119
756.971	-3.00696
757.394	-17.04215
757.818	21.05216
758.241	-14.03392
758.664	19.0464
759.087	15.03247
759.51	20.04741
759.933	-9.02092
760.356	-6.01475
760.778	58.1376
761.201	-51.11713
761.623	-33.07531
762.046	-1.00219
762.468	-3.00683
762.89	23.05394
763.312	27.06201
763.734	-7.01619
764.156	12.0284
764.578	-34.07377
765	1.00233
765.421	38.09403
765.843	44.11067
766.264	-31.07106
766.686	48.11554
767.107	45.1048
767.528	14.03441
767.949	-16.03913
768.37	-11.02573
768.791	24.05471
769.212	39.09507
769.632	-40.08938
770.053	8.02032
770.473	13.03022
770.894	-32.07595
771.314	-13.02917
771.734	-22.04861
772.154	32.07851
772.575	17.03712
772.994	-13.02824
773.414	-45.10124
773.834	3.00723
774.254	-22.05133
774.673	-7.01617
775.093	-5.01196
775.512	8.01899
775.931	65.15803
776.351	-14.0331
776.77	-24.0567
777.189	-48.10872
777.607	-33.08173
778.026	38.09071
778.445	-11.02687
778.864	9.02196
779.282	-19.04327
779.701	1.00242
780.119	-82.2003
780.537	-27.06466
780.955	20.04827
781.373	-43.10227
781.791	-11.02367
782.209	29.06331
782.627	24.06099
783.045	32.06935
783.462	-29.07085
783.88	-19.04771
784.297	15.03605
784.715	29.0724
785.132	5.01152
785.549	26.06285
785.966	-48.11602
786.383	-34.08107
786.8	-11.02433
787.217	-53.12041
787.633	-43.10388
788.05	-68.15063
788.466	18.03969
788.883	-16.03969
789.299	-44.10063
789.715	36.08353
790.131	-25.05928
790.547	-85.20169
790.963	-2.00474
791.379	-27.06587
791.795	-2.0043
792.21	-6.01325
792.626	-19.04289
793.041	-48.11317
793.457	-19.04467
793.872	-2.00448
794.287	5.01168
794.702	0
795.117	-45.10682
795.532	6.01457
795.947	-18.04075
796.362	9.02009
796.776	-56.12099
797.191	-42.09814
797.605	-62.14345
798.02	5.01169
798.434	-36.07515
798.848	-55.1295
799.262	12.02887
799.676	-21.04833
800.09	-49.11515
800.504	13.02985
800.918	-62.13705
801.331	-44.11035
801.745	-73.16005
802.158	-20.04774
802.572	-12.0275
802.985	-53.12095
803.398	-53.12109
803.811	-25.06115
804.224	-35.08305
804.637	-74.16665
805.05	-6.01313
805.462	-52.12203
805.875	24.06067
806.288	-5.01164
806.7	-61.14781
807.112	-18.03954
807.525	23.05405
807.937	-43.10231
808.349	-55.13197
808.761	-68.15846
809.173	-61.14016
809.584	-1.00233
809.996	-39.09215
810.408	-16.03991
810.819	-61.13802
811.231	11.02797
811.642	33.0777
812.053	-28.06489
812.464	-7.01598
812.875	-9.02209
813.286	-46.11366
813.697	-59.12772
814.108	-72.16718
814.519	-52.10888
814.929	-12.02886
815.34	-53.12285
815.75	-40.09774
816.16	-82.19349
816.571	4.00994
816.981	-61.13532
817.391	-55.12662
817.801	12.02877
818.211	7.01584
818.62	-30.06864
819.03	-40.09248
819.44	-20.04983
819.849	-42.1021
820.259	32.07796
820.668	-14.0333
821.077	-73.17575
821.486	-47.10656
821.895	-38.08775
822.304	6.01525
822.713	-30.06709
823.122	3.00717
823.531	-11.02487
823.939	-44.1029
824.348	13.03
824.756	-27.06429
825.164	0
825.573	-21.05041
825.981	40.09354
826.389	-2.0047
826.797	-30.07208
827.205	-12.02599
827.612	-34.07939
828.02	-4.00899
828.428	-48.11694
828.835	-36.09168
829.243	-35.07894
829.65	-9.02141
830.057	19.04409
830.464	26.06059
830.871	-35.07929
831.278	-40.09126
831.685	-58.12085
832.092	-15.03514
832.499	-33.06746
832.905	-5.01212
833.312	-36.07691
833.718	-22.05193
834.124	-38.08252
834.531	-41.09834
834.937	-29.07051
835.343	5.01141
835.749	7.01517
836.155	-49.12331
836.561	-98.22809
836.966	-31.07188
837.372	-9.02173
837.777	-61.14497
838.183	-97.20018
838.588	-42.10053
838.993	-7.01592
839.399	-85.1992
839.804	-24.0565
840.209	3.00735
840.613	-9.01902
841.018	-45.10789
841.423	-80.19592
841.828	-27.06518
842.232	-40.09262
842.637	-66.14596
843.041	-2.00499
843.445	-18.04256
843.849	-24.05665
844.253	-50.11186
844.657	-38.09268
845.061	-22.04715
845.465	21.04902
845.869	-27.05892
846.272	-47.10941
846.676	-18.04145
847.079	-18.04416
847.483	-7.01651
847.886	-27.06109
848.289	10.02601
848.692	-21.0506
849.095	-67.15184
849.498	-42.09941
849.901	-77.16633
850.304	-38.08544
850.707	-41.0998
851.109	-54.12806
851.512	0
851.914	-22.05424
852.316	-10.0242
852.718	-10.02506
853.121	-41.09601
853.523	-83.18497
853.925	-49.12357
854.326	-12.029
854.728	-25.06158
855.13	-34.08502
855.531	1.0023
855.933	-30.068
856.334	19.04514
856.736	-97.20567
857.137	-24.05276
857.538	-66.15983
857.939	-3.0071
858.34	-59.13627
858.741	-16.03997
859.142	14.03176
859.542	29.0746
859.943	9.02139
860.343	-45.10756
860.744	-23.05356
861.144	-48.11172
861.544	-17.03948
861.945	-59.14345
862.345	-41.09356
862.745	-35.08305
863.145	-59.13116
863.544	-5.01218
863.944	-10.02216
864.344	-28.06514
864.743	-14.03297
865.143	-40.09854
865.542	-28.06104
865.941	24.05665
866.34	0
866.74	-29.07488
867.139	-40.09192
867.537	-30.07249
867.936	-51.11765
868.335	50.12095
868.734	-11.02715
869.132	29.0635
869.531	-3.00682
869.929	-24.05225
870.327	-91.20959
870.726	-5.01175
871.124	-36.07871
871.522	-36.08679
871.92	-13.03032
872.318	-7.01625
872.715	-4.00931
873.113	0
873.511	-2.00474
873.908	7.01725
874.306	11.02601
874.703	-5.01184
875.1	-37.08979
875.497	-72.16387
875.894	-16.03802
876.291	6.01404
876.688	-51.12617
877.085	-37.08372
877.482	-60.14262
877.878	-14.03203
878.275	-71.17288
878.671	-99.20312
879.068	-36.08227
879.464	18.04105
879.86	-47.10738
880.256	-40.09259
880.652	-4.00966
881.048	-54.12603
881.444	-62.13825
881.84	-23.05542
882.236	-14.03356
882.631	-35.08199
883.027	-42.0949
883.422	-31.07565
883.817	-13.03156
884.213	-10.02453
884.608	-1.00235
885.003	-53.12241
885.398	-41.09811
885.793	-50.11944
886.188	-37.08912
886.582	-56.13485
886.977	11.02442
887.371	-28.06743
887.766	-62.14958
888.16	-15.03562
888.554	-43.09994
888.949	-55.12995
889.343	-3.00681
889.737	-23.06005
890.131	-12.02879
890.525	-20.0486
890.918	23.05525
891.312	-50.11126
891.706	44.11039
892.099	-6.01444
892.492	-15.03016
892.886	-47.10881
893.279	18.04348
893.672	-47.11525
894.065	-33.07837
894.458	11.0261
894.851	-15.03415
895.244	-45.11043
895.637	27.06117
896.029	-7.01619
896.422	-18.04142
896.814	-7.01655
897.206	-18.04112
897.599	-79.18268
897.991	37.08416
898.383	-36.08014
898.775	-42.08899
899.167	-25.05583
899.559	-17.04067
899.951	-24.05321
900.342	-74.17745
900.734	7.01687
901.125	-57.14246
901.517	-21.04925
901.908	-20.04475
902.299	-42.09841
902.69	-29.06484
903.082	2.00456
903.473	1.00229
903.863	7.01717
904.254	-48.10495
904.645	-53.12387
905.036	-30.07029
905.426	-63.13194
905.817	-33.07694
906.207	-5.01131
906.597	-46.10258
906.987	-64.1572
907.378	-83.20089
907.768	-30.07654
908.158	16.03683
908.547	-53.13227
908.937	-7.01699
909.327	-2.00455
909.717	8.019
910.106	-46.10512
910.495	22.05211
910.885	-70.16709
911.274	13.03088
911.663	16.03881
912.052	-36.08359
912.441	30.07284
912.83	-15.03211
913.219	-39.09656
913.608	-31.07202
913.997	-58.13935
914.385	-29.0646
914.774	-6.01372
915.162	-63.14226
915.55	1.00228
915.939	-31.07512
916.327	-10.02363
916.715	-15.03682
917.103	-13.02997
917.491	-50.11601
917.878	-60.13816
918.266	-29.07177
918.654	1.00246
919.041	-53.13342
919.429	-45.10132
919.816	4.00954
920.203	-26.05987
920.591	-29.06775
920.978	1.0023
921.365	-72.18148
921.752	-37.08409
922.139	24.04852
922.525	-15.03402
922.912	-25.05749
923.299	-20.04752
923.685	-4.00996
924.072	-18.03839
924.458	-66.15682
924.844	-25.0587
925.231	-72.15816
925.617	-7.01726
926.003	-4.00971
926.389	-13.03152
926.774	7.0169
927.16	-25.05861
927.546	10.02434
927.931	-9.02127
928.317	-57.1216
928.702	-36.07968
929.088	-24.05394
929.473	-4.00969
929.858	-16.03745
930.243	-11.02513
930.628	-36.08286
931.013	31.07333
931.398	-35.07486
931.783	-4.01004
932.167	-50.11569
932.552	-47.11066
932.937	-56.13029
933.321	-72.17266
933.705	-13.03155
934.09	-23.0543
934.474	14.03105
934.858	-11.02736
935.242	17.03748
935.626	-76.18647
936.009	-58.1487
936.393	26.06315
936.777	-17.04192
937.16	-76.18813
937.544	-16.03526
937.927	-33.08032
938.311	-37.08488
938.694	9.02263
939.077	-29.06511
939.46	24.05553
939.843	-40.07607
940.226	-64.1568
940.609	-45.09696
940.991	-33.08023
941.374	-85.19803
941.757	-16.03725
942.139	-32.0668
942.522	-61.1347
942.904	-9.02047
943.286	-34.08153
943.668	-22.05436
944.05	-4.0093
944.432	-30.07071
944.814	-17.0392
945.196	-63.14903
945.578	-14.03189
945.959	-27.05985
946.341	-75.17212
946.722	1.00221
947.104	-62.13968
947.485	-44.09645
947.866	-22.05332
948.247	-34.08194
948.628	-27.06184
949.009	-27.06631
949.39	-71.16561
949.771	-29.06288
950.152	-15.03508
950.532	-1.00241
950.913	-27.06079
951.293	-37.09732
951.674	-45.10244
952.054	-33.07818
952.434	-80.18877
952.814	-70.15551
953.194	4.00999
953.574	-57.13165
953.954	-48.10819
954.334	0
954.714	-32.07436
955.093	-34.07814
955.473	-82.19544
955.853	-8.01982
956.232	2.00525
956.611	-99.22263
956.99	-30.07221
957.37	-6.01452
957.749	-37.08256
958.128	-11.02664
958.506	-2.00499
958.885	-24.05731
959.264	0
959.643	12.02549
960.021	-12.02823
960.4	55.11692
960.778	-71.16365
961.156	-63.15128
961.535	-82.17717
961.913	-54.11677
962.291	-20.04969
962.669	-36.08741
963.047	-52.12531
963.424	-39.09564
963.802	-78.18162
964.18	-43.10294
964.557	-60.1283
964.935	-29.06449
965.312	-10.02503
965.69	-30.07093
966.067	-20.04563
966.444	-29.0677
966.821	-35.08564
967.198	-41.09266
967.575	-36.08296
967.952	-20.04438
968.329	-81.18767
968.705	-37.07255
969.082	6.01472
969.458	-17.03912
969.835	-30.069
970.211	-26.06379
970.587	1.00235
970.963	-43.10521
971.339	-27.06817
971.715	-60.14064
972.091	-22.05112
972.467	-19.04406
972.843	-66.15694
973.219	1.00221
973.594	-11.02751
973.97	7.01535
974.345	-40.0906
974.721	-12.02718
975.096	-53.1206
975.471	8.01784
975.846	-25.05726
976.221	-13.03145
976.596	-36.08184
976.971	10.02326
977.346	-36.07768
977.72	-40.09709
978.095	-23.05692
978.469	-16.03606
978.844	26.06128
979.218	-24.05498
979.593	-2.00451
979.967	-9.02084
980.341	-46.09909
980.715	-48.11475
981.089	-61.1443
981.463	1.00217
981.837	-69.16272
982.21	-17.03671
982.584	-68.15565
982.957	-9.0215
983.331	-29.06465
983.704	-20.04694
984.078	-71.16626
984.451	-93.21676
984.824	-26.06061
985.197	-50.11495
985.57	-60.14229
985.943	-54.12405
986.316	26.05975
986.688	-60.13684
987.061	-20.04353
987.434	16.03965
987.806	-57.1306
988.179	-50.1109
988.551	-44.10559
988.923	-23.05344
989.295	-11.02591
989.667	10.02296
990.039	-39.09226
990.411	22.04761
990.783	-6.01283
991.155	-2.00461
991.527	-57.13039
991.898	-48.11322
992.27	-36.08491
992.641	-16.03778
993.012	46.10122
993.384	-38.08582
993.755	-48.11637
994.126	-28.06383
994.497	-51.1191
994.868	-30.06504
995.239	-29.06698
995.61	-82.19761
995.98	-1.00232
996.351	-16.0379
996.722	14.03061
997.092	-18.04069
997.462	-64.14407
997.833	-38.0846
998.203	-36.08204
998.573	-13.03095
998.943	-70.15396
999.313	-26.05927
999.683	-57.1286
1000.053	33.07083
1000.423	-30.06903
1000.792	-29.07198
1001.162	-17.03989
1001.531	-5.01172
1001.901	-52.12294
1002.27	-13.0273
1002.639	-12.02928
1003.009	-29.06618
1003.378	-26.06353
1003.747	-17.03759
1004.116	-12.02726
1004.485	-9.02039
1004.853	-8.01924
1005.222	48.11489
1005.591	-28.06208
1005.959	-43.09273
1006.328	-22.04615
1006.696	-27.06216
1007.064	11.02616
1007.433	-4.00951
1007.801	5.01144
1008.169	-45.10752
1008.537	11.02267
1008.905	11.02408
1009.273	-27.06313
1009.64	-54.1233
1010.008	-28.06277
1010.375	22.04985
1010.743	-46.09747
1011.11	-11.02457
1011.478	-53.12469
1011.845	-80.17588
1012.212	-58.12247
1012.579	-30.0701
1012.946	-52.11519
1013.313	-13.02896
1013.68	-6.01245
1014.047	-6.01368
1014.414	3.00672
1014.78	3.00712
1015.147	-87.19781
1015.513	8.01842
1015.88	-42.10091
1016.246	-25.05864
1016.612	51.10634
1016.978	-43.09967
1017.344	-5.01182
1017.71	-26.05851
1018.076	-9.01983
1018.442	-32.07814
1018.808	-29.06903
1019.174	-102.24506
1019.539	-61.12821
1019.905	-22.04926
1020.27	1.00236
1020.636	-9.02023
1021.001	-71.16058
1021.366	-14.03238
1021.731	-5.01227
1022.096	-29.07046
1022.461	-29.06385
1022.826	-25.05615
1023.191	-15.03763
1023.556	-68.14887
1023.92	-12.02749
1024.285	-33.07588
1024.649	2.00462
1025.014	-28.06563
1025.378	17.04081
1025.742	-15.03521
1026.107	-95.20134
1026.471	-55.1184
1026.835	-13.03011
1027.199	-18.0412
1027.562	-15.03294
1027.926	-18.04138
1028.29	-39.0945
1028.654	-46.09853
1029.017	15.03478
1029.381	-39.08875
1029.744	10.02433
1030.107	-67.14739
1030.471	-35.07884
1030.834	-74.15618
1031.197	-64.14401
1031.56	19.04238
1031.923	-39.09631
1032.286	16.03473
1032.648	-69.15568
1033.011	-43.09336
1033.374	-55.12028
1033.736	-30.07548
1034.099	27.06204
1034.461	-4.00968
1034.823	-78.18519
1035.185	-47.11097
1035.548	-33.07585
1035.91	15.03394
1036.272	-42.09004
1036.634	-34.0776
1036.995	-21.04695
1037.357	-2.0046
1037.719	-27.06199
1038.08	-59.13012
1038.442	-7.01597
1038.803	-46.10376
1039.165	2.00479
1039.526	-27.06174
1039.887	11.02486
1040.248	43.10156
1040.609	-9.02094
1040.97	-54.12539
1041.331	-88.2103
1041.692	-1.00221
1042.053	-85.18141
1042.413	-49.1063
1042.774	-23.05251
1043.134	-43.09543
1043.495	-35.08299
1043.855	6.01368
1044.215	-62.14635
1044.576	7.01585
1044.936	30.0641
1045.296	12.02801
1045.656	-24.05566
1046.016	-44.09909
1046.375	20.04591
1046.735	-33.07131
1047.095	-20.04408
1047.454	26.05027
1047.814	-53.11987
1048.173	-92.20549
1048.533	-1.00215
1048.892	-31.07108
1049.251	20.04723
1049.61	-65.15078
1049.969	0
1050.328	-62.12401
1050.687	-35.08045
1051.046	14.03229
1051.405	-58.13558
1051.763	2.00432
1052.122	28.06643
1052.48	-45.10406
1052.839	-52.1161
1053.197	-31.06891
1053.555	-76.1573
1053.914	-3.00687
1054.272	-2.00452
1054.63	-49.11313
1054.988	-35.07832
1055.345	-36.07114
1055.703	-54.12191
1056.061	1.00244
1056.419	-54.13489
1056.776	20.04511
1057.134	-58.12649
1057.491	-43.10215
1057.848	-25.05854
1058.206	-44.09751
1058.563	39.08005
1058.92	-10.02126
1059.277	-43.09872
1059.634	-56.12167
1059.991	33.07403
1060.348	-34.07292
1060.704	-84.19173
1061.061	-1.00211
1061.418	-18.04153
1061.774	6.01418
1062.131	22.05658
1062.487	-87.19203
1062.843	-18.04242
1063.199	-1.00236
1063.555	3.00656
1063.911	-17.04053
1064.267	-16.02982
1064.623	-36.08396
1064.979	-54.11747
1065.335	-67.14919
1065.691	15.034
1066.046	-51.10388
1066.402	-55.11769
1066.757	4.00956
1067.112	-27.06186
1067.468	22.04946
1067.823	-17.03864
1068.178	5.01143
1068.533	-34.07723
1068.888	-46.10266
1069.243	-17.03992
1069.598	-65.14773
1069.952	-13.02794
1070.307	21.04979
1070.662	-18.0404
1071.016	-10.02115
1071.371	-45.09579
1071.725	-38.0833
1072.079	-36.08164
1072.434	-69.15955
1072.788	-16.03615
1073.142	11.02568
1073.496	-36.08074
1073.85	-10.02163
1074.203	-47.1076
1074.557	-9.02305
1074.911	-26.05764
1075.265	-80.1741
1075.618	12.02761
1075.971	-81.18238
1076.325	-75.18323
1076.678	-59.12756
1077.031	-41.08689
1077.385	-2.00412
1077.738	-33.07009
1078.091	-25.05426
1078.444	-46.09905
1078.796	-49.11528
1079.149	-61.14262
1079.502	-13.02895
1079.855	-18.03966
1080.207	-13.03012
1080.56	-72.17875
1080.912	-76.17347
1081.264	-49.11177
1081.617	-24.05549
1081.969	4.00975
1082.321	-49.1138
1082.673	-25.05435
1083.025	-63.1404
1083.377	-289.59962
1083.728	-82.17762
1084.08	6.01423
1084.432	-72.16128
1084.783	39.08569
1085.135	-14.03379
1085.486	-8.01729
1085.838	-47.1101
1086.189	-55.12683
1086.54	-33.07433
1086.891	-38.09306
1087.242	-40.09148
1087.593	-30.06831
1087.944	-29.06119
1088.295	-3.00626
1088.646	-34.07817
1088.996	-70.16035
1089.347	-47.10872
1089.698	-45.10182
1090.048	-54.13323
1090.398	-10.02184
1090.749	9.02023
1091.099	2.00481
1091.449	-56.13193
1091.799	-63.1503
1092.149	-39.09269
1092.499	-15.03469
1092.849	-6.01449
1093.199	-6.01411
1093.548	11.02496
1093.898	-23.05477
1094.248	-7.01706
1094.597	-55.13682
1094.947	-33.08426
1095.296	-74.17373
1095.645	-19.04683
1095.994	-16.03642
1096.343	0
1096.692	-18.04574
1097.041	-15.03931
1097.39	-50.11908
1097.739	14.03466
1098.088	-30.07605
1098.437	-53.13471
1098.785	-21.05392
1099.134	-61.15362
1099.482	-60.15816
1099.83	-67.16867
1100.179	-14.03543
1100.527	-58.14719
1100.875	-37.09385
1101.223	4.01022
1101.571	-42.1128
1101.919	-43.10902
1102.267	24.06566
1102.615	6.01928
1102.962	-3.00963
1103.31	1.00321
1103.658	-6.01925
