Data from N2 R3 sample 3_Subt2__5__17-28-37-628.txt Node

Date: Wed Aug 27 17:28:37 PDT 2025
User: uwsun
Spectrometer: HDX01956
Trigger mode: 0
Integration Time (sec): 5.000000E-1
Scans to average: 1
Nonlinearity correction enabled: true
Boxcar width: 0
Storing dark spectrum: false
XAxis mode: Wavelengths
Number of Pixels in Spectrum: 2068
>>>>>Begin Spectral Data<<<<<
194.03	237.66768
194.578	261.8257
195.127	258.80525
195.676	246.77109
196.225	243.6419
196.773	242.66511
197.321	358.96499
197.87	535.30437
198.418	555.36373
198.966	552.37155
199.513	532.27992
200.061	593.43302
200.609	549.36928
201.156	526.10818
201.704	525.27901
202.251	531.33723
202.798	593.4711
203.345	589.37509
203.892	522.25251
204.438	549.25046
204.985	590.32636
205.532	529.32601
206.078	549.28963
206.624	536.26956
207.17	561.23918
207.716	599.39299
208.262	540.01299
208.808	584.3722
209.354	593.37523
209.899	533.27676
210.445	551.30388
210.99	577.32013
211.535	569.26943
212.08	588.30241
212.625	532.26541
213.17	547.29939
213.715	536.15351
214.259	586.28072
214.804	601.39819
215.348	511.12105
215.892	602.35282
216.436	550.20143
216.98	573.19969
217.524	532.19533
218.068	509.20855
218.612	556.32964
219.155	531.18844
219.698	526.18376
220.242	509.19555
220.785	517.14851
221.328	539.27398
221.871	478.13723
222.414	541.27822
222.956	482.11552
223.499	493.06469
224.041	571.26655
224.583	447.92328
225.126	460.98866
225.668	501.17124
226.21	449.08507
226.751	473.00658
227.293	481.0507
227.835	451.05541
228.376	507.12206
228.918	495.18742
229.459	495.18607
230	426.97257
230.541	525.15858
231.082	502.16785
231.622	510.13833
232.163	514.19158
232.704	491.17022
233.244	467.0942
233.784	486.12568
234.324	487.03104
234.864	487.05755
235.404	434.98803
235.944	492.10623
236.484	448.06166
237.023	518.17001
237.563	493.09194
238.102	465.03452
238.641	477.14548
239.18	503.12846
239.719	506.21177
240.258	496.0618
240.797	540.23463
241.335	504.16882
241.874	488.91103
242.412	483.10612
242.95	527.20898
243.488	547.19411
244.026	480.05713
244.564	530.02699
245.102	558.1999
245.64	525.20101
246.177	476.01803
246.715	459.04812
247.252	490.06701
247.789	421.75305
248.326	538.23942
248.863	553.14958
249.4	506.07858
249.936	527.04674
250.473	583.27764
251.009	545.19325
251.546	540.1462
252.082	567.15464
252.618	570.2084
253.154	501.14695
253.69	538.15534
254.226	474.06394
254.761	558.18652
255.297	576.20199
255.832	491.09969
256.367	567.26809
256.903	581.20359
257.438	550.20244
257.972	560.19285
258.507	595.2974
259.042	509.03727
259.576	541.1121
260.111	551.19727
260.645	552.11664
261.179	532.16891
261.713	599.24979
262.247	532.16254
262.781	496.98887
263.315	553.26769
263.849	581.36435
264.382	563.2073
264.915	626.38323
265.449	618.41884
265.982	549.17521
266.515	583.33173
267.048	511.01679
267.58	579.17162
268.113	555.13939
268.646	583.35308
269.178	648.36323
269.71	539.09254
270.243	625.32084
270.775	579.38444
271.307	555.24631
271.838	567.24984
272.37	581.33302
272.902	656.37827
273.433	569.17238
273.965	580.31876
274.496	606.38905
275.027	579.35278
275.558	575.31028
276.089	626.44811
276.62	580.37337
277.15	588.35475
277.681	578.17841
278.211	642.45635
278.741	589.22672
279.272	595.27492
279.802	608.41921
280.332	562.2587
280.861	600.34832
281.391	620.31226
281.921	613.35362
282.45	656.51876
282.98	641.54386
283.509	625.31334
284.038	591.25816
284.567	626.33768
285.096	601.34809
285.625	586.23155
286.153	645.40181
286.682	649.39018
287.21	610.36465
287.739	627.3765
288.267	652.4617
288.795	676.63279
289.323	598.30753
289.851	627.34762
290.378	687.43365
290.906	660.49661
291.433	678.54677
291.961	714.49237
292.488	633.44026
293.015	646.40487
293.542	706.64232
294.069	705.5971
294.596	701.57518
295.122	697.52071
295.649	682.36622
296.175	713.58449
296.702	686.51719
297.228	683.51212
297.754	658.36061
298.28	705.47061
298.806	693.50496
299.332	714.46074
299.857	730.49149
300.383	671.54215
300.908	734.645
301.433	684.51654
301.958	821.71056
302.483	726.66298
303.008	723.59078
303.533	756.78553
304.058	715.51259
304.582	814.74058
305.107	750.77477
305.631	731.5013
306.155	768.62376
306.679	824.72479
307.203	786.63649
307.727	779.67825
308.251	741.63041
308.775	747.60513
309.298	799.73018
309.822	805.80676
310.345	828.72935
310.868	767.64108
311.391	792.71902
311.914	868.93743
312.437	780.5693
312.96	803.68339
313.482	820.72548
314.005	846.89918
314.527	840.94792
315.049	840.868
315.571	882.7211
316.093	862.86944
316.615	831.76127
317.137	895.68342
317.659	910.88482
318.18	925.91378
318.702	981.97553
319.223	921.62746
319.744	916.78838
320.265	928.94605
320.786	902.95704
321.307	997.12532
321.828	953.8278
322.348	997.96831
322.869	1053.10653
323.389	1126.52211
323.909	1041.01167
324.43	1025.04853
324.95	1036.9963
325.47	1090.24125
325.989	1098.13167
326.509	1046.95213
327.029	1128.09482
327.548	1080.0074
328.067	1133.26582
328.587	1125.26116
329.106	1205.24434
329.625	1119.40612
330.144	1128.1031
330.662	1203.25052
331.181	1191.2171
331.7	1165.1835
332.218	1248.11679
332.736	1219.23702
333.255	1244.30411
333.773	1277.34732
334.291	1284.47832
334.808	1245.16098
335.326	1300.26459
335.844	1372.45186
336.361	1400.72065
336.879	1396.50384
337.396	1390.54373
337.913	1453.54639
338.43	1431.383
338.947	1503.64813
339.464	1489.35404
339.981	1421.5314
340.497	1494.72119
341.014	1466.674
341.53	1549.50828
342.046	1543.74419
342.562	1521.74912
343.078	1601.68123
343.594	1620.75645
344.11	1567.64653
344.626	1632.91589
345.141	1639.56268
345.657	1656.51189
346.172	1707.85711
346.687	1651.63787
347.202	1691.62523
347.717	1788.84713
348.232	1782.0558
348.747	1783.74279
349.261	1766.55255
349.776	1837.86787
350.29	1874.09049
350.805	1943.14567
351.319	1830.79408
351.833	1908.80347
352.347	1878.86843
352.861	1974.93179
353.374	1911.76499
353.888	1875.86961
354.401	2012.89189
354.915	2060.89743
355.428	2060.19043
355.941	1998.88014
356.454	2058.7103
356.967	2036.92889
357.48	2058.81561
357.993	2086.12641
358.505	2139.17263
359.018	2187.20126
359.53	2098.98512
360.042	2163.74763
360.554	2111.00628
361.066	2190.17605
361.578	2261.69784
362.09	2206.04611
362.602	2190.67565
363.113	2300.95058
363.625	2261.77828
364.136	2295.72273
364.647	2338.95727
365.158	2341.98416
365.669	2416.15024
366.18	2368.00044
366.691	2426.73044
367.201	2420.05877
367.712	2459.935
368.222	2434.84348
368.733	2440.63801
369.243	2521.74878
369.753	2610.87052
370.263	2675.16246
370.773	2719.34924
371.282	2741.05066
371.792	2830.90784
372.301	2858.17792
372.811	2963.53134
373.32	2930.55338
373.829	2960.89364
374.338	3070.60963
374.847	3191.71997
375.356	3275.80331
375.865	3477.17391
376.373	3554.39089
376.882	3672.97067
377.39	3647.67878
377.898	3817.77024
378.407	4126.09374
378.915	4095.67683
379.423	4310.00956
379.93	4372.70054
380.438	4638.9378
380.946	4812.51686
381.453	5066.54583
381.96	5265.21991
382.468	5488.0213
382.975	5968.96196
383.482	6230.63073
383.989	6415.13164
384.495	6536.62467
385.002	6788.32087
385.509	7161.73066
386.015	7656.99049
386.521	8012.53245
387.028	8298.03709
387.534	8598.78522
388.04	8983.58542
388.546	9067.00373
389.051	9481.56672
389.557	10288.63166
390.063	11166.83905
390.568	11768.70628
391.073	11893.85788
391.578	12387.07242
392.084	12870.12659
392.589	13165.32782
393.093	14193.43959
393.598	15437.71164
394.103	16906.21706
394.607	18727.86673
395.112	19879.39386
395.616	21268.01809
396.12	23257.04535
396.624	25917.32375
397.128	28057.91099
397.632	31141.60799
398.136	33760.24737
398.639	35416.71001
399.143	39009.14094
399.646	44244.45692
400.15	48864.5131
400.653	53474.2809
401.156	56174.49603
401.659	55978.54684
402.162	53821.55638
402.664	47275.14456
403.167	32260.27245
403.67	3851.94142
404.172	0
404.674	0
405.176	0
405.678	0
406.18	0
406.682	0
407.184	0
407.686	12367.42319
408.187	34596.90747
408.688	44563.94194
409.19	48906.19284
409.691	51236.67962
410.192	52883.26968
410.693	53713.23343
411.194	54189.54801
411.694	54767.79104
412.195	55625.98899
412.696	55971.27715
413.196	55815.15953
413.696	55802.1488
414.196	55740.09561
414.696	56340.4775
415.196	57067.59327
415.696	58258.21704
416.196	55663.54243
416.695	42968.59675
417.195	35939.51534
417.694	33792.59909
418.194	32057.18356
418.693	30023.85296
419.192	28957.79313
419.691	28657.10239
420.19	27920.41611
420.688	26837.65831
421.187	25894.56046
421.685	24142.33877
422.184	22297.17929
422.682	19653.34978
423.18	16715.35653
423.678	14801.13106
424.176	13812.4476
424.674	12901.75737
425.172	12292.74864
425.669	11447.23223
426.167	10802.88552
426.664	9860.59675
427.161	9096.87785
427.659	8337.08596
428.156	7850.27737
428.652	7417.18409
429.149	6970.80235
429.646	6701.47713
430.143	6436.75922
430.639	6025.78927
431.135	5691.25324
431.632	5467.01083
432.128	5051.31777
432.624	4816.01928
433.12	4529.46784
433.616	4444.37784
434.111	4291.04415
434.607	4222.09531
435.103	3953.60573
435.598	3860.49196
436.093	3784.2218
436.588	3503.11935
437.083	3452.31355
437.578	3193.29674
438.073	3091.99367
438.568	2942.86018
439.062	2830.25091
439.557	2854.67322
440.051	2677.60734
440.546	2591.64817
441.04	2589.86403
441.534	2480.05398
442.028	2450.79156
442.522	2386.82869
443.015	2401.49959
443.509	2370.97315
444.002	2339.93568
444.496	2212.41159
444.989	2200.86889
445.482	2133.92552
445.975	2163.60194
446.468	2185.46005
446.961	2072.28326
447.454	2088.61622
447.947	2019.67417
448.439	1977.7652
448.931	1862.39113
449.424	1953.88886
449.916	1891.70723
450.408	1842.40952
450.9	1801.60794
451.392	1802.79728
451.884	1789.46121
452.375	1719.67227
452.867	1685.28904
453.358	1719.38885
453.849	1620.14607
454.341	1634.26237
454.832	1613.16839
455.323	1642.59463
455.814	1564.30526
456.304	1627.37691
456.795	1574.35381
457.285	1507.1687
457.776	1508.207
458.266	1517.42053
458.756	1477.42809
459.247	1409.327
459.737	1430.39233
460.226	1401.16341
460.716	1400.31774
461.206	1335.27547
461.695	1389.46655
462.185	1320.22759
462.674	1285.10584
463.163	1284.03859
463.653	1276.90512
464.142	1227.17324
464.63	1256.22196
465.119	1212.05652
465.608	1242.10882
466.096	1209.94988
466.585	1125.96641
467.073	1209.14013
467.561	1132.05975
468.05	1136.99452
468.538	1109.08232
469.026	1041.9184
469.513	1003.63173
470.001	1092.97303
470.489	1104.0643
470.976	979.75986
471.463	1012.99283
471.951	937.86439
472.438	991.85248
472.925	936.79903
473.412	925.82685
473.899	888.65756
474.385	887.79096
474.872	910.72216
475.359	923.85947
475.845	842.45395
476.331	815.47942
476.817	785.59856
477.303	822.59324
477.789	769.56808
478.275	701.4991
478.761	789.61982
479.247	682.30513
479.732	732.57321
480.218	690.54189
480.703	734.5579
481.188	623.15495
481.673	657.3103
482.158	640.22344
482.643	743.6232
483.128	687.38037
483.612	680.38105
484.097	662.41775
484.581	610.23361
485.066	624.34606
485.55	596.1612
486.034	531.04243
486.518	531.10819
487.002	605.34206
487.486	563.23894
487.969	525.15762
488.453	534.20375
488.936	515.05475
489.42	514.03679
489.903	492.11481
490.386	447.68368
490.869	447.89263
491.352	425.94426
491.835	425.81365
492.318	460.96738
492.8	478.92952
493.283	438.02153
493.765	446.01409
494.247	430.92737
494.73	394.80706
495.212	339.75854
495.694	406.888
496.175	389.86644
496.657	431.94128
497.139	366.60531
497.62	356.80296
498.102	452.04722
498.583	388.91218
499.064	255.54231
499.545	364.78269
500.026	296.63786
500.507	348.76599
500.988	327.76836
501.469	298.71263
501.949	266.62176
502.43	309.70451
502.91	293.58755
503.39	294.69689
503.87	336.75043
504.35	263.59068
504.83	260.55259
505.31	262.60784
505.79	277.63895
506.269	291.64631
506.749	252.5554
507.228	277.62417
507.707	245.52173
508.187	289.65386
508.666	236.55273
509.145	246.55489
509.623	195.45054
510.102	232.54166
510.581	227.52071
511.059	298.71617
511.538	242.59504
512.016	262.60832
512.494	215.51132
512.972	229.52108
513.45	253.56986
513.928	248.58265
514.406	238.5633
514.884	200.49831
515.361	245.55748
515.839	205.45684
516.316	207.48567
516.793	206.50504
517.27	178.41837
517.747	247.61394
518.224	164.36948
518.701	185.40424
519.178	177.42694
519.654	163.3772
520.131	152.36726
520.607	211.50239
521.083	160.36032
521.56	156.35907
522.036	142.30785
522.512	150.3575
522.987	199.46106
523.463	197.45678
523.939	131.31192
524.414	171.38722
524.89	215.49891
525.365	172.37798
525.84	153.358
526.315	187.43995
526.79	131.28939
527.265	157.35494
527.74	147.34881
528.215	222.51811
528.689	134.29299
529.164	197.42098
529.638	172.4301
530.112	153.35519
530.587	165.35305
531.061	164.38982
531.534	207.48965
532.008	145.34525
532.482	123.27604
532.956	141.35061
533.429	119.28182
533.903	158.34034
534.376	109.24261
534.849	111.25197
535.322	143.33237
535.795	121.28888
536.268	117.2788
536.741	115.26993
537.213	154.3478
537.686	154.36633
538.158	152.33866
538.631	100.23642
539.103	110.24783
539.575	111.22887
540.047	165.35916
540.519	142.32959
540.991	163.38423
541.463	117.27794
541.934	89.20064
542.406	74.17373
542.877	83.18412
543.348	78.18112
543.82	124.29622
544.291	117.26505
544.762	158.36716
545.233	175.42339
545.703	128.27987
546.174	166.37705
546.645	158.37107
547.115	189.4443
547.585	156.34613
548.056	126.29661
548.526	150.3454
548.996	164.3811
549.466	192.4488
549.935	209.48038
550.405	212.45038
550.875	223.50702
551.344	241.55016
551.814	245.54054
552.283	225.46684
552.752	223.49365
553.221	250.5223
553.69	238.5012
554.159	292.68065
554.628	259.55873
555.096	305.7256
555.565	337.7195
556.033	268.59808
556.502	280.64651
556.97	249.52217
557.438	192.43663
557.906	281.63162
558.374	200.44468
558.842	189.43806
559.31	232.5021
559.777	205.47947
560.245	223.4955
560.712	188.41904
561.18	237.50667
561.647	195.41977
562.114	272.60324
562.581	253.58546
563.048	313.68245
563.514	254.59604
563.981	280.61115
564.448	265.56456
564.914	331.71435
565.381	310.65999
565.847	373.80601
566.313	375.82038
566.779	336.72032
567.245	310.67491
567.711	423.93708
568.176	371.76975
568.642	402.92592
569.108	453.01235
569.573	420.89882
570.038	471.89868
570.504	497.00909
570.969	529.16207
571.434	516.0041
571.899	555.17373
572.363	570.13679
572.828	618.20927
573.293	656.31345
573.757	633.25593
574.222	668.29494
574.686	648.26449
575.15	723.47417
575.614	709.39256
576.078	675.34937
576.542	672.30209
577.006	727.37765
577.469	703.43918
577.933	737.40207
578.396	755.50256
578.86	682.37126
579.323	716.46484
579.786	688.25383
580.249	638.25496
580.712	679.40628
581.175	628.34543
581.637	654.27682
582.1	599.11313
582.563	612.12972
583.025	571.21394
583.487	621.0969
583.95	570.08254
584.412	531.97243
584.874	538.15683
585.336	558.16489
585.797	524.99958
586.259	485.01605
586.721	503.05522
587.182	493.01234
587.643	458.91948
588.105	398.83959
588.566	468.86243
589.027	416.90372
589.488	411.83788
589.949	427.9282
590.41	379.6814
590.87	347.70484
591.331	387.75524
591.791	386.80856
592.252	307.64266
592.712	306.66478
593.172	326.67231
593.632	279.55171
594.092	335.67736
594.552	299.58184
595.011	302.63989
595.471	326.66596
595.931	303.61631
596.39	333.73528
596.849	289.61917
597.308	207.4101
597.768	318.74853
598.227	246.54467
598.685	293.61172
599.144	269.58627
599.603	248.54475
600.062	299.58821
600.52	244.50863
600.978	285.62509
601.437	265.55892
601.895	230.44916
602.353	287.57844
602.811	311.63864
603.269	278.60704
603.727	279.61606
604.184	231.48935
604.642	235.52932
605.099	323.6938
605.557	332.73445
606.014	312.61653
606.471	333.76106
606.928	333.65294
607.385	344.76702
607.842	408.84746
608.299	394.82714
608.755	368.79538
609.212	394.7972
609.668	330.66955
610.125	369.79566
610.581	374.78169
611.037	380.77134
611.493	364.77191
611.949	299.65663
612.405	374.69852
612.861	289.61676
613.316	359.78671
613.772	312.6472
614.227	341.71983
614.683	364.70377
615.138	309.66687
615.593	402.85137
616.048	419.86312
616.503	279.61812
616.958	304.69213
617.412	343.74024
617.867	335.68947
618.321	410.77677
618.776	314.63592
619.23	323.692
619.684	410.84173
620.138	334.69221
620.592	264.58916
621.046	262.5629
621.5	313.70152
621.954	321.66036
622.407	320.65311
622.861	272.61703
623.314	324.67449
623.768	267.57895
624.221	251.46471
624.674	186.40444
625.127	222.48415
625.58	224.47006
626.033	224.45718
626.485	232.52652
626.938	216.47925
627.39	237.52004
627.843	192.41731
628.295	212.45862
628.747	219.49187
629.199	168.36406
629.651	202.4411
630.103	192.42015
630.555	234.47759
631.006	169.37802
631.458	197.44646
631.909	158.34458
632.361	165.37135
632.812	146.32718
633.263	120.25071
633.714	206.42809
634.165	118.27356
634.616	70.16209
635.067	109.23182
635.518	149.34111
635.968	131.25601
636.419	74.15776
636.869	99.22537
637.319	158.36266
637.769	58.12773
638.219	108.25097
638.669	45.1055
639.119	61.14357
639.569	105.24732
640.019	82.18399
640.468	69.1523
640.918	83.19269
641.367	78.17372
641.816	10.02199
642.265	40.09064
642.714	18.04122
643.163	92.20634
643.612	39.0934
644.061	3.00637
644.51	32.07277
644.958	27.05992
645.406	52.12294
645.855	63.1538
646.303	57.13191
646.751	16.03656
647.199	60.13402
647.647	31.07083
648.095	31.07091
648.543	71.14718
648.99	41.09785
649.438	32.07348
649.885	0
650.333	69.13536
650.78	39.09397
651.227	9.02199
651.674	44.101
652.121	18.04392
652.568	39.09489
653.015	62.15516
653.461	4.00953
653.908	31.07174
654.354	65.1543
654.801	40.0957
655.247	4.00877
655.693	40.10262
656.139	94.22627
656.585	39.09415
657.031	20.0478
657.477	54.11892
657.922	82.19003
658.368	34.08462
658.813	46.10719
659.259	44.10595
659.704	47.11036
660.149	21.04972
660.594	36.08616
661.039	30.06883
661.484	38.09081
661.929	46.10753
662.373	48.12207
662.818	31.07723
663.262	31.07534
663.707	36.09113
664.151	6.01467
664.595	46.11307
665.039	49.12163
665.483	39.1007
665.927	-12.02845
666.371	72.17081
666.814	10.02427
667.258	20.04829
667.701	29.06369
668.145	80.19861
668.588	36.08921
669.031	36.08659
669.474	31.07551
669.917	-2.00451
670.36	20.05018
670.803	70.1699
671.245	71.15468
671.688	32.07817
672.13	79.18239
672.573	50.12688
673.015	-12.0294
673.457	42.09435
673.899	64.15569
674.341	36.08771
674.783	16.03924
675.225	61.15213
675.666	63.15449
676.108	18.03962
676.549	53.12615
676.991	52.11778
677.432	149.31067
677.873	55.12935
678.314	26.06313
678.755	68.16826
679.196	84.1979
679.637	88.21623
680.078	82.19424
680.518	51.12013
680.959	41.09841
681.399	47.11768
681.839	71.17456
682.28	108.2688
682.72	81.19035
683.16	100.2507
683.6	76.17459
684.039	72.15269
684.479	70.17359
684.919	68.16238
685.358	71.17995
685.798	82.21805
686.237	58.14173
686.676	8.0187
687.115	59.14086
687.554	93.22399
687.993	112.25058
688.432	61.14217
688.871	115.26486
689.309	101.24445
689.748	84.18032
690.186	95.22889
690.625	139.32893
691.063	120.29148
691.501	100.24971
691.939	134.33739
692.377	120.29628
692.815	76.18509
693.253	107.25712
693.69	117.26106
694.128	91.22497
694.565	95.22872
695.003	83.21141
695.44	122.29144
695.877	73.17462
696.314	128.27845
696.751	60.13816
697.188	69.16025
697.625	91.20867
698.061	118.28726
698.498	103.25089
698.934	107.25927
699.371	94.22464
699.807	125.29786
700.243	134.32121
700.679	145.32915
701.115	61.14352
701.551	118.27778
701.987	126.28619
702.422	112.26929
702.858	126.30307
703.294	78.17681
703.729	134.32658
704.164	139.33262
704.599	109.24492
705.035	100.22751
705.47	101.24565
705.904	162.38091
706.339	116.27031
706.774	150.35393
707.209	95.22429
707.643	114.27493
708.078	103.25098
708.512	93.23479
708.946	118.28188
709.38	131.3124
709.814	198.45483
710.248	158.38564
710.682	157.37512
711.116	128.31266
711.549	156.40315
711.983	106.24876
712.416	135.31972
712.85	134.33497
713.283	120.28392
713.716	113.28079
714.149	150.35393
714.582	144.32721
715.015	119.29602
715.448	137.34463
715.881	98.21246
716.313	72.16851
716.746	122.28977
717.178	98.23849
717.61	110.27776
718.043	107.26656
718.475	89.21638
718.907	137.34042
719.339	116.2686
719.77	112.26796
720.202	115.29167
720.634	90.22245
721.065	97.23398
721.497	128.31556
721.928	138.34084
722.359	85.21029
722.79	127.30784
723.221	75.18908
723.652	116.29604
724.083	109.25124
724.514	89.20572
724.945	101.23994
725.375	110.26187
725.806	54.13411
726.236	90.22896
726.666	134.32035
727.096	116.28819
727.526	119.30364
727.956	132.30589
728.386	128.31719
728.816	143.36834
729.246	109.26699
729.675	56.13948
730.105	101.25079
730.534	70.16677
730.964	85.21521
731.393	95.23434
731.822	29.07428
732.251	100.25592
732.68	64.15131
733.109	114.28569
733.537	71.17443
733.966	40.10082
734.395	51.12036
734.823	68.15602
735.251	70.17099
735.68	109.27233
736.108	67.17192
736.536	103.24789
736.964	54.12801
737.392	103.25883
737.82	2.00484
738.247	75.18303
738.675	57.13604
739.102	96.24457
739.53	41.10565
739.957	57.14744
740.384	73.18001
740.811	61.15565
741.238	30.07423
741.665	13.03098
742.092	69.1665
742.519	28.07138
742.945	5.0123
743.372	80.20034
743.798	50.1302
744.225	33.08077
744.651	78.19724
745.077	38.09619
745.503	51.12724
745.929	76.18502
746.355	29.07109
746.781	50.12562
747.207	6.0145
747.632	-8.02018
748.058	-10.02531
748.483	63.14897
748.908	31.07838
749.334	57.14293
749.759	70.16933
750.184	29.07059
750.609	34.08416
751.033	19.04495
751.458	56.12704
751.883	-3.00749
752.307	76.18336
752.732	9.02334
753.156	64.16097
753.58	38.09147
754.005	26.06663
754.429	40.09629
754.853	45.11422
755.277	28.06707
755.7	27.06792
756.124	11.02791
756.548	62.15066
756.971	32.0797
757.394	46.11958
757.818	34.08881
758.241	20.05169
758.664	56.14477
759.087	24.05557
759.51	14.03533
759.933	-37.0913
760.356	24.06187
760.778	44.11198
761.201	58.1432
761.623	43.10595
762.046	-15.03611
762.468	62.14986
762.89	-10.02488
763.312	1.00247
763.734	39.09567
764.156	41.10314
764.578	33.07704
765	3.00754
765.421	51.13405
765.843	31.08212
766.264	7.01704
766.686	-20.05101
767.107	34.0845
767.528	-6.01563
767.949	19.04865
768.37	38.0954
768.791	10.02471
769.212	29.07509
769.632	8.01926
770.053	26.06941
770.473	46.11353
770.894	12.03015
771.314	28.06714
771.734	26.06237
772.154	22.05735
772.575	13.03066
772.994	-10.0235
773.414	5.01222
773.834	-2.00503
774.254	22.05537
774.673	16.03952
775.093	9.02256
775.512	40.10115
775.931	53.13628
776.351	-7.01777
776.77	51.12802
777.189	27.06562
777.607	-3.00774
778.026	16.0403
778.445	-39.09972
778.864	-40.10395
779.282	59.14479
779.701	15.03842
780.119	-18.04666
780.537	-20.05144
780.955	25.06424
781.373	-20.05039
781.791	25.05737
782.209	-10.02328
782.627	-4.01065
783.045	39.09147
783.462	7.01806
783.88	29.07636
784.297	0
784.715	21.05492
785.132	1.00247
785.549	12.03075
785.966	11.028
786.383	2.00502
786.8	0
787.217	-10.02424
787.633	45.11495
788.05	-24.05727
788.466	74.17542
788.883	18.04647
789.299	6.01469
789.715	71.1754
790.131	32.08095
790.547	-26.06561
790.963	3.0076
791.379	-31.07982
791.795	-8.0185
792.21	41.09778
792.626	-8.01928
793.041	34.08515
793.457	10.02502
793.872	-2.00478
794.287	-15.03748
794.702	-18.04488
795.117	15.03832
795.532	-10.02559
795.947	-5.01222
796.362	0
796.776	-11.02584
797.191	60.14945
797.605	7.017
798.02	16.03987
798.434	-17.03872
798.848	5.0126
799.262	12.0305
799.676	37.0904
800.09	20.04924
800.504	59.14468
800.918	23.05453
801.331	32.08359
801.745	-60.14081
802.158	42.10628
802.572	-35.08557
802.985	32.07819
803.398	24.05819
803.811	-12.03091
804.224	21.05254
804.637	-23.05617
805.05	-17.04053
805.462	33.08272
805.875	-11.02925
806.288	-33.08116
806.7	17.04327
807.112	10.02364
807.525	-30.07524
807.937	4.01009
808.349	-27.06826
808.761	-24.05956
809.173	-16.03963
809.584	-52.12947
809.996	9.02259
810.408	1.00263
810.819	41.09897
811.231	20.05332
811.642	90.22188
812.053	112.27072
812.464	164.38847
812.875	135.34398
813.286	48.12345
813.697	24.0552
814.108	-10.02464
814.519	-2.00451
814.929	-4.01019
815.34	-4.00983
815.75	24.0616
816.16	20.05016
816.571	33.08665
816.981	-13.03081
817.391	43.10505
817.801	2.00504
818.211	-9.02168
818.62	14.03449
819.03	28.06946
819.44	24.06271
819.849	31.07905
820.259	5.0128
820.668	5.01251
821.077	18.04569
821.486	23.05636
821.895	51.1252
822.304	27.07169
822.713	24.0574
823.122	-21.05302
823.531	-23.05521
823.939	-46.11491
824.348	51.12446
824.756	35.08811
825.164	-15.03796
825.573	-12.03069
825.981	-34.08469
826.389	32.08109
826.797	20.05117
827.205	19.04482
827.612	19.04706
828.02	7.01688
828.428	-9.02313
828.835	-24.06388
829.243	-8.01929
829.65	-38.09643
830.057	-19.04651
830.464	24.05882
830.871	-25.06033
831.278	-10.02454
831.685	34.07704
832.092	27.0669
832.499	-9.02019
832.905	12.03056
833.312	49.11245
833.718	16.03995
834.124	-40.09292
834.531	9.02288
834.937	18.04639
835.343	15.03665
835.749	9.02119
836.155	46.12118
836.561	-23.05713
836.966	2.00493
837.372	43.11034
837.777	-14.03539
838.183	7.0159
838.588	11.02772
838.993	-24.05869
839.399	35.08751
839.804	4.00996
840.209	-14.03632
840.613	15.034
841.018	31.07899
841.423	23.05931
841.828	-29.07436
842.232	0
842.637	25.0596
843.041	-21.05481
843.445	11.02794
843.849	-1.00251
844.253	16.03827
844.657	4.01026
845.061	-26.06004
845.465	-17.04229
845.869	19.04477
846.272	1.00249
846.676	-51.12325
847.079	19.04909
847.483	1.0025
847.886	27.06584
848.289	-2.0054
848.692	-17.04336
849.095	11.02674
849.498	41.1027
849.901	14.03252
850.304	-22.05304
850.707	-38.09807
851.109	-9.02275
851.512	38.09492
851.914	38.09851
852.316	24.06121
852.718	55.14589
853.121	33.08221
853.523	42.10148
853.925	20.0529
854.326	10.02546
854.728	20.05192
855.13	-27.07075
855.531	1.00246
855.933	32.07747
856.334	-5.01263
856.736	41.09496
857.137	-13.03103
857.538	11.02826
857.939	29.07321
858.34	3.0074
858.741	20.05262
859.142	-32.07799
859.542	-27.07226
859.943	33.08349
860.343	-2.00509
860.744	-44.1092
861.144	37.09073
861.544	-11.02739
861.945	21.05415
862.345	2.00494
862.745	-36.09064
863.145	-25.06012
863.544	16.04082
863.944	66.15803
864.344	-23.05751
864.743	10.02483
865.143	43.11161
865.542	16.0379
865.941	-9.02248
866.34	3.00721
866.74	3.0081
867.139	4.00971
867.537	23.05898
867.936	10.02435
868.335	-8.02052
868.734	29.07473
869.132	-7.01653
869.531	-15.03609
869.929	-28.06635
870.327	62.15066
870.726	-33.08284
871.124	-15.03529
871.522	-12.03078
871.92	60.14858
872.318	4.00981
872.715	12.02951
873.113	11.02715
873.511	-53.13227
873.908	-51.13151
874.306	25.06314
874.703	21.05273
875.1	13.03312
875.497	17.04119
875.894	9.02259
876.291	-24.05902
876.688	19.04937
877.085	88.20942
877.482	20.05052
877.878	-7.01724
878.275	-4.01026
878.671	-44.09816
879.068	-7.0171
879.464	5.01231
879.86	36.08659
880.256	-5.01242
880.652	54.13878
881.048	5.01247
881.444	-23.05519
881.84	3.00774
882.236	-12.03045
882.631	13.03208
883.027	7.01692
883.422	20.05188
883.817	37.09491
884.213	14.03633
884.608	39.09779
885.003	-8.01985
885.398	-11.02804
885.793	-37.09484
886.188	15.03809
886.582	9.02321
886.977	40.09588
887.371	-31.07835
887.766	15.03782
888.16	16.04034
888.554	-40.09891
888.949	-16.04042
889.343	36.08826
889.737	-36.09804
890.131	-17.04336
890.525	34.08799
890.918	-3.00767
891.312	-2.00481
891.706	9.02369
892.099	-19.04875
892.492	-21.04596
892.886	28.06997
893.279	-1.0026
893.672	14.03608
894.065	-27.06848
894.458	-4.0101
894.851	-35.08599
895.244	15.03885
895.637	6.01459
896.029	25.06214
896.422	8.01974
896.814	35.08843
897.206	-40.09782
897.599	38.09337
897.991	28.0686
898.383	-34.08147
898.775	-5.01149
899.167	-9.02162
899.559	-3.0076
899.951	46.10951
900.342	37.09458
900.734	-21.05362
901.125	29.077
901.517	-8.01979
901.908	-9.02168
902.299	26.06514
902.69	35.08337
903.082	-40.0972
903.473	6.01471
903.863	-43.11076
904.254	-6.01409
904.645	-6.01486
905.036	-30.07453
905.426	61.13988
905.817	4.00997
906.207	10.02439
906.597	6.01427
906.987	-20.05167
907.378	2.00509
907.768	21.05589
908.158	8.01971
908.547	29.07633
908.937	8.02044
909.327	25.0609
909.717	-20.0509
910.106	26.06375
910.495	13.03248
910.885	15.03837
911.274	24.06054
911.663	-1.00254
912.052	2.00494
912.441	23.05929
912.83	13.03053
913.219	44.1143
913.608	-31.07605
913.997	2.00511
914.385	24.0581
914.774	2.00492
915.162	20.04862
915.55	-3.00727
915.939	-8.02048
916.327	-26.06478
916.715	43.11161
917.103	9.02226
917.491	30.07453
917.878	35.08703
918.266	-20.05215
918.654	1.00257
919.041	-24.06342
919.429	-24.05727
919.816	2.00512
920.203	-21.05176
920.591	6.01492
920.978	-7.01731
921.365	18.0475
921.752	-27.0653
922.139	-26.05745
922.525	55.13552
922.912	-19.04682
923.299	29.07355
923.685	-19.04991
924.072	15.03485
924.458	7.01755
924.844	19.04797
925.231	20.04728
925.617	-13.03402
926.003	-2.00515
926.389	-17.04326
926.774	3.00768
927.16	15.03757
927.546	-5.01294
927.931	46.11574
928.317	27.06276
928.702	-24.05727
929.088	-9.022
929.473	19.04875
929.858	25.0621
930.243	7.01703
930.628	36.08911
931.013	6.01504
931.398	3.00687
931.783	-16.04198
932.167	-55.13632
932.552	11.02741
932.937	25.06212
933.321	21.05351
933.705	-21.05358
934.09	-30.07521
934.474	19.04561
934.858	-42.10959
935.242	-19.04474
935.626	-10.02598
936.009	-37.10013
936.393	-31.07946
936.777	-33.08497
937.16	-2.00527
937.544	-19.04493
937.927	-14.03591
938.311	21.05138
938.694	36.09429
939.077	-19.04659
939.46	-20.04922
939.843	-8.01693
940.226	18.0467
940.609	19.04474
940.991	41.10528
941.374	-6.01484
941.757	23.0574
942.139	-28.06404
942.522	-13.03085
942.904	19.04576
943.286	-19.04865
943.668	9.02361
944.05	-2.00502
944.432	47.11764
944.814	33.08254
945.196	36.08986
945.578	-4.00983
945.959	-19.04536
946.341	-9.022
946.722	-5.01179
947.104	-19.04583
947.485	59.13946
947.866	-15.03858
948.247	-3.00768
948.628	54.13176
949.009	0
949.39	-17.04257
949.771	30.07032
950.152	22.0546
950.532	13.03266
950.913	36.08836
951.293	17.0465
951.674	-16.03923
952.054	-16.04018
952.434	4.00998
952.814	-76.1819
953.194	-2.0052
953.574	-30.07429
953.954	-10.0242
954.334	-2.00503
954.714	-19.04726
955.093	-27.06631
955.473	-12.03041
955.853	-28.07284
956.232	-8.02187
956.611	-13.03126
956.99	-68.17232
957.37	-3.00769
957.749	-15.03625
958.128	2.00506
958.506	-10.0263
958.885	6.01527
959.264	-9.02262
959.643	13.03022
960.021	-30.07518
960.4	-39.09025
960.778	-5.01228
961.156	-11.02807
961.535	1.00236
961.913	21.04964
962.291	13.0339
962.669	-98.25089
963.047	32.0821
963.424	-13.03352
963.802	-66.16558
964.18	25.06309
964.557	41.09537
964.935	7.01662
965.312	13.03433
965.69	1.00253
966.067	16.03924
966.444	5.01238
966.821	17.04361
967.198	-9.02179
967.575	10.02454
967.952	-5.01174
968.329	3.00737
968.705	59.12865
969.082	-3.00785
969.458	-23.05632
969.835	-9.0219
970.211	5.01299
970.587	-8.02008
970.963	31.07957
971.339	-12.03168
971.715	40.10014
972.091	33.08179
972.467	20.04998
972.843	27.06812
973.219	19.04545
973.594	-2.0053
973.97	12.02878
974.345	30.07265
974.721	-13.03181
975.096	12.02945
975.471	-42.09933
975.846	-16.03918
976.221	39.1006
976.596	-10.02447
976.971	-31.07686
977.346	16.03743
977.72	-15.03818
978.095	3.00775
978.469	-28.0676
978.844	11.02754
979.218	-5.01231
979.593	0
979.967	9.02225
980.341	22.05147
980.715	-38.09671
981.089	40.10086
981.463	22.05123
981.837	11.02728
982.21	-34.07839
982.584	-15.03696
982.957	-23.05842
983.331	24.05698
983.704	6.01499
984.078	-7.0174
984.451	-43.10666
984.824	46.11408
985.197	-20.04925
985.57	-17.04307
985.943	0
986.316	6.0148
986.688	5.01214
987.061	26.06171
987.434	-1.00261
987.806	-15.03651
988.179	19.0459
988.551	20.05104
988.923	-24.05926
989.295	65.16222
989.667	15.03696
990.039	3.00752
990.411	18.04188
990.783	-45.10414
991.155	-13.03224
991.527	-34.08324
991.898	3.00753
992.27	-2.00504
992.641	16.04024
993.012	11.02614
993.384	-27.06572
993.755	-34.08808
994.126	-26.06342
994.497	27.06739
994.868	-36.08409
995.239	-3.00736
995.61	12.03068
995.98	27.06655
996.351	-19.04821
996.722	-19.04524
997.092	-35.08449
997.462	-11.02659
997.833	-21.04998
998.203	15.03647
998.573	-4.01005
998.943	15.03579
999.313	-42.1016
999.683	-5.01213
1000.053	-8.01861
1000.423	-3.00732
1000.792	52.13592
1001.162	-29.07259
1001.531	6.01494
1001.901	-14.0352
1002.27	25.0568
1002.639	-8.02065
1003.009	2.00483
1003.378	-19.04891
1003.747	12.02869
1004.116	-1.00243
1004.485	-25.06012
1004.853	3.00763
1005.222	-35.08984
1005.591	34.08113
1005.959	60.13949
1006.328	14.03216
1006.696	-8.01946
1007.064	11.02804
1007.433	-5.01249
1007.801	16.03894
1008.169	21.05368
1008.537	-28.06257
1008.905	51.11994
1009.273	10.0249
1009.64	9.02191
1010.008	26.06254
1010.375	-19.04533
1010.743	17.03953
1011.11	-3.00723
1011.478	-18.04477
1011.845	0
1012.212	22.05084
1012.579	-23.05717
1012.946	13.03125
1013.313	-42.10049
1013.68	13.02935
1014.047	8.01962
1014.414	-48.11633
1014.78	-32.08049
1015.147	10.02417
1015.513	-4.00977
1015.88	33.08409
1016.246	6.01488
1016.612	-9.02093
1016.978	-27.06748
1017.344	-9.02246
1017.71	0
1018.076	-1.00237
1018.442	12.03092
1018.808	17.04289
1019.174	19.04822
1019.539	21.04794
1019.905	-22.0526
1020.27	-6.01504
1020.636	21.05033
1021.001	34.0824
1021.366	-33.08011
1021.731	11.02843
1022.096	-76.19505
1022.461	-24.05692
1022.826	8.01933
1023.191	-8.02112
1023.556	-3.00713
1023.92	-1.00246
1024.285	-28.06895
1024.649	21.05142
1025.014	-11.02733
1025.378	-9.02301
1025.742	-14.03523
1026.107	-17.039
1026.471	2.00467
1026.835	-22.05478
1027.199	-19.04676
1027.562	19.04489
1027.926	-15.03682
1028.29	18.04641
1028.654	26.06059
1029.017	-2.00493
1029.381	47.11483
1029.744	17.04387
1030.107	-9.02127
1030.471	17.04091
1030.834	-4.0092
1031.197	7.01678
1031.56	1.00237
1031.923	-7.01823
1032.286	-24.0563
1032.648	57.13676
1033.011	13.03066
1033.374	7.01642
1033.736	8.02136
1034.099	36.08885
1034.461	45.11563
1034.823	6.01511
1035.185	32.08103
1035.548	-2.00493
1035.91	6.01463
1036.272	-10.0232
1036.634	-38.09344
1036.995	-20.0473
1037.357	-3.00738
1037.719	-12.02931
1038.08	9.02126
1038.442	11.02633
1038.803	-18.04412
1039.165	-14.03555
1039.526	-33.08068
1039.887	22.05314
1040.248	6.01516
1040.609	33.08113
1040.97	20.04987
1041.331	-35.08931
1041.692	-16.03825
1042.053	9.02062
1042.413	21.049
1042.774	-14.03434
1043.134	-17.04049
1043.495	-6.01517
1043.855	25.06074
1044.215	12.02969
1044.576	-25.06142
1044.936	-41.09424
1045.296	-27.06797
1045.656	2.00495
1046.016	43.10392
1046.375	13.03216
1046.735	19.04414
1047.095	4.00951
1047.454	-13.0277
1047.814	-52.12584
1048.173	-29.06934
1048.533	5.01163
1048.892	-7.01726
1049.251	-7.01763
1049.61	4.00997
1049.969	-40.09523
1050.328	-11.02425
1050.687	-18.04454
1051.046	-8.01963
1051.405	-10.02514
1051.763	-58.13718
1052.122	12.03054
1052.48	-51.12654
1052.839	-13.03109
1053.197	-38.09022
1053.555	-71.16183
1053.914	43.10545
1054.272	-5.0121
1054.63	25.06214
1054.988	-42.10152
1055.345	3.0066
1055.703	-38.09192
1056.061	-13.03378
1056.419	-6.01568
1056.776	-16.03889
1057.134	-24.05681
1057.491	5.01258
1057.848	-11.02766
1058.206	-27.06473
1058.563	18.04042
1058.92	8.01855
1059.277	-24.05937
1059.634	14.03339
1059.991	-46.11035
1060.348	28.06502
1060.704	-27.06567
1061.061	-40.09178
1061.418	-20.04958
1061.774	-22.05519
1062.131	-40.10718
1062.487	-12.02836
1062.843	-19.04799
1063.199	1.00249
1063.555	25.05829
1063.911	38.0966
1064.267	-12.02533
1064.623	-2.00494
1064.979	-31.07302
1065.335	-40.09523
1065.691	-19.0455
1066.046	-20.04436
1066.402	12.02782
1066.757	-22.05561
1067.112	-61.15003
1067.468	10.02401
1067.823	-6.01461
1068.178	-28.06837
1068.533	-35.08557
1068.888	27.06505
1069.243	-3.00748
1069.598	0
1069.952	12.0278
1070.307	24.06028
1070.662	19.0459
1071.016	50.11403
1071.371	-18.04165
1071.725	10.02398
1072.079	-45.10904
1072.434	12.02949
1072.788	25.06078
1073.142	-8.0198
1073.496	56.13633
1073.85	-46.10833
1074.203	-42.10217
1074.557	1.00268
1074.911	-7.01674
1075.265	11.02573
1075.618	30.07347
1075.971	30.07191
1076.325	-11.0284
1076.678	30.07073
1077.031	-2.00464
1077.385	19.04262
1077.738	32.07413
1078.091	-4.00942
1078.444	5.01177
1078.796	-51.12747
1079.149	-12.03
1079.502	-6.01451
1079.855	-38.09112
1080.207	12.02953
1080.56	12.03144
1080.912	10.02458
1081.264	-6.01463
1081.617	11.0274
1081.969	-5.01287
1082.321	17.04218
1082.673	-16.0379
1083.025	-24.0574
1083.377	-267.61073
1083.728	-11.026
1084.08	27.06819
1084.432	14.03434
1084.783	-45.10616
1085.135	-22.05603
1085.486	-13.03066
1085.838	3.00746
1086.189	-21.05186
1086.54	-5.01196
1086.891	10.02573
1087.242	-25.0616
1087.593	-3.00725
1087.944	43.09919
1088.295	-26.05946
1088.646	4.00979
1088.996	-13.03208
1089.347	1.00247
1089.698	23.05577
1090.048	-15.03913
1090.398	-20.04703
1090.749	20.04787
1091.099	20.05086
1091.449	-39.09807
1091.799	52.13126
1092.149	2.00504
1092.499	-25.06117
1092.849	23.05871
1093.199	8.01994
1093.548	-6.01454
1093.898	17.04318
1094.248	-21.05409
1094.597	-15.0392
1094.947	-20.0538
1095.296	38.09451
1095.645	5.01301
1095.994	23.05609
1096.343	21.053
1096.692	38.10111
1097.041	-14.03848
1097.39	-3.00757
1097.739	-35.09128
1098.088	27.07226
1098.437	1.00266
1098.785	15.04077
1099.134	16.04252
1099.482	-31.08574
1099.83	-18.04716
1100.179	-17.04491
1100.527	11.02953
1100.875	-30.08044
1101.223	-3.00797
1101.571	16.04458
1101.919	-31.08286
1102.267	-13.03682
1102.615	4.01287
1102.962	-6.01932
1103.31	3.00966
1103.658	-7.02255
