Data from N2 R3 sample 7_Subt2__4__17-15-00-646.txt Node

Date: Wed Aug 27 17:15:00 PDT 2025
User: uwsun
Spectrometer: HDX01956
Trigger mode: 0
Integration Time (sec): 5.000000E-1
Scans to average: 1
Nonlinearity correction enabled: true
Boxcar width: 0
Storing dark spectrum: false
XAxis mode: Wavelengths
Number of Pixels in Spectrum: 2068
>>>>>Begin Spectral Data<<<<<
194.03	168.47829
194.578	161.51559
195.127	166.52414
195.676	167.52865
196.225	174.46497
196.773	165.45904
197.321	265.72519
197.87	331.83909
198.418	384.97494
198.966	375.96337
199.513	377.93524
200.061	384.96595
200.609	346.89617
201.156	362.79145
201.704	391.97808
202.251	340.88701
202.798	400.02642
203.345	397.96322
203.892	366.90581
204.438	385.90742
204.985	353.83331
205.532	340.88276
206.078	382.92806
206.624	437.05443
207.17	381.87459
207.716	430.03263
208.262	345.67935
208.808	409.9953
209.354	407.98006
209.899	412.00912
210.445	379.92818
210.99	368.87863
211.535	402.92924
212.08	396.91356
212.625	392.95911
213.17	377.92636
213.715	364.81362
214.259	406.92244
214.804	412.99566
215.348	399.89754
215.892	419.97832
216.436	379.85919
216.98	420.91047
217.524	335.78439
218.068	370.90363
218.612	388.95918
219.155	358.83117
219.698	374.86934
220.242	358.86717
220.785	371.85061
221.328	354.8681
221.871	303.74651
222.414	370.90463
222.956	348.82835
223.499	347.77419
224.041	406.93289
224.583	363.76391
225.126	363.79648
225.668	367.88211
226.21	321.79607
226.751	352.77024
227.293	337.75996
227.835	294.71057
228.376	376.85637
228.918	361.88968
229.459	348.85876
230	315.73526
230.541	335.76994
231.082	381.90914
231.622	352.81272
232.163	342.82126
232.704	384.93571
233.244	332.79997
233.784	342.81626
234.324	345.75444
234.864	310.6998
235.404	320.74531
235.944	349.80916
236.484	328.79691
237.023	320.75323
237.563	323.74207
238.102	306.70457
238.641	350.86242
239.18	355.82209
239.719	334.82755
240.258	328.72893
240.797	380.89825
241.335	365.87131
241.874	408.77676
242.412	336.79365
242.95	364.86377
243.488	399.89974
244.026	366.82686
244.564	328.66731
245.102	366.82079
245.64	348.82581
246.177	310.68808
246.715	337.79
247.252	336.75693
247.789	322.59066
248.326	379.90229
248.863	369.79976
249.4	302.67339
249.936	390.80068
250.473	389.88865
251.009	412.92886
251.546	420.91629
252.082	351.75101
252.618	400.88079
253.154	393.92087
253.69	407.90015
254.226	295.68777
254.761	396.87308
255.297	399.86661
255.832	376.86363
256.367	397.92042
256.903	398.85947
257.438	348.79453
257.972	388.85867
258.507	383.87389
259.042	364.76753
259.576	366.78327
260.111	381.85916
260.645	359.75948
261.179	405.91513
261.713	393.85867
262.247	417.93495
262.781	342.70626
263.315	360.85855
263.849	376.91964
264.382	388.86475
264.915	420.96929
265.449	416.99509
265.982	393.871
266.515	420.99238
267.048	356.73517
267.58	374.79347
268.113	357.76682
268.646	386.93215
269.178	404.89668
269.71	341.72362
270.243	412.91253
270.775	421.03635
271.307	381.88753
271.838	338.78196
272.37	382.91275
272.902	434.95764
273.433	388.83322
273.965	371.88054
274.496	364.87606
275.027	419.00902
275.558	400.94514
276.089	394.95469
276.62	390.95882
277.15	395.9465
277.681	426.89983
278.211	427.01005
278.741	447.96175
279.272	407.90878
279.802	430.0381
280.332	412.95272
280.861	476.09639
281.391	426.94117
281.921	399.92176
282.45	480.14942
282.98	429.07387
283.509	430.94366
284.038	438.96485
284.567	397.89158
285.096	460.06116
285.625	409.89437
286.153	364.83942
286.682	454.01271
287.21	441.02027
287.739	434.99282
288.267	442.0329
288.795	450.1324
289.323	411.9355
289.851	449.00133
290.378	462.01146
290.906	493.15522
291.433	444.05985
291.961	496.08604
292.488	401.95648
293.015	424.96683
293.542	480.16555
294.069	530.24277
294.596	508.18601
295.122	488.1111
295.649	462.97372
296.175	489.13645
296.702	462.06874
297.228	466.07758
297.754	476.02374
298.28	495.07997
298.806	424.97462
299.332	518.10611
299.857	473.02186
300.383	512.21358
300.908	516.20754
301.433	482.11288
301.958	576.26467
302.483	541.28462
303.008	472.09234
303.533	554.35902
304.058	501.10876
304.582	564.27044
305.107	485.20555
305.631	526.12953
306.155	543.20386
306.679	534.18854
307.203	534.17331
307.727	558.25844
308.251	514.18405
308.775	535.20134
309.298	557.26768
309.822	547.29191
310.345	565.24803
310.868	557.24518
311.391	595.34499
311.914	549.30514
312.437	573.2071
312.96	549.21466
313.482	603.32874
314.005	627.47018
314.527	580.41341
315.049	565.32726
315.571	578.20831
316.093	634.44109
316.615	577.28995
317.137	555.13016
317.659	625.37613
318.18	629.38668
318.702	686.47426
319.223	637.20799
319.744	682.40464
320.265	608.36408
320.786	649.48324
321.307	725.63712
321.828	648.33332
322.348	667.41771
322.869	685.48694
323.389	895.30008
323.909	675.41855
324.43	676.46022
324.95	713.47942
325.47	728.61884
325.989	731.5431
326.509	759.51614
327.029	746.51665
327.548	761.52646
328.067	801.72493
328.587	722.58559
329.106	822.67589
329.625	739.71877
330.144	746.52216
330.662	845.7201
331.181	797.62817
331.7	781.60194
332.218	868.62256
332.736	857.71531
333.255	866.75451
333.773	777.60663
334.291	828.77206
334.808	890.68916
335.326	933.78165
335.844	958.89343
336.361	916.98405
336.879	927.86156
337.396	921.88344
337.913	1077.07052
338.43	960.8037
338.947	1012.00807
339.464	1015.82101
339.981	1020.00241
340.497	1059.13802
341.014	1075.15161
341.53	1006.87549
342.046	987.00421
342.562	1053.12685
343.078	1055.02619
343.594	1142.18898
344.11	1105.09608
344.626	1150.30568
345.141	1082.96187
345.657	1102.94372
346.172	1158.22398
346.687	1135.0751
347.202	1174.09241
347.717	1150.159
348.232	1252.44625
348.747	1221.18265
349.261	1186.01651
349.776	1198.21097
350.29	1236.39227
350.805	1359.55445
351.319	1301.29065
351.833	1312.27126
352.347	1254.26192
352.861	1318.33813
353.374	1291.21887
353.888	1279.29492
354.401	1397.38302
354.915	1379.34839
355.428	1397.5738
355.941	1379.36091
356.454	1347.18617
356.967	1367.36634
357.48	1426.34044
357.993	1347.458
358.505	1449.5881
359.018	1539.68815
359.53	1437.45817
360.042	1520.34553
360.554	1506.54078
361.066	1474.59878
361.578	1550.3106
362.09	1479.50766
362.602	1544.30568
363.113	1535.46883
363.625	1548.36701
364.136	1570.33797
364.647	1547.47577
365.158	1612.55254
365.669	1649.68798
366.18	1635.57833
366.691	1672.39989
367.201	1619.59498
367.712	1685.55416
368.222	1651.46524
368.733	1674.33191
369.243	1752.45785
369.753	1752.53974
370.263	1870.83113
370.773	1806.91329
371.282	1816.70631
371.792	1952.68598
372.301	1968.89668
372.811	2023.19052
373.32	1996.44788
373.829	1973.6923
374.338	2183.57704
374.847	2171.67837
375.356	2206.76923
375.865	2286.36062
376.373	2379.56723
376.882	2477.07208
377.39	2499.84118
377.898	2536.97332
378.407	2765.56269
378.915	2797.19656
379.423	2891.56338
379.93	2934.32352
380.438	3183.60577
380.946	3214.30911
381.453	3381.40821
381.96	3551.1283
382.468	3784.92057
382.975	4072.88226
383.482	4265.43233
383.989	4285.0555
384.495	4445.31044
385.002	4699.57953
385.509	4892.86799
386.015	5122.00758
386.521	5386.22038
387.028	5629.11727
387.534	5773.84509
388.04	6020.12466
388.546	6042.89551
389.051	6500.88454
389.557	6883.18094
390.063	7570.87082
390.568	7950.44026
391.073	8032.70059
391.578	8421.49716
392.084	8797.75865
392.589	8912.56764
393.093	9473.38087
393.598	10395.71007
394.103	11497.23129
394.607	12696.81434
395.112	13379.20828
395.616	14420.96809
396.12	15566.87
396.624	17392.55544
397.128	18952.23919
397.632	20861.96395
398.136	22974.58275
398.639	23811.97556
399.143	26456.61527
399.646	29913.30286
400.15	33108.72336
400.653	36298.04975
401.156	40368.35903
401.659	47060.80495
402.162	52300.85279
402.664	47070.14335
403.167	32260.27245
403.67	3851.94142
404.172	0
404.674	0
405.176	0
405.678	0
406.18	0
406.682	0
407.184	0
407.686	12367.42319
408.187	34596.90747
408.688	44563.94194
409.19	48906.19284
409.691	51236.67962
410.192	52883.26968
410.693	53713.23343
411.194	54189.54801
411.694	54767.79104
412.195	55625.98899
412.696	55971.27715
413.196	53499.57
413.696	50991.82681
414.196	51669.3045
414.696	51320.45537
415.196	49409.85095
415.696	45370.1357
416.196	38000.22443
416.695	29185.84845
417.195	24626.24421
417.694	23175.01515
418.194	21785.85151
418.693	20322.3679
419.192	19492.45972
419.691	19153.38911
420.19	18506.29083
420.688	18243.18484
421.187	17515.06421
421.685	16341.33457
422.184	14994.26865
422.682	13060.65054
423.18	11196.54625
423.678	9936.10868
424.176	9270.25474
424.674	8746.45661
425.172	8179.88784
425.669	7822.23975
426.167	7294.57763
426.664	6695.14863
427.161	6099.14929
427.659	5621.59924
428.156	5242.12511
428.652	4949.39252
429.149	4674.283
429.646	4545.98411
430.143	4319.57179
430.639	4132.66646
431.135	3833.22173
431.632	3607.98552
432.128	3272.2266
432.624	3173.76773
433.12	3037.17416
433.616	2998.06277
434.111	2815.59177
434.607	2759.60677
435.103	2669.09113
435.598	2619.9612
436.093	2503.52733
436.588	2317.33107
437.083	2286.46044
437.578	2123.34282
438.073	2072.82803
438.568	1959.6591
439.062	1871.16019
439.557	1792.42543
440.051	1846.40206
440.546	1725.3625
441.04	1678.48297
441.534	1622.58308
442.028	1591.37882
442.522	1565.39258
443.015	1571.16485
443.509	1602.52937
444.002	1466.38407
444.496	1465.04783
444.989	1376.28149
445.482	1375.33779
445.975	1401.13576
446.468	1448.07316
446.961	1305.855
447.454	1394.15814
447.947	1241.06144
448.439	1288.18851
448.931	1197.88062
449.424	1260.24861
449.916	1233.12096
450.408	1159.85938
450.9	1109.94545
451.392	1123.08294
451.884	1128.87856
452.375	1102.01609
452.867	1021.68435
453.358	1062.78273
453.849	1088.69324
454.341	1027.69616
454.832	1013.62782
455.323	1101.00568
455.814	1013.74135
456.304	1001.7408
456.795	996.74621
457.285	960.61444
457.776	879.53291
458.266	940.74444
458.756	958.79994
459.247	934.74359
459.737	947.79187
460.226	936.64074
460.716	874.65553
461.206	870.66718
461.695	899.79782
462.185	873.65081
462.674	881.60516
463.163	880.55766
463.653	831.40562
464.142	800.57342
464.63	773.53843
465.119	714.37372
465.608	769.47156
466.096	751.36647
466.585	760.45466
467.073	723.44079
467.561	723.45147
468.05	729.41508
468.538	715.47236
469.026	666.3415
469.513	627.12656
470.001	699.38838
470.489	716.46682
470.976	642.25276
471.463	647.38231
471.951	582.25266
472.438	587.20574
472.925	593.23287
473.412	563.20522
473.899	559.12747
474.385	562.21836
474.872	520.07678
475.359	539.18059
475.845	549.02104
476.331	581.11662
476.817	481.04627
477.303	526.09069
477.789	513.10607
478.275	463.04027
478.761	435.96527
479.247	443.89778
479.732	463.05175
480.218	413.97679
480.703	413.93891
481.188	395.77488
481.673	427.89819
482.158	431.86667
482.643	434.00901
483.128	382.82245
483.612	442.94752
484.097	380.86443
484.581	329.70912
485.066	405.91588
485.55	349.72087
486.034	341.70056
486.518	318.69614
487.002	407.94135
487.486	330.76285
487.969	291.67418
488.453	253.604
488.936	318.68144
489.42	340.71441
489.903	263.62474
490.386	282.45241
490.869	310.63874
491.352	223.51625
491.835	274.54373
492.318	309.67144
492.8	289.5873
493.283	234.56878
493.765	259.6124
494.247	238.53443
494.73	231.49063
495.212	204.46917
495.694	206.4696
496.175	212.48952
496.657	223.50845
497.139	207.35743
497.62	208.48334
498.102	273.65622
498.583	224.54346
499.064	166.35988
499.545	228.50461
500.026	195.42933
500.507	188.42771
500.988	168.40699
501.469	163.39985
501.949	139.333
502.43	166.3894
502.91	190.39008
503.39	172.41731
503.87	153.35463
504.35	165.37804
504.83	174.37674
505.31	151.35802
505.79	169.39822
506.269	154.35178
506.749	113.2563
507.228	186.42692
507.707	134.29224
508.187	124.28997
508.666	56.13577
509.145	128.29568
509.623	151.35193
510.102	138.32815
510.581	113.26513
511.059	161.39699
511.538	100.25233
512.016	151.3583
512.494	150.3612
512.972	109.25405
513.45	109.25275
513.928	197.46744
514.406	147.35404
514.884	163.40885
515.361	90.21121
515.839	112.2544
516.316	105.25126
516.793	145.35951
517.27	114.27129
517.747	141.35723
518.224	82.18784
518.701	138.30454
519.178	50.1235
519.654	112.26181
520.131	79.19351
520.607	78.19046
521.083	87.19885
521.56	35.08251
522.036	55.12145
522.512	78.18847
522.987	106.25012
523.463	70.16639
523.939	82.19709
524.414	62.14351
524.89	128.30214
525.365	53.11938
525.84	32.07665
526.315	73.17555
526.79	42.09451
527.265	98.22422
527.74	60.14476
528.215	141.33431
528.689	100.22022
529.164	80.17529
529.638	112.28311
530.112	56.1325
530.587	60.1313
531.061	94.22644
531.534	121.29098
532.008	95.22837
532.482	64.14537
532.956	34.08619
533.429	53.12712
533.903	3.00668
534.376	72.16148
534.849	35.08068
535.322	82.19289
535.795	26.0632
536.268	97.23203
536.741	25.05971
537.213	71.16307
537.686	84.20251
538.158	25.05717
538.631	34.08141
539.103	29.06642
539.575	51.10657
540.047	70.15545
540.519	68.16014
540.991	34.08215
541.463	37.08925
541.934	25.0571
542.406	53.12494
542.877	20.04495
543.348	12.02823
543.82	18.04387
544.291	18.0416
544.762	72.17015
545.233	33.08197
545.703	45.10012
546.174	122.27958
546.645	66.15779
547.115	87.20859
547.585	59.13355
548.056	56.13362
548.526	99.23029
548.996	102.23993
549.466	133.31449
549.935	139.32397
550.405	116.25159
550.875	139.32141
551.344	124.28975
551.814	177.39607
552.283	144.30419
552.752	123.27796
553.221	122.26212
553.69	150.322
554.159	228.53817
554.628	227.49306
555.096	189.45967
555.565	239.52112
556.033	212.47859
556.502	213.49838
556.97	164.35038
557.438	173.39494
557.906	211.4811
558.374	191.42546
558.842	218.50237
559.31	234.50621
559.777	178.41853
560.245	172.38624
560.712	201.44681
561.18	260.55307
561.647	214.45879
562.114	281.62203
562.581	240.55681
563.048	316.68855
563.514	265.62051
563.981	269.58851
564.448	267.56857
564.914	333.71835
565.381	362.76198
565.847	349.75803
566.313	426.9219
566.779	461.96159
567.245	419.89106
567.711	452.99526
568.176	429.87855
568.642	431.98695
569.108	503.11273
569.573	487.0252
570.038	549.02611
570.504	513.03785
570.969	529.16207
571.434	562.08185
571.899	599.25476
572.363	576.14718
572.828	609.19417
573.293	686.36411
573.757	634.25762
574.222	698.34353
574.686	683.32186
575.15	712.45533
575.614	730.42679
576.078	725.43274
576.542	723.38406
577.006	742.40099
577.469	725.47691
577.933	739.4052
578.396	737.47281
578.86	725.44345
579.323	742.50919
579.786	722.30462
580.249	666.30152
580.712	719.47596
581.175	639.36579
581.637	606.19639
582.1	618.1431
582.563	612.12972
583.025	589.24738
583.487	602.06853
583.95	580.09889
584.412	548.99927
584.874	595.26394
585.336	532.11691
585.797	513.9812
586.259	521.08295
586.721	479.01009
587.182	488.00319
587.643	384.78409
588.105	360.76577
588.566	426.79329
589.027	384.83989
589.488	331.68707
589.949	410.89448
590.41	353.63889
590.87	299.614
591.331	360.70705
591.791	325.68997
592.252	248.52593
592.712	266.58281
593.172	307.63583
593.632	222.44486
594.092	234.4841
594.552	211.4192
595.011	198.42907
595.471	263.54495
595.931	217.45004
596.39	271.60615
596.849	223.48458
597.308	190.37792
597.768	224.53692
598.227	190.4256
598.685	195.41598
599.144	201.4444
599.603	194.43098
600.062	197.39687
600.52	217.45507
600.978	188.42077
601.437	258.54499
601.895	179.3538
602.353	183.37766
602.811	228.47697
603.269	217.47997
603.727	176.397
604.184	223.47323
604.642	177.40342
605.099	186.41132
605.557	213.48291
606.014	217.43837
606.471	183.43087
606.928	229.46006
607.385	283.63899
607.842	347.73057
608.299	321.68475
608.755	299.6558
609.212	281.58329
609.668	278.57075
610.125	285.62562
610.581	289.61542
611.037	258.5383
611.493	268.58025
611.949	248.55048
612.405	283.54047
612.861	265.56849
613.316	239.53701
613.772	251.52776
614.227	246.53012
614.683	294.57797
615.138	221.48596
615.593	295.63939
616.048	283.60081
616.503	217.48698
616.958	251.5776
617.412	264.5794
617.867	334.68757
618.321	334.64453
618.776	271.55424
619.23	266.57691
619.684	315.66057
620.138	236.49983
620.592	196.44356
621.046	250.53851
621.5	233.53082
621.954	251.52451
622.407	284.58438
622.861	204.46917
623.314	217.46251
623.768	194.42722
624.221	255.47164
624.674	177.38561
625.127	186.40874
625.58	168.35691
626.033	178.36709
626.485	204.46561
626.938	195.43455
627.39	221.48657
627.843	182.39642
628.295	108.23883
628.747	178.40315
629.199	128.27975
629.651	179.39278
630.103	143.31617
630.555	183.37783
631.006	148.33248
631.458	185.42028
631.909	117.25739
632.361	104.23699
632.812	89.20179
633.263	87.18309
633.714	162.33996
634.165	89.20752
634.616	75.1735
635.067	46.09917
635.518	103.23798
635.968	84.16599
636.419	45.09654
636.869	49.11267
637.319	158.36266
637.769	16.03555
638.219	135.31204
638.669	42.09853
639.119	-4.00953
639.569	41.09778
640.019	41.09277
640.468	10.02235
640.918	59.13762
641.367	-3.00679
641.816	-23.05092
642.265	34.07713
642.714	45.10248
643.163	63.14214
643.612	30.07197
644.061	-10.0213
644.51	22.05013
644.958	44.0973
645.406	27.06414
645.855	53.12963
646.303	56.12962
646.751	-9.02067
647.199	4.00904
647.647	-30.06938
648.095	-4.00921
648.543	118.24204
648.99	9.02161
649.438	11.02537
649.885	15.03647
650.333	52.10242
650.78	27.0652
651.227	2.00489
651.674	53.12143
652.121	20.04878
652.568	35.08522
653.015	38.09551
653.461	-18.04305
653.908	-42.0986
654.354	19.0455
654.801	56.13357
655.247	-47.10418
655.693	-37.0962
656.139	60.14536
656.585	58.13951
657.031	21.05018
657.477	17.03773
657.922	48.11198
658.368	36.08957
658.813	21.04918
659.259	9.02182
659.704	3.0071
660.149	-2.00476
660.594	-1.00241
661.039	8.01844
661.484	-5.01205
661.929	25.05868
662.373	45.1145
662.818	-2.00501
663.262	1.00244
663.707	4.01018
664.151	-39.09617
664.595	15.03708
665.039	-12.03012
665.483	52.13397
665.927	23.05416
666.371	2.00481
666.814	32.07735
667.258	9.02178
667.701	31.06805
668.145	29.07266
668.588	10.0249
669.031	8.01934
669.474	-34.08382
669.917	-21.04755
670.36	-22.05561
670.803	27.06606
671.245	15.03307
671.688	-14.03449
672.13	51.1184
672.573	29.07387
673.015	4.00977
673.457	0
673.899	21.0515
674.341	-13.03196
674.783	-6.01478
675.225	24.06026
675.666	37.09117
676.108	-61.1365
676.549	-22.05312
676.991	-11.02523
677.432	60.12758
677.873	17.04028
678.314	36.08725
678.755	18.04495
679.196	67.15837
679.637	22.05472
680.078	0
680.518	11.02611
680.959	-45.10978
681.399	15.03777
681.839	6.01493
682.28	20.05057
682.72	18.04282
683.16	26.06605
683.6	-19.04448
684.039	0
684.479	1.00251
684.919	11.02655
685.358	14.03584
685.798	39.10445
686.237	38.0932
686.676	16.03734
687.115	-22.05334
687.554	29.07069
687.993	8.01828
688.432	3.00707
688.871	-13.0307
689.309	36.0882
689.748	-24.05272
690.186	33.08044
690.625	-5.01216
691.063	26.06427
691.501	30.07586
691.939	33.08459
692.377	37.09274
692.815	5.01234
693.253	24.05858
693.69	-8.01831
694.128	4.01005
694.565	6.01469
695.003	-18.04666
695.44	4.00977
695.877	3.00727
696.314	38.08425
696.751	-3.00699
697.188	-44.10447
697.625	6.01399
698.061	14.03474
698.498	16.03961
698.934	53.12973
699.371	-50.12277
699.807	3.00732
700.243	-21.05182
700.679	24.05582
701.115	-14.03342
701.551	24.05753
701.987	48.11075
702.422	23.05623
702.858	36.08807
703.294	-29.06717
703.729	11.02742
704.164	-25.06169
704.599	-25.05772
705.035	-13.03025
705.47	-34.08478
705.904	27.06515
706.339	11.02616
706.774	20.04838
707.209	40.09545
707.643	4.00985
708.078	-14.03486
708.512	-37.09557
708.946	17.04139
709.38	-18.04415
709.814	38.09008
710.248	-6.01509
710.682	2.00492
711.116	33.08203
711.549	47.12375
711.983	-5.01199
712.416	30.07249
712.85	18.04594
713.283	13.03139
713.716	10.02531
714.149	19.04597
714.582	40.09281
715.015	41.10344
715.448	41.10491
715.881	-27.0601
716.313	-25.05962
716.746	-20.0488
717.178	0
717.61	10.0257
718.043	-1.00254
718.475	10.02467
718.907	16.04063
719.339	-9.02136
719.77	17.04141
720.202	18.04644
720.634	40.09978
721.065	51.12409
721.497	24.0603
721.928	2.00506
722.359	12.03008
722.79	23.05684
723.221	-4.01023
723.652	0
724.083	38.08883
724.514	21.0492
724.945	-18.04374
725.375	37.08932
725.806	-60.1521
726.236	8.02065
726.666	49.11904
727.096	45.11324
727.526	1.0026
727.956	12.02847
728.386	51.12816
728.816	78.20318
729.246	3.00749
729.675	-51.12949
730.105	57.14267
730.534	18.04331
730.964	21.05377
731.393	21.05251
731.822	-5.01288
732.251	46.11884
732.68	7.01673
733.109	88.22157
733.537	17.04218
733.966	38.09582
734.395	18.04275
734.823	28.06476
735.251	17.04193
735.68	64.1612
736.108	61.15669
736.536	52.12636
736.964	-29.06985
737.392	28.07131
737.82	-35.08525
738.247	76.18544
738.675	1.00241
739.102	52.1335
739.53	11.02849
739.957	-19.04979
740.384	31.07703
740.811	1.00258
741.238	-46.11541
741.665	-22.05278
742.092	0
742.519	22.05615
742.945	29.07101
743.372	54.13587
743.798	35.09138
744.225	24.05884
744.651	13.03325
745.077	7.01782
745.503	53.13218
745.929	27.06633
746.355	-17.04203
746.781	33.08316
747.207	15.03618
747.632	-20.05056
748.058	-32.08132
748.483	60.14196
748.908	-20.05102
749.334	38.09561
749.759	35.08522
750.184	-44.10856
750.609	-4.00997
751.033	-15.03572
751.458	-34.07854
751.883	-20.05009
752.307	49.11882
752.732	1.0026
753.156	38.09602
753.58	-7.01699
754.005	14.03596
754.429	16.03869
754.853	65.16439
755.277	-27.06535
755.7	-8.02025
756.124	13.03297
756.548	22.05386
756.971	27.06731
757.394	-6.01574
757.818	4.0105
758.241	19.04911
758.664	29.07532
759.087	-7.01631
759.51	1.00253
759.933	-51.12617
760.356	-17.04414
760.778	59.14975
761.201	25.0621
761.623	46.11328
762.046	-45.10896
762.468	11.02684
762.89	-12.02987
763.312	-38.09472
763.734	-3.00742
764.156	3.0076
764.578	0
765	1.00252
765.421	37.09749
765.843	24.06365
766.264	-5.0122
766.686	-8.02036
767.107	16.0399
767.528	28.07254
767.949	-14.03606
768.37	29.07293
768.791	60.14689
769.212	19.04928
769.632	-19.04599
770.053	-2.00536
770.473	22.05454
770.894	-4.01008
771.314	0
771.734	13.03126
772.154	28.07291
772.575	10.0236
772.994	6.01405
773.414	-8.0196
773.834	-44.1115
774.254	47.11777
774.673	0
775.093	-33.08334
775.512	15.0381
775.931	33.08515
776.351	-8.02032
776.77	26.06556
777.189	36.08735
777.607	-36.09339
778.026	4.0101
778.445	-51.13068
778.864	-12.03103
779.282	21.0519
779.701	-39.10084
780.119	-37.09623
780.537	-4.01026
780.955	2.00516
781.373	-13.03271
781.791	11.02531
782.209	-29.06775
782.627	-36.09633
783.045	-9.02131
783.462	-25.06487
783.88	1.00265
784.297	28.07196
784.715	-12.03156
785.132	-82.20528
785.549	27.06902
785.966	9.02292
786.383	-19.04783
786.8	0
787.217	-40.09753
787.633	-12.03096
788.05	-16.03812
788.466	16.03835
788.883	2.00518
789.299	-31.07641
789.715	23.05732
790.131	7.01779
790.547	-5.01257
790.963	-13.03301
791.379	-18.04624
791.795	-31.07202
792.21	5.01201
792.626	-18.04346
793.041	28.0702
793.457	-8.02008
793.872	-34.08169
794.287	37.09157
794.702	-13.03239
795.117	8.02046
795.532	-2.00511
795.947	22.05348
796.362	-5.01198
796.776	5.01171
797.191	52.12971
797.605	-25.06108
798.02	36.08937
798.434	28.06319
798.848	-9.02273
799.262	31.07852
799.676	8.01965
800.09	-28.06954
800.504	20.0494
800.918	5.0119
801.331	-3.00788
801.745	-49.11475
802.158	3.00764
802.572	20.0484
802.985	22.05386
803.398	14.03401
803.811	-39.10091
804.224	6.01505
804.637	-12.02925
805.05	54.12697
805.462	63.15706
805.875	12.03178
806.288	-26.06386
806.7	-9.02301
807.112	46.10799
807.525	-35.08786
807.937	26.0653
808.349	-5.01259
808.761	-28.06954
809.173	-2.00494
809.584	-8.01976
809.996	14.03511
810.408	19.04991
810.819	-2.00487
811.231	15.04003
811.642	49.12171
812.053	57.13921
812.464	102.2445
812.875	77.1982
813.286	24.06198
813.697	-11.02548
814.108	-10.02464
814.519	30.06717
814.929	-32.08195
815.34	1.00245
815.75	2.00515
816.16	13.03264
816.571	21.05526
816.981	-31.07373
817.391	23.0564
817.801	31.07779
818.211	-40.09691
818.62	8.01973
819.03	27.06699
819.44	10.02619
819.849	2.00513
820.259	-7.01796
820.668	21.05241
821.077	20.05075
821.486	-5.01232
821.895	10.02474
822.304	12.03194
822.713	-13.03131
823.122	-10.0252
823.531	11.02623
823.939	7.01732
824.348	34.08324
824.756	10.02529
825.164	-39.09913
825.573	-10.02557
825.981	-31.07717
826.389	11.02798
826.797	35.08931
827.205	-12.02848
827.612	2.00497
828.02	-12.02904
828.428	-10.02571
828.835	-13.03454
829.243	1.00241
829.65	-32.08112
830.057	-11.02688
830.464	-8.01972
830.871	-6.01443
831.278	3.00734
831.685	26.05901
832.092	33.08167
832.499	50.1108
832.905	-51.13132
833.312	-17.03953
833.718	18.04493
834.124	-12.02772
834.531	-13.03317
834.937	5.01292
835.343	23.05611
835.749	13.03059
836.155	24.06346
836.561	-9.0223
836.966	13.03195
837.372	56.14337
837.777	-22.05569
838.183	-11.02507
838.588	7.01765
838.993	13.03157
839.399	70.17391
839.804	-21.05251
840.209	-1.00259
840.613	24.05429
841.018	-2.00513
841.423	8.02068
841.828	-21.05377
842.232	7.01736
842.637	27.06434
843.041	-19.04957
843.445	9.02287
843.849	9.02258
844.253	-1.0024
844.657	-6.01541
845.061	0
845.465	61.14959
845.869	21.04947
846.272	38.09403
846.676	-74.17961
847.079	44.1132
847.483	1.0025
847.886	54.13102
848.289	-8.02163
848.692	-12.03058
849.095	-9.02196
849.498	51.12751
849.901	-23.05382
850.304	2.0048
850.707	6.01537
851.109	-2.00505
851.512	68.16894
851.914	57.14728
852.316	1.00256
852.718	43.11429
853.121	20.04994
853.523	52.12541
853.925	19.05026
854.326	-25.06404
854.728	32.0829
855.13	-2.00522
855.531	25.06121
855.933	21.05094
856.334	-18.04557
856.736	45.10414
857.137	-7.01669
857.538	26.06661
857.939	49.12327
858.34	29.07117
858.741	-11.02909
859.142	-5.01212
859.542	20.05311
859.943	60.15107
860.343	17.04312
860.744	-8.01972
861.144	-6.01483
861.544	-38.0951
861.945	51.13082
862.345	39.09564
862.745	-21.05273
863.145	-2.00479
863.544	6.01533
863.944	11.02661
864.344	-11.02744
864.743	4.00994
865.143	22.05731
865.542	-9.02142
865.941	0
866.34	-11.02649
866.74	-1.0027
867.139	-21.05123
867.537	17.04364
867.936	6.01462
868.335	-7.01796
868.734	31.07985
869.132	-27.06402
869.531	-30.07238
869.929	13.03056
870.327	17.04166
870.726	16.03981
871.124	-18.04237
871.522	-13.03335
871.92	31.07717
872.318	-6.01475
872.715	-23.05692
873.113	-11.02726
873.511	-67.16764
873.908	-70.18109
874.306	27.06817
874.703	-12.03031
875.1	-40.10287
875.497	18.04361
875.894	30.07502
876.291	-48.11856
876.688	-2.00522
877.085	-12.0291
877.482	12.03036
877.878	31.07582
878.275	-11.02824
878.671	4.00883
879.068	26.06311
879.464	16.03932
879.86	-9.02183
880.256	23.05686
880.652	-3.00779
881.048	27.06709
881.444	-31.07449
881.84	3.00774
882.236	-17.04318
882.631	-11.02726
883.027	-21.05102
883.422	32.08284
883.817	10.02577
884.213	-16.04174
884.608	17.0428
885.003	33.08125
885.398	-8.02038
885.793	-11.02807
886.188	34.08604
886.582	59.15081
886.977	23.05531
887.371	-24.06058
887.766	-44.11209
888.16	33.08296
888.554	-12.02952
888.949	-4.01008
889.343	10.02464
889.737	-20.05433
890.131	24.06078
890.525	43.11111
890.918	-14.03584
891.312	-33.0799
891.706	1.00264
892.099	0
892.492	4.00871
892.886	28.06997
893.279	61.15702
893.672	5.01291
894.065	0
894.458	19.04776
894.851	-31.0761
895.244	4.01038
895.637	28.06778
896.029	45.11145
896.422	2.00494
896.814	17.04309
897.206	-4.00972
897.599	10.0247
897.991	35.08564
898.383	-28.06702
898.775	-27.06231
899.167	14.03348
899.559	-11.0279
899.951	43.10243
900.342	65.16533
900.734	-8.02038
901.125	81.2132
901.517	11.02711
901.908	-1.0024
902.299	34.08506
902.69	5.01198
903.082	-25.06058
903.473	10.0245
903.863	-22.05646
904.254	-22.05181
904.645	-13.03224
905.036	-15.03716
905.426	57.13081
905.817	20.04972
906.207	-4.00978
906.597	-19.04541
906.987	-22.05686
907.378	-9.02294
907.768	4.01068
908.158	1.00247
908.547	16.04221
908.937	-36.09268
909.327	6.01467
909.717	36.09071
910.106	17.04175
910.495	0
910.885	43.10945
911.274	12.03033
911.663	16.04057
912.052	2.00494
912.441	8.02068
912.83	39.09111
913.219	-6.01572
913.608	-48.11812
913.997	1.00256
914.385	31.07495
914.774	-18.04448
915.162	8.01949
915.55	-30.07312
915.939	-7.01792
916.327	-45.11251
916.715	52.13476
917.103	63.15426
917.491	38.09427
917.878	58.14362
918.266	-35.0915
918.654	25.06408
919.041	-15.03957
919.429	-22.05248
919.816	39.09913
920.203	0
920.591	-32.08011
920.978	-14.03466
921.365	-3.00794
921.752	-28.06773
922.139	11.02412
922.525	60.14771
922.912	0
923.299	31.0786
923.685	-26.06838
924.072	-15.03506
924.458	-2.00502
924.844	35.08811
925.231	10.02369
925.617	3.00783
926.003	5.01285
926.389	-17.04326
926.774	0
927.16	13.03257
927.546	-6.01553
927.931	30.0757
928.317	-7.01638
928.702	-6.01427
929.088	23.0559
929.473	0
929.858	10.02491
930.243	21.05096
930.628	0
931.013	-4.01005
931.398	-22.0506
931.783	-52.13726
932.167	-31.0765
932.552	-51.12853
932.937	20.04974
933.321	17.04335
933.705	-33.08438
934.09	-31.07773
934.474	27.06471
934.858	-42.10959
935.242	-65.15442
935.626	17.04396
936.009	23.06164
936.393	-6.01531
936.777	1.00256
937.16	33.08645
937.544	-25.05918
937.927	-2.00512
938.311	-11.02707
938.694	-1.00264
939.077	25.06081
939.46	-5.01227
939.843	6.01266
940.226	-19.0496
940.609	14.033
940.991	8.02066
941.374	-9.02227
941.757	49.12171
942.139	-19.04338
942.522	-2.00474
942.904	-25.06071
943.286	-23.05894
943.668	50.13025
944.05	-19.04783
944.432	12.03023
944.814	44.10983
945.196	15.03759
945.578	25.0611
945.959	4.00951
946.341	-1.00244
946.722	-9.02124
947.104	-12.02891
947.485	54.12776
947.866	-2.00513
948.247	12.03063
948.628	20.04911
949.009	10.02592
949.39	-29.07277
949.771	12.02823
950.152	-8.01996
950.532	-33.08358
950.913	56.13694
951.293	10.02738
951.674	13.0317
952.054	-35.0882
952.434	-50.12598
952.814	-74.17705
953.194	-39.10196
953.574	-36.08924
953.954	27.06488
954.334	-19.04795
954.714	-6.01489
955.093	15.03655
955.473	-27.0686
955.853	-1.00259
956.232	-26.07129
956.611	-11.02644
956.99	-60.15183
957.37	2.00512
957.749	6.01444
958.128	-30.07635
958.506	-31.08182
958.885	0
959.264	8.02004
959.643	72.1654
960.021	8.01991
960.4	2.00459
960.778	29.0708
961.156	11.02796
961.535	-4.00943
961.913	26.0614
962.291	19.0495
962.669	-74.18865
963.047	0
963.424	4.01028
963.802	-20.04976
964.18	39.09818
964.557	18.04206
964.935	-32.07656
965.312	36.09471
965.69	40.10032
966.067	1.00246
966.444	10.02474
966.821	-3.00772
967.198	-4.00968
967.575	6.01474
967.952	-19.04472
968.329	12.02942
968.705	21.04616
969.082	24.06254
969.458	-27.06616
969.835	-31.07574
970.211	1.0026
970.587	11.02751
970.963	31.07957
971.339	-31.08209
971.715	22.05525
972.091	37.09164
972.467	11.02753
972.843	24.06058
973.219	36.08584
973.594	5.01323
973.97	5.01201
974.345	42.10148
974.721	20.04864
975.096	43.10494
975.471	-12.02822
975.846	29.07043
976.221	24.06207
976.596	2.00488
976.971	-1.00247
977.346	-21.04948
977.72	-11.02798
978.095	-20.05185
978.469	12.02875
978.844	-40.10108
979.218	10.02455
979.593	-17.04074
979.967	33.08122
980.341	42.09787
980.715	7.01767
981.089	25.06321
981.463	2.00468
981.837	-7.01742
982.21	-6.01376
982.584	4.00982
982.957	-33.08397
983.331	16.03805
983.704	45.11162
984.078	-19.04733
984.451	-36.08918
984.824	50.1239
985.197	29.07077
985.57	26.06537
985.943	0
986.316	15.03693
986.688	17.04119
987.061	-4.00955
987.434	7.01826
987.806	-13.03163
988.179	27.06513
988.551	-2.00512
988.923	-31.07664
989.295	47.11768
989.667	-5.01237
990.039	19.04751
990.411	5.01166
990.783	18.04113
991.155	-12.02976
991.527	-28.06847
991.898	12.03008
992.27	-13.03286
992.641	-6.01515
993.012	20.04745
993.384	23.05546
993.755	-25.06467
994.126	11.02664
994.497	21.05247
994.868	8.01852
995.239	-2.00491
995.61	16.04088
995.98	-5.0124
996.351	23.05792
996.722	-23.05481
997.092	-28.0675
997.462	-24.05817
997.833	-5.01186
998.203	-39.09578
998.573	-25.06307
998.943	59.13957
999.313	-42.1016
999.683	-6.01456
1000.053	-12.02793
1000.423	-15.03667
1000.792	3.00791
1001.162	-36.09022
1001.531	10.02488
1001.901	-24.06045
1002.27	47.1063
1002.639	20.05137
1003.009	-4.00966
1003.378	23.05877
1003.747	11.0263
1004.116	9.02186
1004.485	-14.0336
1004.853	0
1005.222	28.07108
1005.591	13.03114
1005.959	43.1003
1006.328	-26.0602
1006.696	-9.0219
1007.064	5.01276
1007.433	-39.09804
1007.801	-4.00977
1008.169	28.07148
1008.537	-49.10997
1008.905	-18.0429
1009.273	38.09413
1009.64	4.00975
1010.008	5.01207
1010.375	-24.05731
1010.743	33.07649
1011.11	33.07903
1011.478	-8.01986
1011.845	24.05663
1012.212	8.01854
1012.579	-10.0248
1012.946	42.10041
1013.313	8.01896
1013.68	11.02485
1014.047	29.07085
1014.414	-2.00481
1014.78	1.0025
1015.147	-35.08532
1015.513	11.02678
1015.88	12.03069
1016.246	8.01983
1016.612	50.11491
1016.978	0
1017.344	19.04718
1017.71	-12.029
1018.076	-9.02136
1018.442	-16.04142
1018.808	16.04037
1019.174	-11.02807
1019.539	31.07063
1019.905	-28.06702
1020.27	-16.04017
1020.636	0
1021.001	53.12799
1021.366	-26.06304
1021.731	14.03617
1022.096	-66.16909
1022.461	-40.09515
1022.826	-8.01939
1023.191	-2.00528
1023.556	-10.02379
1023.92	16.03924
1024.285	2.0049
1024.649	-20.04934
1025.014	-23.05728
1025.378	15.03818
1025.742	-20.05038
1026.107	29.06591
1026.471	-8.01872
1026.835	-49.1226
1027.199	-26.06408
1027.562	7.01658
1027.926	-27.06643
1028.29	43.11038
1028.654	24.05595
1029.017	-22.0544
1029.381	40.09785
1029.744	-3.00777
1030.107	-31.07356
1030.471	-13.03146
1030.834	-20.04613
1031.197	-17.04094
1031.56	-25.0596
1031.923	-37.09686
1032.286	-31.07282
1032.648	15.03628
1033.011	35.08219
1033.374	-26.06137
1033.736	1.00267
1034.099	53.1304
1034.461	15.03875
1034.823	-7.01767
1035.185	19.04822
1035.548	23.05646
1035.91	-6.01466
1036.272	32.07363
1036.634	-11.02691
1036.995	6.01412
1037.357	9.02209
1037.719	-36.08833
1038.08	-7.01658
1038.442	-23.05542
1038.803	0
1039.165	-43.10976
1039.526	-19.04633
1039.887	-3.00728
1040.248	25.06296
1040.609	3.00742
1040.97	19.04738
1041.331	-16.04069
1041.692	2.00476
1042.053	15.03433
1042.413	-7.01642
1042.774	5.01222
1043.134	-10.02379
1043.495	14.03528
1043.855	-7.01711
1044.215	-12.02982
1044.576	-14.03432
1044.936	-45.10352
1045.296	13.03249
1045.656	49.1202
1046.016	-4.00975
1046.375	20.04942
1046.735	14.03256
1047.095	14.03321
1047.454	-18.03839
1047.814	9.02153
1048.173	-4.00952
1048.533	-19.04439
1048.892	16.03929
1049.251	1.00252
1049.61	0
1049.969	-10.02367
1050.328	15.03289
1050.687	-16.03958
1051.046	5.01224
1051.405	-17.0428
1051.763	-36.08478
1052.122	-7.01787
1052.48	-28.06918
1052.839	-11.02629
1053.197	-31.0735
1053.555	1.00225
1053.914	20.04925
1054.272	-15.03637
1054.63	-15.03756
1054.988	-15.03607
1055.345	43.09384
1055.703	-18.04338
1056.061	-9.02337
1056.419	-14.03663
1056.776	-34.08293
1057.134	4.00942
1057.491	-3.00756
1057.848	-4.01005
1058.206	1.00238
1058.563	-7.0158
1058.92	0
1059.277	-25.06185
1059.634	51.12078
1059.991	-56.1346
1060.348	17.03956
1060.704	-14.03397
1061.061	-13.02967
1061.418	-14.03467
1061.774	-9.02253
1062.131	-21.05609
1062.487	-5.0118
1062.843	-3.00755
1063.199	-27.06768
1063.555	-35.08257
1063.911	18.04592
1064.267	17.03565
1064.623	10.02464
1064.979	-14.03287
1065.335	-66.15791
1065.691	-33.07924
1066.046	-37.08235
1066.402	28.06471
1066.757	-26.06577
1067.112	-23.05617
1067.468	-1.00241
1067.823	8.01942
1068.178	-36.08803
1068.533	-47.11517
1068.888	26.06266
1069.243	1.00249
1069.598	-5.01235
1069.952	-17.03961
1070.307	9.02266
1070.662	17.04108
1071.016	-24.05555
1071.371	-25.05792
1071.725	4.0096
1072.079	-20.04823
1072.434	56.13648
1072.788	69.16638
1073.142	-10.02475
1073.496	68.16517
1073.85	-17.03981
1074.203	-34.08259
1074.557	10.02679
1074.911	3.00716
1075.265	24.05599
1075.618	32.07834
1075.971	17.04085
1076.325	24.0616
1076.678	62.14527
1077.031	15.03466
1077.385	35.07826
1077.738	27.06261
1078.091	46.10732
1078.444	-8.01888
1078.796	3.00742
1079.149	-7.01748
1079.502	-25.06069
1079.855	3.00714
1080.207	-45.1119
1080.56	2.00525
1080.912	9.02213
1081.264	-10.02441
1081.617	52.12858
1081.969	4.01028
1082.321	38.09393
1082.673	-4.00945
1083.025	-29.06942
1083.377	-2.00433
1083.728	10.02354
1084.08	27.06819
1084.432	39.09521
1084.783	7.01635
1085.135	28.07068
1085.486	21.0492
1085.838	44.10864
1086.189	8.01965
1086.54	-29.06969
1086.891	14.03599
1087.242	-7.01719
1087.593	-34.08268
1087.944	40.09233
1088.295	-13.02965
1088.646	46.11165
1088.996	-22.05438
1089.347	-60.15015
1089.698	-10.0244
1090.048	-7.01824
1090.398	-2.00469
1090.749	-21.05066
1091.099	-14.03582
1091.449	-15.03756
1091.799	43.10871
1092.149	-8.0202
1092.499	-30.07347
1092.849	6.01536
1093.199	-19.04759
1093.548	-7.01697
1093.898	1.00255
1094.248	5.01282
1094.597	-12.03134
1094.947	-14.03762
1095.296	1.0025
1095.645	-7.01826
1095.994	62.15009
1096.343	23.05803
1096.692	12.03207
1097.041	7.01918
1097.39	4.01008
1097.739	-26.0677
1098.088	31.08291
1098.437	-33.0882
1098.785	33.08942
1099.134	-4.01066
1099.482	11.03022
1099.83	-9.02354
1100.179	-33.08742
1100.527	15.04024
1100.875	-29.07774
1101.223	-19.05058
1101.571	19.05291
1101.919	-15.03999
1102.267	1.00283
1102.615	-2.00644
1102.962	-8.02576
1103.31	5.0161
1103.658	7.02251
