Data from N2 R3 sample 8_Subt2__4__17-15-25-149.txt Node

Date: Wed Aug 27 17:15:25 PDT 2025
User: uwsun
Spectrometer: HDX01956
Trigger mode: 0
Integration Time (sec): 5.000000E-1
Scans to average: 1
Nonlinearity correction enabled: true
Boxcar width: 0
Storing dark spectrum: false
XAxis mode: Wavelengths
Number of Pixels in Spectrum: 2068
>>>>>Begin Spectral Data<<<<<
194.03	133.38064
194.578	116.37347
195.127	128.40605
195.676	140.44465
196.225	145.38934
196.773	141.39374
197.321	197.54497
197.87	273.69921
198.418	306.78768
198.966	299.77835
199.513	270.68291
200.061	311.7926
200.609	266.69851
201.156	236.52972
201.704	306.77725
202.251	255.67495
202.798	292.76521
203.345	308.7598
203.892	250.63189
204.438	317.75704
204.985	262.62943
205.532	284.7445
206.078	297.73307
206.624	292.72536
207.17	288.67344
207.716	321.78851
208.262	224.45365
208.808	311.77072
209.354	332.81085
209.899	334.83178
210.445	261.65321
210.99	281.6821
211.535	335.7847
212.08	307.72081
212.625	292.72774
213.17	290.72407
213.715	253.57848
214.259	260.60821
214.804	314.77289
215.348	291.6691
215.892	295.70559
216.436	309.71048
216.98	312.69194
217.524	288.68056
218.068	224.56194
218.612	298.74888
219.155	293.68902
219.698	272.645
220.242	252.62259
220.785	269.62939
221.328	314.77573
221.871	236.58863
222.414	311.76875
222.956	253.61323
223.499	260.59053
224.041	286.67295
224.583	257.55347
225.126	248.55734
225.668	302.73485
226.21	270.67585
226.751	270.60105
227.293	243.55852
227.835	207.50852
228.376	288.66763
228.918	285.71223
229.459	274.68537
230	220.52311
230.541	301.69651
231.082	287.69719
231.622	302.70423
232.163	237.58049
232.704	272.67668
233.244	199.49158
233.784	246.59794
234.324	240.53649
234.864	241.55171
235.404	254.5993
235.944	264.62241
236.484	262.64444
237.023	247.58967
237.563	272.63129
238.102	187.4408
238.641	251.62977
239.18	282.66251
239.719	265.66489
240.258	246.55602
240.797	289.6952
241.335	263.64009
241.874	249.49239
242.412	231.55675
242.95	267.64545
243.488	317.72683
244.026	254.58695
244.564	253.52353
245.102	330.74555
245.64	258.62288
246.177	238.53619
246.715	291.68831
247.252	259.59267
247.789	205.38713
248.326	325.78178
248.863	312.68445
249.4	271.60815
249.936	283.59504
250.473	294.6845
251.009	274.63518
251.546	319.71085
252.082	239.52377
252.618	260.58934
253.154	252.60678
253.69	315.71007
254.226	210.4978
254.761	305.68528
255.297	297.65909
255.832	244.57526
256.367	335.78623
256.903	281.62203
257.438	278.64368
257.972	326.7308
258.507	300.69599
259.042	208.45362
259.576	242.5318
260.111	257.59424
260.645	245.53125
261.179	281.65101
261.713	266.59681
262.247	283.65201
262.781	279.58431
263.315	278.67343
263.849	285.70888
264.382	255.58399
264.915	319.75103
265.449	295.72198
265.982	287.65013
266.515	330.79335
267.048	253.53455
267.58	274.594
268.113	280.61141
268.646	322.78702
269.178	340.76469
269.71	290.62225
270.243	290.65866
270.775	287.72551
271.307	279.663
271.838	302.70368
272.37	274.66823
272.902	323.72929
273.433	348.75377
273.965	297.71498
274.496	273.6684
275.027	295.72867
275.558	293.70669
276.089	311.76536
276.62	300.74984
277.15	319.77548
277.681	322.69567
278.211	347.83531
278.741	286.63666
279.272	332.75282
279.802	313.77397
280.332	333.78215
280.861	331.78593
281.391	306.69303
281.921	239.5697
282.45	353.86741
282.98	325.8306
283.509	383.84884
284.038	312.70546
284.567	296.67855
285.096	333.78916
285.625	314.70043
286.153	331.76835
286.682	362.82449
287.21	314.74629
287.739	302.70921
288.267	358.85215
288.795	360.92243
289.323	320.74179
289.851	288.66498
290.378	397.88279
290.906	349.84235
291.433	352.8568
291.961	397.88902
292.488	335.80918
293.015	358.82723
293.542	337.84184
294.069	405.97451
294.596	392.9377
295.122	318.75027
295.649	373.80153
296.175	385.91481
296.702	359.84911
297.228	370.8736
297.754	340.75403
298.28	370.8301
298.806	291.68672
299.332	377.83102
299.857	377.83276
300.383	358.8753
300.908	447.0599
301.433	396.93171
301.958	428.97044
302.483	410.99978
303.008	351.83341
303.533	414.04128
304.058	382.86792
304.582	419.97333
305.107	372.94549
305.631	356.79378
306.155	383.87882
306.679	386.88695
307.203	430.96705
307.727	416.96693
308.251	350.83407
308.775	378.87759
309.298	422.98822
309.822	413.00016
310.345	400.91543
310.868	421.96908
311.391	398.93714
311.914	413.0069
312.437	420.9159
312.96	381.87389
313.482	406.93289
314.005	458.10872
314.527	423.06035
315.049	411.99605
315.571	414.89823
316.093	463.08819
316.615	457.04648
317.137	429.90001
317.659	438.00149
318.18	482.09477
318.702	472.06032
319.223	473.93404
319.744	518.10564
320.265	454.0502
320.786	510.19767
321.307	543.27106
321.828	466.99939
322.348	474.04913
322.869	502.13151
323.389	666.03509
323.909	550.18724
324.43	505.13017
324.95	518.12092
325.47	549.26554
325.989	510.12801
326.509	570.18787
327.029	578.21951
327.548	535.1284
328.067	575.29762
328.587	537.22457
329.106	613.30845
329.625	551.32844
330.144	571.21078
330.662	557.20725
331.181	619.315
331.7	603.28597
332.218	614.21902
332.736	574.22324
333.255	617.32042
333.773	582.25534
334.291	619.38396
334.808	675.3475
335.326	657.33761
335.844	672.41626
336.361	696.57766
336.879	705.48752
337.396	665.43797
337.913	776.5999
338.43	718.4285
338.947	742.56532
339.464	747.43146
339.981	740.54882
340.497	756.63249
341.014	780.66783
341.53	700.40298
342.046	748.60212
342.562	767.65096
343.078	793.61926
343.594	781.62715
344.11	793.61853
344.626	790.71541
345.141	761.49134
345.657	811.53787
346.172	864.77674
346.687	808.59886
347.202	910.73222
347.717	841.69877
348.232	890.88762
348.747	938.79856
349.261	868.60178
349.776	887.76398
350.29	924.92149
350.805	960.98049
351.319	900.74963
351.833	916.75125
352.347	949.84459
352.861	982.893
353.374	956.78913
353.888	894.76185
354.401	1019.91335
354.915	1064.9643
355.428	981.99449
355.941	951.81345
356.454	1011.79435
356.967	998.89542
357.48	996.82844
357.993	1047.05312
358.505	1008.00197
359.018	1116.16259
359.53	1035.95963
360.042	1096.89903
360.554	1077.02504
361.066	1141.1834
361.578	1113.87527
362.09	1144.11205
362.602	1083.83935
363.113	1075.95161
363.625	1186.00356
364.136	1178.95898
364.647	1147.04044
365.158	1182.09808
365.669	1229.23407
366.18	1165.0811
366.691	1193.96398
367.201	1188.13266
367.712	1269.15663
368.222	1178.00499
368.733	1236.95845
369.243	1255.03251
369.753	1295.13641
370.263	1350.35335
370.773	1379.48642
371.282	1364.30351
371.792	1415.27562
372.301	1400.40914
372.811	1416.61474
373.32	1494.14778
373.829	1459.31409
374.338	1566.25123
374.847	1526.29757
375.356	1608.42389
375.865	1653.12793
376.373	1722.31686
376.882	1785.73001
377.39	1868.60398
377.898	1897.72099
378.407	1967.4289
378.915	1996.15776
379.423	2123.49807
379.93	2184.32702
380.438	2312.62835
380.946	2370.40428
381.453	2522.54486
381.96	2534.3684
382.468	2786.26655
382.975	3009.32076
383.482	3095.99136
383.989	3072.55995
384.495	3250.91877
385.002	3305.33523
385.509	3603.57359
386.015	3787.68061
386.521	3935.93485
387.028	4122.78279
387.534	4159.44351
388.04	4325.73392
388.546	4431.35983
389.051	4563.07013
389.557	5052.01651
390.063	5403.65866
390.568	5760.90057
391.073	5929.5778
391.578	6168.70334
392.084	6321.61176
392.589	6466.6097
393.093	6858.98468
393.598	7740.53215
394.103	8124.60939
394.607	9282.00832
395.112	9926.0703
395.616	10467.04707
396.12	11347.62137
396.624	12786.97666
397.128	13486.05874
397.632	15279.91202
398.136	16649.7093
398.639	17415.62642
399.143	18899.79338
399.646	21725.72947
400.15	24120.30133
400.653	26344.02066
401.156	29039.21909
401.659	34140.36892
402.162	41004.65758
402.664	45478.76215
403.167	32245.91323
403.67	3851.94142
404.172	0
404.674	0
405.176	0
405.678	0
406.18	0
406.682	0
407.184	0
407.686	12367.42319
408.187	34596.90747
408.688	44563.94194
409.19	48906.19284
409.691	51236.67962
410.192	52883.26968
410.693	53713.23343
411.194	52541.6547
411.694	50054.71975
412.195	46649.55768
412.696	42487.32778
413.196	38848.57687
413.696	37127.96464
414.196	37732.82574
414.696	37448.469
415.196	36100.84999
415.696	33780.51559
416.196	28454.05681
416.695	21671.24555
417.195	18028.03451
417.694	16890.00915
418.194	16068.12065
418.693	14714.09377
419.192	14292.39372
419.691	13944.39506
420.19	13689.15995
420.688	13358.56686
421.187	12814.52923
421.685	11919.33529
422.184	11024.98014
422.682	9596.20318
423.18	8292.58141
423.678	7379.62782
424.176	6759.92239
424.674	6431.73217
425.172	6244.83775
425.669	5783.06207
426.167	5292.06725
426.664	4895.24766
427.161	4520.65922
427.659	4143.32599
428.156	3808.8464
428.652	3597.11811
429.149	3478.92065
429.646	3294.64911
430.143	3187.11537
430.639	2951.1738
431.135	2764.54531
431.632	2525.27201
432.128	2385.35361
432.624	2314.75701
433.12	2203.22948
433.616	2223.13324
434.111	2092.50366
434.607	1964.46131
435.103	1933.04104
435.598	1876.91728
436.093	1784.31185
436.588	1710.13398
437.083	1642.19727
437.578	1495.03627
438.073	1472.38991
438.568	1410.24782
439.062	1376.8735
439.557	1280.01603
440.051	1245.94301
440.546	1209.92799
441.04	1161.98398
441.534	1099.00706
442.028	1121.91026
442.522	1067.86862
443.015	1102.74504
443.509	1147.04358
444.002	1081.94568
444.496	1069.68044
444.989	949.75724
445.482	952.80178
445.975	993.69506
446.468	1045.68231
446.961	967.51852
447.454	980.69924
447.947	865.5847
448.439	869.64244
448.931	813.41753
449.424	873.71276
449.916	863.63028
450.408	827.45035
450.9	775.47735
451.392	830.65164
451.884	747.37293
452.375	757.50515
452.867	702.25936
453.358	784.41474
453.849	730.2534
454.341	660.19966
454.832	724.25768
455.323	733.4594
455.814	749.3773
456.304	690.29755
456.795	721.35429
457.285	678.22683
457.776	631.17155
458.266	666.31936
458.756	635.28689
459.247	593.19945
459.737	704.41035
460.226	661.24139
460.716	603.21693
461.206	639.29206
461.695	561.20869
462.185	614.23377
462.674	594.16004
463.163	607.14987
463.653	578.04392
464.142	543.13177
464.63	544.13963
465.119	523.05183
465.608	546.10045
466.096	518.99916
466.585	527.06476
467.073	452.9585
467.561	506.06597
468.05	535.0859
468.538	448.97901
469.026	404.86383
469.513	386.73737
470.001	567.1604
470.489	482.03889
470.976	440.90087
471.463	405.91178
471.951	417.93072
472.438	393.84377
472.925	439.94536
473.412	444.97642
473.899	400.83751
474.385	376.84876
474.872	416.88294
475.359	420.94457
475.845	440.84176
476.331	384.77412
476.817	369.82327
477.303	366.78733
477.789	321.72182
478.275	333.76963
478.761	363.81758
479.247	298.62396
479.732	291.68538
480.218	248.60528
480.703	294.6845
481.188	257.5206
481.673	288.62435
482.158	313.64652
482.643	319.76007
483.128	291.63879
483.612	270.6003
484.097	283.65643
484.581	241.52926
485.066	270.62739
485.55	222.47162
486.034	233.49035
486.518	171.38596
487.002	266.63247
487.486	199.472
487.969	228.53483
488.453	167.40525
488.936	188.41418
489.42	230.495
489.903	183.44141
490.386	187.30811
490.869	194.41016
491.352	139.32715
491.835	189.38251
492.318	199.44255
492.8	263.53763
493.283	182.4467
493.765	150.36216
494.247	173.39366
494.73	136.29484
495.212	126.2943
495.694	171.39257
496.175	120.28216
496.657	152.35154
497.139	137.24098
497.62	116.27445
498.102	187.45685
498.583	141.34742
499.064	60.13302
499.545	133.30019
500.026	131.2923
500.507	90.20881
500.988	133.32432
501.469	117.28945
501.949	78.18904
502.43	109.25854
502.91	124.25837
503.39	92.22656
503.87	96.22502
504.35	85.19788
504.83	95.20916
505.31	102.24413
505.79	127.3017
506.269	65.15114
506.749	40.09207
507.228	46.10854
507.707	48.10659
508.187	89.20956
508.666	50.12136
509.145	60.14048
509.623	68.16108
510.102	83.19945
510.581	17.04063
511.059	101.25179
511.538	52.13233
512.016	76.18294
512.494	107.25976
512.972	15.03561
513.45	86.20032
513.928	107.25829
514.406	68.16623
514.884	73.18607
515.361	3.00716
515.839	49.11272
516.316	73.17575
516.793	73.18338
517.27	42.10133
517.747	63.16183
518.224	46.10614
518.701	95.21153
519.178	38.09406
519.654	26.0618
520.131	18.04459
520.607	52.12759
521.083	30.06936
521.56	13.03078
522.036	38.08421
522.512	28.06829
522.987	40.09559
523.463	14.03364
523.939	64.15435
524.414	64.14808
524.89	77.18356
525.365	26.05889
525.84	-20.04838
526.315	62.14941
526.79	-10.02274
527.265	42.09718
527.74	9.02192
528.215	63.15162
528.689	38.08477
529.164	49.10807
529.638	59.15055
530.112	48.11374
530.587	57.12481
531.061	31.07557
531.534	34.08311
532.008	52.12602
532.482	7.01608
532.956	-27.06919
533.429	30.07227
533.903	48.10584
534.376	38.08582
534.849	20.04624
535.322	13.03099
535.795	-9.02202
536.268	35.08471
536.741	13.03112
537.213	56.129
537.686	-3.00735
538.158	49.1115
538.631	21.05041
539.103	13.02987
539.575	-4.00846
540.047	15.03369
540.519	19.04517
540.991	11.02669
541.463	6.01456
541.934	30.06845
542.406	8.01902
542.877	-67.15326
543.348	-34.08069
543.82	40.09709
544.291	-30.06999
544.762	73.17248
545.233	51.12627
545.703	20.04473
546.174	69.15981
546.645	31.07461
547.115	53.12789
547.585	25.05698
548.056	39.09336
548.526	112.25986
548.996	86.20293
549.466	60.14388
549.935	115.2693
550.405	83.18129
550.875	118.27399
551.344	122.28518
551.814	123.2783
552.283	104.22162
552.752	153.34364
553.221	141.3017
553.69	132.28446
554.159	163.3896
554.628	138.30543
555.096	199.48308
555.565	232.50661
556.033	185.41994
556.502	184.43297
556.97	174.37094
557.438	176.40154
557.906	213.48546
558.374	192.4276
558.842	225.51777
559.31	229.49592
559.777	237.55083
560.245	209.46575
560.712	194.43188
561.18	227.48634
561.647	214.45879
562.114	289.63867
562.581	270.62268
563.048	332.72096
563.514	338.78009
563.981	351.75458
564.448	360.7511
564.914	351.75426
565.381	390.81585
565.847	432.9217
566.313	482.02867
566.779	498.02838
567.245	453.95622
567.711	532.1498
568.176	509.02174
568.642	528.18342
569.108	526.15813
569.573	569.17659
570.038	584.08224
570.504	671.30914
570.969	632.35867
571.434	640.20926
571.899	707.44607
572.363	734.40888
572.828	759.4363
573.293	788.53015
573.757	794.51692
574.222	786.48132
574.686	801.50706
575.15	813.62415
575.614	825.57663
576.078	773.51061
576.542	877.61722
577.006	777.45466
577.469	827.64605
577.933	893.63528
578.396	829.62174
578.86	804.57165
579.323	815.6304
579.786	779.38743
580.249	745.429
580.712	761.54753
581.175	770.5996
581.637	716.37758
582.1	692.25667
582.563	688.24623
583.025	668.39056
583.487	690.19721
583.95	627.17452
584.412	603.08279
584.874	631.33004
585.336	591.22488
585.797	581.09141
586.259	530.09949
586.721	545.13292
587.182	528.07581
587.643	433.87431
588.105	433.9064
588.566	385.72423
589.027	394.85994
589.488	419.85264
589.949	443.9597
590.41	429.76143
590.87	363.73465
591.331	363.71244
591.791	366.77006
592.252	273.57579
592.712	289.63013
593.172	270.56383
593.632	242.4827
594.092	228.47232
594.552	207.41164
595.011	248.53168
595.471	246.51166
595.931	236.48736
596.39	249.55947
596.849	236.51141
597.308	176.35122
597.768	240.57351
598.227	193.43205
598.685	224.47483
599.144	190.42104
599.603	257.56345
600.062	183.36985
600.52	208.43706
600.978	211.47001
601.437	195.4176
601.895	121.24241
602.353	155.32189
602.811	253.52634
603.269	194.43116
603.727	196.44031
604.184	215.45705
604.642	193.43846
605.099	253.55164
605.557	204.46335
606.014	235.47277
606.471	226.52765
606.928	179.36376
607.385	241.54883
607.842	278.59419
608.299	307.65687
608.755	329.71703
609.212	335.68699
609.668	232.48126
610.125	272.59872
610.581	252.54095
611.037	236.4948
611.493	284.61279
611.949	194.43546
612.405	311.58991
612.861	226.48891
613.316	316.69877
613.772	281.58693
614.227	224.48499
614.683	253.50217
615.138	240.52563
615.593	274.59654
616.048	303.64046
616.503	235.52542
616.958	253.58197
617.412	219.4852
617.867	271.5658
618.321	306.59446
618.776	286.58293
619.23	253.55024
619.684	332.69361
620.138	250.52786
620.592	207.4674
621.046	238.51398
621.5	258.5848
621.954	232.48685
622.407	266.54956
622.861	245.55884
623.314	192.41145
623.768	196.43144
624.221	219.4087
624.674	218.47079
625.127	178.39182
625.58	170.361
626.033	181.37303
626.485	221.50267
626.938	178.39807
627.39	175.38902
627.843	140.30766
628.295	193.41922
628.747	173.39223
629.199	174.37658
629.651	185.40543
630.103	172.37798
630.555	163.33805
631.006	126.28434
631.458	119.27396
631.909	129.28307
632.361	119.27035
632.812	94.21291
633.263	124.25883
633.714	140.29522
634.165	73.17075
634.616	68.15752
635.067	89.19011
635.518	84.19482
635.968	76.15046
636.419	89.18912
636.869	78.17832
637.319	146.33592
637.769	45.09937
638.219	125.2895
638.669	29.0682
639.119	36.08514
639.569	44.10487
640.019	27.06127
640.468	34.0756
640.918	33.07737
641.367	45.10091
641.816	-10.02208
642.265	9.02052
642.714	17.03893
643.163	19.04325
643.612	10.02408
644.061	-4.00851
644.51	-15.03444
644.958	58.12789
645.406	-8.01913
645.855	68.16585
646.303	61.14105
646.751	10.02288
647.199	34.07635
647.647	-4.0092
648.095	19.04357
648.543	72.14922
648.99	21.05031
649.438	-32.07442
649.885	-29.07109
650.333	60.11795
650.78	44.10591
651.227	11.02686
651.674	22.05072
652.121	21.05121
652.568	45.10937
653.015	67.16752
653.461	7.01666
653.908	3.00698
654.354	14.03356
654.801	46.10993
655.247	-7.01539
655.693	-19.04925
656.139	62.15015
656.585	23.05569
657.031	32.0763
657.477	38.08396
657.922	65.15114
658.368	55.13637
658.813	50.11642
659.259	7.01697
659.704	17.04015
660.149	28.0662
660.594	53.12644
661.039	8.01844
661.484	40.09556
661.929	5.01178
662.373	8.02049
662.818	34.08466
663.262	-2.00489
663.707	33.08358
664.151	-1.00245
664.595	33.08131
665.039	-26.06542
665.483	70.17978
665.927	-32.07615
666.371	22.0527
666.814	-7.01704
667.258	7.01694
667.701	57.12445
668.145	15.03768
668.588	-5.01248
669.031	25.06026
669.474	11.02689
669.917	19.04268
670.36	23.05767
670.803	56.13628
671.245	35.07683
671.688	1.00246
672.13	23.05369
672.573	-8.02051
673.015	19.04628
673.457	19.04289
673.899	8.01967
674.341	-4.00982
674.783	9.0221
675.225	-1.00252
675.666	-5.01242
676.108	-2.00442
676.549	7.01681
676.991	10.02284
677.432	90.19012
677.873	31.07325
678.314	-21.05144
678.755	9.02251
679.196	73.17235
679.637	47.11636
680.078	37.08841
680.518	16.03794
680.959	-20.04856
681.399	-12.03037
681.839	15.03726
682.28	16.04049
682.72	5.01192
683.16	43.10891
683.6	55.12688
684.039	-12.02592
684.479	17.04257
684.919	52.12455
685.358	17.0435
685.798	59.15749
686.237	6.0148
686.676	-20.04701
687.115	30.07202
687.554	-13.03194
687.993	9.02056
688.432	7.01649
688.871	8.01882
689.309	47.11491
689.748	33.07162
690.186	56.13592
690.625	32.07729
691.063	32.07901
691.501	40.10097
691.939	38.09732
692.377	43.10767
692.815	49.11994
693.253	12.02936
693.69	24.05458
694.128	37.09238
694.565	52.12621
695.003	15.03866
695.44	26.06325
695.877	32.07715
696.314	49.10838
696.751	29.06719
697.188	-27.06389
697.625	-19.04453
698.061	26.06438
698.498	43.10591
698.934	-4.00989
699.371	-2.00487
699.807	36.08725
700.243	12.02943
700.679	33.07661
701.115	8.01902
701.551	31.07421
701.987	28.06486
702.422	-6.01475
702.858	11.02703
703.294	-45.10455
703.729	16.03985
704.164	-6.01475
704.599	-1.0023
705.035	26.06004
705.47	-64.16045
705.904	26.06275
706.339	19.04512
706.774	44.10595
707.209	5.01201
707.643	35.08567
708.078	-32.07994
708.512	10.02562
708.946	-29.07122
709.38	11.02683
709.814	45.10653
710.248	36.08986
710.682	-3.00739
711.116	15.03741
711.549	12.03178
711.983	32.07618
712.416	-1.00243
712.85	40.10169
713.283	-21.05104
713.716	-20.0509
714.149	-12.0292
714.582	52.12036
715.015	14.03549
715.448	42.10745
715.881	12.02649
716.313	-38.09085
716.746	32.07732
717.178	-19.04725
717.61	33.08447
718.043	16.04052
718.475	-28.06956
718.907	-22.05624
719.339	13.03072
719.77	-19.04659
720.202	39.10025
720.634	12.03008
721.065	15.03674
721.497	25.0628
721.928	17.04292
722.359	30.07497
722.79	-7.01739
723.221	7.01786
723.652	25.06482
724.083	-7.01651
724.514	-22.05197
724.945	8.01934
725.375	27.0653
725.806	-21.05287
726.236	16.04124
726.666	37.09009
727.096	24.06062
727.526	13.03379
727.956	-6.01428
728.386	41.10321
728.816	55.14383
729.246	12.02992
729.675	-41.10392
730.105	38.09544
730.534	7.01688
730.964	12.03078
731.393	6.01504
731.822	-7.01804
732.251	8.0208
732.68	15.0358
733.109	40.10158
733.537	-15.03744
733.966	-2.00508
734.395	21.04985
734.823	29.06706
735.251	-42.10473
735.68	59.14874
736.108	16.04142
736.536	36.08774
736.964	-9.02159
737.392	37.09408
737.82	-29.07056
738.247	39.09581
738.675	-7.01691
739.102	36.09268
739.53	-28.07301
739.957	-25.06558
740.384	0
740.811	42.10753
741.238	-37.09268
741.665	8.01908
742.092	5.01221
742.519	-23.05916
742.945	-21.0519
743.372	23.05819
743.798	69.17909
744.225	18.04418
744.651	39.0993
745.077	2.0051
745.503	6.01509
745.929	2.00494
746.355	-46.11433
746.781	-13.03303
747.207	-39.09503
747.632	-19.04802
748.058	-4.01011
748.483	-1.00239
748.908	-17.04335
749.334	23.05803
749.759	16.0391
750.184	2.00489
750.609	-6.01496
751.033	-40.0957
751.458	15.03431
751.883	-5.01249
752.307	-14.03435
752.732	10.02593
753.156	27.06836
753.58	-17.04135
754.005	-3.00773
754.429	31.07475
754.853	3.00767
755.277	-41.0995
755.7	3.00758
756.124	16.04056
756.548	10.02454
756.971	28.06979
757.394	-1.00262
757.818	0
758.241	11.02847
758.664	55.14221
759.087	-23.05375
759.51	-23.05842
759.933	-63.1562
760.356	-8.02074
760.778	88.22221
761.201	37.09171
761.623	59.14495
762.046	12.02874
762.468	37.08986
762.89	-20.04985
763.312	-3.00743
763.734	-7.01732
764.156	18.04547
764.578	-15.03535
765	45.11231
765.421	44.11579
765.843	-7.01866
766.264	-25.06121
766.686	-2.00508
767.107	30.07461
767.528	14.03636
767.949	-29.07488
768.37	70.17473
768.791	59.14447
769.212	30.07767
769.632	-40.0972
770.053	23.06143
770.473	18.04465
770.894	1.00252
771.314	6.01445
771.734	4.00964
772.154	41.10653
772.575	-19.04508
772.994	-13.03056
773.414	6.01466
773.834	-47.11917
774.254	48.12025
774.673	-10.02482
775.093	-28.07065
775.512	24.06086
775.931	27.06974
776.351	23.05809
776.77	14.03538
777.189	-14.03429
777.607	-12.031
778.026	-45.11458
778.445	-40.1023
778.864	-10.02585
779.282	37.09117
779.701	3.0077
780.119	31.07969
780.537	14.03579
780.955	21.054
781.373	10.02506
781.791	-6.01385
782.209	-43.10073
782.627	10.02656
783.045	-1.00236
783.462	3.00775
783.88	-11.02916
784.297	6.01548
784.715	-45.119
785.132	-20.04951
785.549	30.07664
785.966	19.04829
786.383	-5.01256
786.8	-47.11122
787.217	4.00967
787.633	30.07683
788.05	-3.00713
788.466	74.17542
788.883	-22.05719
789.299	6.01469
789.715	53.13136
790.131	64.16097
790.547	14.03507
790.963	38.09561
791.379	-52.13439
791.795	-15.03474
792.21	16.03834
792.626	-38.0921
793.041	3.00755
793.457	-47.11878
793.872	11.0262
794.287	10.02487
794.702	-14.03488
795.117	56.14201
795.532	1.00255
795.947	12.02922
796.362	-5.01198
796.776	-5.01173
797.191	26.06516
797.605	-5.01217
798.02	-7.01751
798.434	13.02943
798.848	-6.01515
799.262	-19.04855
799.676	27.06609
800.09	-29.07204
800.504	19.04694
800.918	28.06633
801.331	-13.03422
801.745	-3.00696
802.158	-10.02554
802.572	-34.08311
802.985	26.0636
803.398	15.03643
803.811	6.0154
804.224	6.01505
804.637	28.06773
805.05	-21.0501
805.462	80.19883
805.875	16.04235
806.288	-52.12834
806.7	5.01275
807.112	-10.02373
807.525	-2.00499
807.937	-2.00505
808.349	-5.01259
808.761	-49.12216
809.173	-37.09201
809.584	-26.06443
809.996	-7.01762
810.408	18.04729
810.819	-12.02926
811.231	41.10893
811.642	14.035
812.053	42.10286
812.464	76.18308
812.875	86.22102
813.286	35.09022
813.697	-18.04175
814.108	0
814.519	-2.00451
814.929	-18.04599
815.34	-47.11641
815.75	-2.00516
816.16	-4.01008
816.571	39.1023
816.981	-81.1945
817.391	-5.01232
817.801	-16.04049
818.211	-32.07741
818.62	37.09077
819.03	-6.01498
819.44	1.00262
819.849	5.01281
820.259	-26.06694
820.668	8.02001
821.077	29.07348
821.486	30.07342
821.895	-14.03478
822.304	-25.06695
822.713	8.01919
823.122	14.03512
823.531	-27.06486
823.939	10.02473
824.348	72.17502
824.756	23.05803
825.164	-21.05321
825.573	21.0534
825.981	-7.01735
826.389	40.10122
826.797	30.07662
827.205	1.00237
827.612	-13.03239
828.02	-11.02661
828.428	-8.02056
828.835	1.00265
829.243	4.00962
829.65	-39.09899
830.057	-9.02199
830.464	-13.03208
830.871	-27.06518
831.278	-6.01471
831.685	-7.01599
832.092	11.02733
832.499	1.00224
832.905	-9.02301
833.312	31.0714
833.718	8.02001
834.124	28.06417
834.531	7.0178
834.937	20.05153
835.343	-8.01963
835.749	14.03293
836.155	25.06609
836.561	-7.01734
836.966	-21.05194
837.372	22.05666
837.777	-15.03792
838.183	44.09917
838.588	4.01009
838.993	-14.03417
839.399	28.0701
839.804	-5.01247
840.209	2.00517
840.613	-17.03878
841.018	4.01024
841.423	-1.00259
841.828	-1.00255
842.232	-1.00248
842.637	4.00957
843.041	-17.04434
843.445	5.01271
843.849	15.0376
844.253	9.02155
844.657	5.01282
845.061	-45.1043
845.465	10.02475
845.869	6.01417
846.272	-23.05755
846.676	-32.07706
847.079	12.03104
847.483	0
847.886	25.06099
848.289	-15.04061
848.692	-31.07927
849.095	37.08952
849.498	6.01512
849.901	-13.03036
850.304	-30.07243
850.707	21.05364
851.109	-4.0101
851.512	1.00251
851.914	39.10109
852.316	30.07643
852.718	21.05602
853.121	32.07973
853.523	16.03885
853.925	14.03707
854.326	34.08619
854.728	-15.03917
855.13	-6.01567
855.531	50.12186
855.933	1.00243
856.334	-3.00757
856.736	28.06502
857.137	33.07806
857.538	67.17042
857.939	-8.02033
858.34	28.06873
858.741	24.0631
859.142	14.03383
859.542	-7.01867
859.943	36.09103
860.343	-18.04594
860.744	-5.01232
861.144	14.03448
861.544	-10.0249
861.945	2.00517
862.345	6.0148
862.745	-10.02506
863.145	1.00239
863.544	16.04082
863.944	60.14383
864.344	-11.02744
864.743	20.04956
865.143	-13.03407
865.542	27.06382
865.941	-9.02248
866.34	6.0144
866.74	-12.03246
867.139	-19.04633
867.537	25.06408
867.936	-7.0171
868.335	-8.02052
868.734	26.06703
869.132	-33.07834
869.531	-37.08939
869.929	-1.00236
870.327	-1.00246
870.726	22.05468
871.124	10.02341
871.522	-27.06943
871.92	21.05237
872.318	-4.00983
872.715	13.03196
873.113	-15.03721
873.511	-38.09458
873.908	-70.18109
874.306	8.02027
874.703	24.06023
875.1	-13.03328
875.497	8.01942
875.894	31.07751
876.291	-55.13602
876.688	6.01562
877.085	-22.05346
877.482	-15.03813
877.878	-18.04443
878.275	7.01791
878.671	-22.04886
879.068	-5.01221
879.464	25.06133
879.86	-12.02913
880.256	3.00744
880.652	13.03365
881.048	23.05719
881.444	-49.11815
881.84	18.04629
882.236	1.00253
882.631	-14.03472
883.027	-18.04371
883.422	28.07254
883.817	45.11527
884.213	-1.0026
884.608	-1.00253
885.003	36.08859
885.398	-18.04594
885.793	-19.04855
886.188	10.02541
886.582	46.11785
886.977	61.14564
887.371	-65.16527
887.766	-17.0431
888.16	48.12034
888.554	-43.10638
888.949	-18.04548
889.343	57.13921
889.737	8.02163
890.131	7.01778
890.525	22.05705
890.918	21.05343
891.312	26.06225
891.706	-12.0317
892.099	11.02808
892.492	-35.07683
892.886	29.07246
893.279	10.02597
893.672	22.05662
894.065	-21.05321
894.458	-2.00505
894.851	-3.00733
895.244	28.07236
895.637	2.00487
896.029	22.05472
896.422	29.07127
896.814	3.00762
897.206	12.02906
897.599	-10.02479
897.991	17.04173
898.383	10.02376
898.775	17.03889
899.167	8.01915
899.559	-46.1174
899.951	77.18222
900.342	12.03081
900.734	8.02032
901.125	37.09811
901.517	-45.11206
901.908	-13.03133
902.299	62.15431
902.69	-15.03607
903.082	-22.05328
903.473	28.06837
903.863	-23.05904
904.254	-41.09691
904.645	0
905.036	-39.09705
905.426	48.11035
905.817	7.01744
906.207	13.03169
906.597	5.0119
906.987	-34.08805
907.378	-13.03316
907.768	9.024
908.158	13.032
908.547	17.04484
908.937	-19.04877
909.327	-22.05406
909.717	-7.01777
910.106	21.05153
910.495	13.03248
910.885	51.12963
911.274	-15.0381
911.663	1.00254
912.052	-16.03966
912.441	17.04387
912.83	26.0609
913.219	1.00262
913.608	-24.0588
913.997	13.03318
914.385	2.00486
914.774	13.03194
915.162	20.04862
915.55	16.03866
915.939	-30.0771
916.327	-28.06979
916.715	30.07804
917.103	32.07881
917.491	40.0992
917.878	10.02498
918.266	-9.02342
918.654	18.0462
919.041	-11.029
919.429	-23.05487
919.816	-18.04621
920.203	17.04161
920.591	10.02484
920.978	0
921.365	-5.01324
921.752	-4.00963
922.139	-5.011
922.525	85.20828
922.912	-1.00246
923.299	28.07103
923.685	-30.07895
924.072	12.0279
924.458	3.00753
924.844	16.04042
925.231	31.07313
925.617	48.12431
926.003	32.08187
926.389	-34.08677
926.774	6.01534
927.16	22.05504
927.546	-15.03888
927.931	51.1282
928.317	43.09963
928.702	3.00712
929.088	24.05832
929.473	10.0257
929.858	2.00499
930.243	-21.05136
930.628	24.05954
931.013	-13.0327
931.398	5.01144
931.783	-38.10007
932.167	-18.04431
932.552	-13.03254
932.937	-2.00499
933.321	28.07126
933.705	13.03297
934.09	-25.06262
934.474	20.048
934.858	-52.13592
935.242	-34.08029
935.626	4.01037
936.009	7.01881
936.393	13.03307
936.777	-36.09275
937.16	22.05774
937.544	15.03524
937.927	-31.07974
938.311	17.04163
938.694	8.02105
939.077	-20.04905
939.46	-24.0591
939.843	18.03787
940.226	34.08796
940.609	24.05645
940.991	26.06694
941.374	9.02219
941.757	17.04247
942.139	4.00909
942.522	-19.04514
942.904	-7.01694
943.286	23.05846
943.668	23.06019
944.05	14.03504
944.432	28.07032
944.814	62.15426
945.196	16.04008
945.578	35.08538
945.959	19.04503
946.341	6.01463
946.722	-26.06156
947.104	-19.04583
947.485	9.02148
947.866	4.01026
948.247	-11.02819
948.628	14.03441
949.009	-28.07306
949.39	-1.0025
949.771	32.07498
950.152	3.00747
950.532	-14.03534
950.913	44.10784
951.293	23.06285
951.674	12.02927
952.054	-53.134
952.434	-23.05767
952.814	-48.11427
953.194	-15.03905
953.574	27.06616
953.954	4.00965
954.334	-22.05555
954.714	5.01238
955.093	31.07531
955.473	-26.06605
955.853	-18.04674
956.232	-12.03283
956.611	-6.01441
956.99	-49.12375
957.37	-6.01539
957.749	-12.02898
958.128	-44.11225
958.506	-30.07916
958.885	37.09365
959.264	18.04501
959.643	7.01629
960.021	-22.05506
960.4	-16.03686
960.778	-11.02705
961.156	-22.05624
961.535	25.05864
961.913	31.07313
962.291	22.05729
962.669	-56.14231
963.047	5.01289
963.424	-38.09841
963.802	-15.03729
964.18	-30.07645
964.557	24.05601
964.935	20.04738
965.312	28.07376
965.69	50.12517
966.067	-20.04938
966.444	-7.01738
966.821	13.03337
967.198	-46.11215
967.575	13.03189
967.952	-9.02114
968.329	-19.04685
968.705	35.07671
969.082	24.06254
969.458	-43.10568
969.835	-17.04143
970.211	1.0026
970.587	20.04994
970.963	35.08978
971.339	-49.13015
971.715	21.05275
972.091	-1.00249
972.467	-19.04781
972.843	-13.03303
973.219	30.07161
973.594	-30.07983
973.97	56.13316
974.345	34.08228
974.721	-7.01711
975.096	26.06365
975.471	-53.12562
975.846	-9.02201
976.221	25.06464
976.596	30.07287
976.971	-46.11437
977.346	7.01641
977.72	-41.10484
978.095	-40.10405
978.469	-18.04338
978.844	5.01253
979.218	-19.0469
979.593	-5.01196
979.967	12.02965
980.341	21.04914
980.715	14.0353
981.089	51.12834
981.463	-2.00468
981.837	-13.03239
982.21	-22.0506
982.584	18.04408
982.957	10.02525
983.331	30.07115
983.704	-27.06785
984.078	-15.03734
984.451	-10.02465
984.824	27.06719
985.197	16.03914
985.57	21.05285
985.943	-2.00492
986.316	16.03939
986.688	21.05085
987.061	3.00715
987.434	-6.01568
987.806	-33.08059
988.179	20.04831
988.551	5.01279
988.923	-16.03945
989.295	29.07285
989.667	35.08592
990.039	20.05
990.411	24.05577
990.783	-41.09481
991.155	10.0247
991.527	-11.02681
991.898	-4.01006
992.27	-14.03539
992.641	2.00504
993.012	-23.05502
993.384	-3.00727
993.755	7.01801
994.126	4.0097
994.497	40.09959
994.868	-5.01161
995.239	-35.08637
995.61	6.01536
995.98	5.01237
996.351	18.04537
996.722	3.00711
997.092	-41.09909
997.462	-11.02659
997.833	-44.10519
998.203	-29.07109
998.573	-27.06814
998.943	0
999.313	-41.09916
999.683	-32.07805
1000.053	36.083
1000.423	-18.04403
1000.792	32.08393
1001.162	-3.00747
1001.531	0
1001.901	13.03253
1002.27	16.03642
1002.639	5.01287
1003.009	32.07677
1003.378	-41.10594
1003.747	44.10455
1004.116	7.01701
1004.485	-41.0989
1004.853	-5.01274
1005.222	17.04324
1005.591	14.03353
1005.959	52.12108
1006.328	20.04589
1006.696	-10.02434
1007.064	12.03058
1007.433	-6.01499
1007.801	-8.01956
1008.169	23.05877
1008.537	-17.0379
1008.905	-11.02618
1009.273	9.02241
1009.64	27.06552
1010.008	17.04096
1010.375	-9.02143
1010.743	45.10406
1011.11	14.03365
1011.478	-26.06476
1011.845	43.10109
1012.212	-9.02093
1012.579	23.05669
1012.946	31.07427
1013.313	0
1013.68	13.02935
1014.047	19.04651
1014.414	-9.02165
1014.78	-16.04013
1015.147	31.07464
1015.513	12.02921
1015.88	26.06633
1016.246	3.00744
1016.612	35.08068
1016.978	28.06928
1017.344	1.00249
1017.71	-10.02415
1018.076	5.01184
1018.442	-7.01809
1018.808	31.07801
1019.174	-4.01019
1019.539	48.10898
1019.905	-2.00476
1020.27	-8.02006
1020.636	-1.00241
1021.001	46.11123
1021.366	-67.16369
1021.731	-6.01555
1022.096	-45.11486
1022.461	0
1022.826	37.08891
1023.191	13.03421
1023.556	20.0473
1023.92	1.00246
1024.285	22.05368
1024.649	-2.00492
1025.014	3.00744
1025.378	46.11644
1025.742	25.06246
1026.107	-9.02061
1026.471	3.007
1026.835	-1.00248
1027.199	-3.00736
1027.562	43.10113
1027.926	16.03905
1028.29	33.08486
1028.654	34.0791
1029.017	10.02458
1029.381	43.10513
1029.744	33.08492
1030.107	-5.0118
1030.471	0
1030.834	11.02521
1031.197	-6.01442
1031.56	-13.03092
1031.923	-1.0026
1032.286	-1.00234
1032.648	37.08912
1033.011	9.02124
1033.374	-26.06137
1033.736	11.02935
1034.099	20.04951
1034.461	-28.07286
1034.823	-16.04044
1035.185	-16.04086
1035.548	-9.02223
1035.91	23.0559
1036.272	20.04613
1036.634	-17.04164
1036.995	-15.03544
1037.357	25.06117
1037.719	-9.02197
1038.08	-43.10258
1038.442	8.01916
1038.803	43.10419
1039.165	0
1039.526	-21.05123
1039.887	8.01937
1040.248	25.06296
1040.609	34.08358
1040.97	38.09444
1041.331	-34.08674
1041.692	3.00715
1042.053	-16.03684
1042.413	18.04203
1042.774	-9.02205
1043.134	-11.02617
1043.495	31.07787
1043.855	-8.01956
1044.215	-28.06979
1044.576	-33.08119
1044.936	-33.07573
1045.296	-27.06797
1045.656	23.05669
1046.016	-7.01708
1046.375	43.1058
1046.735	31.07185
1047.095	42.0991
1047.454	-17.03625
1047.814	-51.12339
1048.173	-36.0862
1048.533	-1.00233
1048.892	12.02949
1049.251	-41.10392
1049.61	-29.07274
1049.969	-28.0665
1050.328	0
1050.687	-2.00493
1051.046	19.04639
1051.405	33.08233
1051.763	-19.0446
1052.122	8.02037
1052.48	-43.10654
1052.839	1.00238
1053.197	-36.08544
1053.555	12.02689
1053.914	40.09814
1054.272	-6.01452
1054.63	22.05472
1054.988	18.04302
1055.345	22.04822
1055.703	-13.0313
1056.061	3.00777
1056.419	8.02085
1056.776	-45.10998
1057.134	11.02586
1057.491	-12.03028
1057.848	2.00502
1058.206	29.06879
1058.563	55.12257
1058.92	0
1059.277	-1.00246
1059.634	81.19072
1059.991	-1.00238
1060.348	22.05114
1060.704	-3.00726
1061.061	-15.03424
1061.418	8.01973
1061.774	0
1062.131	-39.10448
1062.487	-45.10703
1062.843	5.01257
1063.199	-24.06013
1063.555	-24.0565
1063.911	43.10922
1064.267	20.04191
1064.623	-23.05703
1064.979	-19.04465
1065.335	-31.07367
1065.691	-16.0383
1066.046	-45.10033
1066.402	-9.02095
1066.757	2.00503
1067.112	-61.15003
1067.468	6.01442
1067.823	20.04845
1068.178	9.02182
1068.533	19.04599
1068.888	22.05306
1069.243	-16.03998
1069.598	30.07361
1069.952	30.06925
1070.307	-5.01262
1070.662	11.02661
1071.016	14.03216
1071.371	14.03219
1071.725	40.09537
1072.079	-28.06763
1072.434	-18.04448
1072.788	33.08011
1073.142	22.05414
1073.496	64.15557
1073.85	-17.03981
1074.203	-16.03873
1074.557	23.06148
1074.911	45.10657
1075.265	-6.01408
1075.618	26.06372
1075.971	13.03126
1076.325	-5.0129
1076.678	85.19827
1077.031	-8.01857
1077.385	41.09156
1077.738	59.13594
1078.091	-5.01178
1078.444	47.10976
1078.796	-6.01487
1079.149	10.0249
1079.502	16.03854
1079.855	52.12256
1080.207	11.02707
1080.56	27.07056
1080.912	29.07104
1081.264	-5.01219
1081.617	72.17738
1081.969	3.00771
1082.321	1.00249
1082.673	30.07043
1083.025	-22.0526
1083.377	-40.08731
1083.728	8.01884
1084.08	2.00507
1084.432	39.09521
1084.783	-51.12046
1085.135	-2.00508
1085.486	5.01175
1085.838	10.02484
1086.189	-29.07172
1086.54	-2.00478
1086.891	-4.01032
1087.242	-35.0864
1087.593	-9.02178
1087.944	38.08775
1088.295	5.01136
1088.646	-10.02453
1088.996	16.03927
1089.347	-23.05717
1089.698	-4.00975
1090.048	-18.04699
1090.398	10.02338
1090.749	-22.05308
1091.099	-1.00255
1091.449	-13.03254
1091.799	78.19597
1092.149	2.00504
1092.499	-16.03908
1092.849	6.01536
1093.199	5.01247
1093.548	4.00968
1093.898	31.07854
1094.248	-12.03086
1094.597	-2.00522
1094.947	11.02944
1095.296	3.00751
1095.645	3.00781
1095.994	38.09241
1096.343	-11.02792
1096.692	6.01605
1097.041	-16.04399
1097.39	-8.02021
1097.739	-24.06248
1098.088	2.00537
1098.437	-40.10704
1098.785	55.14851
1099.134	36.09535
1099.482	-16.04415
1099.83	-19.04979
1100.179	-8.0211
1100.527	55.14657
1100.875	-15.04012
1101.223	1.00265
1101.571	8.02232
1101.919	-10.02664
1102.267	-7.01981
1102.615	1.00322
1102.962	-2.00644
1103.31	2.00644
1103.658	1.00322
