Data from N2 R3 sample 6_Subt2__0__17-30-10-626.txt Node

Date: Wed Aug 27 17:30:10 PDT 2025
User: uwsun
Spectrometer: HDX01956
Trigger mode: 0
Integration Time (sec): 5.000000E-1
Scans to average: 1
Nonlinearity correction enabled: true
Boxcar width: 0
Storing dark spectrum: false
XAxis mode: Wavelengths
Number of Pixels in Spectrum: 2068
>>>>>Begin Spectral Data<<<<<
194.03	173.49215
194.578	168.53755
195.127	186.58583
195.676	162.51314
196.225	158.42334
196.773	177.4915
197.321	235.64619
197.87	364.9173
198.418	383.97257
198.966	381.97775
199.513	360.89585
200.061	411.02651
200.609	372.95916
201.156	402.87145
201.704	370.92908
202.251	392.0111
202.798	409.04792
203.345	415.00125
203.892	358.88732
204.438	408.95732
204.985	366.86181
205.532	376.97014
206.078	423.01751
206.624	381.931
207.17	419.95447
207.716	420.01048
208.262	334.65939
208.808	394.9615
209.354	403.97117
209.899	400.98412
210.445	393.95995
210.99	422.9971
211.535	426.98
212.08	376.87088
212.625	423.02673
213.17	368.90576
213.715	394.87522
214.259	417.94531
214.804	435.04446
215.348	376.8498
215.892	383.9006
216.436	425.95444
216.98	400.87082
217.524	356.83012
218.068	344.84421
218.612	420.0299
219.155	358.83117
219.698	367.85425
220.242	364.8807
220.785	322.74554
221.328	349.85663
221.871	271.67161
222.414	379.92508
222.956	334.79717
223.499	308.69273
224.041	372.86059
224.583	341.72109
225.126	390.85085
225.668	351.84622
226.21	331.81937
226.751	366.7985
227.293	341.76835
227.835	333.79889
228.376	394.89409
228.918	352.86894
229.459	382.93674
230	316.73745
230.541	389.88436
231.082	340.81769
231.622	355.81916
232.163	358.85705
232.704	394.95828
233.244	269.65592
233.784	337.8051
234.324	293.64778
234.864	335.75237
235.404	295.69048
235.944	322.75056
236.484	348.84232
237.023	390.90544
237.563	350.79974
238.102	324.74332
238.641	337.83238
239.18	331.77017
239.719	384.94268
240.258	364.80288
240.797	366.86751
241.335	376.89567
241.874	404.76989
242.412	351.82666
242.95	363.86156
243.488	404.91009
244.026	371.8373
244.564	348.70477
245.102	390.87029
245.64	405.95046
246.177	318.70466
246.715	381.88543
247.252	358.80286
247.789	373.67544
248.326	407.96372
248.863	400.8612
249.4	321.71294
249.936	438.88947
250.473	359.82509
251.009	423.95151
251.546	415.90634
252.082	384.81574
252.618	356.79115
253.154	343.81159
253.69	397.87986
254.226	286.66798
254.761	360.7997
255.297	400.8686
255.832	365.84021
256.367	414.95659
256.903	374.8118
257.438	386.87452
257.972	361.80342
258.507	394.89699
259.042	339.71875
259.576	340.73172
260.111	428.95585
260.645	399.83671
261.179	409.92342
261.713	416.90449
262.247	402.9041
262.781	375.76867
263.315	378.89836
263.849	390.95139
264.382	375.83803
264.915	445.01977
265.449	404.96861
265.982	406.89737
266.515	406.96191
267.048	415.84565
267.58	360.7661
268.113	377.80628
268.646	420.00551
269.178	424.93715
269.71	348.73734
270.243	432.95283
270.775	417.02724
271.307	378.88106
271.838	399.91186
272.37	448.05472
272.902	435.95965
273.433	413.88212
273.965	422.9917
274.496	399.9539
275.027	420.01124
275.558	400.94514
276.089	437.04808
276.62	369.91073
277.15	430.02128
277.681	395.84002
278.211	402.95758
278.741	446.95981
279.272	431.95758
279.802	423.02251
280.332	450.03063
280.861	468.07964
281.391	436.96125
281.921	391.90472
282.45	444.07034
282.98	428.07156
283.509	453.98931
284.038	429.94681
284.567	389.87505
285.096	414.9657
285.625	389.85424
286.153	419.95563
286.682	445.99647
287.21	432.00119
287.739	433.99073
288.267	462.0755
288.795	480.20153
289.323	474.06307
289.851	466.03567
290.378	449.98762
290.906	460.0847
291.433	433.03571
291.961	517.12709
292.488	434.02645
293.015	480.08008
293.542	465.13223
294.069	494.16635
294.596	459.08171
295.122	476.08635
295.649	446.94331
296.175	509.17834
296.702	460.06452
297.228	515.17952
297.754	465.0024
298.28	473.03668
298.806	477.08273
299.332	540.14769
299.857	491.05674
300.383	534.26044
300.908	500.1737
301.433	469.0856
301.958	541.19643
302.483	554.31225
303.008	495.14045
303.533	565.38322
304.058	487.08086
304.582	543.22831
305.107	539.32681
305.631	553.18072
306.155	551.21959
306.679	551.22213
307.203	547.19865
307.727	605.35151
308.251	515.18612
308.775	539.20935
309.298	536.22498
309.822	567.33403
310.345	559.2363
310.868	570.27088
311.391	537.22801
311.914	621.4561
312.437	582.22367
312.96	577.26926
313.482	569.26263
314.005	592.39749
314.527	567.38504
315.049	595.38966
315.571	584.21925
316.093	649.47075
316.615	610.35456
317.137	623.24929
317.659	603.33374
318.18	668.46076
318.702	674.45217
319.223	626.19027
319.744	683.40638
320.265	661.46702
320.786	664.51298
321.307	706.60034
321.828	638.31566
322.348	610.31245
322.869	719.54955
323.389	889.29372
323.909	753.55556
324.43	729.55702
324.95	714.48117
325.47	766.69002
325.989	775.62036
326.509	755.50953
327.029	815.63115
327.548	744.49815
328.067	859.82698
328.587	729.59863
329.106	836.69906
329.625	767.7741
330.144	800.61254
330.662	803.65007
331.181	816.65988
331.7	814.65731
332.218	846.58993
332.736	833.67644
333.255	862.74798
333.773	837.70766
334.291	864.83483
334.808	845.62114
335.326	917.75781
335.844	973.91639
336.361	996.11907
336.879	990.95948
337.396	968.95868
337.913	1042.01983
338.43	996.85498
338.947	1004.99739
339.464	1001.80226
339.981	997.96922
340.497	1014.06799
341.014	1009.04989
341.53	1065.95686
342.046	1053.10653
342.562	1136.25149
343.078	1076.05624
343.594	1124.16368
344.11	1122.11967
344.626	1108.24271
345.141	1110.99852
345.657	1174.03131
346.172	1142.20156
346.687	1151.09602
347.202	1189.1111
347.717	1211.24002
348.232	1274.47648
348.747	1186.13882
349.261	1221.05688
349.776	1272.30497
350.29	1290.46513
350.805	1361.55698
351.319	1267.25017
351.833	1294.25056
352.347	1287.30228
352.861	1293.30834
353.374	1309.23925
353.888	1290.30826
354.401	1349.33012
354.915	1432.40478
355.428	1413.59307
355.941	1429.4146
356.454	1400.23932
356.967	1429.43403
357.48	1383.2963
357.993	1418.54217
358.505	1480.62287
359.018	1496.64185
359.53	1432.45282
360.042	1494.32244
360.554	1468.50153
361.066	1509.63683
361.578	1462.23554
362.09	1508.53735
362.602	1457.23108
363.113	1564.49549
363.625	1609.41753
364.136	1580.346
364.647	1581.50653
365.158	1616.55604
365.669	1707.73897
366.18	1653.59368
366.691	1643.37875
367.201	1707.67018
367.712	1734.59163
368.222	1685.49122
368.733	1704.35193
369.243	1758.46177
369.753	1770.55217
370.263	1850.81683
370.773	1887.97723
371.282	1868.74207
371.792	1922.66901
372.301	2005.9195
372.811	2008.1799
373.32	1981.44163
373.829	2001.70703
374.338	2142.56392
374.847	2067.63785
375.356	2249.78399
375.865	2380.37248
376.373	2357.56357
376.882	2469.07005
377.39	2488.83934
377.898	2630.98727
378.407	2766.56262
378.915	2734.20628
379.423	3001.54608
379.93	3027.30292
380.438	3159.61156
380.946	3318.27498
381.453	3371.41166
381.96	3578.1166
382.468	3792.91658
382.975	4079.87849
383.482	4255.43799
383.989	4275.061
384.495	4524.26571
385.002	4667.59617
385.509	4933.84709
386.015	5231.97079
386.521	5542.17601
387.028	5659.11136
387.534	5767.84543
388.04	6059.12433
388.546	6273.93095
389.051	6438.85684
389.557	7106.35903
390.063	7671.02371
390.568	8062.63476
391.073	8159.96678
391.578	8615.98264
392.084	8808.7922
392.589	9066.10997
393.093	9715.39307
393.598	10534.49887
394.103	11451.90529
394.607	12659.47969
395.112	13604.45719
395.616	14592.91958
396.12	15859.62289
396.624	17667.41892
397.128	18826.4155
397.632	21044.57709
398.136	23108.35589
398.639	24202.83296
399.143	26596.05643
399.646	30138.15238
400.15	33519.11573
400.653	36559.82114
401.156	40980.48678
401.659	47475.1688
402.162	52370.06811
402.664	47232.07109
403.167	32260.27245
403.67	3851.94142
404.172	0
404.674	0
405.176	0
405.678	0
406.18	0
406.682	0
407.184	0
407.686	12367.42319
408.187	34596.90747
408.688	44563.94194
409.19	48906.19284
409.691	51236.67962
410.192	52883.26968
410.693	53713.23343
411.194	54189.54801
411.694	54767.79104
412.195	55625.98899
412.696	55971.27715
413.196	53332.06273
413.696	51198.48425
414.196	52148.58191
414.696	52051.86924
415.196	50009.36943
415.696	46015.87507
416.196	38612.75595
416.695	29414.90925
417.195	24796.31085
417.694	23086.85818
418.194	22041.40911
418.693	20512.11149
419.192	19771.5188
419.691	19377.64855
420.19	19048.12407
420.688	18559.72796
421.187	17794.01407
421.685	16569.3635
422.184	15256.37754
422.682	13247.42408
423.18	11401.8948
423.678	10033.5565
424.176	9308.39245
424.674	8722.38802
425.172	8302.14035
425.669	7889.33883
426.167	7316.59979
426.664	6762.18301
427.161	6164.15163
427.659	5657.58832
428.156	5367.08531
428.652	4992.36942
429.149	4761.23479
429.646	4586.9614
430.143	4435.506
430.639	4174.64314
431.135	3805.23507
431.632	3673.95474
432.128	3367.19266
432.624	3191.76382
433.12	3065.16644
433.616	3007.06026
434.111	2884.58452
434.607	2715.60868
435.103	2636.09536
435.598	2512.97395
436.093	2516.52817
436.588	2386.33824
437.083	2358.47239
437.578	2110.33931
438.073	2076.83002
438.568	2050.7048
439.062	1827.142
439.557	1847.45714
440.051	1804.37909
440.546	1738.37073
441.04	1666.47386
441.534	1706.65412
442.028	1625.4057
442.522	1602.42331
443.015	1574.16696
443.509	1552.48454
444.002	1510.42625
444.496	1422.01406
444.989	1429.33571
445.482	1412.37738
445.975	1417.15022
446.468	1450.07477
446.961	1363.9032
447.454	1367.13258
447.947	1347.174
448.439	1324.22837
448.931	1201.88477
449.424	1290.28472
449.916	1215.09981
450.408	1228.93239
450.9	1174.02382
451.392	1124.08428
451.884	1162.91746
452.375	1077.9839
452.867	1070.74168
453.358	1037.75243
453.849	1089.69431
454.341	1035.70566
454.832	1044.66317
455.323	1034.91639
455.814	1014.74261
456.304	1023.76888
456.795	1032.79251
457.285	974.63184
457.776	1016.70895
458.266	998.8257
458.756	1030.9014
459.247	913.71314
459.737	948.79333
460.226	938.64339
460.716	891.68081
461.206	885.68985
461.695	912.81838
462.185	882.66421
462.674	855.56791
463.163	928.62243
463.653	800.36439
464.142	812.59256
464.63	814.60474
465.119	766.45557
465.608	764.46374
466.096	735.34271
466.585	737.41839
467.073	698.39896
467.561	719.44476
468.05	708.38112
468.538	726.49135
469.026	599.22489
469.513	649.15961
470.001	762.49154
470.489	738.50445
470.976	614.20597
471.463	648.38415
471.951	597.28086
472.438	601.23065
472.925	601.24731
473.412	564.2071
473.899	585.17297
474.385	536.16833
474.872	558.14582
475.359	597.29187
475.845	536.00003
476.331	576.10832
476.817	500.08329
477.303	534.10533
477.789	498.07711
478.275	455.02394
478.761	517.12567
479.247	466.93943
479.732	463.05175
480.218	426.00283
480.703	452.01738
481.188	398.78021
481.673	408.86181
482.158	472.94015
482.643	375.88386
483.128	409.87547
483.612	407.87909
484.097	412.93114
484.581	333.71712
485.066	376.85533
485.55	399.8149
486.034	313.6471
486.518	293.6448
487.002	355.82958
487.486	358.82295
487.969	293.67854
488.453	318.74969
488.936	296.63731
489.42	288.61209
489.903	298.7031
490.386	332.52508
490.869	267.55546
491.352	247.56908
491.835	252.50264
492.318	310.67347
492.8	280.57018
493.283	260.62889
493.765	247.58538
494.247	259.57907
494.73	171.36795
495.212	183.42264
495.694	240.54334
496.175	182.42276
496.657	230.52367
497.139	241.41237
497.62	221.51223
498.102	281.67442
498.583	232.56202
499.064	172.37241
499.545	184.41097
500.026	208.4567
500.507	183.41675
500.988	211.50701
501.469	178.43543
501.949	173.41176
502.43	163.38259
502.91	157.32473
503.39	163.39614
503.87	167.386
504.35	182.41556
504.83	156.33907
505.31	181.42666
505.79	175.41188
506.269	164.37386
506.749	152.34203
507.228	103.24035
507.707	159.34493
508.187	130.30365
508.666	148.3526
509.145	113.26181
509.623	135.31563
510.102	134.31888
510.581	113.26513
511.059	130.32238
511.538	131.32871
512.016	177.41788
512.494	174.41708
512.972	68.15977
513.45	133.30693
513.928	151.36147
514.406	121.29286
514.884	137.34525
515.361	99.23192
515.839	132.29861
516.316	127.30263
516.793	119.29645
517.27	89.21281
517.747	150.37943
518.224	78.17882
518.701	138.30454
519.178	71.17469
519.654	85.19975
520.131	53.13045
520.607	67.16393
521.083	85.19436
521.56	57.13379
522.036	86.18867
522.512	88.21223
522.987	86.20371
523.463	91.21543
523.939	89.21363
524.414	92.21168
524.89	131.30904
525.365	43.09706
525.84	29.0695
526.315	120.286
526.79	43.09674
527.265	69.15879
527.74	71.17094
528.215	118.28102
528.689	79.17474
529.164	62.13636
529.638	73.18581
530.112	57.13484
530.587	102.22123
531.061	70.16939
531.534	105.25327
532.008	96.23073
532.482	46.10487
532.956	24.06095
533.429	57.13661
533.903	51.11238
534.376	137.30315
534.849	52.11945
535.322	72.16969
535.795	34.08252
536.268	98.23438
536.741	66.1564
537.213	57.13128
537.686	35.08516
538.158	76.172
538.631	40.09567
539.103	92.20804
539.575	49.10244
540.047	43.09603
540.519	52.12284
540.991	41.09894
541.463	46.11077
541.934	16.03661
542.406	18.04272
542.877	17.03823
543.348	-19.04496
543.82	44.10672
544.291	25.05769
544.762	18.04298
545.233	23.05724
545.703	106.23284
546.174	65.15066
546.645	64.15306
547.115	101.24151
547.585	58.13131
548.056	78.18533
548.526	134.30954
548.996	93.21914
549.466	68.16282
549.935	124.28986
550.405	112.24312
550.875	66.15483
551.344	100.23477
551.814	111.25177
552.283	122.25896
552.752	71.16215
553.221	100.21587
553.69	113.24451
554.159	111.26795
554.628	149.32902
555.096	133.32686
555.565	170.3761
556.033	125.2872
556.502	129.3068
556.97	112.24198
557.438	89.20662
557.906	103.23997
558.374	72.16434
558.842	80.18943
559.31	76.16996
559.777	71.17042
560.245	79.18079
560.712	38.08733
561.18	58.1288
561.647	14.03131
562.114	53.1229
562.581	16.03876
563.048	113.25682
563.514	88.21319
563.981	85.19319
564.448	8.01799
564.914	17.03915
565.381	66.14797
565.847	59.13605
566.313	90.20873
566.779	74.16761
567.245	25.05772
567.711	15.03605
568.176	46.10236
568.642	26.06436
569.108	33.08026
569.573	97.22207
570.038	57.11969
570.504	91.20221
570.969	67.16168
571.434	55.11896
571.899	71.16626
572.363	45.10082
572.828	47.10452
573.293	83.18841
573.757	66.14845
574.222	107.23549
574.686	59.13137
575.15	68.15939
575.614	57.12929
576.078	70.15971
576.542	83.18366
577.006	75.16492
577.469	61.14313
577.933	111.24357
578.396	73.16847
578.86	57.13123
579.323	69.16196
579.786	55.11646
580.249	52.11653
580.712	56.13224
581.175	102.24357
581.637	66.14699
582.1	31.06584
582.563	50.10544
583.025	61.14424
583.487	112.22444
583.95	75.15986
584.412	46.09457
584.874	27.06451
585.336	34.07932
585.797	29.06197
586.259	44.10132
586.721	52.12012
587.182	62.13991
587.643	13.02878
588.105	-3.00688
588.566	37.07557
589.027	44.10314
589.488	-9.0201
589.949	71.166
590.41	25.04904
590.87	31.06751
591.331	22.04666
591.791	42.09466
592.252	-39.08788
592.712	18.0415
593.172	49.10734
593.632	34.0711
594.092	36.07778
594.552	-11.02299
595.011	47.10513
595.471	66.14278
595.931	26.05622
596.39	74.17224
596.849	63.14156
597.308	8.01659
597.768	100.24536
598.227	64.14708
598.685	110.23899
599.144	81.18357
599.603	79.1797
600.062	126.25798
600.52	120.25705
600.978	119.27013
601.437	93.20356
601.895	123.24631
602.353	102.21433
602.811	185.39071
603.269	115.25978
603.727	214.47896
604.184	151.32548
604.642	154.35263
605.099	192.42405
605.557	205.46553
606.014	215.43453
606.471	276.63804
606.928	243.48661
607.385	273.61767
607.842	332.70129
608.299	368.77699
608.755	321.70078
609.212	359.73221
609.668	316.64319
610.125	328.71348
610.581	338.71209
611.037	354.72283
611.493	322.68912
611.949	297.65251
612.405	338.63691
612.861	323.68423
613.316	402.87294
613.772	364.74629
614.227	343.72373
614.683	379.73014
615.138	358.76449
615.593	388.82424
616.048	395.81808
616.503	301.6638
616.958	385.86215
617.412	378.80965
617.867	383.77974
618.321	434.81743
618.776	418.82639
619.23	383.8099
619.684	424.86772
620.138	314.65367
620.592	300.6645
621.046	331.70056
621.5	317.7099
621.954	366.7453
622.407	314.64174
622.861	330.73977
623.314	291.61025
623.768	323.692
624.221	274.50438
624.674	300.63648
625.127	287.61727
625.58	306.6305
626.033	252.51106
626.485	287.64405
626.938	300.65397
627.39	326.7019
627.843	238.51222
628.295	266.56879
628.747	279.61889
629.199	286.60413
629.651	231.50132
630.103	310.66143
630.555	284.57306
631.006	311.67521
631.458	307.68015
631.909	264.5628
632.361	287.62975
632.812	275.59986
633.263	258.52251
633.714	290.59135
634.165	247.55794
634.616	209.47057
635.067	241.4978
635.518	275.61357
635.968	265.50143
636.419	282.57399
636.869	243.53702
637.319	338.74772
637.769	253.53431
638.219	288.64536
638.669	245.55184
639.119	298.66887
639.569	325.73261
640.019	321.68475
640.468	323.67495
640.918	349.76738
641.367	346.72766
641.816	325.66708
642.265	327.69754
642.714	344.73587
643.163	353.74908
643.612	388.8669
644.061	411.79522
644.51	461.95689
644.958	437.88684
645.406	452.98525
645.855	436.98977
646.303	429.91907
646.751	457.95113
647.199	493.0005
647.647	505.04123
648.095	501.03529
648.543	538.99892
648.99	530.14351
649.438	476.99529
649.885	487.07638
650.333	540.94186
650.78	547.18806
651.227	582.26661
651.674	546.12467
652.121	598.29762
652.568	614.32955
653.015	601.3536
653.461	576.21795
653.908	593.21644
654.354	627.32392
654.801	645.36138
655.247	616.17463
655.693	584.3514
656.139	664.42204
656.585	698.47112
657.031	656.37342
657.477	718.35891
657.922	709.43577
658.368	692.51138
658.813	711.43654
659.259	662.40371
659.704	695.42214
660.149	745.51289
660.594	726.50475
661.039	741.45482
661.484	775.58676
661.929	791.57503
662.373	814.78251
662.818	803.71372
663.262	833.71485
663.707	862.85359
664.151	856.75632
664.595	900.85663
665.039	897.87481
665.483	951.05508
665.927	886.73136
666.371	1012.96023
666.814	1000.96917
667.258	985.93824
667.701	1117.89221
668.145	1092.19924
668.588	1065.13156
669.031	1095.09616
669.474	1088.11721
669.917	1154.98723
670.36	1211.37209
670.803	1250.35187
671.245	1260.05492
671.688	1236.33111
672.13	1328.30031
672.573	1315.57019
673.015	1312.41248
673.457	1414.28485
673.899	1329.4566
674.341	1302.41069
674.783	1432.57782
675.225	1429.66295
675.666	1475.65757
676.108	1453.24313
676.549	1530.60231
676.991	1612.50054
677.432	1695.34898
677.873	1538.56871
678.314	1608.73589
678.755	1663.89703
679.196	1692.73971
679.637	1713.9321
680.078	1726.78911
680.518	1741.75512
680.959	1760.83988
681.399	1810.07001
681.839	1871.05952
682.28	1891.16372
682.72	1956.92879
683.16	1957.24554
683.6	1973.83559
684.039	1986.51017
684.479	2009.20562
684.919	2074.06426
685.358	2160.42252
685.798	2212.73984
686.237	2219.25113
686.676	2241.98872
687.115	2295.16765
687.554	2380.28352
687.993	2402.92952
688.432	2392.08099
688.871	2392.07487
689.309	2497.36148
689.748	2600.72889
690.186	2603.35923
690.625	2682.32029
691.063	2682.45356
691.501	2774.62252
691.939	2815.72512
692.377	2851.58584
692.815	2899.4498
693.253	2940.40395
693.69	2913.97185
694.128	3021.57321
694.565	3105.39998
695.003	3084.77402
695.44	3206.37387
695.877	3296.30736
696.314	3290.77961
696.751	3384.01978
697.188	3433.07477
697.625	3394.03018
698.061	3488.45298
698.498	3646.39584
698.934	3649.36169
699.371	3666.2377
699.807	3747.23278
700.243	3779.27757
700.679	3855.87741
701.115	3901.99147
701.551	3964.04972
701.987	4077.75489
702.422	4261.06322
702.858	4269.08289
703.294	4350.53361
703.729	4355.15634
704.164	4433.97841
704.599	4570.39574
705.035	4693.40121
705.47	4673.92134
705.904	4835.65593
706.339	4978.43806
706.774	5094.518
707.209	5115.42868
707.643	5206.57228
708.078	5188.64919
708.512	5380.82547
708.946	5518.33345
709.38	5643.27544
709.814	5663.08536
710.248	5812.41529
710.682	5902.20572
711.116	6008.28798
711.549	6088.76857
711.983	6193.89036
712.416	6284.96545
712.85	6367.34428
713.283	6509.88156
713.716	6627.19837
714.149	6732.86864
714.582	6827.62652
715.015	6901.17558
715.448	7034.27345
715.881	7147.38525
716.313	7172.74731
716.746	7264.90468
717.178	7545.09967
717.61	7697.38763
718.043	7683.29835
718.475	7902.26887
718.907	7967.46549
719.339	8141.27778
719.77	8254.50512
720.202	8416.90964
720.634	8474.84436
721.065	8781.16516
721.497	8799.2686
721.928	9062.68429
722.359	9096.72415
722.79	9172.83623
723.221	9323.17041
723.652	9503.56139
724.083	9611.75219
724.514	9666.8921
724.945	9841.33092
725.375	10251.52336
725.806	10139.13209
726.236	10340.69668
726.666	10490.29111
727.096	10662.79829
727.526	10934.70985
727.956	10985.28778
728.386	11284.24614
728.816	11388.49407
729.246	11478.20119
729.675	11543.46563
730.105	11773.55267
730.534	11971.94134
730.964	12149.3975
731.393	12270.27933
731.822	12511.44926
732.251	12847.40214
732.68	12999.38053
733.109	13159.68288
733.537	13337.28113
733.966	13580.8053
734.395	13780.25426
734.823	13863.28822
735.251	14070.03563
735.68	14387.22163
736.108	14452.45555
736.536	14539.19768
736.964	14651.63346
737.392	15044.03501
737.82	15111.76907
738.247	15430.45798
738.675	15548.16987
739.102	15705.2509
739.53	15670.86421
739.957	16012.23751
740.384	16230.60401
740.811	16386.55964
741.238	16548.22648
741.665	16588.65817
742.092	16731.74476
742.519	16868.14005
742.945	16871.18396
743.372	17364.20318
743.798	17346.08147
744.225	17325.5615
744.651	17557.29231
745.077	17705.27297
745.503	17772.44101
745.929	18048.45799
746.355	18141.69893
746.781	18057.83099
747.207	18225.29505
747.632	18112.7111
748.058	18509.73075
748.483	18676.49885
748.908	18738.55012
749.334	18983.91557
749.759	18829.85029
750.184	18897.80094
750.609	18976.32633
751.033	18951.40299
751.458	19162.23909
751.883	19079.65862
752.307	19179.59476
752.732	19279.09701
753.156	19166.23149
753.58	19208.26292
754.005	19259.11195
754.429	19191.01754
754.853	19160.98558
755.277	19080.73571
755.7	18997.15789
756.124	19234.17058
756.548	18951.3866
756.971	19086.63157
757.394	18944.34327
757.818	18958.44497
758.241	18798.73657
758.664	18902.91134
759.087	18695.55242
759.51	18564.41268
759.933	18671.75274
760.356	18511.02445
760.778	18400.87935
761.201	18225.41937
761.623	17863.96474
762.046	17663.37569
762.468	17791.4805
762.89	17799.1535
763.312	17424.62639
763.734	17275.87634
764.156	17211.44219
764.578	17059.56145
765	16768.45284
765.421	16608.32449
765.843	16534.39556
766.264	16117.95256
766.686	15852.18871
767.107	15805.05423
767.528	15589.98269
767.949	15603.40175
768.37	15415.87219
768.791	14948.78194
769.212	14794.41884
769.632	14568.76262
770.053	14474.07271
770.473	14298.85976
770.894	14041.52765
771.314	13857.70622
771.734	13579.51819
772.154	13373.88695
772.575	13155.6297
772.994	13054.00727
773.414	12879.3118
773.834	12612.29912
774.254	12400.97479
774.673	12354.89045
775.093	12057.08744
775.512	11891.09878
775.931	11711.0696
776.351	11424.87037
776.77	11279.22982
777.189	11106.67047
777.607	10766.12018
778.026	10679.8713
778.445	10337.71439
778.864	10268.48024
779.282	10050.88938
779.701	9877.40629
780.119	9811.24385
780.537	9531.59818
780.955	9166.90732
781.373	9023.59879
781.791	8996.40626
782.209	8845.1477
782.627	8536.16024
783.045	8514.69149
783.462	8204.71192
783.88	8144.79771
784.297	7914.512
784.715	7727.52284
785.132	7546.07286
785.549	7324.26724
785.966	7220.2051
786.383	7082.08173
786.8	6991.65165
787.217	6655.85457
787.633	6570.33116
788.05	6353.78562
788.466	6347.87188
788.883	6194.50415
789.299	6109.08928
789.715	5867.35658
790.131	5808.52264
790.547	5567.53588
790.963	5431.68251
791.379	5254.87739
791.795	5221.06715
792.21	5097.43585
792.626	4923.54335
793.041	4738.02634
793.457	4735.98145
793.872	4619.6526
794.287	4519.05067
794.702	4356.11394
795.117	4268.40926
795.532	4198.42014
795.947	4029.12445
796.362	3916.02489
796.776	3928.86821
797.191	3784.46257
797.605	3626.24748
798.02	3540.47366
798.434	3446.83199
798.848	3395.5707
799.262	3258.6617
799.676	3212.41675
800.09	3013.45682
800.504	2979.47823
800.918	2885.21855
801.331	2830.85741
801.745	2707.05247
802.158	2616.60079
802.572	2632.30832
802.985	2539.35512
803.398	2426.26558
803.811	2325.52821
804.224	2285.37612
804.637	2207.16371
805.05	2228.05611
805.462	2165.33013
805.875	1995.47902
806.288	1931.01934
806.7	1892.19341
807.112	1890.85014
807.525	1833.03449
807.937	1783.04227
808.349	1729.97997
808.761	1703.87798
809.173	1599.77473
809.584	1537.70416
809.996	1542.78374
810.408	1529.95722
810.819	1502.61567
811.231	1426.88333
811.642	1380.5808
812.053	1406.55901
812.464	1358.46761
812.875	1381.72596
813.286	1241.50946
813.697	1185.08882
814.108	1152.21877
814.519	1124.94874
814.929	1117.26864
815.34	1073.10126
815.75	992.10236
816.16	1036.11103
816.571	997.17561
816.981	913.772
817.391	880.80885
817.801	839.79214
818.211	838.68922
818.62	845.75671
819.03	821.73553
819.44	811.82618
819.849	756.67489
820.259	740.64419
820.668	709.54365
821.077	735.6226
821.486	679.45701
821.895	652.41854
822.304	645.53005
822.713	601.2756
823.122	587.31665
823.531	542.15795
823.939	593.30559
824.348	568.24917
824.756	557.26717
825.164	547.24188
825.573	498.1558
825.981	452.02319
826.389	549.25951
826.797	494.15508
827.205	523.11029
827.612	431.98616
828.02	463.01728
828.428	464.09076
828.835	398.98389
829.243	361.80942
829.65	358.84397
830.057	321.7357
830.464	344.79268
830.871	349.78219
831.278	388.8812
831.685	346.73407
832.092	317.74341
832.499	347.72124
832.905	277.67214
833.312	307.66795
833.718	263.62715
834.124	255.55765
834.531	289.69783
834.937	274.67445
835.343	273.63474
835.749	261.58427
836.155	217.55503
836.561	164.39341
836.966	211.4995
837.372	214.5326
837.777	160.39183
838.183	230.49862
838.588	237.57294
838.993	163.38468
839.399	240.57768
839.804	172.41496
840.209	184.46094
840.613	213.46325
841.018	161.40078
841.423	175.43927
841.828	149.3701
842.232	170.40889
842.637	141.32863
843.041	162.40949
843.445	171.42195
843.849	151.36918
844.253	131.3064
844.657	118.29646
845.061	152.33852
845.465	155.37345
845.869	169.38658
846.272	106.25902
846.676	117.27377
847.079	126.31952
847.483	119.29105
847.886	122.29222
848.289	89.23686
848.692	68.17085
849.095	122.29044
849.498	110.27209
849.901	144.32588
850.304	94.22163
850.707	89.22461
851.109	70.17442
851.512	126.30972
851.914	124.31667
852.316	104.26148
852.718	166.4321
853.121	82.20246
853.523	105.25069
853.925	93.24296
854.326	67.16885
854.728	63.16234
855.13	37.0959
855.531	94.22721
855.933	94.2249
856.334	44.11015
856.736	123.28023
857.137	50.11789
857.538	87.2205
857.939	99.24681
858.34	76.18488
858.741	97.25185
859.142	23.05548
859.542	30.07954
859.943	133.33048
860.343	65.16346
860.744	71.17249
861.144	52.12716
861.544	90.22
861.945	41.10535
862.345	31.07613
862.745	29.07217
863.145	32.07612
863.544	67.16939
863.944	89.21216
864.344	17.0422
864.743	51.12567
865.143	95.24436
865.542	44.10366
865.941	4.00997
866.34	-18.04341
866.74	31.08327
867.139	40.09647
867.537	64.16293
867.936	63.15191
868.335	32.08152
868.734	15.03875
869.132	44.1029
869.531	-1.0024
869.929	77.17876
870.327	67.16265
870.726	4.00997
871.124	24.05604
871.522	15.03829
871.92	76.18764
872.318	30.07325
872.715	-4.00987
873.113	34.08358
873.511	-17.04215
873.908	-5.01279
874.306	49.12322
874.703	41.10258
875.1	20.0509
875.497	32.07732
875.894	31.07751
876.291	-40.09865
876.688	19.04937
877.085	18.04341
877.482	38.09568
877.878	7.0172
878.275	14.03578
878.671	-16.03549
879.068	40.09683
879.464	79.19186
879.86	14.03382
880.256	28.06916
880.652	56.14387
881.048	30.07451
881.444	15.03573
881.84	34.0872
882.236	-26.06614
882.631	24.0591
883.027	14.03379
883.422	33.08542
883.817	28.07194
884.213	58.14937
884.608	51.12761
885.003	44.10812
885.398	12.03046
885.793	27.06843
886.188	51.12866
886.582	72.18362
886.977	41.09826
887.371	-15.0378
887.766	-17.0431
888.16	55.13771
888.554	-8.01967
888.949	-8.02018
889.343	37.0907
889.737	-2.00542
890.131	-16.0408
890.525	38.09827
890.918	1.00255
891.312	15.03599
891.706	-1.00264
892.099	21.05351
892.492	6.01306
892.886	38.09479
893.279	53.13662
893.672	22.05662
894.065	29.07282
894.458	-13.03287
894.851	6.01463
895.244	38.09804
895.637	37.08942
896.029	27.06709
896.422	25.06149
896.814	52.13098
897.206	13.03148
897.599	34.08361
897.991	-8.01973
898.383	-21.0502
898.775	5.01147
899.167	34.081
899.559	3.00759
899.951	35.0835
900.342	39.09965
900.734	-8.02038
901.125	59.15587
901.517	-3.00741
901.908	16.03835
902.299	34.08506
902.69	15.03587
903.082	-10.02416
903.473	10.0245
903.863	-24.06162
904.254	-49.116
904.645	-6.01486
905.036	9.0222
905.426	46.1058
905.817	39.09663
906.207	-6.01468
906.597	0
906.987	-39.10109
907.378	1.00254
907.768	33.08765
908.158	5.01232
908.547	13.03431
908.937	-29.07457
909.327	22.05362
909.717	9.02279
910.106	25.06131
910.495	8.02001
910.885	31.07907
911.274	31.0781
911.663	-30.0767
912.052	9.02221
912.441	16.04129
912.83	43.10038
913.219	-28.07364
913.608	-24.0588
913.997	-6.01537
914.385	12.02912
914.774	29.07104
915.162	10.02435
915.55	19.04588
915.939	-10.02561
916.327	-59.14789
916.715	25.06509
917.103	36.08859
917.491	44.10904
917.878	51.12645
918.266	-12.03125
918.654	16.04108
919.041	1.00263
919.429	-10.0238
919.816	27.06877
920.203	-16.0394
920.591	-31.07759
920.978	33.08098
921.365	15.0396
921.752	-45.1092
922.139	-24.05301
922.525	44.10864
922.912	14.03429
923.299	34.08616
923.685	-4.01048
924.072	23.05335
924.458	1.00251
924.844	9.02276
925.231	-5.01188
925.617	43.11145
926.003	23.05894
926.389	-2.00508
926.774	14.03575
927.16	38.09479
927.546	2.00517
927.931	39.09825
928.317	22.05119
928.702	1.00237
929.088	72.17338
929.473	25.06408
929.858	5.01247
930.243	25.06062
930.628	6.01493
931.013	-19.04785
931.398	18.04107
931.783	-27.07097
932.167	-20.04925
932.552	-34.08542
932.937	6.01496
933.321	12.03063
933.705	-13.03312
934.09	-44.11059
934.474	9.02164
934.858	10.02586
935.242	-25.05893
935.626	-2.00519
936.009	15.04025
936.393	-18.04603
936.777	-44.11352
937.16	21.05512
937.544	21.04927
937.927	-50.12904
938.311	50.12168
938.694	-3.00791
939.077	-15.03676
939.46	-7.01718
939.843	26.05461
940.226	13.03375
940.609	60.14015
940.991	40.10273
941.374	-16.03963
941.757	82.20246
942.139	0
942.522	-23.05468
942.904	-21.05096
943.286	16.04072
943.668	47.12249
944.05	0
944.432	38.09527
944.814	71.17636
945.196	26.06502
945.578	7.01717
945.959	13.03085
946.341	37.08969
946.722	0
947.104	-38.09199
947.485	2.00478
947.866	17.04348
948.247	-18.04618
948.628	9.02214
949.009	-3.00779
949.39	2.00499
949.771	37.08661
950.152	35.08665
950.532	-18.04547
950.913	22.05414
951.293	33.09003
951.674	-39.09603
952.054	18.04493
952.434	30.07451
952.814	-48.11427
953.194	-48.12568
953.574	9.02213
953.954	-8.01935
954.334	4.01005
954.714	-10.02484
955.093	-7.01713
955.473	-4.01012
955.853	-15.03893
956.232	-6.0164
956.611	-7.01681
956.99	-44.11102
957.37	2.00512
957.749	-15.03625
958.128	2.00506
958.506	16.04189
958.885	28.07098
959.264	2.00502
959.643	51.11765
960.021	17.04224
960.4	-32.07395
960.778	-17.04186
961.156	-3.00764
961.535	4.00942
961.913	25.05905
962.291	-10.02618
962.669	-39.09881
963.047	17.04373
963.424	10.02568
963.802	-8.01986
964.18	35.08817
964.557	42.09768
964.935	-25.05973
965.312	38.09993
965.69	25.06287
966.067	-11.02711
966.444	-32.07979
966.821	-11.02835
967.198	-23.05584
967.575	-20.04936
967.952	-38.08977
968.329	2.00491
968.705	12.02643
969.082	26.06773
969.458	-19.04649
969.835	16.03875
970.211	25.06471
970.587	-48.12133
970.963	-1.00258
971.339	1.00263
971.715	10.02517
972.091	3.00748
972.467	15.03752
972.843	7.01772
973.219	8.01918
973.594	13.03434
973.97	25.0598
974.345	7.01703
974.721	29.0704
975.096	4.00983
975.471	-67.15923
975.846	-8.01956
976.221	30.0775
976.596	2.00488
976.971	-32.07936
977.346	-10.02351
977.72	-44.11257
978.095	-44.11454
978.469	-6.01443
978.844	1.00251
979.218	1.00246
979.593	-24.0576
979.967	47.11538
980.341	29.06775
980.715	-36.09158
981.089	31.07829
981.463	-1.00234
981.837	-9.0224
982.21	-76.17668
982.584	-30.07413
982.957	0
983.331	-28.06714
983.704	-26.06532
984.078	-2.00497
984.451	-63.15683
984.824	9.02247
985.197	-6.01474
985.57	32.08037
985.943	-25.06178
986.316	4.00987
986.688	-23.05615
987.061	36.08528
987.434	-18.04715
987.806	-24.05852
988.179	46.11056
988.551	22.05613
988.923	5.01228
989.295	18.04531
989.667	58.14178
990.039	-22.05541
990.411	23.05346
990.783	-45.10414
991.155	30.07383
991.527	-42.10297
991.898	11.02758
992.27	15.03772
992.641	17.04275
993.012	15.03562
993.384	-5.01212
993.755	-16.04132
994.126	-13.03163
994.497	40.09959
994.868	-1.00232
995.239	12.02936
995.61	35.08912
995.98	-12.02979
996.351	-4.01012
996.722	25.05902
997.092	-18.04331
997.462	28.0672
997.833	-40.09556
998.203	1.00244
998.573	-23.058
998.943	1.00239
999.313	-33.07969
999.683	-66.162
1000.053	-25.05834
1000.423	-37.09083
1000.792	35.09175
1001.162	-30.0751
1001.531	6.01494
1001.901	-9.02261
1002.27	60.13534
1002.639	10.02573
1003.009	7.01687
1003.378	-32.08256
1003.747	4.00958
1004.116	-5.01217
1004.485	-46.11106
1004.853	-26.06647
1005.222	16.0407
1005.591	-1.0024
1005.959	58.13489
1006.328	-7.01615
1006.696	-10.02434
1007.064	22.05597
1007.433	-37.09298
1007.801	-42.10332
1008.169	13.03328
1008.537	0
1008.905	0
1009.273	-17.04254
1009.64	-24.0588
1010.008	24.05775
1010.375	-59.14183
1010.743	30.06958
1011.11	31.07427
1011.478	12.02968
1011.845	1.00237
1012.212	24.05544
1012.579	-10.0248
1012.946	30.07189
1013.313	12.02841
1013.68	-27.06146
1014.047	46.11203
1014.414	-19.0458
1014.78	-19.04768
1015.147	0
1015.513	1.00244
1015.88	19.04853
1016.246	8.01983
1016.612	50.11491
1016.978	25.0619
1017.344	-4.00997
1017.71	4.00964
1018.076	12.02837
1018.442	16.04119
1018.808	34.08552
1019.174	-7.01785
1019.539	43.09773
1019.905	-25.0598
1020.27	-44.11102
1020.636	7.01682
1021.001	22.05344
1021.366	-49.11931
1021.731	2.00518
1022.096	-66.16909
1022.461	9.02121
1022.826	45.10797
1023.191	6.01581
1023.556	23.05437
1023.92	18.04413
1024.285	7.01713
1024.649	-14.0345
1025.014	11.02722
1025.378	1.00255
1025.742	15.03754
1026.107	0
1026.471	-20.0469
1026.835	-17.04229
1027.199	-10.02457
1027.562	15.03547
1027.926	-23.05655
1028.29	21.05411
1028.654	19.04434
1029.017	11.02703
1029.381	52.12692
1029.744	19.04901
1030.107	-16.03786
1030.471	-2.00483
1030.834	10.02293
1031.197	-9.02164
1031.56	-11.02615
1031.923	-13.03389
1032.286	2.00467
1032.648	32.07715
1033.011	26.06116
1033.374	-12.02825
1033.736	9.02402
1034.099	25.06183
1034.461	42.10798
1034.823	3.00756
1035.185	22.05581
1035.548	-2.00493
1035.91	41.09931
1036.272	10.02311
1036.634	-35.08602
1036.995	-32.07586
1037.357	8.01964
1037.719	-27.06614
1038.08	10.02361
1038.442	5.01198
1038.803	-22.05396
1039.165	-36.09178
1039.526	-21.05123
1039.887	3.00727
1040.248	-29.07374
1040.609	-29.07211
1040.97	46.11416
1041.331	-17.04324
1041.692	20.04749
1042.053	-3.00689
1042.413	18.04203
1042.774	22.0536
1043.134	-1.00237
1043.495	18.04532
1043.855	-19.04654
1044.215	-6.0149
1044.576	26.06327
1044.936	-22.05038
1045.296	-8.02007
1045.656	26.06405
1046.016	40.09672
1046.375	28.06908
1046.735	9.02095
1047.095	-18.04297
1047.454	16.03387
1047.814	4.00958
1048.173	-26.06213
1048.533	-1.00233
1048.892	2.00492
1049.251	30.07508
1049.61	24.05963
1049.969	-44.10483
1050.328	-34.07531
1050.687	1.00247
1051.046	-4.00981
1051.405	28.06992
1051.763	-21.04931
1052.122	66.16636
1052.48	-16.03945
1052.839	1.00238
1053.197	-47.11178
1053.555	-6.0135
1053.914	14.03452
1054.272	-4.00968
1054.63	25.06214
1054.988	-17.0409
1055.345	-13.02871
1055.703	5.012
1056.061	7.01813
1056.419	26.06757
1056.776	-38.09275
1057.134	-26.06156
1057.491	5.01258
1057.848	22.055
1058.206	0
1058.563	19.04266
1058.92	-1.00232
1059.277	-8.01973
1059.634	31.0737
1059.991	-17.04056
1060.348	17.03956
1060.704	-23.0559
1061.061	-49.11263
1061.418	-8.01979
1061.774	34.08444
1062.131	-16.0427
1062.487	6.01413
1062.843	19.04766
1063.199	-37.09291
1063.555	-15.03525
1063.911	28.07131
1064.267	11.0231
1064.623	-31.07698
1064.979	15.03502
1065.335	-32.07606
1065.691	-22.05272
1066.046	-29.06444
1066.402	47.10821
1066.757	-10.02522
1067.112	-48.11777
1067.468	-14.03376
1067.823	2.00486
1068.178	0
1068.533	16.03875
1068.888	23.05546
1069.243	1.00249
1069.598	4.00986
1069.952	37.08529
1070.307	23.05778
1070.662	43.10341
1071.016	-7.01615
1071.371	-6.01385
1071.725	12.02877
1072.079	-61.14825
1072.434	20.04907
1072.788	61.14731
1073.142	28.06883
1073.496	15.0368
1073.85	18.04186
1074.203	-53.1292
1074.557	10.02679
1074.911	-8.01914
1075.265	19.04437
1075.618	34.08321
1075.971	9.02166
1076.325	-3.00774
1076.678	67.15683
1077.031	23.05306
1077.385	23.05155
1077.738	16.03718
1078.091	-13.03068
1078.444	28.06563
1078.796	-15.03725
1079.149	4.00997
1079.502	-8.01936
1079.855	11.02613
1080.207	-10.02471
1080.56	31.08096
1080.912	5.0123
1081.264	9.02189
1081.617	7.01745
1081.969	3.00771
1082.321	21.05207
1082.673	4.00944
1083.025	-24.0574
1083.377	-38.08291
1083.728	31.07268
1084.08	31.07824
1084.432	24.05876
1084.783	24.05586
1085.135	-10.02541
1085.486	21.0492
1085.838	-17.04244
1086.189	-30.07421
1086.54	27.06419
1086.891	24.0616
1087.242	-6.01473
1087.593	-52.12688
1087.944	19.04404
1088.295	-13.02965
1088.646	-16.03929
1088.996	-21.0519
1089.347	1.00247
1089.698	36.08708
1090.048	48.12388
1090.398	0
1090.749	-20.04823
1091.099	12.03056
1091.449	-41.10314
1091.799	24.06088
1092.149	10.02517
1092.499	-49.12043
1092.849	-1.00256
1093.199	24.05965
1093.548	-27.06569
1093.898	20.05077
1094.248	-27.06962
1094.597	12.03122
1094.947	-22.0592
1095.296	3.00751
1095.645	12.03119
1095.994	67.16204
1096.343	-4.01014
1096.692	-1.00268
1097.041	5.0137
1097.39	1.00252
1097.739	-41.10704
1098.088	47.12537
1098.437	-11.02929
1098.785	25.06783
1099.134	44.11638
1099.482	7.01924
1099.83	-50.13172
1100.179	-16.04226
1100.527	25.06695
1100.875	-26.06967
1101.223	-5.01328
1101.571	-8.02237
1101.919	9.0239
1102.267	-4.01131
1102.615	-12.03869
1102.962	-5.0161
1103.31	-2.00644
1103.658	-6.01933
