Data from N2 R2  sample 9_Subt2__3__17-00-44-664.txt Node

Date: Wed Aug 27 17:00:44 PDT 2025
User: uwsun
Spectrometer: HDX01956
Trigger mode: 0
Integration Time (sec): 5.000000E-1
Scans to average: 1
Nonlinearity correction enabled: true
Boxcar width: 0
Storing dark spectrum: false
XAxis mode: Wavelengths
Number of Pixels in Spectrum: 2068
>>>>>Begin Spectral Data<<<<<
194.03	194.55014
194.578	201.64058
195.127	206.6472
195.676	209.65817
196.225	203.53985
196.773	217.59878
197.321	324.87822
197.87	410.02235
198.418	483.20231
198.966	500.25391
199.513	450.09911
200.061	442.09791
200.609	418.06672
201.156	429.92462
201.704	518.26358
202.251	483.22661
202.798	486.2288
203.345	463.10718
203.892	434.0584
204.438	475.09777
204.985	491.12582
205.532	444.12962
206.078	489.16188
206.624	517.22898
207.17	511.14033
207.716	509.20437
208.262	450.86423
208.808	474.13719
209.354	496.17199
209.899	433.05654
210.445	507.20979
210.99	463.08312
211.535	498.12705
212.08	514.15577
212.625	489.17256
213.17	433.05066
213.715	427.942
214.259	466.04382
214.804	534.25849
215.348	521.14063
215.892	505.15705
216.436	466.03567
216.98	454.97702
217.524	448.02357
218.068	455.09132
218.612	484.17308
219.155	482.08946
219.698	448.02398
220.242	410.98336
220.785	392.89497
221.328	436.05063
221.871	396.95882
222.414	426.02842
222.956	444.03515
223.499	386.85424
224.041	467.05785
224.583	374.78515
225.126	450.96925
225.668	435.02981
226.21	397.9708
226.751	439.94292
227.293	400.89039
227.835	383.91006
228.376	414.93566
228.918	473.1393
229.459	451.0895
230	438.99754
230.541	473.05496
231.082	443.04232
231.622	519.1563
232.163	427.00655
232.704	437.05205
233.244	362.86729
233.784	433.01321
234.324	408.88031
234.864	411.90861
235.404	412.94213
235.944	425.97048
236.484	412.98515
237.023	437.003
237.563	419.94406
238.102	391.88495
238.641	426.03267
239.18	387.89049
239.719	464.1199
240.258	421.9175
240.797	482.11464
241.335	444.04164
241.874	438.8278
242.412	473.08535
242.95	482.11552
243.488	505.11205
244.026	433.96482
244.564	397.79499
245.102	464.01756
245.64	451.04675
246.177	403.87716
246.715	422.97274
247.252	417.9238
247.789	423.75624
248.326	518.19802
248.863	454.96611
249.4	393.85975
249.936	521.03624
250.473	434.98244
251.009	441.98833
251.546	509.08757
252.082	452.94595
252.618	472.02165
253.154	465.07207
253.69	467.01791
254.226	420.95501
254.761	449.97892
255.297	456.97837
255.832	389.89116
256.367	505.14362
256.903	440.94161
257.438	451.00622
257.972	502.08254
258.507	483.07775
259.042	425.88414
259.576	499.03529
260.111	439.97819
260.645	423.88233
261.179	425.9564
261.713	492.0505
262.247	457.01416
262.781	468.93912
263.315	461.0759
263.849	493.17724
264.382	479.04544
264.915	499.13138
265.449	502.17886
265.982	461.00523
266.515	483.12513
267.048	478.96007
267.58	451.94073
268.113	467.97929
268.646	509.19834
269.178	516.11659
269.71	428.89098
270.243	495.0754
270.775	486.18234
271.307	489.11271
271.838	514.14538
272.37	491.14649
272.902	528.14016
273.433	473.99712
273.965	509.17368
274.496	455.07392
275.027	527.24366
275.558	516.18961
276.089	529.24694
276.62	515.23453
277.15	498.16763
277.681	512.05924
278.211	534.23752
278.741	511.08242
279.272	500.09297
279.802	517.22804
280.332	540.21482
280.861	566.28066
281.391	492.07001
281.921	509.14802
282.45	567.33558
282.98	526.29406
283.509	494.06754
284.038	548.17736
284.567	546.18664
285.096	490.12375
285.625	515.09898
286.153	526.17168
286.682	640.37353
287.21	547.23937
287.739	538.2029
288.267	536.2299
288.795	560.38184
289.323	581.27486
289.851	529.1606
290.378	563.20678
290.906	577.33017
291.433	570.32835
291.961	574.23648
292.488	548.268
293.015	552.22409
293.542	592.40774
294.069	587.3613
294.596	557.28809
295.122	606.34734
295.649	549.13314
296.175	595.35427
296.702	535.22
297.228	597.34513
297.754	569.19971
298.28	597.27481
298.806	549.22828
299.332	568.19996
299.857	673.3926
300.383	594.38596
300.908	638.45779
301.433	587.32743
301.958	713.52085
302.483	650.51139
303.008	623.3992
303.533	650.56643
304.058	640.37589
304.582	688.51087
305.107	600.46055
305.631	654.36621
306.155	622.35663
306.679	644.40111
307.203	659.41041
307.727	678.492
308.251	634.42597
308.775	665.45389
309.298	678.50572
309.822	710.62437
310.345	637.38616
310.868	703.52475
311.391	697.54314
311.914	720.65582
312.437	655.35531
312.96	716.52956
313.482	659.4353
314.005	706.63006
314.527	728.72536
315.049	718.63676
315.571	705.43287
316.093	772.7061
316.615	726.57368
317.137	746.45398
317.659	727.56681
318.18	758.62634
318.702	787.6549
319.223	766.40757
319.744	831.65478
320.265	812.74602
320.786	837.84097
321.307	807.792
321.828	813.6114
322.348	796.64485
322.869	895.85661
323.389	852.25378
323.909	884.77308
324.43	841.75304
324.95	880.75856
325.47	922.96824
325.989	889.81221
326.509	931.7864
327.029	954.84861
327.548	959.83668
328.067	953.98578
328.587	888.88256
329.106	978.924
329.625	960.13392
330.144	954.85564
330.662	978.9312
331.181	981.92133
331.7	1007.96119
332.218	1043.86659
332.736	1034.98578
333.255	1086.08937
333.773	986.94429
334.291	990.04354
334.808	1074.94831
335.326	1118.03931
335.844	1107.11106
336.361	1191.42788
336.879	1187.24117
337.396	1142.21833
337.913	1174.20526
338.43	1186.10521
338.947	1223.30933
339.464	1228.08381
339.981	1211.27219
340.497	1232.39016
341.014	1251.4036
341.53	1235.17282
342.046	1266.40988
342.562	1288.46365
343.078	1303.356
343.594	1354.46525
344.11	1386.453
344.626	1353.58768
345.141	1353.28667
345.657	1332.2105
346.172	1369.49829
346.687	1432.42684
347.202	1454.40907
347.717	1460.53683
348.232	1494.75521
348.747	1416.40727
349.261	1508.34846
349.776	1541.6065
350.29	1510.73534
350.805	1568.79956
351.319	1601.60474
351.833	1566.53392
352.347	1555.59521
352.861	1641.67482
353.374	1604.53399
353.888	1547.59014
354.401	1645.62524
354.915	1702.65543
355.428	1705.90599
355.941	1729.69263
356.454	1715.50731
356.967	1684.67829
357.48	1684.57289
357.993	1754.88204
358.505	1757.89728
359.018	1833.96306
359.53	1794.78631
360.042	1814.56872
360.554	1801.80454
361.066	1819.92879
361.578	1774.47366
362.09	1825.81638
362.602	1838.51306
363.113	1876.7391
363.625	1956.64897
364.136	1971.59873
364.647	1912.75721
365.158	1985.82357
365.669	2039.97896
366.18	2045.86424
366.691	2088.63232
367.201	2029.89282
367.712	2078.80214
368.222	2042.70986
368.733	2079.54505
369.243	2138.65538
369.753	2199.7761
370.263	2195.02003
370.773	2319.23188
371.282	2232.93502
371.792	2283.82966
372.301	2418.10551
372.811	2402.40205
373.32	2470.56708
373.829	2472.87159
374.338	2535.6445
374.847	2668.77312
375.356	2671.86456
375.865	2952.33771
376.373	2926.56758
376.882	2941.12144
377.39	3103.83443
377.898	3087.98205
378.407	3394.42581
378.915	3372.02918
379.423	3602.36124
379.93	3765.02526
380.438	3807.3797
380.946	4063.936
381.453	4133.0662
381.96	4360.7125
382.468	4721.40538
382.975	5077.32457
383.482	5260.90079
383.989	5227.53267
384.495	5447.80287
385.002	5700.19861
385.509	6013.47515
386.015	6351.92784
386.521	6653.22474
387.028	6869.30533
387.534	7114.36392
388.04	7409.75488
388.546	7558.86174
389.051	8078.71241
389.557	8543.6496
390.063	9293.05056
390.568	9821.57485
391.073	9946.75324
391.578	10362.44908
392.084	10775.28891
392.589	11092.20014
393.093	11796.37862
393.598	12907.07102
394.103	14034.82823
394.607	15483.50643
395.112	16756.63212
395.616	17832.55897
396.12	19381.65984
396.624	21532.18398
397.128	23306.20772
397.632	25873.85721
398.136	28040.36729
398.639	29641.49572
399.143	32208.46927
399.646	36814.57432
400.15	40855.19421
400.653	44596.76799
401.156	49934.82337
401.659	54828.7518
402.162	53554.08388
402.664	47275.14456
403.167	32260.27245
403.67	3851.94142
404.172	0
404.674	0
405.176	0
405.678	0
406.18	0
406.682	0
407.184	0
407.686	12367.42319
408.187	34596.90747
408.688	44563.94194
409.19	48906.19284
409.691	51236.67962
410.192	52883.26968
410.693	53713.23343
411.194	54189.54801
411.694	54767.79104
412.195	55625.98899
412.696	55971.27715
413.196	55815.15953
413.696	55802.1488
414.196	55740.09561
414.696	56340.4775
415.196	57067.59327
415.696	55266.83827
416.196	46287.23204
416.695	35576.54272
417.195	29892.97337
417.694	28395.12699
418.194	26853.23005
418.693	24967.52274
419.192	23650.05756
419.691	23628.73534
420.19	23330.13063
420.688	22420.33504
421.187	21666.91778
421.685	20057.71815
422.184	18468.91511
422.682	16200.73507
423.18	13896.82676
423.678	12400.42622
424.176	11398.90681
424.674	10776.9152
425.172	10121.00918
425.669	9681.83509
426.167	9151.18999
426.664	8182.83805
427.161	7464.82059
427.659	7029.67813
428.156	6502.07816
428.652	6172.91961
429.149	5835.76569
429.646	5639.49256
430.143	5270.05942
430.639	5006.18037
431.135	4788.70167
431.632	4486.51769
432.128	4149.81984
432.624	3837.54058
433.12	3824.85577
433.616	3674.79615
434.111	3578.39388
434.607	3483.44341
435.103	3357.89473
435.598	3137.8264
436.093	3082.476
436.588	2949.29818
437.083	2733.48474
437.578	2592.39856
438.073	2542.98498
438.568	2386.82267
439.062	2350.27393
439.557	2275.62907
440.051	2282.56591
440.546	2163.57078
441.04	2048.70917
441.534	1932.81721
442.028	2036.65942
442.522	1960.66476
443.015	1959.38186
443.509	1887.74628
444.002	1822.6799
444.496	1819.27099
444.989	1782.63753
445.482	1742.6797
445.975	1727.38954
446.468	1813.31495
446.961	1677.11727
447.454	1680.39224
447.947	1637.43388
448.439	1571.4722
448.931	1544.19048
449.424	1585.59847
449.916	1665.54575
450.408	1444.13418
450.9	1409.28116
451.392	1449.47487
451.884	1419.17872
452.375	1407.38103
452.867	1425.095
453.358	1334.0765
453.849	1298.89991
454.341	1315.00238
454.832	1314.93645
455.323	1314.26757
455.814	1293.0594
456.304	1256.03926
456.795	1279.07857
457.285	1267.95702
457.776	1243.96455
458.266	1252.14525
458.756	1221.14697
459.247	1132.01003
459.737	1174.09885
460.226	1128.87958
460.716	1118.99351
461.206	1105.99912
461.695	1084.07456
462.185	1150.02845
462.674	1018.79142
463.163	1016.73584
463.653	1029.64897
464.142	1029.91609
464.63	955.82109
465.119	968.75025
465.608	933.71555
466.096	937.62576
466.585	977.77329
467.073	893.71009
467.561	951.80995
468.05	907.68683
468.538	891.76291
469.026	855.64824
469.513	782.35008
470.001	971.80788
470.489	887.74763
470.976	811.51993
471.463	834.71038
471.951	785.61667
472.438	843.63284
472.925	820.61961
473.412	755.54995
473.899	684.34054
474.385	730.52652
474.872	724.43176
475.359	701.48359
475.845	675.21673
476.331	662.24785
476.817	659.38002
477.303	665.33672
477.789	693.43723
478.275	650.4052
478.761	615.31159
479.247	627.21562
479.732	599.32378
480.218	576.31705
480.703	609.32741
481.188	518.98669
481.673	545.1148
482.158	529.038
482.643	554.25805
483.128	540.12127
483.612	479.01673
484.097	502.11167
484.581	484.00657
485.066	474.0548
485.55	433.87752
486.034	455.91072
486.518	417.89375
487.002	487.10637
487.486	466.04596
487.969	415.93772
488.453	418.96621
488.936	409.85919
489.42	426.87813
489.903	385.89296
490.386	403.62439
490.869	383.77619
491.352	377.84598
491.835	360.70004
492.318	381.81519
492.8	419.82623
493.283	327.78092
493.765	355.82372
494.247	361.79009
494.73	306.63929
495.212	302.68091
495.694	322.71679
496.175	315.71239
496.657	323.72155
497.139	292.49281
497.62	291.66508
498.102	320.76231
498.583	258.62193
499.064	194.41807
499.545	285.62325
500.026	289.62371
500.507	323.71469
500.988	258.6144
501.469	234.56643
501.949	255.59734
502.43	250.57679
502.91	238.48333
503.39	211.50817
503.87	241.54883
504.35	201.45719
504.83	223.47777
505.31	210.49222
505.79	232.53995
506.269	244.54723
506.749	171.38328
507.228	219.49934
507.707	183.39496
508.187	205.47175
508.666	170.4033
509.145	145.33382
509.623	180.41712
510.102	173.4086
510.581	160.37195
511.059	229.55756
511.538	167.41632
512.016	253.58848
512.494	207.49306
512.972	141.32655
513.45	145.33382
513.928	175.417
514.406	194.46307
514.884	157.39423
515.361	176.40607
515.839	173.38808
516.316	172.40631
516.793	185.45532
517.27	186.43649
517.747	218.54472
518.224	129.29271
518.701	122.27013
519.178	103.25192
519.654	148.34351
520.131	104.25356
520.607	135.32613
521.083	151.34068
521.56	131.30303
522.036	124.26986
522.512	148.35287
522.987	123.28927
523.463	124.29168
523.939	108.25829
524.414	160.36312
524.89	168.39348
525.365	104.23181
525.84	130.30555
526.315	169.39899
526.79	110.24407
527.265	127.28888
527.74	78.18754
528.215	178.41902
528.689	121.26529
529.164	128.27762
529.638	165.41312
530.112	120.2804
530.587	146.31368
531.061	140.33431
531.534	126.30272
532.008	133.31741
532.482	104.23431
532.956	99.24806
533.429	111.26329
533.903	110.23939
534.376	131.29024
534.849	97.22082
535.322	97.2275
535.795	105.25145
536.268	109.26014
536.741	71.16808
537.213	124.28177
537.686	90.21672
538.158	85.19201
538.631	75.17817
539.103	93.21025
539.575	57.11895
540.047	139.30424
540.519	89.20874
540.991	90.21516
541.463	97.23132
541.934	118.26443
542.406	39.09219
542.877	83.18412
543.348	38.08893
543.82	128.30554
544.291	125.28271
544.762	83.19573
545.233	109.26699
545.703	105.2307
546.174	134.30634
546.645	99.23518
547.115	155.36679
547.585	94.21126
548.056	119.28052
548.526	122.2825
548.996	107.25145
549.466	168.39456
549.935	160.37136
550.405	193.41171
550.875	167.384
551.344	153.35547
551.814	224.49638
552.283	184.38527
552.752	166.37184
553.221	178.37782
553.69	194.4125
554.159	220.52009
554.628	218.47442
555.096	194.47139
555.565	233.50868
556.033	193.43739
556.502	190.44657
556.97	148.3173
557.438	110.25431
557.906	157.36188
558.374	130.29324
558.842	138.32309
559.31	165.36221
559.777	102.24338
560.245	126.28561
560.712	96.21805
561.18	116.25449
561.647	97.21321
562.114	164.3719
562.581	70.16786
563.048	125.28341
563.514	118.28425
563.981	83.18872
564.448	71.15764
564.914	67.15277
565.381	113.25088
565.847	103.23542
566.313	120.27665
566.779	156.34743
567.245	76.17368
567.711	91.21551
568.176	62.13751
568.642	67.1646
569.108	124.29644
569.573	134.30449
570.038	91.18966
570.504	137.30151
570.969	73.17595
571.434	103.22049
571.899	96.2237
572.363	85.18887
572.828	123.26922
573.293	146.32718
573.757	77.1728
574.222	133.29111
574.686	39.0872
575.15	139.32128
575.614	150.33379
576.078	106.24008
576.542	106.23343
577.006	123.26774
577.469	81.18931
577.933	141.30744
578.396	84.19343
578.86	92.21032
579.323	153.35322
579.786	85.17881
580.249	54.12096
580.712	81.19035
581.175	91.21776
581.637	131.28782
582.1	47.09948
582.563	151.31134
583.025	90.21162
583.487	103.20683
583.95	135.28399
584.412	120.24258
584.874	107.25174
585.336	89.20539
585.797	99.20835
586.259	96.21876
586.721	90.20633
587.182	133.29578
587.643	54.11852
588.105	29.06612
588.566	51.10383
589.027	68.15864
589.488	35.07745
589.949	56.13132
590.41	129.24684
590.87	25.05451
591.331	96.2003
591.791	80.17891
592.252	38.08428
592.712	50.11454
593.172	89.19332
593.632	34.0711
594.092	22.04768
594.552	78.15978
595.011	96.21256
595.471	130.27738
595.931	82.17519
596.39	132.30371
596.849	127.28161
597.308	102.20705
597.768	163.39525
598.227	147.3322
598.685	114.24747
599.144	134.30041
599.603	178.39675
600.062	158.32116
600.52	146.31098
600.978	156.35146
601.437	210.44827
601.895	104.20918
602.353	163.3379
602.811	251.52241
603.269	210.46517
603.727	205.45967
604.184	240.50741
604.642	188.42753
605.099	276.59885
605.557	259.5817
606.014	261.52193
606.471	266.61615
606.928	318.62574
607.385	376.83281
607.842	390.81332
608.299	390.81946
608.755	413.88403
609.212	441.88269
609.668	371.74568
610.125	466.98388
610.581	421.87075
611.037	446.89167
611.493	423.88546
611.949	393.84595
612.405	503.90952
612.861	406.84443
613.316	488.03834
613.772	439.88479
614.227	436.90117
614.683	505.94347
615.138	486.00715
615.593	456.95432
616.048	485.98424
616.503	490.03582
616.958	500.09112
617.412	454.95644
617.867	475.94679
618.321	540.99066
618.776	492.95584
619.23	404.85037
619.684	548.08828
620.138	438.88663
620.592	454.97324
621.046	454.935
621.5	447.97415
621.954	475.94327
622.407	489.95974
622.861	499.07767
623.314	425.86485
623.768	474.98233
624.221	419.74328
624.674	388.80735
625.127	420.87744
625.58	410.82502
626.033	388.7624
626.485	466.0052
626.938	447.94397
627.39	490.01591
627.843	397.82516
628.295	342.71925
628.747	426.91599
629.199	382.78992
629.651	384.80615
630.103	409.85389
630.555	488.93857
631.006	373.79911
631.458	459.9846
631.909	401.82939
632.361	380.81744
632.812	426.89943
633.263	429.83482
633.714	472.92266
634.165	321.71412
634.616	390.84544
635.067	369.74029
635.518	457.98115
635.968	428.77763
636.419	368.73436
636.869	380.81569
637.319	494.05523
637.769	397.81192
638.219	497.06372
638.669	426.92386
639.119	399.87693
639.569	477.03975
640.019	518.05588
640.468	502.00557
640.918	521.10219
641.367	494.00322
641.816	531.03752
642.265	495.01554
642.714	557.13475
643.163	611.22181
643.612	600.27984
644.061	524.98649
644.51	623.24469
644.958	671.28745
645.406	579.22617
645.855	695.49266
646.303	747.48869
646.751	682.34669
647.199	709.369
647.647	678.34442
648.095	782.5156
648.543	782.36299
648.99	770.57687
649.438	748.46824
649.885	775.61107
650.333	821.32573
650.78	798.64163
651.227	799.65953
651.674	880.67826
652.121	884.80242
652.568	812.68468
653.015	903.90897
653.461	892.75708
653.908	917.74514
654.354	903.79251
654.801	971.9044
655.247	869.5569
655.693	859.8799
656.139	951.91155
656.585	926.85486
657.031	994.92715
657.477	973.72852
657.922	1016.91472
658.368	1025.08057
658.813	964.83607
659.259	1002.9685
659.704	1053.98215
660.149	1059.99834
660.594	1099.08871
661.039	1027.88217
661.484	1131.12997
661.929	1117.05642
662.373	1143.32887
662.818	1179.31145
663.262	1142.18794
663.707	1149.31791
664.151	1174.23647
664.595	1243.36769
665.039	1253.41319
665.483	1281.57519
665.927	1357.36005
666.371	1395.45821
666.814	1389.48806
667.258	1431.52456
667.701	1443.23403
668.145	1503.74655
668.588	1542.75291
669.031	1520.61824
669.474	1565.70829
669.917	1599.43656
670.36	1627.8811
670.803	1679.8356
671.245	1775.49614
671.688	1627.78241
672.13	1760.71245
672.573	1753.07921
673.015	1819.93367
673.457	1870.65113
673.899	1884.0162
674.341	1902.01316
674.783	1961.07042
675.225	1973.19838
675.666	2002.14002
676.108	1977.60855
676.549	2035.01179
676.991	2120.82911
677.432	2223.59623
677.873	2129.01021
678.314	2213.18411
678.755	2211.32249
679.196	2333.13918
679.637	2355.3775
680.078	2362.17647
680.518	2413.13278
680.959	2300.17973
681.399	2385.45489
681.839	2451.40268
682.28	2428.50312
682.72	2594.19921
683.16	2478.55807
683.6	2559.06256
684.039	2594.65673
684.479	2652.51655
684.919	2748.30325
685.358	2803.69188
685.798	2851.05087
686.237	2860.44649
686.676	2911.11501
687.115	2972.30541
687.554	3145.39736
687.993	3156.95445
688.432	3083.15112
688.871	3125.13921
689.309	3193.43656
689.748	3275.65241
690.186	3295.38543
690.625	3359.3091
691.063	3297.47392
691.501	3503.61344
691.939	3507.72282
692.377	3646.52118
692.815	3681.34641
693.253	3669.29469
693.69	3830.73483
694.128	3781.44933
694.565	3898.21047
695.003	3781.67562
695.44	3951.1691
695.877	4021.07914
696.314	4041.48717
696.751	4176.7091
697.188	4180.78098
697.625	4178.72227
698.061	4227.18598
698.498	4414.07544
698.934	4530.97796
699.371	4500.86555
699.807	4622.82302
700.243	4601.89448
700.679	4648.47574
701.115	4669.60411
701.551	4751.64673
701.987	4846.34047
702.422	4883.72797
702.858	5007.68179
703.294	5040.14721
703.729	5107.7439
704.164	5143.58355
704.599	5168.05906
705.035	5363.02818
705.47	5326.55388
705.904	5472.30137
706.339	5540.13182
706.774	5686.20149
707.209	5569.18384
707.643	5680.319
708.078	5835.30934
708.512	5889.55954
708.946	5950.12725
709.38	6054.09056
709.814	6077.90831
710.248	6126.27763
710.682	6288.05817
711.116	6262.1903
711.549	6460.62198
711.983	6359.84214
712.416	6491.91165
712.85	6646.26883
713.283	6600.86511
713.716	6675.18898
714.149	6585.88829
714.582	6782.62667
715.015	6757.19159
715.448	6885.28291
715.881	6872.32837
716.313	6962.71971
716.746	7113.87924
717.178	7197.01091
717.61	7132.26631
718.043	7239.17809
718.475	7295.0118
718.907	7382.22091
719.339	7343.78078
719.77	7396.96916
720.202	7532.36449
720.634	7585.19525
721.065	7652.09595
721.497	7673.25622
721.928	7603.24924
722.359	7835.31272
722.79	7855.2595
723.221	7903.44385
723.652	7858.53144
724.083	8028.15305
724.514	8013.13563
724.945	8212.4292
725.375	8299.53054
725.806	8276.63384
726.236	8383.87113
726.666	8303.56717
727.096	8410.81496
727.526	8427.95113
727.956	8628.86237
728.386	8565.98439
728.816	8723.33356
729.246	8724.13402
729.675	8703.12776
730.105	8757.21698
730.534	8814.1725
730.964	9011.64031
731.393	8991.54539
731.822	9075.74801
732.251	9147.89813
732.68	9211.86136
733.109	9341.20706
733.537	9303.08983
733.966	9336.18474
734.395	9596.71188
734.823	9507.50033
735.251	9482.45779
735.68	9503.53122
736.108	9579.71728
736.536	9697.95714
736.964	9490.46008
737.392	9626.8058
737.82	9712.99723
738.247	9879.41945
738.675	9799.22144
739.102	9927.53452
739.53	9924.52701
739.957	9808.24222
740.384	9931.55349
740.811	9992.70458
741.238	9942.58578
741.665	9920.56106
742.092	9885.44297
742.519	9821.26552
742.945	9977.69046
743.372	9903.47353
743.798	10032.80808
744.225	10011.78585
744.651	9834.29797
745.077	9898.46011
745.503	9913.50213
745.929	10031.84008
746.355	9894.46187
746.781	9715.00414
747.207	9676.90679
747.632	9759.10901
748.058	9709.99092
748.483	9859.38929
748.908	9805.22426
749.334	9844.32204
749.759	9674.90054
750.184	9580.67489
750.609	9614.76067
751.033	9602.72737
751.458	9604.7483
751.883	9505.51494
752.307	9395.2604
752.732	9302.16387
753.156	9239.00407
753.58	9209.87206
754.005	9383.30074
754.429	9023.52725
754.853	9069.72154
755.277	9097.64931
755.7	8875.38421
756.124	8868.39086
756.548	8778.16273
756.971	8769.20421
757.394	8702.27692
757.818	8686.26902
758.241	8626.14383
758.664	8567.10475
759.087	8404.50847
759.51	8299.69335
759.933	8199.46458
760.356	8197.71707
760.778	8184.65867
761.201	8083.44481
761.623	7864.26874
762.046	7751.03319
762.468	7839.17578
762.89	7675.16676
763.312	7509.08024
763.734	7409.03763
764.156	7350.18166
764.578	7263.71369
765	7274.12107
765.421	7204.49059
765.843	6993.53323
766.264	6826.88674
766.686	6736.19479
767.107	6653.0877
767.528	6726.38626
767.949	6507.33074
768.37	6446.21769
768.791	6307.09671
769.212	6166.5575
769.632	5991.01384
770.053	6142.84098
770.473	5963.26929
770.894	5837.42131
771.314	5727.12671
771.734	5589.19414
772.154	5587.88768
772.575	5500.09163
772.994	5349.11
773.414	5277.47545
773.834	5234.7274
774.254	5213.78241
774.673	5004.7321
775.093	4949.8766
775.512	4915.02016
775.931	4819.24283
776.351	4647.13152
776.77	4609.14277
777.189	4476.91107
777.607	4424.3922
778.026	4304.27452
778.445	4191.37234
778.864	4261.4792
779.282	4154.19644
779.701	4078.51661
780.119	3950.61949
780.537	3875.57576
780.955	3751.67297
781.373	3732.4566
781.791	3686.85509
782.209	3578.94156
782.627	3443.98686
783.045	3408.10727
783.462	3335.76367
783.88	3326.95283
784.297	3233.76834
784.715	3122.89093
785.132	2979.44401
785.549	2987.72272
785.966	2929.66785
786.383	2844.54679
786.8	2758.11966
787.217	2670.29343
787.633	2681.68349
788.05	2599.17185
788.466	2536.22701
788.883	2457.63903
789.299	2433.30355
789.715	2335.38054
790.131	2272.44107
790.547	2297.38223
790.963	2226.39148
791.379	2174.42007
791.795	2076.84807
792.21	2083.03848
792.626	1925.94385
793.041	1955.18105
793.457	1918.12612
793.872	1803.81895
794.287	1824.02189
794.702	1742.93893
795.117	1722.05008
795.532	1643.95874
795.947	1636.76465
796.362	1517.5725
796.776	1554.53394
797.191	1515.75891
797.605	1432.5374
798.02	1421.62076
798.434	1397.27295
798.848	1363.58068
799.262	1302.5346
799.676	1284.39722
800.09	1237.34944
800.504	1208.32024
800.918	1131.10093
801.331	1117.35986
801.745	1069.95049
802.158	1064.18967
802.572	1021.99789
802.985	997.99125
803.398	975.9347
803.811	965.04994
804.224	884.85943
804.637	867.76013
805.05	869.71452
805.462	880.86154
805.875	774.78004
806.288	749.57078
806.7	732.62169
807.112	786.57486
807.525	730.57429
807.937	686.51341
808.349	674.48567
808.761	635.3818
809.173	671.44848
809.584	618.34676
809.996	610.36129
810.408	603.42211
810.819	622.33314
811.231	631.506
811.642	650.43332
812.053	617.346
812.464	652.39571
812.875	649.49928
813.286	552.29089
813.697	498.03437
814.108	488.0887
814.519	443.90722
814.929	444.0388
815.34	409.92756
815.75	423.00674
816.16	418.97235
816.571	420.02723
816.981	345.76082
817.391	356.81868
817.801	355.83836
818.211	353.79148
818.62	370.85121
819.03	334.7819
819.44	320.79345
819.849	300.72835
820.259	274.66823
820.668	267.63644
821.077	337.80664
821.486	327.75576
821.895	269.63358
822.304	260.66324
822.713	262.59797
823.122	238.57286
823.531	235.53625
823.939	252.59527
824.348	231.54472
824.756	261.63024
825.164	218.5287
825.573	225.5513
825.981	198.47225
826.389	217.5317
826.797	201.49779
827.205	198.45082
827.612	164.39536
828.02	172.40174
828.428	187.46414
828.835	174.44779
829.243	162.37809
829.65	154.37742
830.057	128.30472
830.464	146.3497
830.871	133.31132
831.278	143.34088
831.685	143.31683
832.092	176.42412
832.499	146.31706
832.905	124.30952
833.312	137.30884
833.718	102.25073
834.124	98.22142
834.531	190.46737
834.937	110.27894
835.343	112.26868
835.749	120.27643
836.155	115.29941
836.561	80.19498
836.966	119.28672
837.372	105.2665
837.777	127.31293
838.183	109.2424
838.588	116.28682
838.993	95.22716
839.399	133.32662
839.804	56.13806
840.209	80.20417
840.613	53.11919
841.018	69.17463
841.423	110.27934
841.828	63.15894
842.232	85.20774
842.637	53.12567
843.041	59.15187
843.445	42.10609
843.849	60.14917
844.253	55.13056
844.657	53.13471
845.061	26.05942
845.465	60.14716
845.869	92.21371
846.272	42.10385
846.676	12.02866
847.079	55.14123
847.483	52.12877
847.886	68.16455
848.289	44.11797
848.692	35.08846
849.095	56.135
849.498	55.13741
849.901	102.23281
850.304	46.10947
850.707	31.07905
851.109	66.16457
851.512	57.1419
851.914	61.15751
852.316	74.18706
852.718	68.17998
853.121	61.15119
853.523	135.32046
853.925	59.15503
854.326	5.01274
854.728	47.12144
855.13	2.00522
855.531	78.18911
855.933	71.17062
856.334	21.05279
856.736	77.17706
857.137	-7.01669
857.538	20.05129
857.939	79.19766
858.34	33.08092
858.741	19.04999
859.142	10.02418
859.542	33.08744
859.943	61.15356
860.343	35.08849
860.744	42.10259
861.144	13.03202
861.544	41.10114
861.945	71.18148
862.345	34.08345
862.745	-19.04769
863.145	-7.01678
863.544	11.02809
863.944	57.13671
864.344	21.05209
864.743	37.0914
865.143	39.1013
865.542	33.07791
865.941	14.03482
866.34	-19.04583
866.74	36.09662
867.139	29.07009
867.537	58.14781
867.936	25.06071
868.335	15.03833
868.734	27.0696
869.132	25.05868
869.531	-30.07238
869.929	47.10976
870.327	35.08548
870.726	19.04725
871.124	22.05139
871.522	-8.0205
871.92	42.10435
872.318	20.04893
872.715	10.0246
873.113	8.01976
873.511	-46.11466
873.908	-19.04872
874.306	15.03795
874.703	2.00504
875.1	-11.02815
875.497	40.0965
875.894	-4.01006
876.291	-22.05408
876.688	24.0623
877.085	11.02656
877.482	26.06561
877.878	44.10736
878.275	11.02813
878.671	-1.00221
879.068	56.13516
879.464	30.07353
879.86	24.05786
880.256	-3.00745
880.652	22.05686
881.048	30.07451
881.444	17.04048
881.84	38.09739
882.236	-3.0076
882.631	2.00495
883.027	-11.02667
883.422	49.12648
883.817	47.12035
884.213	18.04668
884.608	-21.05323
885.003	26.0641
885.398	-11.02804
885.793	51.12871
886.188	18.04568
886.582	42.10768
886.977	53.12673
887.371	-51.12935
887.766	-38.09671
888.16	36.09045
888.554	-20.04927
888.949	32.08014
889.343	5.01233
889.737	-5.01355
890.131	38.09599
890.525	45.11624
890.918	16.04075
891.312	47.11208
891.706	4.01054
892.099	37.09401
892.492	20.0434
892.886	60.14907
893.279	44.11359
893.672	34.08732
894.065	-15.03796
894.458	3.00756
894.851	25.06074
895.244	27.06979
895.637	22.05332
896.029	42.10408
896.422	39.09567
896.814	55.13846
897.206	4.0097
897.599	5.01236
897.991	-4.00986
898.383	-29.06942
898.775	36.08204
899.167	1.0024
899.559	11.02779
899.951	76.17989
900.342	24.06149
900.734	-18.04594
901.125	73.1924
901.517	24.05902
901.908	13.03118
902.299	68.16906
902.69	8.01915
903.082	9.02167
903.473	55.13362
903.863	8.02042
904.254	2.00469
904.645	-23.05715
905.036	13.03204
905.426	28.06463
905.817	11.02739
906.207	-43.10591
906.597	14.03325
906.987	6.01543
907.378	-2.00509
907.768	30.07972
908.158	10.02463
908.547	21.05535
908.937	-23.05908
909.327	-6.0147
909.717	-2.00507
910.106	51.12446
910.495	-4.01002
910.885	28.07146
911.274	-19.04829
911.663	16.04057
912.052	38.09327
912.441	33.08492
912.83	22.05157
913.219	27.07035
913.608	-34.08345
913.997	-14.03591
914.385	39.09415
914.774	18.04418
915.162	20.04862
915.55	-14.03402
915.939	0
916.327	-12.02982
916.715	42.10903
917.103	51.12516
917.491	17.04234
917.878	67.16564
918.266	-22.05739
918.654	4.01029
919.041	-16.04222
919.429	-2.00475
919.816	12.03065
920.203	44.10716
920.591	4.00995
920.978	10.02464
921.365	8.02115
921.752	9.02162
922.139	-28.06189
922.525	35.08656
922.912	3.00736
923.299	23.0584
923.685	-24.0631
924.072	33.0764
924.458	49.12189
924.844	24.06054
925.231	2.00474
925.617	41.10631
926.003	10.02568
926.389	-6.01524
926.774	-9.02308
927.16	-1.00251
927.546	-13.03368
927.931	51.1282
928.317	-1.00234
928.702	15.03552
929.088	25.06074
929.473	46.11748
929.858	5.01247
930.243	-26.06365
930.628	35.08665
931.013	3.00753
931.398	-15.03445
931.783	-6.01572
932.167	-28.06906
932.552	25.06214
932.937	11.0274
933.321	10.02553
933.705	9.02284
934.09	-26.06514
934.474	32.07662
934.858	-41.10697
935.242	5.01172
935.626	26.06712
936.009	10.02686
936.393	-37.09494
936.777	-17.04365
937.16	19.04989
937.544	-10.02361
937.927	-29.07457
938.311	-1.00246
938.694	9.02368
939.077	6.01465
939.46	-33.0814
939.843	21.04416
940.226	0
940.609	16.0377
940.991	26.06694
941.374	-32.0795
941.757	70.17321
942.139	0
942.522	-14.03323
942.904	4.00966
943.286	17.04326
943.668	42.10956
944.05	39.09716
944.432	-4.0101
944.814	53.13208
945.196	-18.04537
945.578	-4.00983
945.959	-4.00952
946.341	-9.022
946.722	0
947.104	-48.11642
947.485	9.02148
947.866	10.02561
948.247	-1.00256
948.628	0
949.009	2.00519
949.39	-34.08539
949.771	11.02588
950.152	32.07927
950.532	-37.09378
950.913	14.0345
951.293	9.02465
951.674	17.04143
952.054	-18.04522
952.434	-13.03254
952.814	-67.16009
953.194	-10.02601
953.574	-19.04695
953.954	13.03132
954.334	26.06509
954.714	-59.14783
955.093	-11.02693
955.473	-15.03803
955.853	-14.03633
956.232	-27.07404
956.611	-8.01922
956.99	-44.11102
957.37	-20.05144
957.749	-34.08246
958.128	25.063
958.506	34.08875
958.885	36.09113
959.264	11.02754
959.643	75.17219
960.021	27.06697
960.4	-14.03224
960.778	7.01716
961.156	21.05328
961.535	-4.00943
961.913	19.04493
962.291	-8.02094
962.669	-47.11925
963.047	30.07699
963.424	23.05894
963.802	11.02721
964.18	15.03792
964.557	49.1138
964.935	14.0332
965.312	2.00529
965.69	31.07787
966.067	-2.00492
966.444	15.03708
966.821	24.06149
967.198	-3.00726
967.575	-4.00984
967.952	-40.09453
968.329	6.01473
968.705	61.13295
969.082	29.0755
969.458	-1.00244
969.835	-43.10529
970.211	3.00779
970.587	31.07726
970.963	2.00516
971.339	1.00263
971.715	21.05275
972.091	37.09164
972.467	4.01002
972.843	5.01266
973.219	2.0048
973.594	-7.01856
973.97	60.14256
974.345	-25.06117
974.721	21.05106
975.096	17.04169
975.471	-46.10888
975.846	12.02924
976.221	47.12107
976.596	3.00732
976.971	7.01724
977.346	10.02342
977.72	-13.03308
978.095	-34.08836
978.469	41.0977
978.844	10.02504
979.218	-2.00492
979.593	-27.06483
979.967	55.13482
980.341	-24.05665
980.715	-8.02025
981.089	34.08582
981.463	-7.01639
981.837	0
982.21	-39.09
982.584	42.1024
982.957	6.01516
983.331	6.01429
983.704	-16.04013
984.078	-15.03734
984.451	-56.13923
984.824	11.02745
985.197	12.02938
985.57	6.01514
985.943	-51.12664
986.316	13.03202
986.688	-18.0439
987.061	-15.03588
987.434	22.05723
987.806	-15.03651
988.179	44.10579
988.551	5.01279
988.923	-20.04934
989.295	49.12265
989.667	9.0222
990.039	19.04751
990.411	17.03956
990.783	-27.06226
991.155	0
991.527	-22.05374
991.898	14.03509
992.27	-4.01009
992.641	19.04776
993.012	3.00714
993.384	31.07464
993.755	-30.07767
994.126	-13.03163
994.497	2.00501
994.868	-20.04657
995.239	14.03424
995.61	27.06885
995.98	-9.02233
996.351	10.02524
996.722	12.0284
997.092	19.0454
997.462	41.09815
997.833	-1.00237
998.203	-3.00732
998.573	-25.06307
998.943	18.04292
999.313	-37.08942
999.683	17.04108
1000.053	-20.04662
1000.423	-44.10816
1000.792	37.09696
1001.162	48.11847
1001.531	17.04224
1001.901	15.03752
1002.27	41.09284
1002.639	-9.02323
1003.009	-2.00483
1003.378	-9.02313
1003.747	32.07621
1004.116	11.0267
1004.485	-24.05771
1004.853	15.03807
1005.222	-2.0051
1005.591	-5.01202
1005.959	58.13489
1006.328	-3.00692
1006.696	-9.0219
1007.064	55.1391
1007.433	29.07201
1007.801	13.03165
1008.169	34.08671
1008.537	6.01331
1008.905	-18.0429
1009.273	29.07196
1009.64	18.04376
1010.008	12.02894
1010.375	-23.05491
1010.743	57.13149
1011.11	2.00482
1011.478	12.02968
1011.845	22.05193
1012.212	29.06693
1012.579	26.06405
1012.946	22.0528
1013.313	1.00237
1013.68	29.06527
1014.047	33.08056
1014.414	-14.03371
1014.78	10.02496
1015.147	-25.06083
1015.513	12.02921
1015.88	35.08915
1016.246	7.01736
1016.612	32.0738
1016.978	91.22257
1017.344	26.06448
1017.71	8.01926
1018.076	-10.02374
1018.442	-11.02845
1018.808	-5.01266
1019.174	18.04569
1019.539	45.10223
1019.905	-42.10079
1020.27	-5.01253
1020.636	9.02162
1021.001	38.09203
1021.366	-30.07279
1021.731	4.01035
1022.096	-34.08662
1022.461	-18.04264
1022.826	33.07936
1023.191	10.02633
1023.556	44.10358
1023.92	22.0539
1024.285	16.03908
1024.649	6.01473
1025.014	-11.02733
1025.378	6.0153
1025.742	30.07489
1026.107	39.08846
1026.471	58.13393
1026.835	-30.0748
1027.199	-6.01473
1027.562	24.05665
1027.926	-24.05902
1028.29	55.14088
1028.654	24.05595
1029.017	4.00984
1029.381	13.03196
1029.744	14.03614
1030.107	-41.09748
1030.471	-11.02661
1030.834	34.07757
1031.197	4.0096
1031.56	1.00237
1031.923	1.0026
1032.286	-28.06574
1032.648	60.14388
1033.011	51.11938
1033.374	-5.01175
1033.736	8.02136
1034.099	45.11088
1034.461	34.08753
1034.823	-1.00252
1035.185	23.05834
1035.548	28.06868
1035.91	45.10892
1036.272	11.02542
1036.634	-13.03182
1036.995	-27.06394
1037.357	-40.09905
1037.719	-15.03666
1038.08	-7.01658
1038.442	8.01916
1038.803	0
1039.165	11.02781
1039.526	15.03635
1039.887	34.08194
1040.248	30.07548
1040.609	9.02223
1040.97	44.10923
1041.331	19.04802
1041.692	-30.07191
1042.053	32.07298
1042.413	34.07914
1042.774	24.05845
1043.134	9.02133
1043.495	27.06787
1043.855	-56.13811
1044.215	-31.07731
1044.576	6.01466
1044.936	-52.11979
1045.296	0
1045.656	15.03703
1046.016	30.07268
1046.375	60.14716
1046.735	15.03488
1047.095	14.03321
1047.454	-2.00425
1047.814	-47.11363
1048.173	15.03557
1048.533	9.02091
1048.892	36.08807
1049.251	-2.00503
1049.61	17.04229
1049.969	-36.08564
1050.328	5.01099
1050.687	9.02216
1051.046	-33.08134
1051.405	13.03255
1051.763	19.04427
1052.122	52.1314
1052.48	-29.07167
1052.839	-15.03588
1053.197	-19.04495
1053.555	6.01346
1053.914	18.04434
1054.272	-19.04611
1054.63	80.19687
1054.988	-68.16517
1055.345	22.04822
1055.703	-5.01202
1056.061	2.00518
1056.419	4.01043
1056.776	-8.01942
1057.134	-4.00943
1057.491	15.03767
1057.848	9.02255
1058.206	-1.00239
1058.563	-10.02259
1058.92	25.05779
1059.277	-23.05688
1059.634	49.11609
1059.991	-21.05014
1060.348	19.0442
1060.704	-30.07301
1061.061	-33.07561
1061.418	3.00741
1061.774	29.07209
1062.131	3.00798
1062.487	-20.04734
1062.843	17.04266
1063.199	-21.05258
1063.555	-1.00234
1063.911	26.06624
1064.267	-5.01054
1064.623	25.06144
1064.979	-27.06355
1065.335	-32.07606
1065.691	-34.08166
1066.046	-36.08011
1066.402	11.02551
1066.757	-17.04293
1067.112	-22.05372
1067.468	-13.03135
1067.823	24.0581
1068.178	11.02666
1068.533	2.00486
1068.888	54.12944
1069.243	13.03232
1069.598	11.02708
1069.952	22.05086
1070.307	19.04776
1070.662	35.0843
1071.016	5.01151
1071.371	21.04821
1071.725	32.07642
1072.079	-11.02648
1072.434	-29.0718
1072.788	54.13058
1073.142	3.00741
1073.496	44.10736
1073.85	-13.03042
1074.203	-33.08014
1074.557	6.01608
1074.911	17.04048
1075.265	-14.03291
1075.618	14.03439
1075.971	15.03606
1076.325	25.06415
1076.678	57.13369
1077.031	43.0988
1077.385	24.05378
1077.738	33.07643
1078.091	-18.04252
1078.444	58.13516
1078.796	22.05426
1079.149	7.01744
1079.502	34.08163
1079.855	32.07571
1080.207	12.02953
1080.56	16.04189
1080.912	21.05152
1081.264	-19.04645
1081.617	41.10158
1081.969	0
1082.321	27.06687
1082.673	36.08442
1083.025	24.05687
1083.377	-244.55555
1083.728	17.03997
1084.08	31.07824
1084.432	-13.03204
1084.783	-19.0446
1085.135	21.05307
1085.486	1.00235
1085.838	19.04713
1086.189	8.01965
1086.54	4.00955
1086.891	-30.07772
1087.242	-45.11129
1087.593	-24.05825
1087.944	62.14248
1088.295	-4.00911
1088.646	-9.02207
1088.996	-4.00985
1089.347	-16.03972
1089.698	72.17299
1090.048	3.0078
1090.398	-14.03288
1090.749	19.04548
1091.099	4.0102
1091.449	-23.05767
1091.799	12.03051
1092.149	20.05025
1092.499	-38.0932
1092.849	7.01792
1093.199	9.02243
1093.548	18.04343
1093.898	33.08358
1094.248	-25.06444
1094.597	-18.04707
1094.947	31.08269
1095.296	-10.02509
1095.645	-6.01565
1095.994	76.1835
1096.343	-1.00253
1096.692	32.08523
1097.041	18.04923
1097.39	5.0126
1097.739	-30.07817
1098.088	46.12273
1098.437	-15.03997
1098.785	0
1099.134	25.06633
1099.482	-23.06353
1099.83	-16.04191
1100.179	-36.09541
1100.527	36.09624
1100.875	-1.00267
1101.223	-18.04791
1101.571	-4.01118
1101.919	-3.00798
1102.267	-9.02547
1102.615	-5.01611
1102.962	-9.02899
1103.31	-6.01934
1103.658	-2.00644
