Data from N2 R3 sample 8_Subt2__1__17-15-22-147.txt Node

Date: Wed Aug 27 17:15:22 PDT 2025
User: uwsun
Spectrometer: HDX01956
Trigger mode: 0
Integration Time (sec): 5.000000E-1
Scans to average: 1
Nonlinearity correction enabled: true
Boxcar width: 0
Storing dark spectrum: false
XAxis mode: Wavelengths
Number of Pixels in Spectrum: 2068
>>>>>Begin Spectral Data<<<<<
194.03	129.36941
194.578	122.39251
195.127	133.42165
195.676	135.42903
196.225	153.41028
196.773	139.38827
197.321	172.47769
197.87	241.62072
198.418	291.75103
198.966	279.72879
199.513	290.73087
200.061	255.65632
200.609	253.66584
201.156	265.59126
201.704	293.74595
202.251	284.74803
202.798	281.73776
203.345	307.75747
203.892	259.65358
204.438	304.72781
204.985	269.64538
205.532	266.69945
206.078	340.83254
206.624	322.79549
207.17	298.69545
207.716	345.84369
208.262	281.56166
208.808	300.74496
209.354	325.79479
209.899	306.76594
210.445	278.69361
210.99	241.58941
211.535	318.74736
212.08	322.75381
212.625	311.77241
213.17	281.70275
213.715	223.51297
214.259	310.71805
214.804	319.78447
215.348	276.63652
215.892	296.70785
216.436	310.71264
216.98	306.67948
217.524	284.67163
218.068	262.65275
218.612	323.80804
219.155	296.69567
219.698	310.7297
220.242	292.7161
220.785	261.61163
221.328	279.69371
221.871	222.55512
222.414	292.72431
222.956	228.55523
223.499	259.58838
224.041	267.63058
224.583	257.55347
225.126	309.68572
225.668	270.66093
226.21	251.63045
226.751	233.52267
227.293	246.56508
227.835	253.61622
228.376	258.60164
228.918	294.73352
229.459	297.7398
230	204.48656
230.541	307.70955
231.082	242.59284
231.622	322.7479
232.163	282.68492
232.704	278.69085
233.244	208.51296
233.784	245.59562
234.324	249.55557
234.864	254.57995
235.404	245.57908
235.944	238.56395
236.484	250.61629
237.023	302.71336
237.563	259.60267
238.102	252.5865
238.641	208.52593
239.18	243.57524
239.719	287.71723
240.258	256.57744
240.797	313.74949
241.335	264.64241
241.874	227.4512
242.412	232.55906
242.95	297.7139
243.488	252.58534
244.026	226.52516
244.564	280.57589
245.102	318.7202
245.64	300.71851
246.177	222.50178
246.715	295.69723
247.252	254.58182
247.789	271.50349
248.326	276.67009
248.863	297.65361
249.4	257.57839
249.936	310.64793
250.473	261.61163
251.009	322.73933
251.546	268.60352
252.082	253.55281
252.618	299.67235
253.154	263.63195
253.69	310.69951
254.226	236.55662
254.761	272.61528
255.297	271.60465
255.832	227.53695
256.367	308.72668
256.903	291.64282
257.438	250.58207
257.972	311.69933
258.507	306.70906
259.042	242.52396
259.576	266.58158
260.111	298.68341
260.645	266.5742
261.179	244.56945
261.713	275.61586
262.247	284.65418
262.781	241.50897
263.315	272.65964
263.849	346.851
264.382	273.62295
264.915	334.78404
265.449	291.71272
265.982	325.73051
266.515	333.8001
267.048	271.57032
267.58	255.55506
268.113	294.64008
268.646	323.78932
269.178	323.72899
269.71	265.57168
270.243	343.77065
270.775	287.72551
271.307	278.66075
271.838	278.65082
272.37	348.83693
272.902	333.75033
273.433	284.62356
273.965	322.77148
274.496	280.68464
275.027	328.80525
275.558	261.63333
276.089	321.78851
276.62	328.81566
277.15	312.75946
277.681	274.59806
278.211	310.75149
278.741	315.69699
279.272	338.76549
279.802	332.81808
280.332	321.75573
280.861	352.8324
281.391	311.70363
281.921	296.69784
282.45	338.83286
282.98	358.9096
283.509	337.75406
284.038	309.69911
284.567	288.66128
285.096	324.76917
285.625	258.58219
286.153	335.77702
286.682	338.77357
287.21	336.79519
287.739	330.77072
288.267	329.78749
288.795	341.87667
289.323	340.78502
289.851	340.7769
290.378	371.82944
290.906	378.90733
291.433	339.82717
291.961	348.78717
292.488	284.69261
293.015	360.83152
293.542	370.91872
294.069	406.97673
294.596	346.83496
295.122	372.86844
295.649	350.75583
296.175	377.89719
296.702	370.87326
297.228	387.91072
297.754	352.77869
298.28	385.86109
298.806	342.79905
299.332	368.81272
299.857	373.82462
300.383	343.84098
300.908	415.99213
301.433	405.95121
301.958	390.89112
302.483	398.9727
303.008	319.76211
303.533	414.04128
304.058	385.87421
304.582	413.96053
305.107	364.92647
305.631	398.87969
306.155	419.95447
306.679	422.96266
307.203	407.91965
307.727	395.92194
308.251	354.84295
308.775	421.96908
309.298	468.08393
309.822	392.9552
310.345	415.94689
310.868	416.95853
311.391	417.97823
311.914	454.09861
312.437	419.91391
312.96	458.03217
313.482	426.97491
314.005	474.14408
314.527	412.03476
315.049	459.1001
315.571	461.99016
316.093	428.01262
316.615	427.98563
317.137	441.92273
317.659	431.98893
318.18	459.04728
318.702	502.12091
319.223	477.94105
319.744	487.04632
320.265	484.11307
320.786	511.19979
321.307	509.19927
321.828	506.07391
322.348	500.10079
322.869	501.12949
323.389	750.13759
323.909	519.12764
324.43	517.15421
324.95	542.16695
325.47	589.34707
325.989	527.16155
326.509	556.16225
327.029	576.21582
327.548	552.15999
328.067	575.29762
328.587	551.253
329.106	599.2824
329.625	585.40146
330.144	564.19774
330.662	604.29618
331.181	601.2817
331.7	582.24676
332.218	684.33612
332.736	575.22511
333.255	649.37941
333.773	593.2761
334.291	642.42865
334.808	631.27236
335.326	677.37213
335.844	678.42705
336.361	696.57766
336.879	697.47319
337.396	715.52973
337.913	742.54137
338.43	758.4942
338.947	747.57416
339.464	758.44873
339.981	774.60791
340.497	776.66856
341.014	759.63024
341.53	802.56996
342.046	784.66628
342.562	840.77997
343.078	742.53247
343.594	859.75892
344.11	832.68325
344.626	818.7657
345.141	829.5988
345.657	884.64683
346.172	846.74671
346.687	860.68128
347.202	911.7337
347.717	856.72318
348.232	947.98373
348.747	914.76257
349.261	918.67314
349.776	910.80013
350.29	942.95114
350.805	1005.05099
351.319	966.84877
351.833	934.77798
352.347	935.82337
352.861	1031.96437
353.374	993.84162
353.888	910.78671
354.401	970.84305
354.915	1077.98192
355.428	1033.07404
355.941	1016.90724
356.454	1024.81139
356.967	980.8693
357.48	998.8312
357.993	1093.12043
358.505	1036.04436
359.018	1139.19524
359.53	1028.94966
360.042	1113.91994
360.554	1058.99985
361.066	1147.19175
361.578	1045.79272
362.09	1100.05276
362.602	1002.73842
363.113	1124.01428
363.625	1154.96724
364.136	1153.93034
364.647	1128.01631
365.158	1170.08312
365.669	1233.23911
366.18	1184.10489
366.691	1147.9119
367.201	1231.18598
367.712	1254.13956
368.222	1182.00968
368.733	1187.90669
369.243	1296.07533
369.753	1258.09612
370.263	1374.3804
370.773	1394.50405
371.282	1357.29593
371.792	1402.26278
372.301	1441.45329
372.811	1432.63394
373.32	1506.15722
373.829	1433.28929
374.338	1579.26108
374.847	1652.39709
375.356	1583.40343
375.865	1721.1666
376.373	1703.30498
376.882	1824.75887
377.39	1847.59115
377.898	1869.70315
378.407	2030.45454
378.915	2049.17232
379.423	2166.51139
379.93	2200.33038
380.438	2363.63906
380.946	2426.40972
381.453	2488.54243
381.96	2611.3671
382.468	2721.27517
382.975	2944.33487
383.482	3138.97714
383.989	3141.54435
384.495	3244.92105
385.002	3516.23132
385.509	3566.59185
386.015	3793.67722
386.521	3900.95458
387.028	4217.72899
387.534	4277.37814
388.04	4498.63831
388.546	4491.32814
389.051	4615.04505
389.557	5150.98101
390.063	5605.63492
390.568	5816.89687
391.073	5994.5895
391.578	6216.71723
392.084	6381.64358
392.589	6543.67314
393.093	6993.13301
393.598	7687.41744
394.103	8396.39671
394.607	9266.94295
395.112	10038.66593
395.616	10660.2711
396.12	11461.53043
396.624	12832.43173
397.128	13966.46696
397.632	15494.72579
398.136	16911.39601
398.639	17657.11169
399.143	19099.6899
399.646	21922.32662
400.15	24433.80677
400.653	26678.09672
401.156	29824.47444
401.659	34575.84936
402.162	41394.13485
402.664	45528.58963
403.167	32260.27245
403.67	3851.94142
404.172	0
404.674	0
405.176	0
405.678	0
406.18	0
406.682	0
407.184	0
407.686	12367.42319
408.187	34596.90747
408.688	44563.94194
409.19	48906.19284
409.691	51236.67962
410.192	52883.26968
410.693	53713.23343
411.194	53168.02339
411.694	50731.447
412.195	47574.50308
412.696	42964.22068
413.196	39686.03237
413.696	37982.45761
414.196	38476.22406
414.696	38035.1746
415.196	36473.00216
415.696	33886.42773
416.196	28728.53966
416.695	21862.89592
417.195	18379.12359
417.694	17159.84969
418.194	16340.86142
418.693	14996.64579
419.192	14347.0476
419.691	14209.48148
420.19	13963.24422
420.688	13481.88607
421.187	13039.85175
421.685	12157.39671
422.184	11114.59575
422.682	9853.45426
423.18	8526.22179
423.678	7387.6396
424.176	6846.99858
424.674	6519.78131
425.172	6156.81784
425.669	5832.05676
426.167	5380.04106
426.664	4859.264
427.161	4601.61568
427.659	4119.33951
428.156	3840.8284
428.652	3681.08009
429.149	3540.89301
429.646	3305.64438
430.143	3179.11801
430.639	2977.16747
431.135	2812.54121
431.632	2735.25661
432.128	2359.35111
432.624	2394.77638
433.12	2201.22915
433.616	2160.12442
434.111	2106.50852
434.607	2075.5064
435.103	1970.05148
435.598	1908.92611
436.093	1821.33171
436.588	1665.10901
437.083	1646.19983
437.578	1462.01196
438.073	1495.41205
438.568	1416.25363
439.062	1406.89625
439.557	1329.06447
440.051	1207.90405
440.546	1255.9757
441.04	1224.05584
441.534	1133.05172
442.028	1146.93997
442.522	1083.88881
443.015	1078.71857
443.509	1135.02835
444.002	1068.92858
444.496	1011.61542
444.989	1021.85709
445.482	1029.91136
445.975	963.6569
446.468	1040.67659
446.961	944.49209
447.454	974.69148
447.947	862.58038
448.439	927.72751
448.931	831.44214
449.424	884.72989
449.916	936.737
450.408	827.45035
450.9	804.52198
451.392	790.58653
451.884	815.47267
452.375	781.54429
452.867	763.34766
453.358	781.41039
453.849	757.29051
454.341	758.34403
454.832	742.2829
455.323	760.50376
455.814	730.34868
456.304	724.35026
456.795	728.36511
457.285	670.21479
457.776	627.16527
458.266	680.34274
458.756	665.33856
459.247	641.28249
459.737	642.30436
460.226	613.16466
460.716	644.28761
461.206	576.18124
461.695	606.29321
462.185	589.19026
462.674	608.18349
463.163	608.15149
463.653	578.04392
464.142	502.05567
464.63	536.12483
465.119	558.11333
465.608	566.1356
466.096	541.0361
466.585	481.9837
467.073	492.03233
467.561	519.09029
468.05	512.04457
468.538	476.03208
469.026	453.95832
469.513	460.863
470.001	549.12807
470.489	561.18903
470.976	405.83578
471.463	435.97329
471.951	403.90208
472.438	444.94277
472.925	420.90814
473.412	394.87558
473.899	377.79337
474.385	373.8425
474.872	368.78925
475.359	429.96303
475.845	377.73223
476.331	352.71483
476.817	329.74011
477.303	335.72546
477.789	323.72602
478.275	339.78256
478.761	371.83423
479.247	308.64347
479.732	298.70091
480.218	299.72279
480.703	298.69326
481.188	241.48998
481.673	252.55051
482.158	330.67903
482.643	315.75112
483.128	295.64702
483.612	231.51775
484.097	239.5592
484.581	229.50418
485.066	285.66028
485.55	258.54379
486.034	213.45023
486.518	187.42069
487.002	255.60761
487.486	220.51969
487.969	245.57279
488.453	195.47071
488.936	217.47516
489.42	185.40201
489.903	181.43675
490.386	219.35763
490.869	167.35517
491.352	203.47181
491.835	179.3631
492.318	233.51449
492.8	242.49706
493.283	183.44907
493.765	179.4298
494.247	195.44174
494.73	142.30746
495.212	115.26919
495.694	172.39479
496.175	141.33018
496.657	153.35378
497.139	151.26463
497.62	149.35028
498.102	164.40237
498.583	146.35941
499.064	94.20692
499.545	179.40022
500.026	79.17817
500.507	137.3149
500.988	172.41637
501.469	118.29187
501.949	88.21287
502.43	115.27246
502.91	128.26647
503.39	46.11424
503.87	107.25027
504.35	87.20245
504.83	99.21779
505.31	63.15191
505.79	52.12531
506.269	81.18775
506.749	50.11486
507.228	67.15745
507.707	50.11099
508.187	92.21649
508.666	4.00979
509.145	36.08468
509.623	117.27452
510.102	46.11132
510.581	41.09755
511.059	71.17797
511.538	44.11213
512.016	81.19479
512.494	108.26213
512.972	7.01664
513.45	12.02836
513.928	111.26775
514.406	106.25728
514.884	76.19362
515.361	7.01669
515.839	33.07616
516.316	87.2089
516.793	83.20812
517.27	44.10612
517.747	64.16437
518.224	19.04407
518.701	19.04297
519.178	30.07437
519.654	20.04759
520.131	32.07907
520.607	68.16635
521.083	41.09458
521.56	-3.00712
522.036	9.02007
522.512	31.07557
522.987	0
523.463	37.08851
523.939	34.08246
524.414	65.15036
524.89	74.17651
525.365	-21.04802
525.84	-10.02414
526.315	52.12555
526.79	-8.01819
527.265	36.08339
527.74	-1.00244
528.215	128.30425
528.689	-7.01576
529.164	18.03996
529.638	65.16568
530.112	-11.02636
530.587	59.12914
531.061	38.09251
531.534	10.02455
532.008	35.0851
532.482	14.03212
532.956	1.00255
533.429	40.09618
533.903	37.08177
534.376	25.05661
534.849	-11.02559
535.322	55.13006
535.795	-37.091
536.268	29.07027
536.741	20.04781
537.213	33.07637
537.686	20.0488
538.158	20.04578
538.631	-33.08002
539.103	31.07097
539.575	14.0295
540.047	48.10708
540.519	55.12985
540.991	67.16088
541.463	32.07726
541.934	20.04572
542.406	-24.05742
542.877	-13.02941
543.348	-13.03073
543.82	20.04873
544.291	-12.0279
544.762	57.1351
545.233	68.16783
545.703	19.0425
546.174	40.09317
546.645	33.07939
547.115	61.14697
547.585	56.12684
548.056	76.18065
548.526	69.16145
548.996	34.08104
549.466	101.24031
549.935	122.2853
550.405	89.19414
550.875	123.28532
551.344	112.26232
551.814	145.32661
552.283	132.27957
552.752	142.31966
553.221	143.30585
553.69	179.38185
554.159	204.48377
554.628	204.44528
555.096	256.61478
555.565	291.62749
556.033	216.48722
556.502	214.50062
556.97	182.38732
557.438	226.5104
557.906	274.61678
558.374	263.57709
558.842	250.57243
559.31	277.59372
559.777	283.65175
560.245	242.5356
560.712	288.62861
561.18	335.70096
561.647	295.62137
562.114	387.83769
562.581	381.85916
563.048	397.85015
563.514	430.97418
563.981	483.00694
564.448	451.92193
564.914	414.87755
565.381	496.01141
565.847	505.0585
566.313	556.16789
566.779	594.20065
567.245	545.12537
567.711	598.27446
568.176	606.18967
568.642	644.40941
569.108	732.54286
569.573	689.38694
570.038	801.40538
570.504	800.51365
570.969	706.49386
571.434	812.4706
571.899	845.6749
572.363	875.62318
572.828	846.56734
573.293	981.81842
573.757	957.75713
574.222	946.71386
574.686	933.69926
575.15	982.88577
575.614	942.74989
576.078	941.76664
576.542	959.73262
577.006	1024.80201
577.469	978.87898
577.933	982.75851
578.396	970.83502
578.86	999.86379
579.323	989.89969
579.786	943.60945
580.249	886.64241
580.712	921.80537
581.175	898.81278
581.637	861.59954
582.1	786.39379
582.563	816.43064
583.025	821.65151
583.487	800.34828
583.95	736.34217
584.412	679.19585
584.874	735.51427
585.336	687.3937
585.797	667.22685
586.259	652.31627
586.721	644.30962
587.182	621.23897
587.643	532.04808
588.105	526.07659
588.566	511.93154
589.027	512.08761
589.488	482.96677
589.949	504.0757
590.41	515.89373
590.87	414.82808
591.331	421.81496
591.791	432.8957
592.252	382.78638
592.712	363.77903
593.172	371.75737
593.632	345.67167
594.092	326.66052
594.552	306.59446
595.011	296.628
595.471	295.60688
595.931	299.60873
596.39	319.70643
596.849	274.58893
597.308	217.42891
597.768	309.72862
598.227	253.55935
598.685	271.56856
599.144	321.69188
599.603	286.62319
600.062	276.54591
600.52	276.57125
600.978	249.55028
601.437	260.54897
601.895	274.5295
602.353	220.45024
602.811	300.61758
603.269	263.57612
603.727	280.61814
604.184	285.59661
604.642	222.50137
605.099	359.76513
605.557	262.58808
606.014	283.56303
606.471	272.62929
606.928	246.49227
607.385	285.64324
607.842	366.76734
608.299	383.806
608.755	372.80333
609.212	416.83747
609.668	327.66391
610.125	349.75577
610.581	340.71599
611.037	355.72471
611.493	342.72875
611.949	336.73213
612.405	359.67299
612.861	310.65856
613.316	328.72348
613.772	330.68178
614.227	331.70025
614.683	348.67542
615.138	345.73881
615.593	353.75561
616.048	363.75719
616.503	351.76594
616.958	319.72408
617.412	322.69805
617.867	353.72357
618.321	433.81574
618.776	346.69559
619.23	349.7435
619.684	385.79487
620.138	327.67877
620.592	261.58282
621.046	315.66903
621.5	326.7287
621.954	327.6718
622.407	318.64933
622.861	309.69569
623.314	288.60436
623.768	303.65196
624.221	293.53678
624.674	266.56854
625.127	287.61727
625.58	232.48599
626.033	206.42216
626.485	274.61652
626.938	248.54658
627.39	281.61087
627.843	228.49176
628.295	176.38368
628.747	274.60843
629.199	264.56035
629.651	228.49513
630.103	237.51369
630.555	261.52943
631.006	188.41887
631.458	222.50055
631.909	167.36352
632.361	199.44475
632.812	194.43044
633.263	165.34128
633.714	216.44787
634.165	141.32539
634.616	113.25942
635.067	121.25667
635.518	143.32777
635.968	146.28431
636.419	148.31044
636.869	79.18057
637.319	184.42013
637.769	95.20758
638.219	177.4057
638.669	93.21599
639.119	55.1296
639.569	96.22652
640.019	45.10174
640.468	68.15013
640.918	65.15144
641.367	61.13633
641.816	57.12408
642.265	56.12648
642.714	48.10925
643.163	57.12876
643.612	35.08388
644.061	35.07382
644.51	25.05694
644.958	62.13659
645.406	41.09714
645.855	78.18989
646.303	33.07673
646.751	53.12021
647.199	33.07412
647.647	-3.0069
648.095	30.06864
648.543	102.20998
648.99	68.16145
649.438	24.0552
649.885	-6.01465
650.333	28.05546
650.78	57.13687
651.227	66.15953
651.674	82.18678
652.121	44.10684
652.568	50.12141
653.015	31.07801
653.461	-4.00954
653.908	31.07174
654.354	16.03834
654.801	82.19461
655.247	3.00658
655.693	11.02836
656.139	87.2097
656.585	29.07014
657.031	70.16568
657.477	30.0664
657.922	22.05159
658.368	49.12163
658.813	39.09101
659.259	25.06042
659.704	40.09405
660.149	41.09669
660.594	32.07665
661.039	50.11426
661.484	70.16626
661.929	67.15597
662.373	48.12207
662.818	18.04495
663.262	27.06567
663.707	23.05836
664.151	18.04392
664.595	21.05186
665.039	17.04244
665.483	51.13141
665.927	-19.0451
666.371	43.10258
666.814	68.16325
667.258	-8.01942
667.701	41.08982
668.145	46.11491
668.588	29.07196
669.031	-12.02913
669.474	28.06824
669.917	27.06054
670.36	-7.01765
670.803	25.06119
671.245	67.14609
671.688	14.03431
672.13	37.08614
672.573	34.08653
673.015	5.01221
673.457	55.12323
673.899	14.03438
674.341	-8.01965
674.783	31.07582
675.225	17.04273
675.666	44.10828
676.108	-43.09587
676.549	-7.01685
676.991	38.08631
677.432	108.22724
677.873	-8.01905
678.314	54.13043
678.755	24.05987
679.196	62.14669
679.637	27.06709
680.078	66.15682
680.518	43.10144
680.959	-13.03152
681.399	25.06285
681.839	51.12585
682.28	6.01521
682.72	53.12523
683.16	32.08121
683.6	16.0372
684.039	7.01506
684.479	21.05254
684.919	50.11981
685.358	26.06642
685.798	79.21018
686.237	35.08589
686.676	-38.08963
687.115	-14.03389
687.554	4.0098
687.993	38.08631
688.432	14.03293
688.871	33.07725
689.309	26.06382
689.748	57.12307
690.186	33.08044
690.625	35.08449
691.063	62.15223
691.501	55.13846
691.939	39.09986
692.377	44.11015
692.815	-1.00247
693.253	-7.01718
693.69	-6.01373
694.128	55.13687
694.565	29.07069
695.003	6.01549
695.44	62.14981
695.877	26.06275
696.314	65.14329
696.751	6.01397
697.188	-21.04964
697.625	22.05114
698.061	20.04958
698.498	51.12543
698.934	39.09571
699.371	-9.02193
699.807	61.14714
700.243	1.00246
700.679	43.09963
701.115	-15.03581
701.551	-9.02171
701.987	64.1472
702.422	24.05867
702.858	56.13648
703.294	-9.02076
703.729	33.08194
704.164	15.03674
704.599	35.07984
705.035	-34.07945
705.47	-14.03478
705.904	15.03628
706.339	14.03328
706.774	25.06042
707.209	28.06697
707.643	10.02459
708.078	13.03221
708.512	10.02562
708.946	-4.00978
709.38	52.12588
709.814	41.09714
710.248	34.0849
710.682	44.1074
711.116	28.06967
711.549	46.12114
711.983	7.01674
712.416	63.15128
712.85	46.11682
713.283	-11.02668
713.716	32.08069
714.149	29.07003
714.582	18.04194
715.015	7.01777
715.448	34.08711
715.881	-25.05562
716.313	-42.10049
716.746	27.0653
717.178	39.09596
717.61	25.06408
718.043	31.07829
718.475	17.04189
718.907	20.05075
719.339	20.04719
719.77	-28.06878
720.202	25.06442
720.634	28.06999
721.065	34.08299
721.497	9.02267
721.928	17.04292
722.359	-4.01006
722.79	-5.01242
723.221	13.03314
723.652	17.04414
724.083	25.05859
724.514	-34.08051
724.945	1.00242
725.375	54.12994
725.806	-7.01758
726.236	-14.03627
726.666	16.03911
727.096	40.10075
727.526	0
727.956	18.04265
728.386	45.1132
728.816	69.18002
729.246	32.0795
729.675	-21.05304
730.105	21.0529
730.534	1.00241
730.964	29.07415
731.393	11.02755
731.822	-7.01804
732.251	40.10345
732.68	22.05243
733.109	57.14431
733.537	21.05207
733.966	-2.00508
734.395	14.03328
734.823	3.00697
735.251	-19.04718
735.68	34.0861
736.108	28.07234
736.536	38.09258
736.964	5.01197
737.392	32.08144
737.82	-53.12953
738.247	52.12744
738.675	17.04088
739.102	26.06705
739.53	-2.00519
739.957	-4.01046
740.384	47.11645
740.811	6.01546
741.238	-8.01993
741.665	-14.03353
742.092	12.02927
742.519	16.04088
742.945	-17.04198
743.372	31.07832
743.798	33.08618
744.225	45.1099
744.651	12.0307
745.077	-2.0051
745.503	-5.0126
745.929	19.04675
746.355	-24.05941
746.781	15.03792
747.207	-19.04613
747.632	27.06768
748.058	-5.01265
748.483	52.12322
748.908	1.00254
749.334	30.07559
749.759	14.03422
750.184	-9.02206
750.609	0
751.033	-38.09088
751.458	31.07069
751.883	-21.0526
752.307	58.14041
752.732	-15.03907
753.156	44.11106
753.58	22.05312
754.005	35.08956
754.429	-2.00485
754.853	41.10414
755.277	-7.01688
755.7	40.10039
756.124	-1.00254
756.548	3.00737
756.971	35.08713
757.394	29.07561
757.818	19.04976
758.241	15.0388
758.664	39.10112
759.087	-23.05375
759.51	-4.01013
759.933	-33.08137
760.356	-27.07022
760.778	69.17482
761.201	34.08432
761.623	36.08882
762.046	-16.03853
762.468	57.13791
762.89	-31.07742
763.312	37.09097
763.734	35.08592
764.156	46.11561
764.578	32.07472
765	29.07259
765.421	40.10534
765.843	-5.01332
766.264	14.03403
766.686	0
767.107	23.05728
767.528	-14.03653
767.949	-43.1113
768.37	21.05288
768.791	27.0665
769.212	36.0931
769.632	16.03847
770.053	-1.00268
770.473	7.0174
770.894	-43.1091
771.314	11.02646
771.734	5.01204
772.154	18.04695
772.575	-14.03319
772.994	-47.11122
773.414	67.16186
773.834	-65.16533
774.254	41.10284
774.673	-12.02979
775.093	-19.04787
775.512	6.01526
775.931	1.00259
776.351	-3.00761
776.77	16.04042
777.189	-12.02938
777.607	-33.08556
778.026	-59.1506
778.445	-55.14103
778.864	-36.09349
779.282	13.03217
779.701	-12.03088
780.119	-42.10933
780.537	33.08409
780.955	33.08468
781.373	-21.05292
781.791	-10.02311
782.209	-37.08658
782.627	-28.07483
783.045	18.04239
783.462	-20.05185
783.88	5.01322
784.297	16.04121
784.715	14.03666
785.132	-21.05199
785.549	4.01027
785.966	-24.06147
786.383	-10.02513
786.8	-14.03292
787.217	5.01209
787.633	38.09718
788.05	-41.09815
788.466	26.06221
788.883	-36.09381
789.299	14.03422
789.715	24.0598
790.131	6.01525
790.547	-9.02264
790.963	10.02529
791.379	-11.02823
791.795	-15.03474
792.21	19.0455
792.626	-20.04831
793.041	-11.02777
793.457	22.05492
793.872	-12.02871
794.287	51.1259
794.702	-23.0574
795.117	30.07643
795.532	23.05852
795.947	28.06799
796.362	-8.01918
796.776	1.00234
797.191	24.06017
797.605	15.03637
798.02	20.0498
798.434	-3.00681
798.848	-19.04807
799.262	-20.05111
799.676	15.0368
800.09	-44.10959
800.504	57.13983
800.918	37.08749
801.331	-12.03158
801.745	-14.03256
802.158	18.04574
802.572	-25.06101
802.985	3.00737
803.398	14.03401
803.811	0
804.224	-3.00754
804.637	-32.07828
805.05	49.11533
805.462	28.07025
805.875	6.01591
806.288	-54.13333
806.7	10.02549
807.112	-6.01423
807.525	-6.01498
807.937	19.04778
808.349	-7.01763
808.761	-10.02475
809.173	-18.04461
809.584	-31.07689
809.996	28.07005
810.408	11.02893
810.819	21.05089
811.231	-15.04023
811.642	63.15609
812.053	80.19454
812.464	79.1902
812.875	83.21342
813.286	-11.02858
813.697	-19.04407
814.108	-17.04193
814.519	-31.07029
814.929	-21.05368
815.34	-13.032
815.75	13.03343
816.16	-7.01764
816.571	6.01583
816.981	-44.10491
817.391	-13.03209
817.801	-4.0101
818.211	9.0216
818.62	37.09077
819.03	47.11619
819.44	2.00525
819.849	6.01537
820.259	-9.0231
820.668	8.02001
821.077	-15.0383
821.486	41.10013
821.895	7.01732
822.304	10.02663
822.713	2.0048
823.122	32.08002
823.531	-1.00239
823.939	13.03213
824.348	1.00246
824.756	-3.0076
825.164	13.03274
825.573	1.00255
825.981	2.00495
826.389	26.06596
826.797	14.03586
827.205	34.07998
827.612	-5.01244
828.02	31.07441
828.428	-3.0077
828.835	-2.0053
829.243	7.01683
829.65	4.01008
830.057	-39.09581
830.464	-2.00493
830.871	-31.07489
831.278	20.0488
831.685	27.06127
832.092	34.08413
832.499	-5.01121
832.905	-12.03069
833.312	-3.00696
833.718	2.00501
834.124	-10.02309
834.531	53.13366
834.937	14.03611
835.343	-21.05165
835.749	20.04699
836.155	3.00796
836.561	5.01236
836.966	-3.00739
837.372	36.09249
837.777	6.01511
838.183	0
838.588	-10.0253
838.993	-27.06606
839.399	14.03514
839.804	17.04221
840.209	-19.04933
840.613	-3.00682
841.018	-11.02824
841.423	25.06444
841.828	-25.06406
842.232	-17.04234
842.637	-12.02881
843.041	-4.01041
843.445	4.01017
843.849	-39.09871
844.253	-10.02404
844.657	-18.04633
845.061	-53.12304
845.465	12.02969
845.869	26.06118
846.272	-7.01746
846.676	-86.20921
847.079	-6.01557
847.483	-16.04011
847.886	18.04397
848.289	14.03772
848.692	-29.07413
849.095	27.06545
849.498	11.0277
849.901	-18.04208
850.304	-40.09676
850.707	-3.0077
851.109	-30.0761
851.512	23.05761
851.914	7.01824
852.316	2.00512
852.718	38.10108
853.121	28.06982
853.523	56.13495
853.925	-8.02126
854.326	-14.03579
854.728	0
855.13	-10.02613
855.531	20.04902
855.933	-3.00731
856.334	-2.00505
856.736	0
857.137	19.04507
857.538	22.0564
857.939	22.05561
858.34	15.03691
858.741	3.00791
859.142	-12.02914
859.542	11.02926
859.943	49.12362
860.343	0
860.744	21.0515
861.144	21.05165
861.544	36.08888
861.945	11.02841
862.345	5.01234
862.745	-25.06282
863.145	10.02389
863.544	0
863.944	12.02903
864.344	-51.12816
864.743	11.0273
865.143	32.08321
865.542	23.05441
865.941	8.01992
866.34	-10.02408
866.74	-3.0081
867.139	3.00729
867.537	6.01543
867.936	-9.022
868.335	-15.03853
868.734	27.0696
869.132	-9.02127
869.531	0
869.929	26.06097
870.327	-7.01723
870.726	-1.0025
871.124	-3.00704
871.522	1.00256
871.92	-4.01002
872.318	-32.07904
872.715	-2.00493
873.113	-1.00247
873.511	-22.0546
873.908	-53.13671
874.306	22.05559
874.703	3.00756
875.1	3.00766
875.497	9.02184
875.894	8.02009
876.291	-53.13103
876.688	-15.0392
877.085	9.02174
877.482	26.06561
877.878	24.05878
878.275	16.04088
878.671	-34.07569
879.068	5.01218
879.464	33.08083
879.86	8.01934
880.256	-30.07489
880.652	24.062
881.048	26.06462
881.444	-16.03834
881.84	10.02575
882.236	-6.01521
882.631	3.00742
883.027	18.04341
883.422	23.05964
883.817	42.10764
884.213	35.0905
884.608	18.04531
885.003	44.10812
885.398	6.01525
885.793	-9.02296
886.188	25.06336
886.582	69.17606
886.977	28.06727
887.371	-51.12935
887.766	-40.10183
888.16	-20.05075
888.554	6.01471
888.949	-21.05309
889.343	35.08583
889.737	-20.05433
890.131	-11.02803
890.525	34.08799
890.918	16.04075
891.312	-54.13127
891.706	11.02894
892.099	-5.0128
892.492	-2.00436
892.886	20.05005
893.279	31.08021
893.672	16.04122
894.065	-2.00505
894.458	4.01008
894.851	-2.00488
895.244	42.10828
895.637	20.04849
896.029	33.08191
896.422	19.04678
896.814	28.07083
897.206	-22.05362
897.599	9.02223
897.991	-5.01232
898.383	-41.09838
898.775	-38.08789
899.167	4.00958
899.559	2.00506
899.951	41.0977
900.342	17.04361
900.734	6.01525
901.125	58.15325
901.517	-29.07201
901.908	14.03357
902.299	34.08506
902.69	10.02393
903.082	-18.04356
903.473	3.00736
903.863	-22.05646
904.254	-11.02585
904.645	-5.01238
905.036	-10.02475
905.426	26.06004
905.817	11.02739
906.207	24.05838
906.597	-30.07186
906.987	-8.02062
907.378	3.00763
907.768	-4.01069
908.158	-28.06944
908.547	25.06585
908.937	27.06875
909.327	19.04633
909.717	-4.01015
910.106	13.03195
910.495	17.04244
910.885	2.00513
911.274	21.053
911.663	-7.01782
912.052	5.01235
912.441	13.03357
912.83	40.09343
913.219	18.04697
913.608	-31.07605
913.997	8.02044
914.385	38.09175
914.774	21.05152
915.162	18.04377
915.55	-29.07067
915.939	-13.03331
916.327	-42.10495
916.715	5.01306
917.103	54.13244
917.491	19.0473
917.878	50.12399
918.266	-21.05477
918.654	-4.01031
919.041	-17.04487
919.429	-52.12474
919.816	25.0637
920.203	-11.02706
920.591	1.00249
920.978	48.11747
921.365	13.03433
921.752	-8.01928
922.139	37.08068
922.525	8.01988
922.912	22.0538
923.299	67.16879
923.685	-13.03411
924.072	31.0718
924.458	7.01755
924.844	25.06305
925.231	29.06844
925.617	28.07276
926.003	44.11233
926.389	-25.0637
926.774	4.01023
927.16	10.02507
927.546	-8.02071
927.931	61.15307
928.317	28.06507
928.702	-2.00475
929.088	24.05832
929.473	-17.0439
929.858	19.04725
930.243	-31.07596
930.628	27.06695
931.013	-22.05543
931.398	-14.03215
931.783	-14.03672
932.167	-19.04678
932.552	-39.09807
932.937	36.08928
933.321	4.01022
933.705	10.02538
934.09	-20.05005
934.474	35.08375
934.858	7.01811
935.242	-7.01644
935.626	0
936.009	16.04293
936.393	-4.0102
936.777	-22.05654
937.16	23.06035
937.544	-1.00236
937.927	5.01278
938.311	0
938.694	-31.08212
939.077	6.01465
939.46	-29.07148
939.843	31.06504
940.226	43.11107
940.609	46.10774
940.991	55.14088
941.374	-39.09702
941.757	52.1291
942.139	-17.03879
942.522	-12.02847
942.904	7.0169
943.286	3.00765
943.668	41.10697
944.05	31.07734
944.432	42.10522
944.814	36.08999
945.196	27.06751
945.578	-10.0246
945.959	23.05447
946.341	28.06799
946.722	-17.04018
947.104	0
947.485	12.02862
947.866	8.0205
948.247	-14.03589
948.628	60.14623
949.009	26.06722
949.39	-15.03754
949.771	11.02588
950.152	-8.01996
950.532	-27.06831
950.913	35.08592
951.293	8.02191
951.674	-13.03186
952.054	-10.02509
952.434	-8.02001
952.814	-56.13352
953.194	-2.0052
953.574	-18.04448
953.954	41.09826
954.334	-12.03025
954.714	-27.06726
955.093	-40.09847
955.473	10.02524
955.853	8.02068
956.232	12.0327
956.611	5.01198
956.99	-68.17232
957.37	32.08155
957.749	-7.01689
958.128	20.05045
958.506	3.00787
958.885	-12.03064
959.264	28.06989
959.643	91.20825
960.021	3.00747
960.4	-20.04611
960.778	-2.00491
961.156	5.01272
961.535	23.05397
961.913	22.05199
962.291	41.10642
962.669	-41.10392
963.047	7.01804
963.424	-1.00257
963.802	-8.01986
964.18	25.06309
964.557	22.05137
964.935	-17.04056
965.312	17.04487
965.69	9.0227
966.067	-8.01971
966.444	4.00991
966.821	-19.04904
967.198	5.01207
967.575	-13.03204
967.952	-40.09453
968.329	1.00246
968.705	50.10923
969.082	20.05215
969.458	-21.0514
969.835	-17.04143
970.211	-4.01041
970.587	41.10199
970.963	23.05912
971.339	5.01316
971.715	39.09765
972.091	-5.01248
972.467	5.01253
972.843	13.03288
973.219	14.03352
973.594	12.03171
973.97	35.08356
974.345	16.03885
974.721	27.06557
975.096	-12.02958
975.471	-42.09933
975.846	28.06801
976.221	30.0775
976.596	44.1066
976.971	-6.01481
977.346	41.09545
977.72	-59.15134
978.095	-27.07008
978.469	6.01439
978.844	4.01003
979.218	-6.01478
979.593	-68.16455
979.967	29.07143
980.341	21.04914
980.715	-10.02532
981.089	-28.07146
981.463	-5.0117
981.837	22.05446
982.21	-36.08303
982.584	33.08059
982.957	-5.01266
983.331	23.05462
983.704	-8.02003
984.078	0
984.451	16.03926
984.824	19.04735
985.197	8.0196
985.57	-20.0507
985.943	-11.02711
986.316	6.0148
986.688	35.08452
987.061	55.1298
987.434	-11.02878
987.806	-5.01215
988.179	23.05552
988.551	39.0992
988.923	-46.11403
989.295	13.03275
989.667	11.02712
990.039	14.03504
990.411	6.01399
990.783	-23.05299
991.155	-15.03722
991.527	-23.05619
991.898	-16.04031
992.27	38.09516
992.641	40.10017
993.012	28.06633
993.384	14.03382
993.755	-16.04132
994.126	13.03148
994.497	20.04998
994.868	-10.02324
995.239	0
995.61	65.16463
995.98	-10.02482
996.351	22.05541
996.722	29.06842
997.092	-12.02884
997.462	8.01927
997.833	-13.0309
998.203	8.01948
998.573	-38.09609
998.943	-25.0601
999.313	-32.07726
999.683	-16.03891
1000.053	18.04165
1000.423	-1.00244
1000.792	33.08654
1001.162	21.05209
1001.531	-21.05254
1001.901	9.02253
1002.27	4.00913
1002.639	-19.04913
1003.009	3.00724
1003.378	1.00257
1003.747	27.06436
1004.116	8.01943
1004.485	-58.14035
1004.853	-1.00255
1005.222	18.04578
1005.591	31.07401
1005.959	58.13489
1006.328	-14.03234
1006.696	-3.00729
1007.064	42.10647
1007.433	-20.0501
1007.801	27.06557
1008.169	69.17488
1008.537	-9.02003
1008.905	-30.07167
1009.273	10.0249
1009.64	48.11602
1010.008	10.02413
1010.375	-33.07894
1010.743	63.14516
1011.11	17.04084
1011.478	1.00248
1011.845	-9.02137
1012.212	46.1058
1012.579	14.03457
1012.946	11.02645
1013.313	-48.11497
1013.68	-4.00906
1014.047	40.09753
1014.414	25.05976
1014.78	-13.03259
1015.147	32.07703
1015.513	-24.05882
1015.88	9.02303
1016.246	43.10591
1016.612	27.06233
1016.978	22.0545
1017.344	14.03479
1017.71	-31.07517
1018.076	-42.10033
1018.442	-30.07785
1018.808	23.05796
1019.174	-19.04855
1019.539	26.0593
1019.905	-11.02624
1020.27	-4.01002
1020.636	39.09315
1021.001	38.09203
1021.366	-56.13653
1021.731	15.03875
1022.096	-43.10972
1022.461	-12.02839
1022.826	-1.00242
1023.191	21.05518
1023.556	-22.05246
1023.92	-31.07669
1024.285	14.03421
1024.649	9.02209
1025.014	9.02228
1025.378	15.03818
1025.742	-3.00753
1026.107	18.041
1026.471	-15.03514
1026.835	-30.0748
1027.199	-24.05913
1027.562	-5.01187
1027.926	-4.0098
1028.29	18.04641
1028.654	8.01871
1029.017	-15.03704
1029.381	36.08813
1029.744	15.03872
1030.107	-27.06402
1030.471	-13.03146
1030.834	7.01606
1031.197	-26.06273
1031.56	-4.0095
1031.923	-51.13383
1032.286	-21.04923
1032.648	0
1033.011	26.06116
1033.374	-30.07087
1033.736	28.07451
1034.099	9.02232
1034.461	40.10287
1034.823	-16.04044
1035.185	20.05075
1035.548	43.10517
1035.91	54.13048
1036.272	8.0185
1036.634	2.00488
1036.995	-35.08302
1037.357	-2.00492
1037.719	-1.00244
1038.08	-12.02846
1038.442	-8.01922
1038.803	26.0632
1039.165	-18.04574
1039.526	-5.01216
1039.887	-9.02187
1040.248	22.05543
1040.609	17.04192
1040.97	37.09197
1041.331	0
1041.692	-10.02388
1042.053	10.02291
1042.413	-36.08495
1042.774	-8.0196
1043.134	4.00949
1043.495	7.01766
1043.855	-26.06377
1044.215	-41.10244
1044.576	0
1044.936	-3.00684
1045.296	11.0275
1045.656	-1.00248
1046.016	30.07268
1046.375	16.03956
1046.735	38.08796
1047.095	9.02137
1047.454	-51.10955
1047.814	4.00958
1048.173	18.04265
1048.533	-20.04673
1048.892	2.00492
1049.251	0
1049.61	23.05715
1049.969	-62.14822
1050.328	32.06991
1050.687	-24.05945
1051.046	-19.04671
1051.405	1.00251
1051.763	-9.02108
1052.122	48.12138
1052.48	-31.07664
1052.839	-21.05029
1053.197	-40.09501
1053.555	-39.08832
1053.914	29.0713
1054.272	-2.00484
1054.63	-13.03254
1054.988	-7.01681
1055.345	26.05694
1055.703	-13.0313
1056.061	-11.02857
1056.419	-2.00522
1056.776	-35.08538
1057.134	15.03524
1057.491	-9.0227
1057.848	-9.02262
1058.206	14.0333
1058.563	24.05383
1058.92	11.0255
1059.277	-38.09424
1059.634	42.09964
1059.991	-26.06213
1060.348	-11.02574
1060.704	-12.0291
1061.061	-62.14288
1061.418	3.00741
1061.774	18.04483
1062.131	5.0133
1062.487	-32.07592
1062.843	1.00252
1063.199	-22.0551
1063.555	-11.02583
1063.911	33.08397
1064.267	24.05025
1064.623	-9.02226
1064.979	-19.04465
1065.335	-10.02367
1065.691	-51.12288
1066.046	-39.08684
1066.402	9.02088
1066.757	-19.048
1067.112	-49.12025
1067.468	-17.04102
1067.823	-8.01948
1068.178	-24.05856
1068.533	12.02908
1068.888	31.07464
1069.243	3.00747
1069.598	11.02708
1069.952	6.01392
1070.307	35.08773
1070.662	38.09147
1071.016	23.05274
1071.371	-27.06258
1071.725	-1.0024
1072.079	4.0096
1072.434	-4.00986
1072.788	59.14253
1073.142	-1.00247
1073.496	84.20342
1073.85	-6.01402
1074.203	-13.03145
1074.557	7.01876
1074.911	23.0547
1075.265	26.06063
1075.618	26.06372
1075.971	8.01926
1076.325	27.06926
1076.678	88.20514
1077.031	0
1077.385	43.09599
1077.738	46.10626
1078.091	-6.01414
1078.444	45.10513
1078.796	5.01237
1079.149	-29.07272
1079.502	14.03374
1079.855	46.10854
1080.207	21.05159
1080.56	38.09912
1080.912	26.06372
1081.264	8.01946
1081.617	25.06212
1081.969	24.06149
1082.321	6.01492
1082.673	2.00472
1083.025	-19.0454
1083.377	28.06024
1083.728	54.12603
1084.08	7.01774
1084.432	32.07822
1084.783	36.08359
1085.135	17.043
1085.486	9.02113
1085.838	4.00995
1086.189	10.02455
1086.54	-1.00239
1086.891	-17.04394
1087.242	-9.02211
1087.593	-20.04851
1087.944	43.09919
1088.295	-28.06406
1088.646	-5.01225
1088.996	13.03193
1089.347	-26.06467
1089.698	25.0606
1090.048	-2.00521
1090.398	4.00936
1090.749	-27.0652
1091.099	-17.04352
1091.449	0
1091.799	18.04571
1092.149	-29.0735
1092.499	-37.09073
1092.849	23.05871
1093.199	-10.02501
1093.548	-10.02425
1093.898	-21.0537
1094.248	-17.04376
1094.597	6.01562
1094.947	3.00804
1095.296	9.0225
1095.645	-12.03132
1095.994	23.05609
1096.343	17.04293
1096.692	3.00803
1097.041	2.00548
1097.39	11.02769
1097.739	-38.09916
1098.088	42.11213
1098.437	-4.01064
1098.785	72.19387
1099.134	17.04517
1099.482	-14.03862
1099.83	-29.07612
1100.179	26.06819
1100.527	27.07229
1100.875	-2.00534
1101.223	-10.02658
1101.571	49.13582
1101.919	2.00532
1102.267	14.03949
1102.615	-4.01288
1102.962	-2.00644
1103.31	8.02575
1103.658	-3.00966
