Data from N2 R2  sample 12_Subt2__4__17-09-05-658.txt Node

Date: Wed Aug 27 17:09:05 PDT 2025
User: uwsun
Spectrometer: HDX01956
Trigger mode: 0
Integration Time (sec): 5.000000E-1
Scans to average: 1
Nonlinearity correction enabled: true
Boxcar width: 0
Storing dark spectrum: false
XAxis mode: Wavelengths
Number of Pixels in Spectrum: 2068
>>>>>Begin Spectral Data<<<<<
194.03	193.54739
194.578	187.59698
195.127	174.54885
195.676	188.59359
196.225	154.41289
196.773	190.52652
197.321	223.61436
197.87	366.92201
198.418	380.96547
198.966	383.98254
199.513	381.94447
200.061	379.95423
200.609	360.93017
201.156	330.72637
201.704	396.98969
202.251	400.03035
202.798	422.07884
203.345	422.01683
203.892	402.98831
204.438	423.98959
204.985	379.89016
205.532	387.99661
206.078	391.94832
206.624	409.99419
207.17	461.03916
207.716	450.07665
208.262	379.74033
208.808	431.04227
209.354	374.90625
209.899	406.99777
210.445	401.97803
210.99	417.98625
211.535	446.01981
212.08	452.029
212.625	399.97496
213.17	377.92636
213.715	386.85887
214.259	383.87425
214.804	407.98451
215.348	394.8872
215.892	411.96115
216.436	388.87798
216.98	406.88275
217.524	353.82361
218.068	386.93988
218.612	401.98894
219.155	366.8484
219.698	407.93986
220.242	379.91439
220.785	348.80157
221.328	407.98822
221.871	307.7558
222.414	417.00836
222.956	354.84166
223.499	338.75552
224.041	422.96654
224.583	361.76004
225.126	351.7721
225.668	367.88211
226.21	354.87259
226.751	342.74994
227.293	355.7976
227.835	315.7583
228.376	405.917
228.918	344.85045
229.459	384.94129
230	327.76146
230.541	407.9219
231.082	380.90693
231.622	421.95864
232.163	381.9081
232.704	394.95828
233.244	320.77282
233.784	316.75797
234.324	363.79078
234.864	346.77531
235.404	344.79741
235.944	363.83928
236.484	363.87613
237.023	371.86458
237.563	368.83782
238.102	336.769
238.641	353.86933
239.18	354.81994
239.719	409.99939
240.258	328.72893
240.797	392.92445
241.335	357.85352
241.874	402.76645
242.412	343.80908
242.95	402.94692
243.488	404.91009
244.026	355.80381
244.564	357.72151
245.102	370.82908
245.64	396.93098
246.177	357.78464
246.715	346.80966
247.252	398.8852
247.789	325.59571
248.326	400.94843
248.863	406.87299
249.4	367.80729
249.936	446.90407
250.473	408.92848
251.009	376.85395
251.546	422.92026
252.082	343.73516
252.618	418.91694
253.154	406.94891
253.69	416.91832
254.226	355.81785
254.761	414.90932
255.297	419.90617
255.832	382.87635
256.367	424.97774
256.903	367.7978
257.438	386.87452
257.972	391.86477
258.507	410.93039
259.042	385.80807
259.576	423.89408
260.111	389.87577
260.645	382.80407
261.179	361.82305
261.713	403.87865
262.247	385.86889
262.781	366.75174
263.315	402.95097
263.849	393.95817
264.382	406.90149
264.915	402.93108
265.449	442.04983
265.982	399.88319
266.515	448.05063
267.048	356.73517
267.58	415.87256
268.113	387.82588
268.646	454.08004
269.178	427.94319
269.71	375.78986
270.243	396.88002
270.775	413.01811
271.307	380.88537
271.838	384.88024
272.37	413.98094
272.902	452.9936
273.433	408.87238
273.965	447.04317
274.496	425.0088
275.027	438.05108
275.558	351.83726
276.089	444.06348
276.62	439.06723
277.15	454.07342
277.681	465.9738
278.211	413.9817
278.741	395.85938
279.272	377.84702
279.802	457.09779
280.332	469.07014
280.861	476.09639
281.391	417.92303
281.921	419.9641
282.45	478.14506
282.98	448.11769
283.509	433.94964
284.038	460.00665
284.567	428.95506
285.096	461.06325
285.625	392.86028
286.153	480.0792
286.682	461.02687
287.21	462.06451
287.739	487.10011
288.267	495.14498
288.795	475.19007
289.323	479.07321
289.851	475.05375
290.378	460.0075
290.906	488.1446
291.433	444.05985
291.961	538.16774
292.488	436.03079
293.015	456.03101
293.542	500.20965
294.069	509.19834
294.596	510.19022
295.122	514.16427
295.649	481.00765
296.175	522.20538
296.702	506.1605
297.228	496.14026
297.754	536.13819
298.28	542.17094
298.806	463.05387
299.332	581.22398
299.857	508.08941
300.383	532.2562
300.908	519.21386
301.433	566.28533
301.958	543.20036
302.483	582.37121
303.008	491.13212
303.533	571.39637
304.058	507.12066
304.582	576.29433
305.107	518.27997
305.631	539.15426
306.155	549.21567
306.679	568.25544
307.203	607.31354
307.727	582.30622
308.251	554.26618
308.775	563.25706
309.298	600.35383
309.822	559.31723
310.345	626.36537
310.868	599.32763
311.391	597.34897
311.914	653.52165
312.437	575.21079
312.96	635.38005
313.482	598.31909
314.005	623.46193
314.527	636.53383
315.049	594.38759
315.571	595.23923
316.093	634.44109
316.615	637.40668
317.137	649.29372
317.659	654.43132
318.18	645.41724
318.702	702.50351
319.223	637.20799
319.744	698.43248
320.265	656.45742
320.786	707.5971
321.307	725.63712
321.828	647.33156
322.348	649.38479
322.869	726.56231
323.389	748.13522
323.909	719.49653
324.43	727.55342
324.95	782.59786
325.47	756.67142
325.989	742.56259
326.509	753.50622
327.029	807.6181
327.548	715.44926
328.067	809.73919
328.587	760.65582
329.106	897.79795
329.625	874.97884
330.144	797.60759
330.662	874.76751
331.181	878.76104
331.7	838.69695
332.218	873.62991
332.736	834.67807
333.255	922.84429
333.773	864.75204
334.291	871.8469
334.808	876.6682
335.326	965.82865
335.844	996.9512
336.361	984.09893
336.879	972.93187
337.396	974.96814
337.913	1067.05615
338.43	1074.9621
338.947	1050.06529
339.464	1030.84091
339.981	1029.01586
340.497	1059.13802
341.014	1066.13797
341.53	1058.94737
342.046	1091.16365
342.562	1092.1862
343.078	1135.13857
343.594	1133.17637
344.11	1131.13205
344.626	1163.32485
345.141	1155.05472
345.657	1165.02045
346.172	1216.30332
346.687	1193.14985
347.202	1216.14425
347.717	1234.26972
348.232	1307.52102
348.747	1238.20355
349.261	1277.11927
349.776	1323.36695
350.29	1292.46777
350.805	1341.53156
351.319	1306.29651
351.833	1392.35991
352.347	1379.4098
352.861	1405.43758
353.374	1406.34428
353.888	1393.42805
354.401	1421.40873
354.915	1466.43969
355.428	1503.69731
355.941	1461.44784
356.454	1510.34213
356.967	1483.49031
357.48	1421.33539
357.993	1457.58655
358.505	1491.635
359.018	1587.73797
359.53	1528.55189
360.042	1526.35078
360.554	1507.5418
361.066	1585.71585
361.578	1582.33634
362.09	1540.5693
362.602	1533.29659
363.113	1630.55357
363.625	1582.39554
364.136	1696.43335
364.647	1630.54919
365.158	1653.58776
365.669	1672.70853
366.18	1689.6236
366.691	1680.4056
367.201	1713.67508
367.712	1740.59608
368.222	1702.50387
368.733	1792.40665
369.243	1797.4866
369.753	1883.62448
370.263	1874.83396
370.773	1875.96809
371.282	1935.78504
371.792	2015.71943
372.301	2040.94013
372.811	2038.20097
373.32	2070.47639
373.829	2027.72019
374.338	2201.58244
374.847	2251.70444
375.356	2219.77383
375.865	2393.3737
376.373	2499.58194
376.882	2559.09045
377.39	2558.84973
377.898	2663.99088
378.407	2887.55041
378.915	2916.17311
379.423	3102.5252
379.93	3132.27518
380.438	3283.57904
380.946	3423.2366
381.453	3540.34871
381.96	3752.03655
382.468	3945.83808
382.975	4188.81899
383.482	4390.3614
383.989	4473.94997
384.495	4649.19559
385.002	4793.53172
385.509	5091.76977
386.015	5340.93895
386.521	5712.1396
387.028	5901.07978
387.534	6124.86106
388.04	6310.14369
388.546	6483.994
389.051	6829.08069
389.557	7304.55363
390.063	7903.41835
390.568	8405.31264
391.073	8646.15359
391.578	8903.78327
392.084	9096.72115
392.589	9553.03132
393.093	9998.67686
393.598	10872.53122
394.103	11997.01219
394.607	13333.79863
395.112	14433.24799
395.616	15258.76237
396.12	16593.31218
396.624	18564.21715
397.128	19982.21061
397.632	22271.84217
398.136	24197.38398
398.639	25272.58612
399.143	27669.71632
399.646	31409.39472
400.15	34843.53237
400.653	38014.29563
401.156	42537.84627
401.659	49432.52392
402.162	52663.41968
402.664	47275.14456
403.167	32260.27245
403.67	3851.94142
404.172	0
404.674	0
405.176	0
405.678	0
406.18	0
406.682	0
407.184	0
407.686	12367.42319
408.187	34596.90747
408.688	44563.94194
409.19	48906.19284
409.691	51236.67962
410.192	52883.26968
410.693	53713.23343
411.194	54189.54801
411.694	54767.79104
412.195	55625.98899
412.696	55971.27715
413.196	55538.47203
413.696	53810.59646
414.196	54237.71203
414.696	53411.97656
415.196	51122.50541
415.696	47594.9644
416.196	39445.14863
416.695	30753.45565
417.195	25780.87458
417.694	24254.79033
418.194	22997.44212
418.693	21405.92618
419.192	20458.49022
419.691	20199.59929
420.19	19908.63094
420.688	19287.25105
421.187	18453.45467
421.685	17227.29126
422.184	15802.05944
422.682	13949.47514
423.18	11998.13971
423.678	10507.91986
424.176	9635.65134
424.674	9120.61407
425.172	8657.97132
425.669	8235.9243
426.167	7704.06372
426.664	6961.30592
427.161	6410.18386
427.659	5965.51749
428.156	5458.06025
428.652	5160.28195
429.149	5036.08855
429.646	4788.8523
430.143	4656.3809
430.639	4325.55827
431.135	4082.09595
431.632	3850.86737
432.128	3578.10675
432.624	3354.72209
433.12	3191.12785
433.616	3092.035
434.111	2988.56912
434.607	2938.58857
435.103	2841.06059
435.598	2723.94345
436.093	2660.53088
436.588	2521.34416
437.083	2400.47787
437.578	2249.37113
438.073	2108.84551
438.568	2031.69576
439.062	1995.20419
439.557	1954.51237
440.051	1842.39993
440.546	1799.40761
441.04	1761.54287
441.534	1733.67573
442.028	1785.51987
442.522	1612.43143
443.015	1657.22277
443.509	1640.56206
444.002	1516.43188
444.496	1496.07126
444.989	1472.37797
445.482	1463.43003
445.975	1436.16712
446.468	1548.14974
446.961	1388.92313
447.454	1466.22334
447.947	1286.1104
448.439	1332.23707
448.931	1209.89303
449.424	1310.30835
449.916	1291.18718
450.408	1237.94161
450.9	1179.02979
451.392	1221.21055
451.884	1260.023
452.375	1175.11085
452.867	1162.84371
453.358	1125.85666
453.849	1107.71347
454.341	1032.7021
454.832	1103.72817
455.323	1099.00303
455.814	1104.8525
456.304	1058.81268
456.795	1091.86592
457.285	1031.70092
457.776	1011.70281
458.266	1005.8353
458.756	1031.90277
459.247	953.7708
459.737	962.81366
460.226	986.70607
460.716	922.72624
461.206	917.73754
461.695	909.81365
462.185	935.74159
462.674	879.60232
463.163	844.50774
463.653	892.48426
464.142	789.55576
464.63	884.71441
465.119	797.50319
465.608	833.56968
466.096	779.40749
466.585	809.53034
467.073	796.55966
467.561	799.57624
468.05	732.4199
468.538	768.56284
469.026	707.41082
469.513	730.27751
470.001	800.55201
470.489	760.54164
470.976	656.27588
471.463	645.37863
471.951	689.44927
472.438	643.30431
472.925	656.34496
473.412	606.28539
473.899	597.19376
474.385	601.29223
474.872	545.12235
475.359	601.29943
475.845	571.05625
476.331	581.11662
476.817	517.11613
477.303	518.07598
477.789	570.21418
478.275	484.08287
478.761	515.12178
479.247	433.87952
479.732	458.04142
480.218	455.0652
480.703	491.09653
481.188	370.73012
481.673	433.9096
482.158	448.89733
482.643	430.00048
483.128	466.98517
483.612	373.81153
484.097	399.90415
484.581	349.74899
485.066	400.9055
485.55	317.65948
486.034	395.80161
486.518	337.73477
487.002	434.9984
487.486	373.85486
487.969	351.80348
488.453	292.69188
488.936	317.67944
489.42	330.69493
489.903	315.74074
490.386	356.55915
490.869	343.70149
491.352	301.686
491.835	295.58253
492.318	310.67347
492.8	286.5816
493.283	287.69065
493.765	271.63928
494.247	290.64423
494.73	236.50071
495.212	245.55884
495.694	254.5734
496.175	244.55981
496.657	252.57121
497.139	235.40276
497.62	207.48111
498.102	266.64025
498.583	253.61046
499.064	184.39737
499.545	214.47501
500.026	222.486
500.507	278.62091
500.988	201.48391
501.469	164.40222
501.949	170.40485
502.43	187.43686
502.91	216.44085
503.39	139.33933
503.87	185.42607
504.35	177.40456
504.83	184.39754
505.31	172.40616
505.79	127.3017
506.269	129.29616
506.749	103.2341
507.228	176.40478
507.707	140.30494
508.187	141.32863
508.666	103.24751
509.145	152.34945
509.623	169.39249
510.102	154.36506
510.581	115.26972
511.059	115.28596
511.538	161.4018
512.016	157.3721
512.494	163.39154
512.972	112.26088
513.45	122.28216
513.928	132.31714
514.406	156.37508
514.884	147.36978
515.361	97.22732
515.839	153.34463
516.316	120.28633
516.793	122.30376
517.27	131.31072
517.747	143.36217
518.224	62.1426
518.701	107.23766
519.178	96.23511
519.654	88.20668
520.131	53.13045
520.607	94.22884
521.083	61.14016
521.56	55.12915
522.036	53.11708
522.512	91.21934
522.987	68.16164
523.463	44.10511
523.939	81.19472
524.414	108.2477
524.89	127.29984
525.365	48.10823
525.84	95.22481
526.315	102.24394
526.79	63.14115
527.265	86.19724
527.74	61.14714
528.215	141.33431
528.689	57.12666
529.164	80.17529
529.638	103.26078
530.112	94.22077
530.587	112.2424
531.061	78.18847
531.534	103.24854
532.008	34.08268
532.482	37.0845
532.956	26.066
533.429	71.16971
533.903	43.09491
534.376	122.27081
534.849	61.13988
535.322	72.16969
535.795	40.09698
536.268	96.22968
536.741	52.12356
537.213	60.13811
537.686	43.10447
538.158	72.16308
538.631	18.04323
539.103	48.10951
539.575	43.09002
540.047	85.18817
540.519	60.14152
540.991	48.11567
541.463	50.12031
541.934	-9.0207
542.406	-18.04302
542.877	23.05166
543.348	-29.06876
543.82	43.10431
544.291	15.03469
544.762	71.16782
545.233	41.10169
545.703	48.10673
546.174	43.1001
546.645	84.20013
547.115	90.21566
547.585	56.12684
548.056	40.09574
548.526	81.18909
548.996	86.20293
549.466	109.25894
549.935	128.29897
550.405	77.16839
550.875	82.19176
551.344	100.23477
551.814	121.27389
552.283	95.20284
552.752	50.11468
553.221	64.13922
553.69	77.1679
554.159	146.3501
554.628	164.361
555.096	160.39125
555.565	161.35685
556.033	148.33848
556.502	119.28357
556.97	43.09428
557.438	58.13547
557.906	95.22168
558.374	82.18678
558.842	71.16841
559.31	36.08117
559.777	14.03397
560.245	8.01857
560.712	3.00694
561.18	19.04254
561.647	-9.02022
562.114	38.08838
562.581	-7.01703
563.048	17.03939
563.514	23.0564
563.981	0
564.448	46.10266
564.914	-1.00231
565.381	-36.0824
565.847	3.00699
566.313	43.10066
566.779	21.04808
567.245	-3.00696
567.711	51.12172
568.176	-23.05191
568.642	5.01242
569.108	12.0293
569.573	29.0673
570.038	25.05287
570.504	-12.02723
570.969	22.05354
571.434	-27.05942
571.899	24.05672
572.363	29.06519
572.828	4.00898
573.293	76.17277
573.757	72.16175
574.222	60.13335
574.686	28.06275
575.15	77.18017
575.614	84.18948
576.078	13.03
576.542	34.07601
577.006	48.10615
577.469	15.03551
577.933	85.18754
578.396	69.15936
578.86	50.11527
579.323	64.15037
579.786	39.08287
580.249	27.06082
580.712	42.09945
581.175	43.10384
581.637	58.12939
582.1	26.05528
582.563	87.18197
583.025	70.16524
583.487	104.20879
583.95	24.05172
584.412	67.13709
584.874	73.17289
585.336	54.12549
585.797	40.08527
586.259	61.13999
586.721	86.19732
587.182	83.1865
587.643	57.12502
588.105	20.04569
588.566	18.03692
589.027	56.13096
589.488	58.12773
589.949	86.20048
590.41	75.14539
590.87	9.01969
591.331	73.15309
591.791	41.09243
592.252	51.11281
592.712	76.17319
593.172	90.19545
593.632	58.12064
594.092	88.18801
594.552	53.10918
595.011	117.25793
595.471	151.32072
595.931	116.24601
596.39	219.4951
596.849	146.32246
597.308	150.30114
597.768	206.49547
598.227	246.54467
598.685	182.38934
599.144	263.57393
599.603	303.65785
600.062	265.5255
600.52	267.55373
600.978	352.76113
601.437	386.79246
601.895	338.64317
602.353	365.72245
602.811	454.90219
603.269	411.87214
603.727	460.97717
604.184	516.02318
604.642	471.00754
605.099	609.22568
605.557	600.25104
606.014	600.1042
606.471	697.47383
606.928	703.25696
607.385	760.54655
607.842	856.5993
608.299	912.69489
608.755	887.70266
609.212	982.7198
609.668	943.6457
610.125	942.78022
610.581	1050.86616
611.037	1019.76753
611.493	961.77156
611.949	1027.90858
612.405	1129.72024
612.861	1094.92756
613.316	1200.16197
613.772	1133.92149
614.227	1071.89918
614.683	1178.83943
615.138	1137.01738
615.593	1205.10443
616.048	1190.02768
616.503	1199.14536
616.958	1189.21881
617.412	1226.14518
617.867	1226.02026
618.321	1228.86931
618.776	1096.82505
619.23	1075.92894
619.684	1188.01236
620.138	1130.9272
620.592	1068.98543
621.046	1082.91428
621.5	1068.01836
621.954	1049.80535
622.407	1060.8016
622.861	1021.96125
623.314	981.74366
623.768	953.76291
624.221	894.39169
624.674	925.69401
625.127	866.62918
625.58	884.58424
626.033	829.45919
626.485	858.69714
626.938	828.60107
627.39	822.5796
627.843	762.45358
628.295	733.4073
628.747	800.58006
629.199	693.33166
629.651	696.35895
630.103	654.28951
630.555	692.26432
631.006	663.32963
631.458	665.36129
631.909	622.22114
632.361	610.24545
632.812	577.1761
633.263	567.06558
633.714	566.08016
634.165	546.15593
634.616	521.09594
635.067	510.98986
635.518	511.08242
635.968	516.91662
636.419	535.02459
636.869	470.98927
637.319	567.19235
637.769	425.86367
638.219	537.13957
638.669	419.91004
639.119	466.00778
639.569	405.89796
640.019	472.97382
640.468	430.87721
640.918	410.88993
641.367	439.90432
641.816	370.75173
642.265	421.87972
642.714	437.91598
643.163	451.93655
643.612	416.92407
644.061	385.74955
644.51	450.93635
644.958	467.94122
645.406	420.92172
645.855	446.00836
646.303	503.05848
646.751	405.85266
647.199	471.96238
647.647	458.95596
648.095	436.9157
648.543	559.03091
648.99	494.07391
649.438	481.00277
649.885	408.91834
650.333	542.94485
650.78	461.01924
651.227	483.07286
651.674	476.9975
652.121	478.06327
652.568	506.12054
653.015	502.15315
653.461	479.03396
653.908	418.8926
654.354	479.04367
654.801	452.99568
655.247	439.87422
655.693	454.07715
656.139	453.0136
656.585	469.03739
657.031	422.93039
657.477	461.92828
657.922	446.95857
658.368	431.99447
658.813	440.94527
659.259	430.95913
659.704	408.89011
660.149	399.87509
660.594	421.93304
661.039	399.84742
661.484	427.94397
661.929	393.85576
662.373	394.93997
662.818	408.9461
663.262	379.86059
663.707	397.93969
664.151	402.91002
664.595	419.95832
665.039	421.97334
665.483	449.07364
665.927	417.90608
666.371	439.96725
666.814	466.03139
667.258	396.88769
667.701	474.94326
668.145	452.04308
668.588	421.96908
669.031	470.03463
669.474	456.0197
669.917	446.91357
670.36	464.06785
670.803	518.14859
671.245	492.97589
671.688	450.01081
672.13	495.04572
672.573	529.22471
673.015	480.06552
673.457	523.05667
673.899	505.12413
674.341	490.08956
674.783	487.08713
675.225	509.16296
675.666	511.14596
676.108	491.97322
676.549	535.15259
676.991	539.09752
677.432	609.13849
677.873	508.0866
678.314	543.18737
678.755	557.25132
679.196	535.14716
679.637	569.27048
680.078	570.21996
680.518	517.10469
680.959	459.01143
681.399	514.17511
681.839	552.23323
682.28	579.31409
682.72	570.20892
683.16	549.26152
683.6	550.14105
684.039	456.88589
684.479	558.2569
684.919	536.16241
685.358	563.29837
685.798	533.30673
686.237	550.21763
686.676	527.10372
687.115	562.20956
687.554	548.20311
687.993	521.06514
688.432	533.12418
688.871	519.09652
689.309	550.21561
689.748	565.08529
690.186	558.22355
690.625	593.27719
691.063	585.29388
691.501	600.35878
691.939	596.37265
692.377	602.35116
692.815	593.30122
693.253	587.27885
693.69	603.20801
694.128	624.38798
694.565	594.29166
695.003	597.37851
695.44	622.34059
695.877	583.25562
696.314	625.21405
696.751	592.21575
697.188	614.26951
697.625	613.25583
698.061	672.46271
698.498	611.34358
698.934	679.46452
699.371	658.39947
699.807	616.32651
700.243	617.33975
700.679	641.30617
701.115	612.28232
701.551	617.30847
701.987	648.31357
702.422	643.38679
702.858	703.50209
703.294	616.24121
703.729	708.53658
704.164	657.41339
704.599	637.27388
705.035	689.37803
705.47	689.48738
705.904	722.50911
706.339	760.54304
706.774	722.5111
707.209	723.49552
707.643	710.51542
708.078	716.54077
708.512	683.53784
708.946	760.58861
709.38	744.562
709.814	820.64609
710.248	753.62982
710.682	743.57257
711.116	775.66035
711.549	814.85715
711.983	746.52835
712.416	807.65905
712.85	789.73318
713.283	822.67665
713.716	777.69181
714.149	742.54616
714.582	858.66471
715.015	807.75048
715.448	843.84565
715.881	759.41181
716.313	743.50677
716.746	824.68833
717.178	827.73298
717.61	793.75217
718.043	814.76156
718.475	792.66725
718.907	777.70038
719.339	806.60754
719.77	795.64975
720.202	870.90358
720.634	823.75491
721.065	822.70621
721.497	848.80786
721.928	786.70527
722.359	819.74789
722.79	819.72224
723.221	830.80307
723.652	809.8061
724.083	775.54599
724.514	845.6562
724.945	799.6389
725.375	853.7364
725.806	733.58987
726.236	774.72474
726.666	840.73276
727.096	815.7611
727.526	769.73158
727.956	832.65716
728.386	831.78881
728.816	814.84523
729.246	782.67139
729.675	760.64533
730.105	796.72039
730.534	769.58227
730.964	807.77422
731.393	747.61682
731.822	760.69074
732.251	775.74225
732.68	713.47021
733.109	757.6719
733.537	778.65639
733.966	790.71759
734.395	728.48874
734.823	744.47274
735.251	746.58821
735.68	731.61578
736.108	703.59772
736.536	768.61102
736.964	640.34225
737.392	708.58084
737.82	681.43243
738.247	696.4977
738.675	668.40413
739.102	653.49538
739.53	648.48837
739.957	665.53383
740.384	686.49637
740.811	643.46775
741.238	696.50731
741.665	663.37923
742.092	656.40368
742.519	609.38896
742.945	596.30205
743.372	583.32372
743.798	679.57173
744.225	625.35772
744.651	618.40809
745.077	677.51375
745.503	563.27051
745.929	600.31412
746.355	555.22437
746.781	559.27224
747.207	500.09251
747.632	541.22675
748.058	516.18016
748.483	567.207
748.908	510.17576
749.334	547.2469
749.759	584.27258
750.184	531.16793
750.609	481.09006
751.033	464.00045
751.458	511.04985
751.883	499.12909
752.307	533.17185
752.732	529.24501
753.156	504.16421
753.58	415.92702
754.005	475.11818
754.429	424.94575
754.853	510.18416
755.277	394.8774
755.7	423.98766
756.124	465.08143
756.548	427.96601
756.971	472.07851
757.394	446.07639
757.818	396.96961
758.241	413.99375
758.664	469.1224
759.087	364.78572
759.51	377.88892
759.933	374.8525
760.356	356.86427
760.778	469.1006
761.201	386.8951
761.623	395.90962
762.046	356.7964
762.468	393.8902
762.89	389.89688
763.312	330.76709
763.734	345.79799
764.156	343.81567
764.578	327.71901
765	383.89675
765.421	349.87054
765.843	343.86054
766.264	320.73297
766.686	313.75092
767.107	376.87571
767.528	308.75896
767.949	267.65371
768.37	338.80239
768.791	352.81466
769.212	305.75171
769.632	275.62852
770.053	280.71575
770.473	301.70783
770.894	229.55277
771.314	257.58928
771.734	238.5478
772.154	269.67128
772.575	282.6301
772.994	229.51285
773.414	293.67747
773.834	184.44726
774.254	273.65597
774.673	249.58853
775.093	208.50256
775.512	232.56645
775.931	246.61112
776.351	215.52426
776.77	271.65314
777.189	237.55322
777.607	179.44704
778.026	198.48236
778.445	166.40909
778.864	175.43784
779.282	227.53965
779.701	202.50036
780.119	220.54674
780.537	241.59138
780.955	224.55546
781.373	157.38299
781.791	151.33776
782.209	168.37725
782.627	148.38393
783.045	182.41489
783.462	135.34057
783.88	182.46674
784.297	185.46236
784.715	171.4357
785.132	111.26815
785.549	198.49081
785.966	200.49196
786.383	159.38743
786.8	114.26135
787.217	134.31606
787.633	175.43674
788.05	99.23065
788.466	132.30941
788.883	115.29188
789.299	136.32488
789.715	161.39113
790.131	132.32794
790.547	85.21021
790.963	150.3698
791.379	122.30574
791.795	85.19295
792.21	134.31385
792.626	48.11445
793.041	159.38917
793.457	104.25574
793.872	59.13924
794.287	103.25183
794.702	95.23201
795.117	115.28856
795.532	70.17663
795.947	128.30495
796.362	40.09501
796.776	104.23881
797.191	116.28598
797.605	75.17982
798.02	103.25258
798.434	69.15441
798.848	124.3057
799.262	79.19838
799.676	59.14355
800.09	32.0786
800.504	91.22183
800.918	63.14822
801.331	65.16883
801.745	42.0966
802.158	74.18619
802.572	50.12031
802.985	83.20089
803.398	67.16113
803.811	16.04101
804.224	57.14169
804.637	37.08935
805.05	74.17332
805.462	117.28882
805.875	32.08447
806.288	-23.05646
806.7	47.119
807.112	30.07065
807.525	36.08921
807.937	27.0678
808.349	64.15918
808.761	23.05659
809.173	25.06146
809.584	18.04425
809.996	44.10975
810.408	12.03156
810.819	2.00486
811.231	67.17724
811.642	122.299
812.053	102.24701
812.464	143.3401
812.875	134.34149
813.286	37.09534
813.697	26.05977
814.108	21.05144
814.519	11.02473
814.929	-6.0153
815.34	-24.05919
815.75	29.07436
816.16	1.00252
816.571	32.08404
816.981	2.00473
817.391	24.05884
817.801	4.01009
818.211	-33.07984
818.62	43.10537
819.03	7.01743
819.44	34.08869
819.849	-2.00513
820.259	10.02558
820.668	29.07227
821.077	35.08858
821.486	66.16044
821.895	24.05921
822.304	24.06376
822.713	-5.01202
823.122	-5.01259
823.531	5.01194
823.939	37.09103
824.348	-3.00739
824.756	36.09061
825.164	-4.0101
825.573	10.02548
825.981	-14.03474
826.389	69.1737
826.797	38.09691
827.205	-20.04754
827.612	-12.02989
828.02	69.16442
828.428	-20.05151
828.835	13.03439
829.243	11.02643
829.65	-2.00504
830.057	-21.05142
830.464	-25.06183
830.871	-15.03613
831.278	5.01223
831.685	19.04318
832.092	36.08905
832.499	63.13923
832.905	39.09885
833.312	7.0162
833.718	17.04244
834.124	-41.09526
834.531	37.09358
834.937	-9.0233
835.343	36.08761
835.749	25.05868
836.155	15.03972
836.561	3.00742
836.966	43.10509
837.372	60.1535
837.777	3.00756
838.183	17.03853
838.588	22.05533
838.993	-1.00243
839.399	20.05014
839.804	-45.113
840.209	37.09514
840.613	9.02042
841.018	12.03068
841.423	-1.00259
841.828	4.0102
842.232	28.06916
842.637	-7.01679
843.041	-14.03649
843.445	33.08349
843.849	-15.0378
844.253	25.05969
844.657	9.02305
845.061	-12.02763
845.465	5.01239
845.869	27.06352
846.272	5.01245
846.676	-66.15995
847.079	70.17927
847.483	-1.0025
847.886	47.11419
848.289	-18.04875
848.692	-1.00254
849.095	23.05579
849.498	12.03021
849.901	25.05795
850.304	-7.01683
850.707	30.07651
851.109	-10.02528
851.512	46.11474
851.914	32.08304
852.316	28.07136
852.718	52.138
853.121	15.03749
853.523	29.07024
853.925	20.0529
854.326	31.07863
854.728	3.00781
855.13	-23.06023
855.531	28.06852
855.933	-9.02196
856.334	5.01261
856.736	66.1521
857.137	15.03561
857.538	30.07681
857.939	42.10579
858.34	-15.03711
858.741	20.05262
859.142	12.02901
859.542	27.07162
859.943	59.14858
860.343	58.14604
860.744	14.03438
861.144	11.0271
861.544	24.05939
861.945	0
862.345	0
862.745	16.03991
863.145	6.01434
863.544	-29.07457
863.944	21.05071
864.344	24.0595
864.743	20.04956
865.143	37.09613
865.542	22.05205
865.941	29.07193
866.34	-3.00721
866.74	7.01888
867.139	7.01699
867.537	51.13013
867.936	7.01706
868.335	-3.00769
868.734	-20.05197
869.132	16.03762
869.531	1.0024
869.929	16.03759
870.327	13.03188
870.726	21.0522
871.124	1.00235
871.522	-10.02564
871.92	39.09695
872.318	-20.04929
872.715	-23.05692
873.113	27.06646
873.511	-73.18285
873.908	-32.08224
874.306	-16.0407
874.703	3.00756
875.1	-33.08477
875.497	0
875.894	7.01758
876.291	-8.01961
876.688	9.02342
877.085	14.03379
877.482	13.03288
877.878	1.00246
878.275	-20.05142
878.671	-9.01993
879.068	21.05102
879.464	17.04177
879.86	20.04825
880.256	-25.06235
880.652	32.08256
881.048	8.01995
881.444	-5.01196
881.84	26.06677
882.236	8.02023
882.631	-7.01734
883.027	-43.1049
883.422	12.03117
883.817	48.12289
884.213	-6.01562
884.608	21.05283
885.003	8.01979
885.398	-21.05362
885.793	29.07348
886.188	14.03555
886.582	46.11785
886.977	14.03373
887.371	-31.07835
887.766	-3.00759
888.16	52.13027
888.554	-13.03199
888.949	7.01761
889.343	22.05408
889.737	4.01082
890.131	13.03298
890.525	13.03377
890.918	8.0204
891.312	6.01442
891.706	-42.1115
892.099	39.09906
892.492	-3.00654
892.886	18.04506
893.279	37.09564
893.672	9.02322
894.065	2.00505
894.458	-1.00252
894.851	-29.07117
895.244	16.04144
895.637	-28.0685
896.029	21.05224
896.422	-28.06954
896.814	18.04561
897.206	-13.03163
897.599	7.0173
897.991	-8.01973
898.383	-40.09596
898.775	5.01147
899.167	-7.01681
899.559	-22.05591
899.951	25.05976
900.342	22.05638
900.734	-15.03826
901.125	35.09284
901.517	-10.02474
901.908	19.04552
902.299	-2.00504
902.69	20.04778
903.082	-28.06789
903.473	3.00736
903.863	-42.10817
904.254	-13.03056
904.645	-23.05715
905.036	-8.0198
905.426	38.08754
905.817	16.03981
906.207	25.06081
906.597	2.00476
906.987	9.02313
907.378	0
907.768	39.10348
908.158	-10.02472
908.547	22.05797
908.937	-21.05392
909.327	4.00978
909.717	2.00507
910.106	2.00493
910.495	19.04742
910.885	18.04602
911.274	12.03033
911.663	-20.05104
912.052	-10.02476
912.441	11.02841
912.83	0
913.219	4.01046
913.608	-40.09829
913.997	14.03573
914.385	21.05087
914.774	27.06616
915.162	1.00244
915.55	15.03625
915.939	-1.00256
916.327	-50.12513
916.715	70.18084
917.103	47.11543
917.491	63.15558
917.878	23.05732
918.266	-9.02342
918.654	29.07428
919.041	-21.05546
919.429	-26.06206
919.816	-1.00256
920.203	-16.0394
920.591	11.02732
920.978	41.10047
921.365	-6.0159
921.752	-18.04346
922.139	-11.02423
922.525	22.05454
922.912	10.02451
923.299	43.10879
923.685	-18.04727
924.072	1.00233
924.458	-25.06303
924.844	42.1056
925.231	12.02841
925.617	47.12174
926.003	6.01542
926.389	-44.11249
926.774	1.00256
927.16	18.04506
927.546	18.04639
927.931	44.11075
928.317	-22.05163
928.702	-4.00951
929.088	15.03651
929.473	25.06408
929.858	12.02988
930.243	-9.02196
930.628	8.0199
931.013	-4.01005
931.398	-22.0506
931.783	-41.10802
932.167	-2.00491
932.552	-3.0075
932.937	-11.02751
933.321	8.02043
933.705	-20.05102
934.09	-31.07773
934.474	4.00963
934.858	-3.00778
935.242	3.00703
935.626	-27.07035
936.009	-17.04586
936.393	-19.0486
936.777	-6.01538
937.16	4.01053
937.544	-16.03781
937.927	-25.06424
938.311	34.08299
938.694	-16.04228
939.077	2.00489
939.46	3.00735
939.843	59.12302
940.226	26.06736
940.609	10.02359
940.991	7.01808
941.374	-16.03963
941.757	32.07973
942.139	-27.06174
942.522	20.04716
942.904	-43.10478
943.286	-6.01533
943.668	23.06019
944.05	10.02504
944.432	18.04529
944.814	53.13208
945.196	28.06999
945.578	-3.00737
945.959	24.05683
946.341	26.06315
946.722	-9.02124
947.104	-39.09443
947.485	6.01433
947.866	8.0205
948.247	-15.03846
948.628	24.05889
949.009	26.06722
949.39	-18.04508
949.771	50.11674
950.152	8.0199
950.532	-5.0126
950.913	44.10784
951.293	55.14952
951.674	-9.02204
952.054	-1.0025
952.434	-14.03505
952.814	-51.12148
953.194	-22.05735
953.574	7.01722
953.954	1.00241
954.334	5.01256
954.714	-5.01241
955.093	-7.01713
955.473	1.00253
955.853	5.01293
956.232	-3.0082
956.611	-16.0385
956.99	-59.14927
957.37	7.01792
957.749	-11.02656
958.128	-29.07379
958.506	24.06275
958.885	12.03051
959.264	11.02754
959.643	34.0787
960.021	-40.10043
960.4	-73.17008
960.778	-2.00491
961.156	-28.07166
961.535	-11.02598
961.913	10.02369
962.291	6.01567
962.669	-86.21971
963.047	0
963.424	16.04105
963.802	-21.05226
964.18	14.0354
964.557	69.15962
964.935	2.00475
965.312	27.07114
965.69	24.06036
966.067	-14.03453
966.444	17.04201
966.821	-32.08279
967.198	-5.0121
967.575	-9.02217
967.952	-34.08026
968.329	11.02697
968.705	8.01763
969.082	26.06773
969.458	-47.1156
969.835	-52.12754
970.211	-28.07314
970.587	19.04745
970.963	7.01804
971.339	40.10466
971.715	14.03521
972.091	34.08425
972.467	-1.00251
972.843	2.00507
973.219	37.0882
973.594	-17.04514
973.97	49.11667
974.345	-23.05625
974.721	16.03894
975.096	-7.01724
975.471	-15.03529
975.846	16.03895
976.221	28.07236
976.596	7.01708
976.971	13.03197
977.346	7.01641
977.72	-6.01525
978.095	-39.10144
978.469	4.0096
978.844	6.01504
979.218	31.07582
979.593	-20.04796
979.967	57.13967
980.341	-8.01883
980.715	-30.07624
981.089	-27.06889
981.463	1.00234
981.837	16.03965
982.21	-29.06679
982.584	4.00982
982.957	-5.01266
983.331	-11.02629
983.704	44.10916
984.078	-9.02238
984.451	-13.03207
984.824	21.05232
985.197	-17.04184
985.57	3.00757
985.943	-23.05682
986.316	44.10776
986.688	1.00243
987.061	17.04042
987.434	-26.06819
987.806	-38.09289
988.179	38.09147
988.551	32.08149
988.923	-29.07167
989.295	58.14494
989.667	12.02958
990.039	3.00752
990.411	-5.01169
990.783	-36.08316
991.155	-17.0422
991.527	14.03397
991.898	7.01757
992.27	11.02768
992.641	8.02015
993.012	35.08279
993.384	-23.05594
993.755	-25.06467
994.126	0
994.497	-1.00251
994.868	-17.03956
995.239	28.06829
995.61	20.05106
995.98	-8.01985
996.351	25.06294
996.722	7.01658
997.092	2.00479
997.462	18.04328
997.833	-7.01662
998.203	13.03162
998.573	-16.0403
998.943	-16.0384
999.313	-23.05544
999.683	-9.02186
1000.053	14.03242
1000.423	-4.00976
1000.792	34.08914
1001.162	-4.00997
1001.531	12.02985
1001.901	9.02253
1002.27	14.03188
1002.639	7.01802
1003.009	6.01446
1003.378	4.01026
1003.747	41.09748
1004.116	-5.01217
1004.485	-32.07706
1004.853	-31.07932
1005.222	6.01529
1005.591	59.14011
1005.959	62.14408
1006.328	33.07552
1006.696	-38.09296
1007.064	37.09388
1007.433	-5.01249
1007.801	-26.06377
1008.169	32.08164
1008.537	-4.00889
1008.905	-23.05487
1009.273	25.06208
1009.64	3.00731
1010.008	22.05296
1010.375	-26.06211
1010.743	22.0511
1011.11	42.10041
1011.478	14.03462
1011.845	7.01657
1012.212	10.02316
1012.579	-38.09472
1012.946	42.10041
1013.313	10.02369
1013.68	-19.04318
1014.047	27.06599
1014.414	-25.06033
1014.78	2.005
1015.147	7.01693
1015.513	22.05346
1015.88	25.06379
1016.246	11.02725
1016.612	51.11718
1016.978	41.10121
1017.344	-5.01247
1017.71	-56.13643
1018.076	1.00237
1018.442	11.02834
1018.808	26.06549
1019.174	10.02542
1019.539	53.12021
1019.905	12.0285
1020.27	10.02499
1020.636	-5.01204
1021.001	27.06552
1021.366	-48.11686
1021.731	-39.10168
1022.096	-35.08918
1022.461	-32.07601
1022.826	48.1151
1023.191	26.06826
1023.556	-11.02617
1023.92	-24.0593
1024.285	-33.08134
1024.649	-17.04192
1025.014	-10.02484
1025.378	7.01784
1025.742	21.05251
1026.107	-9.02061
1026.471	45.10418
1026.835	-27.06729
1027.199	-21.05171
1027.562	46.10812
1027.926	-7.01716
1028.29	30.07718
1028.654	10.02338
1029.017	-11.02714
1029.381	47.11483
1029.744	-4.01036
1030.107	-24.05687
1030.471	12.02891
1030.834	-50.11601
1031.197	4.0096
1031.56	-3.00712
1031.923	-17.04435
1032.286	-20.04688
1032.648	38.09151
1033.011	-18.0427
1033.374	3.00704
1033.736	8.02136
1034.099	54.13284
1034.461	20.05162
1034.823	12.03018
1035.185	-3.00764
1035.548	-14.0346
1035.91	26.06315
1036.272	-5.01159
1036.634	-9.02201
1036.995	-51.12134
1037.357	-2.00492
1037.719	-41.10069
1038.08	-6.01421
1038.442	-16.0385
1038.803	-7.01712
1039.165	-39.09948
1039.526	-19.04633
1039.887	-10.0243
1040.248	26.06546
1040.609	-17.04218
1040.97	49.12154
1041.331	-2.00507
1041.692	-1.00238
1042.053	-25.05767
1042.413	5.0117
1042.774	-7.01715
1043.134	-21.05006
1043.495	-35.08896
1043.855	-3.00733
1044.215	5.01239
1044.576	25.06085
1044.936	-39.08961
1045.296	-1.00251
1045.656	-4.00991
1046.016	21.05096
1046.375	3.00744
1046.735	-9.02103
1047.095	10.02374
1047.454	-23.04911
1047.814	-62.15032
1048.173	-50.12004
1048.533	12.02786
1048.892	7.01722
1049.251	-14.03531
1049.61	24.05963
1049.969	-36.08564
1050.328	-15.0331
1050.687	3.00739
1051.046	-19.04671
1051.405	7.01755
1051.763	-37.08715
1052.122	4.01019
1052.48	11.02698
1052.839	-31.07438
1053.197	-42.0998
1053.555	-38.08603
1053.914	6.01481
1054.272	-7.01695
1054.63	-3.0075
1054.988	-37.08935
1055.345	5.011
1055.703	-33.07975
1056.061	-16.04159
1056.419	0
1056.776	-28.06822
1057.134	27.06328
1057.491	24.06017
1057.848	-31.07824
1058.206	-5.01194
1058.563	17.03818
1058.92	13.03012
1059.277	-37.09174
1059.634	51.12078
1059.991	-39.09343
1060.348	60.13844
1060.704	-17.04127
1061.061	-67.15456
1061.418	7.01727
1061.774	7.01747
1062.131	-20.05341
1062.487	-42.09983
1062.843	2.00503
1063.199	-16.04003
1063.555	-13.03054
1063.911	4.01023
1064.267	-3.00632
1064.623	13.03202
1064.979	-38.08963
1065.335	-24.05696
1065.691	-34.08166
1066.046	-41.09133
1066.402	6.01393
1066.757	-30.07594
1067.112	-23.05617
1067.468	6.01442
1067.823	5.01215
1068.178	-38.09296
1068.533	-13.03165
1068.888	31.07464
1069.243	-1.00249
1069.598	-6.01482
1069.952	24.05546
1070.307	-5.01262
1070.662	-24.05845
1071.016	24.05502
1071.371	4.00921
1071.725	22.05264
1072.079	-34.08222
1072.434	1.00246
1072.788	28.06804
1073.142	26.06393
1073.496	78.18911
1073.85	12.02794
1074.203	-5.01208
1074.557	21.05615
1074.911	11.02622
1075.265	20.0467
1075.618	26.06372
1075.971	31.0743
1076.325	-26.06731
1076.678	35.08244
1077.031	17.03926
1077.385	44.0982
1077.738	57.13139
1078.091	45.10501
1078.444	6.01412
1078.796	-6.01487
1079.149	-4.00998
1079.502	23.05533
1079.855	13.03087
1080.207	17.0418
1080.56	18.04711
1080.912	-9.0222
1081.264	-9.02196
1081.617	27.06707
1081.969	23.05894
1082.321	47.11598
1082.673	34.07976
1083.025	-13.03103
1083.377	-242.55077
1083.728	15.03528
1084.08	18.04553
1084.432	38.09279
1084.783	8.01868
1085.135	20.05056
1085.486	31.07248
1085.838	10.02484
1086.189	-18.04443
1086.54	-8.01915
1086.891	22.05648
1087.242	15.03669
1087.593	-24.05825
1087.944	35.08087
1088.295	2.00455
1088.646	30.07303
1088.996	-25.06183
1089.347	-11.02728
1089.698	38.09189
1090.048	12.03116
1090.398	-4.00938
1090.749	-27.0652
1091.099	15.03818
1091.449	-29.0728
1091.799	21.0533
1092.149	6.01511
1092.499	-55.13532
1092.849	-11.02825
1093.199	7.01745
1093.548	-32.07793
1093.898	13.03304
1094.248	0
1094.597	-17.04444
1094.947	21.05611
1095.296	31.0772
1095.645	21.05451
1095.994	70.1692
1096.343	16.04042
1096.692	0
1097.041	-15.04124
1097.39	3.00756
1097.739	-19.04942
1098.088	19.05092
1098.437	3.00797
1098.785	52.14048
1099.134	-10.02669
1099.482	8.02199
1099.83	-62.16366
1100.179	1.00263
1100.527	27.07229
1100.875	8.02132
1101.223	-36.09611
1101.571	31.08617
1101.919	-32.08555
1102.267	12.03386
1102.615	1.00322
1102.962	4.01286
1103.31	10.03217
1103.658	-4.01288
