Data from N2 R3 sample 7_Subt2__0__17-14-56-647.txt Node

Date: Wed Aug 27 17:14:56 PDT 2025
User: uwsun
Spectrometer: HDX01956
Trigger mode: 0
Integration Time (sec): 5.000000E-1
Scans to average: 1
Nonlinearity correction enabled: true
Boxcar width: 0
Storing dark spectrum: false
XAxis mode: Wavelengths
Number of Pixels in Spectrum: 2068
>>>>>Begin Spectral Data<<<<<
194.03	166.47273
194.578	167.53442
195.127	191.6012
195.676	173.54724
196.225	150.40243
196.773	189.52383
197.321	241.66205
197.87	361.91023
198.418	421.05949
198.966	383.98254
199.513	345.86088
200.061	375.94484
200.609	356.92047
201.156	335.7366
201.704	417.03589
202.251	364.9457
202.798	426.08832
203.345	436.04785
203.892	359.88963
204.438	392.92266
204.985	390.91402
205.532	373.96291
206.078	436.04627
206.624	422.02104
207.17	374.85972
207.716	428.0282
208.262	351.69019
208.808	360.88411
209.354	391.9444
209.899	408.00004
210.445	378.9259
210.99	386.91842
211.535	396.91646
212.08	441.00613
212.625	404.98626
213.17	398.97415
213.715	403.89353
214.259	390.88897
214.804	441.05769
215.348	418.93661
215.892	379.8919
216.436	400.90292
216.98	383.83682
217.524	369.85823
218.068	404.98038
218.612	461.12206
219.155	393.9061
219.698	386.8951
220.242	327.79671
220.785	378.86544
221.328	404.98149
221.871	311.76508
222.414	374.91373
222.956	332.7927
223.499	338.75552
224.041	420.96235
224.583	309.65801
225.126	369.80862
225.668	375.89996
226.21	338.83562
226.751	336.73771
227.293	350.78718
227.835	317.76283
228.376	396.89827
228.918	341.8435
229.459	337.8333
230	300.70232
230.541	345.79133
231.082	323.77932
231.622	358.82559
232.163	378.90147
232.704	395.96053
233.244	312.75464
233.784	357.84961
234.324	332.72801
234.864	337.75655
235.404	385.88518
235.944	309.72211
236.484	323.7855
237.023	389.9033
237.563	384.87141
238.102	318.73044
238.641	351.86473
239.18	349.80916
239.719	401.98131
240.258	386.84747
240.797	388.91573
241.335	409.96808
241.874	344.6651
242.412	347.81788
242.95	394.92953
243.488	416.93481
244.026	381.85811
244.564	345.69918
245.102	381.85179
245.64	364.8611
246.177	359.7887
246.715	394.91328
247.252	372.83185
247.789	324.59403
248.326	391.92871
248.863	373.80774
249.4	327.72535
249.936	393.80629
250.473	397.90546
251.009	420.94534
251.546	424.92423
252.082	347.74309
252.618	378.83619
253.154	363.85558
253.69	364.81228
254.226	369.84773
254.761	359.79765
255.297	411.89039
255.832	347.80166
256.367	431.99249
256.903	402.86737
257.438	377.8557
257.972	412.90721
258.507	389.88651
259.042	330.70104
259.576	361.77341
260.111	391.87991
260.645	393.82522
261.179	370.84203
261.713	428.9282
262.247	387.87305
262.781	390.7967
263.315	362.86299
263.849	405.9852
264.382	393.87499
264.915	411.95022
265.449	421.00389
265.982	441.96759
266.515	396.94004
267.048	323.67196
267.58	366.77785
268.113	424.89757
268.646	415.99667
269.178	400.88854
269.71	366.77243
270.243	420.9287
270.775	428.05226
271.307	381.88753
271.838	403.92026
272.37	411.97657
272.902	411.91126
273.433	408.87238
273.965	391.92442
274.496	372.89395
275.027	431.03562
275.558	439.02728
276.089	405.97931
276.62	366.90382
277.15	427.01472
277.681	447.93984
278.211	453.0663
278.741	431.93052
279.272	421.93731
279.802	410.99568
280.332	429.98867
280.861	400.93709
281.391	454.99715
281.921	392.90685
282.45	479.14724
282.98	465.15661
283.509	422.92766
284.038	416.92062
284.567	403.90394
285.096	450.04011
285.625	383.84213
286.153	389.89259
286.682	466.03696
287.21	457.05401
287.739	435.9949
288.267	454.0585
288.795	444.11847
289.323	421.95631
289.851	414.93184
290.378	490.06656
290.906	486.14034
291.433	477.13159
291.961	524.14069
292.488	467.09761
293.015	474.06786
293.542	496.20086
294.069	515.21107
294.596	548.2695
295.122	456.04481
295.649	458.96614
296.175	488.13434
296.702	458.06031
297.228	492.13195
297.754	457.98876
298.28	521.13055
298.806	466.06007
299.332	546.15895
299.857	492.05867
300.383	464.10978
300.908	530.23696
301.433	453.05182
301.958	526.16684
302.483	525.25041
303.008	483.11541
303.533	509.25886
304.058	488.08286
304.582	547.23636
305.107	542.33347
305.631	528.13335
306.155	534.18609
306.679	535.19053
307.203	606.31165
307.727	582.30622
308.251	529.21502
308.775	549.22929
309.298	562.27779
309.822	596.39444
310.345	558.23434
310.868	550.23128
311.391	558.27073
311.914	575.36021
312.437	512.09281
312.96	589.29244
313.482	573.27046
314.005	596.40586
314.527	602.46106
315.049	625.45122
315.571	644.32687
316.093	646.46483
316.615	573.28205
317.137	628.25789
317.659	601.32986
318.18	610.35008
318.702	609.33021
319.223	604.15449
319.744	672.38712
320.265	649.44394
320.786	676.53663
321.307	712.61199
321.828	667.36662
322.348	649.38479
322.869	713.53858
323.389	924.33042
323.909	691.44711
324.43	730.55882
324.95	701.45837
325.47	723.60938
325.989	731.5431
326.509	739.48296
327.029	793.59512
327.548	754.51484
328.067	790.70523
328.587	809.7444
329.106	837.70071
329.625	781.80149
330.144	787.59102
330.662	824.68529
331.181	784.60629
331.7	844.70678
332.218	815.54321
332.736	870.73615
333.255	861.74635
333.773	867.75694
334.291	871.8469
334.808	841.615
335.326	877.69718
335.844	972.91487
336.361	949.03944
336.879	958.9102
337.396	970.96184
337.913	1019.9874
338.43	984.83802
338.947	969.94331
339.464	1070.89299
339.981	1009.98738
340.497	1063.14415
341.014	1075.15161
341.53	1062.9528
342.046	1081.14874
342.562	1065.14526
343.078	1049.01753
343.594	1130.17215
344.11	1154.16335
344.626	1077.1952
345.141	1090.97241
345.657	1086.92337
346.172	1190.26812
346.687	1110.04196
347.202	1162.07732
347.717	1194.21778
348.232	1228.41277
348.747	1271.24339
349.261	1231.06822
349.776	1219.23813
350.29	1305.4849
350.805	1317.50058
351.319	1327.32092
351.833	1287.24243
352.347	1311.33104
352.861	1337.36041
353.374	1330.26268
353.888	1299.31909
354.401	1363.34575
354.915	1419.39117
355.428	1343.5071
355.941	1384.36637
356.454	1402.24128
356.967	1383.38413
357.48	1429.34346
357.993	1413.53639
358.505	1472.61398
359.018	1509.65601
359.53	1502.52583
360.042	1448.28021
360.554	1452.48464
361.066	1549.67903
361.578	1495.26443
362.09	1552.58105
362.602	1484.2549
363.113	1620.545
363.625	1570.38558
364.136	1569.33716
364.647	1608.53028
365.158	1616.55604
365.669	1610.65213
366.18	1683.61868
366.691	1626.36605
367.201	1590.5688
367.712	1693.56041
368.222	1777.55693
368.733	1778.39834
369.243	1783.47782
369.753	1826.58923
370.263	1900.85199
370.773	1876.96885
371.282	1867.7414
371.792	1946.68264
372.301	2033.93608
372.811	2010.18132
373.32	2017.45636
373.829	2029.72118
374.338	2147.56558
374.847	2167.67695
375.356	2247.78333
375.865	2342.36833
376.373	2416.57271
376.882	2451.06534
377.39	2520.84447
377.898	2542.97437
378.407	2776.5619
378.915	2786.19839
379.423	2944.55577
379.93	3056.29572
380.438	3180.60651
380.946	3283.28692
381.453	3494.36679
381.96	3605.10469
382.468	3801.91209
382.975	4099.86767
383.482	4306.4091
383.989	4286.05495
384.495	4523.26628
385.002	4608.62728
385.509	4856.8866
386.015	5259.96215
386.521	5460.1981
387.028	5697.10448
387.534	5783.84456
388.04	6075.12445
388.546	6264.92892
389.051	6547.90747
389.557	7127.37801
390.063	7514.78962
390.568	8060.63117
391.073	8249.16415
391.578	8444.55241
392.084	8949.2324
392.589	9044.03013
393.093	9706.35388
393.598	10653.19453
394.103	11643.30106
394.607	12803.78315
395.112	13508.4915
395.616	14536.27323
396.12	15907.23975
396.624	17512.2336
397.128	19292.17531
397.632	21371.2264
398.136	23194.49209
398.639	24390.12366
399.143	26682.94771
399.646	30248.05114
400.15	33381.97592
400.653	36826.70569
401.156	41322.70898
401.659	47648.79985
402.162	52480.03507
402.664	47243.35102
403.167	32260.27245
403.67	3851.94142
404.172	0
404.674	0
405.176	0
405.678	0
406.18	0
406.682	0
407.184	0
407.686	12367.42319
408.187	34596.90747
408.688	44563.94194
409.19	48906.19284
409.691	51236.67962
410.192	52883.26968
410.693	53713.23343
411.194	54189.54801
411.694	54767.79104
412.195	55625.98899
412.696	55971.27715
413.196	54069.62157
413.696	51685.76673
414.196	52096.89783
414.696	51218.13512
415.196	49814.63223
415.696	45921.30148
416.196	38381.25053
416.695	29647.97835
417.195	24781.12716
417.694	23392.85387
418.194	22051.54969
418.693	20560.81467
419.192	19516.81399
419.691	19283.27652
420.19	18794.45014
420.688	18463.34176
421.187	17558.67979
421.685	16372.7497
422.184	15026.64902
422.682	13512.01107
423.18	11465.32311
423.678	9984.32868
424.176	9393.70726
424.674	8924.98736
425.172	8439.44386
425.669	7847.27619
426.167	7466.76279
426.664	6683.14284
427.161	6225.15611
427.659	5667.58538
428.156	5279.11271
428.652	5065.33083
429.149	4805.2107
429.646	4568.97135
430.143	4362.54743
430.639	4132.66646
431.135	3856.21063
431.632	3697.94329
432.128	3393.18283
432.624	3214.75862
433.12	3114.15217
433.616	3102.03184
434.111	2895.58314
434.607	2776.60576
435.103	2718.08386
435.598	2696.94855
436.093	2501.5272
436.588	2313.33057
437.083	2393.47703
437.578	2021.31221
438.073	2021.80164
438.568	1948.65317
439.062	1878.16296
439.557	1816.43955
440.051	1850.40418
440.546	1834.4275
441.04	1705.50305
441.534	1677.63024
442.028	1605.39
442.522	1599.42086
443.015	1567.16201
443.509	1565.4964
444.002	1520.43561
444.496	1447.03388
444.989	1426.33271
445.482	1432.39829
445.975	1437.168
446.468	1401.03439
446.961	1322.86941
447.454	1407.17023
447.947	1325.15143
448.439	1258.15444
448.931	1195.87854
449.424	1268.25832
449.916	1207.09032
450.408	1222.9262
450.9	1183.03455
451.392	1148.1163
451.884	1123.87275
452.375	1096.00809
452.867	1118.79582
453.358	1109.83821
453.849	1117.724
454.341	1051.72448
454.832	1054.6744
455.323	1128.04109
455.814	1048.78496
456.304	989.7253
456.795	1063.83147
457.285	988.64907
457.776	978.66178
458.266	1003.83256
458.756	970.81717
459.247	982.81171
459.737	977.83525
460.226	971.6867
460.716	892.68229
461.206	844.62739
461.695	920.83096
462.185	873.65081
462.674	844.55197
463.163	863.53423
463.653	836.41219
464.142	817.60049
464.63	802.5855
465.119	764.45247
465.608	793.50879
466.096	769.39292
466.585	817.54249
467.073	705.41073
467.561	734.46986
468.05	727.41186
468.538	703.45151
469.026	706.40915
469.513	611.10225
470.001	736.44941
470.489	735.49934
470.976	648.26269
471.463	616.3248
471.951	607.29955
472.438	583.19858
472.925	623.2867
473.412	600.2743
473.899	557.12394
474.385	572.23744
474.872	528.09143
475.359	582.26339
475.845	554.02908
476.331	563.08664
476.817	509.10071
477.303	510.06122
477.789	513.10607
478.275	487.08892
478.761	532.1547
479.247	452.91413
479.732	460.04556
480.218	459.07375
480.703	434.98244
481.188	372.73372
481.673	429.902
482.158	441.88474
482.643	420.98123
483.128	418.89299
483.612	395.85537
484.097	434.97645
484.581	329.70912
485.066	368.83849
485.55	348.71897
486.034	319.65861
486.518	316.69206
487.002	392.90937
487.486	349.80371
487.969	351.80348
488.453	323.76074
488.936	281.60697
489.42	340.71441
489.903	258.61346
490.386	343.54076
490.869	282.58471
491.352	240.55372
491.835	245.48948
492.318	317.68765
492.8	315.63634
493.283	244.59197
493.765	260.61464
494.247	240.5387
494.73	220.46839
495.212	251.57183
495.694	254.5734
496.175	221.50938
496.657	242.54966
497.139	225.38665
497.62	262.60231
498.102	250.60356
498.583	232.56202
499.064	158.34312
499.545	200.44523
500.026	185.40817
500.507	208.47129
500.988	238.56895
501.469	162.39747
501.949	148.35395
502.43	192.4481
502.91	179.36841
503.39	217.52202
503.87	159.36809
504.35	127.2932
504.83	197.42444
505.31	127.30251
505.79	197.46167
506.269	149.3407
506.749	133.30044
507.228	132.30626
507.707	119.26035
508.187	104.24416
508.666	92.22154
509.145	134.30917
509.623	136.31791
510.102	108.25829
510.581	119.27888
511.059	137.3393
511.538	151.37753
512.016	167.39504
512.494	174.41708
512.972	132.30626
513.45	102.23684
513.928	172.41009
514.406	144.34702
514.884	124.31322
515.361	136.31629
515.839	124.28097
516.316	142.3374
516.793	131.32563
517.27	160.37738
517.747	150.37943
518.224	148.33453
518.701	102.22679
519.178	100.24472
519.654	90.21129
520.131	89.2176
520.607	83.20248
521.083	107.24358
521.56	64.15002
522.036	66.14541
522.512	106.25477
522.987	90.21302
523.463	123.28938
523.939	83.19945
524.414	111.25442
524.89	134.31594
525.365	39.0881
525.84	33.07903
526.315	75.1803
526.79	42.09451
527.265	116.26444
527.74	62.14953
528.215	97.23194
528.689	43.09583
529.164	122.26494
529.638	99.25083
530.112	126.29407
530.587	30.06607
531.061	101.24298
531.534	129.30975
532.008	104.24958
532.482	72.16328
532.956	31.07863
533.429	51.12237
533.903	66.14498
534.376	96.21425
534.849	16.03702
535.322	66.15573
535.795	47.1138
536.268	66.15881
536.741	65.15406
537.213	73.16759
537.686	90.21672
538.158	69.15638
538.631	86.20387
539.103	69.15676
539.575	77.15998
540.047	69.15326
540.519	55.12985
540.991	63.15139
541.463	97.23132
541.934	41.09334
542.406	31.07339
542.877	11.02477
543.348	-32.07592
543.82	74.17847
544.291	30.06916
544.762	81.19109
545.233	87.21397
545.703	83.1832
546.174	111.25493
546.645	76.18135
547.115	137.32533
547.585	47.10665
548.056	76.18065
548.526	132.30504
548.996	74.17502
549.466	131.30988
549.935	156.36237
550.405	174.37271
550.875	179.41061
551.344	152.35322
551.814	189.42188
552.283	141.29804
552.752	218.48309
553.221	169.35942
553.69	176.37569
554.159	224.52914
554.628	220.47857
555.096	248.59648
555.565	291.62749
556.033	279.62121
556.502	261.60492
556.97	207.43813
557.438	165.37728
557.906	257.58053
558.374	251.55215
558.842	232.53314
559.31	282.60378
559.777	241.55968
560.245	227.50397
560.712	260.57087
561.18	245.52286
561.647	330.68973
562.114	366.79579
562.581	317.72421
563.048	371.79894
563.514	327.75636
563.981	380.81182
564.448	373.77597
564.914	416.8814
565.381	458.94366
565.847	445.94675
566.313	453.97466
566.779	485.0044
567.245	480.00533
567.711	495.07814
568.176	524.04828
568.642	544.21533
569.108	577.25704
569.573	631.28693
570.038	630.1543
570.504	612.21052
570.969	630.35495
571.434	704.30964
571.899	737.49731
572.363	756.44351
572.828	754.42856
573.293	806.55847
573.757	806.53543
574.222	797.49805
574.686	848.5773
575.15	845.67568
575.614	885.66703
576.078	849.62961
576.542	847.57348
577.006	885.61328
577.469	796.59565
577.933	865.59504
578.396	917.75696
578.86	837.62352
579.323	887.74517
579.786	828.45628
580.249	803.51897
580.712	790.596
581.175	807.66277
581.637	719.38237
582.1	735.32039
582.563	794.39999
583.025	705.45564
583.487	714.2311
583.95	703.29255
584.412	681.19876
584.874	673.40564
585.336	616.26966
585.797	597.11712
586.259	586.2007
586.721	568.17478
587.182	581.16977
587.643	544.06875
588.105	472.9795
588.566	485.88996
589.027	444.95879
589.488	418.8508
589.949	483.03548
590.41	398.71208
590.87	359.72722
591.331	403.78348
591.791	408.85048
592.252	338.70269
592.712	364.78101
593.172	375.76484
593.632	294.57933
594.092	389.77681
594.552	284.55462
595.011	315.66553
595.471	333.67918
595.931	272.55717
596.39	321.71057
596.849	286.61314
597.308	260.50871
597.768	283.67069
598.227	280.61555
598.685	250.52693
599.144	257.56155
599.603	281.61295
600.062	329.64266
600.52	224.46902
600.978	325.70681
601.437	230.48883
601.895	248.48225
602.353	227.46383
602.811	289.59641
603.269	270.59058
603.727	269.59522
604.184	255.53735
604.642	271.6059
605.099	264.57428
605.557	336.74268
606.014	271.54067
606.471	282.65113
606.928	252.50358
607.385	364.80825
607.842	368.7712
608.299	420.87666
608.755	352.7634
609.212	413.83201
609.668	318.64697
610.125	360.77776
610.581	373.77977
611.037	389.78799
611.493	313.67116
611.949	298.65457
612.405	420.77551
612.861	366.76802
613.316	333.73374
613.772	271.5673
614.227	253.54438
614.683	336.65399
615.138	317.68296
615.593	390.82813
616.048	361.75335
616.503	334.73147
616.958	339.76634
617.412	314.68187
617.867	377.76857
618.321	384.73213
618.776	361.72324
619.23	348.74153
619.684	427.87327
620.138	338.69988
620.592	315.69554
621.046	294.62729
621.5	346.77021
621.954	340.69645
622.407	328.66822
622.861	286.64695
623.314	303.63372
623.768	273.5912
624.221	222.41399
624.674	265.56652
625.127	265.57266
625.58	179.37936
626.033	250.50723
626.485	259.58457
626.938	207.46015
627.39	275.59859
627.843	189.41105
628.295	194.4213
628.747	214.48113
629.199	224.4796
629.651	225.48893
630.103	211.45987
630.555	240.48917
631.006	188.41887
631.458	215.48546
631.909	168.36561
632.361	190.42543
632.812	186.41338
633.263	139.28918
633.714	173.36216
634.165	82.19146
634.616	135.30856
635.067	132.27933
635.518	187.42483
635.968	155.30119
636.419	112.2368
636.869	80.18282
637.319	167.38262
637.769	105.22895
638.219	130.30078
638.669	57.13332
639.119	59.13892
639.569	85.20099
640.019	70.15745
640.468	98.215
640.918	66.15374
641.367	93.20648
641.816	32.07003
642.265	67.15098
642.714	50.11375
643.163	33.07491
643.612	72.17134
644.061	-5.01064
644.51	46.10432
644.958	59.13007
645.406	21.04995
645.855	90.21861
646.303	59.13648
646.751	12.02744
647.199	33.07412
647.647	19.04352
648.095	34.07773
648.543	100.20596
648.99	61.14502
649.438	47.1076
649.885	70.16844
650.333	85.16611
650.78	25.0604
651.227	53.12842
651.674	52.11917
652.121	34.08271
652.568	45.10937
653.015	87.21673
653.461	2.00476
653.908	44.10156
654.354	57.13551
654.801	40.0957
655.247	-5.01099
655.693	21.05406
656.139	55.13337
656.585	64.15377
657.031	66.15634
657.477	16.03552
657.922	48.11198
658.368	57.14128
658.813	89.20564
659.259	33.07963
659.704	55.12895
660.149	20.04736
660.594	34.08141
661.039	35.08022
661.484	37.08844
661.929	30.07035
662.373	36.09175
662.818	26.06483
663.262	20.04871
663.707	30.07602
664.151	26.06334
664.595	78.1906
665.039	39.09698
665.483	39.1007
665.927	35.08222
666.371	47.11204
666.814	49.11806
667.258	3.00727
667.701	34.07459
668.145	69.17164
668.588	42.10397
669.031	-10.02426
669.474	32.07793
669.917	22.04938
670.36	66.16421
670.803	50.12182
671.245	101.21864
671.688	8.01963
672.13	87.20053
672.573	20.05102
673.015	31.07534
673.457	36.08097
673.899	23.05638
674.341	0
674.783	5.01229
675.225	31.07773
675.666	62.15207
676.108	-18.03992
676.549	13.03118
676.991	37.08406
677.432	108.22724
677.873	52.12237
678.314	22.05346
678.755	72.17803
679.196	42.09976
679.637	27.06709
680.078	87.20588
680.518	3.00713
680.959	-38.09258
681.399	11.02772
681.839	26.06445
682.28	57.14318
682.72	48.11352
683.16	9.02293
683.6	34.07876
684.039	14.03007
684.479	32.07991
684.919	45.10793
685.358	22.05624
685.798	52.13896
686.237	38.0932
686.676	-13.03051
687.115	12.02891
687.554	84.20266
687.993	29.06599
688.432	54.12603
688.871	-2.00471
689.309	67.1632
689.748	61.1316
690.186	42.10221
690.625	65.15602
691.063	56.13765
691.501	67.1683
691.939	48.12272
692.377	1.00252
692.815	17.04186
693.253	-7.01718
693.69	35.07942
694.128	50.12454
694.565	26.06342
695.003	20.05151
695.44	81.19501
695.877	-7.017
696.314	40.08864
696.751	3.00699
697.188	-24.05676
697.625	14.0326
698.061	43.10615
698.498	38.09368
698.934	30.07374
699.371	-1.00243
699.807	56.13521
700.243	-22.0543
700.679	66.15222
701.115	-20.0478
701.551	17.04081
701.987	31.07177
702.422	33.08053
702.858	35.08564
703.294	3.0069
703.729	13.0324
704.164	7.01717
704.599	21.04804
705.035	4.00928
705.47	-12.0298
705.904	49.11775
706.339	47.11101
706.774	20.04838
707.209	30.07172
707.643	21.05153
708.078	-10.02488
708.512	-35.09037
708.946	48.1162
709.38	45.10908
709.814	73.17188
710.248	47.11709
710.682	20.04904
711.116	2.005
711.549	35.09234
711.983	-3.00719
712.416	20.04842
712.85	48.12185
713.283	3.00726
713.716	33.08319
714.149	27.06523
714.582	37.0859
715.015	16.04055
715.448	56.14292
715.881	-32.0713
716.313	-11.02616
716.746	16.03878
717.178	8.0198
717.61	4.01029
718.043	-13.03309
718.475	-11.02724
718.907	22.05581
719.339	38.08935
719.77	2.00489
720.202	75.19157
720.634	11.02758
721.065	20.04894
721.497	23.0578
721.928	35.08808
722.359	33.08242
722.79	48.11808
723.221	46.11657
723.652	37.09574
724.083	63.14655
724.514	-20.04723
724.945	35.0842
725.375	46.11085
725.806	-8.02009
726.236	3.00775
726.666	54.13107
727.096	1.00254
727.526	1.0026
727.956	49.11542
728.386	40.10071
728.816	63.16453
729.246	10.02494
729.675	5.01257
730.105	65.16246
730.534	-4.00967
730.964	12.03078
731.393	-12.03018
731.822	-11.02837
732.251	18.04673
732.68	-13.03119
733.109	50.12675
733.537	18.04465
733.966	35.0883
734.395	2.00476
734.823	16.03709
735.251	-24.05965
735.68	13.03304
736.108	25.06462
736.536	5.01226
736.964	4.00957
737.392	14.03574
737.82	-25.06078
738.247	31.07627
738.675	-13.03144
739.102	70.17915
739.53	-23.05992
739.957	-5.01307
740.384	32.0795
740.811	-4.01032
741.238	-1.00249
741.665	-25.06001
742.092	11.02683
742.519	7.01791
742.945	0
743.372	18.04558
743.798	21.05496
744.225	6.01476
744.651	22.05619
745.077	17.04319
745.503	-2.00504
745.929	-21.05205
746.355	-69.17221
746.781	17.04296
747.207	-6.01453
747.632	-8.02018
748.058	-16.04055
748.483	63.14897
748.908	-22.05615
749.334	30.07559
749.759	43.10455
750.184	4.00978
750.609	-5.01247
751.033	35.08254
751.458	39.08878
751.883	-26.06518
752.307	22.05362
752.732	36.09294
753.156	28.07088
753.58	33.07951
754.005	-21.05426
754.429	-21.05113
754.853	56.14186
755.277	-30.07265
755.7	5.01263
756.124	-7.01782
756.548	9.02209
756.971	11.0275
757.394	2.00524
757.818	-3.00789
758.241	25.06455
758.664	43.11142
759.087	5.01162
759.51	-38.09677
759.933	-24.05908
760.356	-3.00777
760.778	62.15728
761.201	31.07692
761.623	41.10106
762.046	13.03113
762.468	57.13791
762.89	3.00745
763.312	12.02964
763.734	1.00247
764.156	11.02782
764.578	8.01877
765	25.06262
765.421	37.09749
765.843	15.03984
766.264	-22.05384
766.686	-5.01272
767.107	34.0845
767.528	19.0493
767.949	-44.11391
768.37	11.02775
768.791	34.08364
769.212	26.06736
769.632	-8.01932
770.053	-2.00536
770.473	-5.01246
770.894	-21.05307
771.314	2.00482
771.734	-13.03142
772.154	11.02873
772.575	-6.0142
772.994	-1.00235
773.414	-3.00734
773.834	-65.16533
774.254	48.12025
774.673	-20.04972
775.093	-30.07573
775.512	-16.04086
775.931	20.05172
776.351	6.0152
776.77	-1.00253
777.189	8.01951
777.607	-23.05953
778.026	-32.08129
778.445	-57.14621
778.864	-37.0961
779.282	8.01982
779.701	-33.08524
780.119	-25.06489
780.537	2.00512
780.955	44.11269
781.373	-3.00754
781.791	-21.04864
782.209	-17.03962
782.627	-16.04267
783.045	11.02594
783.462	5.01291
783.88	1.00265
784.297	47.12039
784.715	-5.01313
785.132	-8.01976
785.549	-15.03862
785.966	7.01783
786.383	0
786.8	-29.06839
787.217	-25.06078
787.633	3.00772
788.05	-12.02857
788.466	4.00961
788.883	-16.04155
789.299	-6.01472
789.715	54.13382
790.131	44.11106
790.547	-51.12926
790.963	14.03538
791.379	-5.01282
791.795	-9.02082
792.21	55.13081
792.626	34.08128
793.041	16.0402
793.457	0
793.872	-37.08895
794.287	25.06201
794.702	-12.02989
795.117	27.06882
795.532	15.03822
795.947	11.02679
796.362	-3.00718
796.776	30.06991
797.191	30.07513
797.605	30.07254
798.02	32.0795
798.434	19.04296
798.848	-15.03792
799.262	19.04822
799.676	35.08554
800.09	-52.12971
800.504	51.12525
800.918	-14.03343
801.331	0
801.745	-58.13606
802.158	-25.06402
802.572	5.01213
802.985	35.08548
803.398	20.04853
803.811	-9.02317
804.224	5.01255
804.637	-16.03902
805.05	18.04262
805.462	47.11751
805.875	7.01856
806.288	-12.0294
806.7	-11.02814
807.112	-1.00237
807.525	2.00499
807.937	-21.05319
808.349	-5.01259
808.761	-14.03468
809.173	7.01727
809.584	-44.10939
809.996	-37.09365
810.408	20.05253
810.819	9.02186
811.231	33.0878
811.642	84.20732
812.053	127.30611
812.464	100.2398
812.875	116.29656
813.286	10.02589
813.697	-41.09552
814.108	-2.00492
814.519	-41.09315
814.929	2.00509
815.34	-21.05176
815.75	12.03086
816.16	-8.02016
816.571	51.13351
816.981	-14.03319
817.391	4.00984
817.801	-23.05827
818.211	7.01681
818.62	14.03449
819.03	26.06452
819.44	-6.01576
819.849	6.01537
820.259	-14.03597
820.668	-21.05281
821.077	4.01018
821.486	37.09043
821.895	-1.00248
822.304	-4.01068
822.713	-17.04098
823.122	-16.04036
823.531	-5.01196
823.939	30.07391
824.348	24.05886
824.756	-8.02029
825.164	34.0853
825.573	-4.01022
825.981	-50.1249
826.389	1.00255
826.797	28.07153
827.205	38.08932
827.612	4.00993
828.02	-10.02419
828.428	-28.07221
828.835	1.00265
829.243	17.04081
829.65	18.04522
830.057	-31.07605
830.464	-51.12673
830.871	10.02397
831.278	-14.03438
831.685	51.11516
832.092	14.03477
832.499	-14.03144
832.905	19.04833
833.312	28.06453
833.718	-13.03263
834.124	2.00461
834.531	20.05074
834.937	-2.00517
835.343	-30.07391
835.749	21.04933
836.155	-8.02127
836.561	-36.08963
836.966	11.02704
837.372	19.04896
837.777	-23.05823
838.183	41.09247
838.588	6.01513
838.993	-72.17764
839.399	26.06511
839.804	-49.12313
840.209	22.05672
840.613	33.07452
841.018	14.03578
841.423	-17.04414
841.828	-10.02556
842.232	9.02231
842.637	2.00479
843.041	-7.01823
843.445	26.06586
843.849	-26.06565
844.253	11.02633
844.657	23.05877
845.061	-16.03687
845.465	13.03216
845.869	-16.03796
846.272	21.05213
846.676	-56.13546
847.079	17.04394
847.483	18.04485
847.886	18.04397
848.289	-21.05691
848.692	-19.04848
849.095	6.0146
849.498	0
849.901	2.00466
850.304	-28.06758
850.707	-33.08509
851.109	-3.00757
851.512	51.1271
851.914	42.10881
852.316	-7.01795
852.718	21.05602
853.121	9.02252
853.523	43.10388
853.925	7.01856
854.326	31.07863
854.728	0
855.13	-15.03923
855.531	-4.00985
855.933	31.07506
856.334	-27.06846
856.736	13.03028
857.137	36.08511
857.538	21.05385
857.939	20.05057
858.34	24.05895
858.741	23.06048
859.142	-36.08781
859.542	9.02394
859.943	31.07846
860.343	23.05827
860.744	1.00246
861.144	40.09803
861.544	15.03718
861.945	18.04644
862.345	-29.07201
862.745	-10.02506
863.145	0
863.544	-16.04105
863.944	42.10102
864.344	-15.03745
864.743	25.0619
865.143	53.13733
865.542	-11.02619
865.941	-8.01998
866.34	8.0192
866.74	-20.05417
867.139	-28.0684
867.537	19.04875
867.936	29.07038
868.335	24.06123
868.734	7.01811
869.132	-14.03311
869.531	-12.02885
869.929	25.05864
870.327	35.08548
870.726	1.00249
871.124	20.04673
871.522	-26.06684
871.92	23.05734
872.318	-18.04434
872.715	-10.02469
873.113	-20.04965
873.511	-58.14488
873.908	-64.1654
874.306	5.01267
874.703	-3.00757
875.1	-19.04869
875.497	-6.0146
875.894	19.04761
876.291	-42.10362
876.688	-9.0235
877.085	28.0674
877.482	8.02025
877.878	-11.02711
878.275	-48.12401
878.671	-26.05779
879.068	-15.03669
879.464	28.06865
879.86	-10.02426
880.256	-17.04234
880.652	9.02331
881.048	-15.03756
881.444	8.01908
881.84	11.02832
882.236	22.05549
882.631	0
883.027	-46.11228
883.422	16.04154
883.817	12.03092
884.213	15.03892
884.608	30.07535
885.003	27.06655
885.398	30.07591
885.793	37.09361
886.188	35.08855
886.582	50.12801
886.977	56.13383
887.371	-10.02518
887.766	0
888.16	46.11537
888.554	-33.08149
888.949	1.00252
889.343	36.08826
889.737	0
890.131	17.0431
890.525	47.12136
890.918	14.03567
891.312	4.00962
891.706	32.0839
892.099	15.03826
892.492	14.03042
892.886	81.20047
893.279	41.1059
893.672	-7.01811
894.065	-9.02275
894.458	-17.04301
894.851	-5.01222
895.244	51.13128
895.637	-29.07096
896.029	48.11882
896.422	-16.03965
896.814	56.14095
897.206	44.10591
897.599	-7.01734
897.991	5.0123
898.383	-41.09838
898.775	13.02976
899.167	-21.05056
899.559	-8.02028
899.951	11.02636
900.342	18.04616
900.734	9.02286
901.125	48.12704
901.517	-38.09451
901.908	-5.01203
902.299	28.07012
902.69	24.05729
903.082	-30.07276
903.473	-18.04433
903.863	-46.11855
904.254	-39.09215
904.645	-38.09468
905.036	11.02712
905.426	25.05774
905.817	22.05468
906.207	-10.02448
906.597	-14.03343
906.987	-22.05686
907.378	5.01271
907.768	22.05854
908.158	-18.04456
908.547	53.13893
908.937	-16.04105
909.327	-5.01225
909.717	-4.01015
910.106	24.05886
910.495	-10.02509
910.885	32.08161
911.274	5.01265
911.663	2.00508
912.052	0
912.441	54.13844
912.83	38.08879
913.219	37.09623
913.608	-24.0588
913.997	-20.05135
914.385	13.03154
914.774	-34.08425
915.162	22.05346
915.55	-20.04865
915.939	-26.06677
916.327	-43.10747
916.715	17.04432
917.103	18.04444
917.491	7.01746
917.878	47.11662
918.266	-22.05739
918.654	14.03596
919.041	-33.08733
919.429	-34.08128
919.816	31.07891
920.203	26.06353
920.591	-37.09271
920.978	23.05655
921.365	-7.01855
921.752	-9.02169
922.139	12.0263
922.525	46.11353
922.912	-14.03446
923.299	41.10377
923.685	-13.03411
924.072	43.09935
924.458	36.08977
924.844	5.01265
925.231	25.05905
925.617	29.07535
926.003	16.04105
926.389	5.01267
926.774	34.08653
927.16	16.04007
927.546	-8.02071
927.931	40.10075
928.317	-4.00935
928.702	1.00237
929.088	51.1233
929.473	-8.02062
929.858	29.07198
930.243	-53.1304
930.628	31.07681
931.013	14.03505
931.398	-13.02985
931.783	-28.07361
932.167	-13.03197
932.552	-55.13871
932.937	6.01496
933.321	18.04589
933.705	15.03803
934.09	-26.06514
934.474	22.05278
934.858	-15.03896
935.242	5.01172
935.626	40.10302
936.009	-8.02155
936.393	-14.03578
936.777	-24.0617
937.16	11.02892
937.544	-19.04493
937.927	-11.0282
938.311	4.00982
938.694	-2.00527
939.077	46.11144
939.46	22.05372
939.843	25.05252
940.226	9.02338
940.609	52.12165
940.991	39.10018
941.374	-17.04212
941.757	44.10939
942.139	7.0159
942.522	-60.14366
942.904	3.00725
943.286	-20.05122
943.668	42.10956
944.05	-4.01004
944.432	57.14241
944.814	11.02762
945.196	-15.03779
945.578	31.07568
945.959	31.0733
946.341	-7.01711
946.722	-5.01179
947.104	-8.01926
947.485	40.0949
947.866	-14.03601
948.247	-5.0128
948.628	42.10271
949.009	14.03627
949.39	4.00998
949.771	6.01413
950.152	0
950.532	-16.0404
950.913	35.08592
951.293	-10.02747
951.674	5.01221
952.054	-1.0025
952.434	-11.02752
952.814	-47.11187
953.194	-4.01039
953.574	12.02949
953.954	11.02651
954.334	-6.01511
954.714	-13.0323
955.093	-12.02939
955.473	-19.04821
955.853	-35.09116
956.232	-22.06028
956.611	51.12116
956.99	-29.07298
957.37	5.0128
957.749	-1.00241
958.128	-40.10198
958.506	13.03406
958.885	22.05583
959.264	3.00752
959.643	32.0741
960.021	-21.05254
960.4	-31.07163
960.778	11.02694
961.156	-5.01274
961.535	9.02117
961.913	47.11054
962.291	31.0806
962.669	-58.14745
963.047	-28.07259
963.424	-18.04645
963.802	-43.10743
964.18	4.01013
964.557	58.13446
964.935	-23.05493
965.312	7.01851
965.69	9.0227
966.067	-5.01231
966.444	0
966.821	-33.08539
967.198	28.06732
967.575	7.01719
967.952	-27.06365
968.329	-4.00984
968.705	8.01763
969.082	25.06513
969.458	-25.06124
969.835	-34.08311
970.211	7.01818
970.587	10.02502
970.963	20.05144
971.339	0
971.715	-9.02273
972.091	35.08672
972.467	18.045
972.843	7.01772
973.219	12.02874
973.594	-24.0638
973.97	51.12139
974.345	49.11824
974.721	16.03894
975.096	16.03924
975.471	-20.0471
975.846	31.07526
976.221	11.02851
976.596	31.07529
976.971	-27.0669
977.346	27.06303
977.72	-55.14098
978.095	4.01033
978.469	4.0096
978.844	-11.02765
979.218	35.08554
979.593	-15.03594
979.967	30.07388
980.341	59.13703
980.715	2.00505
981.089	41.10336
981.463	16.0373
981.837	22.05446
982.21	-36.08303
982.584	0
982.957	-10.02534
983.331	21.04989
983.704	61.15086
984.078	14.03467
984.451	-23.05684
984.824	1.0025
985.197	0
985.57	37.09284
985.943	24.05878
986.316	9.02218
986.688	26.06289
987.061	49.11578
987.434	-8.02092
987.806	-9.02188
988.179	39.09386
988.551	29.07389
988.923	-23.05678
989.295	46.1152
989.667	29.07127
990.039	-1.00251
990.411	41.09496
990.783	-7.01608
991.155	3.00742
991.527	19.04606
991.898	6.01506
992.27	49.12247
992.641	-12.03033
993.012	35.08279
993.384	-12.02913
993.755	4.01029
994.126	11.02664
994.497	29.07235
994.868	-3.00696
995.239	-28.06901
995.61	9.02302
995.98	10.02473
996.351	12.03028
996.722	1.00237
997.092	-7.01681
997.462	36.08626
997.833	-21.04998
998.203	29.07032
998.573	4.01004
998.943	17.04054
999.313	-24.05786
999.683	-26.06334
1000.053	-27.06303
1000.423	-24.05878
1000.792	36.09435
1001.162	3.00747
1001.531	21.05214
1001.901	-30.07564
1002.27	32.0726
1002.639	25.06415
1003.009	18.0433
1003.378	-16.04116
1003.747	-24.05777
1004.116	-14.03415
1004.485	-61.1477
1004.853	-9.02294
1005.222	21.05338
1005.591	-10.02406
1005.959	80.18525
1006.328	14.03216
1006.696	3.00728
1007.064	31.07874
1007.433	9.02243
1007.801	-1.00244
1008.169	12.03072
1008.537	19.04204
1008.905	-21.05008
1009.273	26.06455
1009.64	-4.00976
1010.008	-24.05827
1010.375	17.04028
1010.743	18.04185
1011.11	-21.05081
1011.478	-29.07227
1011.845	35.08241
1012.212	-13.03025
1012.579	-16.03972
1012.946	-24.0581
1013.313	30.07079
1013.68	-17.03862
1014.047	29.07085
1014.414	-1.0024
1014.78	-17.04264
1015.147	-33.08041
1015.513	21.05104
1015.88	28.07141
1016.246	3.00744
1016.612	3.00696
1016.978	22.0545
1017.344	4.00996
1017.71	-22.05326
1018.076	-10.02374
1018.442	-5.01292
1018.808	19.04792
1019.174	-6.0153
1019.539	9.0206
1019.905	-29.06942
1020.27	2.00501
1020.636	-34.08234
1021.001	45.10883
1021.366	-49.11931
1021.731	0
1022.096	-51.13032
1022.461	-63.15053
1022.826	-6.01454
1023.191	-10.02641
1023.556	1.00237
1023.92	-1.00246
1024.285	4.00979
1024.649	-11.02709
1025.014	-21.05228
1025.378	16.04072
1025.742	-8.02011
1026.107	46.10419
1026.471	-35.08231
1026.835	-29.0723
1027.199	-8.01965
1027.562	38.08946
1027.926	-2.0049
1028.29	55.14088
1028.654	18.04201
1029.017	25.06128
1029.381	32.0784
1029.744	-28.07281
1030.107	-11.026
1030.471	-23.05577
1030.834	26.05942
1031.197	4.0096
1031.56	-7.01663
1031.923	-24.06269
1032.286	29.06732
1032.648	43.10345
1033.011	27.0635
1033.374	6.01408
1033.736	-17.04557
1034.099	38.09375
1034.461	38.09776
1034.823	13.03269
1035.185	17.04316
1035.548	10.02461
1035.91	7.01706
1036.272	59.13502
1036.634	9.02194
1036.995	-45.10694
1037.357	-10.02463
1037.719	-28.0686
1038.08	-10.02371
1038.442	-15.03609
1038.803	35.08494
1039.165	-14.03555
1039.526	-2.00486
1039.887	-18.0438
1040.248	13.03281
1040.609	1.00247
1040.97	36.0895
1041.331	-44.11245
1041.692	8.01904
1042.053	5.01147
1042.413	-4.00938
1042.774	-7.01715
1043.134	2.00475
1043.495	0
1043.855	-52.12815
1044.215	-23.05728
1044.576	0
1044.936	-8.01827
1045.296	4.01001
1045.656	43.1056
1046.016	-6.01463
1046.375	28.06908
1046.735	46.10631
1047.095	13.03085
1047.454	4.00849
1047.814	-35.08443
1048.173	-39.09343
1048.533	4.0093
1048.892	-12.02962
1049.251	-3.00755
1049.61	29.07198
1049.969	20.04706
1050.328	-33.07308
1050.687	47.11491
1051.046	-25.06153
1051.405	-5.01256
1051.763	-9.02108
1052.122	44.11134
1052.48	-9.02216
1052.839	-3.00716
1053.197	-22.05207
1053.555	-6.0135
1053.914	25.06151
1054.272	1.00242
1054.63	-27.06775
1054.988	-9.02162
1055.345	-19.04201
1055.703	-7.01683
1056.061	1.00259
1056.419	27.07015
1056.776	-6.01456
1057.134	10.02351
1057.491	-13.03281
1057.848	22.055
1058.206	17.04042
1058.563	18.04042
1058.92	11.0255
1059.277	7.01722
1059.634	1.00239
1059.991	-35.08379
1060.348	38.08806
1060.704	-16.03884
1061.061	-62.14288
1061.418	7.01727
1061.774	10.02494
1062.131	-29.07756
1062.487	-14.0331
1062.843	28.07012
1063.199	-27.06768
1063.555	-32.07545
1063.911	52.13187
1064.267	54.11232
1064.623	-10.02474
1064.979	-39.09201
1065.335	-12.02841
1065.691	-72.17417
1066.046	-54.12061
1066.402	9.02088
1066.757	-11.02775
1067.112	-33.08074
1067.468	-31.075
1067.823	27.06533
1068.178	-22.05366
1068.533	-21.05121
1068.888	9.02176
1069.243	15.03727
1069.598	2.00493
1069.952	-10.02327
1070.307	21.05277
1070.662	13.03144
1071.016	-4.00922
1071.371	-19.04397
1071.725	-11.02648
1072.079	-50.12127
1072.434	-52.12928
1072.788	2.00488
1073.142	-13.0322
1073.496	68.16517
1073.85	-27.06335
1074.203	-36.08748
1074.557	-10.02687
1074.911	42.09953
1075.265	-18.04234
1075.618	-11.02714
1075.971	19.04564
1076.325	-1.00258
1076.678	46.10812
1077.031	-1.00232
1077.385	1.00225
1077.738	60.13822
1078.091	12.02818
1078.444	23.05397
1078.796	-12.02978
1079.149	-44.11063
1079.502	7.01689
1079.855	15.03561
1080.207	-19.04702
1080.56	30.07836
1080.912	-18.04448
1081.264	14.03402
1081.617	36.08928
1081.969	18.04616
1082.321	-14.03493
1082.673	18.04236
1083.025	0
1083.377	-40.08731
1083.728	-3.00708
1084.08	16.04049
1084.432	20.049
1084.783	-10.02343
1085.135	9.02279
1085.486	23.05386
1085.838	11.02732
1086.189	3.00738
1086.54	-36.08662
1086.891	2.00515
1087.242	-28.06903
1087.593	-9.02178
1087.944	26.06018
1088.295	0
1088.646	2.00489
1088.996	-7.01725
1089.347	-21.05218
1089.698	34.08228
1090.048	22.05703
1090.398	-22.05175
1090.749	-19.04581
1091.099	-13.03325
1091.449	-6.015
1091.799	61.15373
1092.149	17.04273
1092.499	-4.00975
1092.849	10.02558
1093.199	4.00998
1093.548	-6.01454
1093.898	37.09365
1094.248	-33.08518
1094.597	17.04419
1094.947	-11.02955
1095.296	40.09945
1095.645	3.00781
1095.994	31.07548
1096.343	24.06054
1096.692	-3.00804
1097.041	-18.04951
1097.39	-5.01262
1097.739	-26.0677
1098.088	15.04023
1098.437	-20.05334
1098.785	36.09751
1099.134	35.09271
1099.482	5.01375
1099.83	-16.04191
1100.179	-43.1141
1100.527	34.09092
1100.875	-33.08852
1101.223	-5.01328
1101.571	38.10551
1101.919	-15.03999
1102.267	-2.00565
1102.615	1.00322
1102.962	2.00643
1103.31	0
1103.658	0
