Data from N2 R3 sample 4_Subt2__2__17-28-53-128.txt Node

Date: Wed Aug 27 17:28:53 PDT 2025
User: uwsun
Spectrometer: HDX01956
Trigger mode: 0
Integration Time (sec): 5.000000E-1
Scans to average: 1
Nonlinearity correction enabled: true
Boxcar width: 0
Storing dark spectrum: false
XAxis mode: Wavelengths
Number of Pixels in Spectrum: 2068
>>>>>Begin Spectral Data<<<<<
194.03	121.34691
194.578	123.39568
195.127	113.35912
195.676	130.41339
196.225	87.23583
196.773	104.29208
197.321	191.52887
197.87	207.53632
198.418	290.74858
198.966	252.66131
199.513	260.6588
200.061	257.66123
200.609	250.65828
201.156	221.49758
201.704	271.69263
202.251	233.619
202.798	269.7077
203.345	250.62331
203.892	199.50757
204.438	267.64375
204.985	260.62486
205.532	209.55488
206.078	299.73774
206.624	226.56818
207.17	285.66682
207.716	264.65535
208.262	221.44788
208.808	266.66464
209.354	302.74171
209.899	257.649
210.445	249.62453
210.99	232.56835
211.535	282.66742
212.08	268.63404
212.625	240.6038
213.17	233.58777
213.715	235.53927
214.259	269.62815
214.804	230.57491
215.348	253.58615
215.892	290.6943
216.436	255.59266
216.98	285.63562
217.524	230.54962
218.068	237.59316
218.612	285.71789
219.155	242.57475
219.698	243.57946
220.242	188.46994
220.785	227.5355
221.328	267.66533
221.871	192.48271
222.414	271.6748
222.956	232.56455
223.499	222.50812
224.041	234.55618
224.583	191.41717
225.126	264.59135
225.668	203.50311
226.21	224.56537
226.751	211.47546
227.293	240.55196
227.835	215.52739
228.376	260.60607
228.918	222.56113
229.459	228.57506
230	188.44978
230.541	233.54645
231.082	253.61852
231.622	240.56649
232.163	225.55233
232.704	235.58858
233.244	194.47967
233.784	256.62108
234.324	206.46372
234.864	211.48595
235.404	228.54067
235.944	223.52994
236.484	232.57382
237.023	222.53253
237.563	201.47306
238.102	199.46799
238.641	211.53323
239.18	186.44516
239.719	270.67683
240.258	234.53019
240.797	235.5711
241.335	241.58897
241.874	204.40766
242.412	212.5128
242.95	267.64545
243.488	311.71393
244.026	232.53846
244.564	192.40273
245.102	302.68619
245.64	249.60217
246.177	190.43226
246.715	225.53901
247.252	221.50959
247.789	184.34926
248.326	259.63083
248.863	209.46845
249.4	200.45537
249.936	279.58715
250.473	232.54676
251.009	286.66141
251.546	291.65222
252.082	251.54867
252.618	257.58289
253.154	254.61137
253.69	258.58837
254.226	227.53633
254.761	278.62808
255.297	247.55384
255.832	229.54147
256.367	319.75103
256.903	239.5337
257.438	242.56434
257.972	248.56488
258.507	316.73078
259.042	220.47857
259.576	262.57332
260.111	250.57886
260.645	212.46293
261.179	174.41167
261.713	263.59044
262.247	275.63459
262.781	196.41802
263.315	231.56453
263.849	248.62102
264.382	264.60351
264.915	288.68214
265.449	285.69881
265.982	267.60729
266.515	327.78659
267.048	207.44177
267.58	246.53649
268.113	279.60936
268.646	246.60978
269.178	257.58786
269.71	230.4999
270.243	278.63295
270.775	297.74945
271.307	247.59058
271.838	249.58625
272.37	279.67979
272.902	255.58376
273.433	292.64004
273.965	269.65102
274.496	244.60062
275.027	299.73801
275.558	267.64715
276.089	305.75143
276.62	247.6233
277.15	263.64607
277.681	286.62266
278.211	285.69414
278.741	244.5479
279.272	263.60473
279.802	317.78329
280.332	289.68464
280.861	272.6532
281.391	300.68027
281.921	274.64874
282.45	307.76081
282.98	296.76036
283.509	243.55428
284.038	270.61573
284.567	240.55637
285.096	252.60655
285.625	249.56292
286.153	257.60532
286.682	297.68535
287.21	271.64944
287.739	323.75541
288.267	274.66274
288.795	344.88392
289.323	290.67625
289.851	284.65627
290.378	292.66347
290.906	296.7216
291.433	290.71409
291.961	306.6981
292.488	327.79106
293.015	325.75591
293.542	351.87458
294.069	315.77092
294.596	284.69339
295.122	345.80969
295.649	322.69954
296.175	344.82386
296.702	327.77823
297.228	331.78744
297.754	341.75609
298.28	343.77381
298.806	319.74869
299.332	385.84723
299.857	311.69647
300.383	296.73208
300.908	354.85619
301.433	323.77078
301.958	377.86367
302.483	360.88607
303.008	304.72836
303.533	383.97085
304.058	310.71463
304.582	350.82415
305.107	345.88108
305.631	352.78551
306.155	374.85972
306.679	335.77763
307.203	379.86128
307.727	417.96906
308.251	345.82295
308.775	354.82578
309.298	367.8687
309.822	382.93257
310.345	395.9049
310.868	382.88618
311.391	332.79179
311.914	421.02492
312.437	379.83368
312.96	379.86965
313.482	369.85416
314.005	392.96267
314.527	389.98325
315.049	412.99829
315.571	381.83245
316.093	398.94914
316.615	397.92187
317.137	366.77853
317.659	377.87441
318.18	402.92961
318.702	432.9803
319.223	457.90583
319.744	433.94284
320.265	398.93277
320.786	467.1057
321.307	464.1026
321.828	407.88398
322.348	405.91103
322.869	469.06411
323.389	625.98411
323.909	478.04744
324.43	442.00173
324.95	453.99558
325.47	485.13201
325.989	511.12999
326.509	537.12718
327.029	514.09946
327.548	532.1228
328.067	563.27361
328.587	515.17952
329.106	550.18977
329.625	540.30458
330.144	500.07638
330.662	545.18422
331.181	568.21987
331.7	519.12668
332.218	566.13612
332.736	546.17054
333.255	580.25102
333.773	567.22687
334.291	526.19824
334.808	585.19189
335.326	630.29042
335.844	632.34352
336.361	628.44297
336.879	650.38783
337.396	652.41373
337.913	660.39581
338.43	638.29268
338.947	665.42633
339.464	637.2527
339.981	695.46896
340.497	707.54254
341.014	746.60676
341.53	692.38948
342.046	664.44773
342.562	679.4889
343.078	722.49778
343.594	736.54858
344.11	705.46736
344.626	667.48586
345.141	770.50581
345.657	770.47455
346.172	755.59034
346.687	765.52884
347.202	846.63515
347.717	771.58212
348.232	857.83061
348.747	883.71532
349.261	803.50565
349.776	853.70966
350.29	840.7792
350.805	930.93141
351.319	874.70949
351.833	894.71818
352.347	822.64556
352.861	881.73904
353.374	879.67595
353.888	840.67621
354.401	890.7236
354.915	952.80616
355.428	921.89786
355.941	923.77188
356.454	903.64699
356.967	884.725
357.48	963.78233
357.993	965.92994
358.505	937.89288
359.018	1035.04381
359.53	911.7765
360.042	1033.81931
360.554	985.89471
361.066	1006.98841
361.578	925.6371
362.09	967.86449
362.602	962.68644
363.113	1048.91545
363.625	993.76505
364.136	1010.75603
364.647	1069.94069
365.158	1091.98273
365.669	1140.11822
366.18	1070.9587
366.691	1091.84602
367.201	1093.00909
367.712	1082.93112
368.222	1079.88576
368.733	1127.84051
369.243	1185.95721
369.753	1132.95128
370.263	1296.29066
370.773	1246.32151
371.282	1246.1701
371.792	1258.11097
372.301	1269.25837
372.811	1313.48576
373.32	1349.02438
373.829	1320.17491
374.338	1447.1548
374.847	1420.20385
375.356	1469.30367
375.865	1545.05928
376.373	1606.23999
376.882	1570.54893
377.39	1662.46341
377.898	1679.56591
378.407	1864.38087
378.915	1879.11886
379.423	1934.42432
379.93	1932.25179
380.438	2065.55203
380.946	2174.36998
381.453	2305.51732
381.96	2318.3539
382.468	2448.28732
382.975	2645.37382
383.482	2750.07848
383.989	2781.60103
384.495	2936.02068
385.002	3100.42588
385.509	3287.71893
386.015	3406.89008
386.521	3575.13336
387.028	3696.0228
387.534	3811.64041
388.04	3947.94788
388.546	4017.58933
389.051	4272.22022
389.557	4672.18097
390.063	4958.77706
390.568	5290.99239
391.073	5342.5858
391.578	5594.65129
392.084	5768.44131
392.589	5853.27539
393.093	6430.61825
393.598	6808.95689
394.103	7572.27816
394.607	8324.4408
395.112	8908.46335
395.616	9537.87951
396.12	10375.584
396.624	11468.91499
397.128	12663.40041
397.632	13995.88658
398.136	15077.31911
398.639	15777.4759
399.143	17354.34075
399.646	19633.88022
400.15	21835.66185
400.653	23952.94432
401.156	26493.97187
401.659	31018.95225
402.162	37192.93572
402.664	44930.10986
403.167	31767.6904
403.67	3851.94142
404.172	0
404.674	0
405.176	0
405.678	0
406.18	0
406.682	0
407.184	0
407.686	12367.42319
408.187	34596.90747
408.688	44563.94194
409.19	48906.19284
409.691	51236.67962
410.192	52883.26968
410.693	53713.23343
411.194	48166.42465
411.694	46004.6295
412.195	42882.30707
412.696	38654.65217
413.196	35941.96745
413.696	34167.24768
414.196	34531.72048
414.696	34782.38028
415.196	33293.05222
415.696	31260.90243
416.196	26249.46036
416.695	19955.90702
417.195	16381.58572
417.694	15281.81261
418.194	14504.64084
418.693	13555.30472
419.192	13113.03517
419.691	12808.0265
420.19	12628.0203
420.688	12149.59794
421.187	11691.89078
421.685	10893.3204
422.184	10199.83314
422.682	8857.10038
423.18	7566.9942
423.678	6578.75775
424.176	6113.55038
424.674	5859.55075
425.172	5552.8086
425.669	5189.21389
426.167	4994.17697
426.664	4392.50096
427.161	4043.92673
427.659	3711.56094
428.156	3405.06506
428.652	3303.23487
429.149	3150.0478
429.646	3011.75784
430.143	2943.18447
430.639	2717.21693
431.135	2580.54952
431.632	2418.27063
432.128	2185.32362
432.624	2082.67638
433.12	2042.19428
433.616	1976.08424
434.111	1912.42892
434.607	1787.37097
435.103	1734.96924
435.598	1669.84328
436.093	1653.23323
436.588	1529.02423
437.083	1526.11741
437.578	1297.87818
438.073	1334.24771
438.568	1314.15069
439.062	1188.71433
439.557	1238.97394
440.051	1163.85741
440.546	1063.76456
441.04	1044.83921
441.534	1061.95729
442.028	1062.83799
442.522	1038.83147
443.015	972.5957
443.509	1008.8607
444.002	949.7651
444.496	897.47911
444.989	910.70122
445.482	884.70056
445.975	879.54581
446.468	894.49984
446.961	783.29415
447.454	845.51691
447.947	824.52498
448.439	825.57587
448.931	784.37728
449.424	796.58978
449.916	799.53275
450.408	761.3574
450.9	669.3077
451.392	685.40861
451.884	731.34885
452.375	653.32945
452.867	624.14156
453.358	664.23448
453.849	687.19294
454.341	604.11325
454.832	657.16124
455.323	622.26998
455.814	631.19426
456.304	621.18734
456.795	657.25326
457.285	532.99959
457.776	581.09194
458.266	608.22057
458.756	632.28168
459.247	543.1107
459.737	636.29391
460.226	574.10076
460.716	528.08362
461.206	549.13263
461.695	552.19156
462.185	526.07805
462.674	464.93539
463.163	523.01074
463.653	569.02999
464.142	470.9971
464.63	491.04043
465.119	482.98016
465.608	468.96167
466.096	459.89788
466.585	476.97458
467.073	444.94319
467.561	437.9362
468.05	432.8989
468.538	458.99875
469.026	405.86578
469.513	354.68149
470.001	480.00134
470.489	492.05822
470.976	356.74275
471.463	382.86406
471.951	323.73494
472.438	353.76443
472.925	369.80658
473.412	329.74102
473.899	320.68187
474.385	299.68557
474.872	332.71758
475.359	389.88042
475.845	346.67699
476.331	343.69799
476.817	287.65119
477.303	281.61554
477.789	300.6775
478.275	273.63849
478.761	286.65432
479.247	260.54897
479.732	275.64972
480.218	223.54681
480.703	242.56922
481.188	223.45525
481.673	215.47336
482.158	269.56112
482.643	235.56896
483.128	245.54303
483.612	249.55603
484.097	243.56812
484.581	172.38322
485.066	262.60977
485.55	168.36111
486.034	188.39957
486.518	145.32902
487.002	228.54609
487.486	158.37772
487.969	174.41247
488.453	175.42403
488.936	187.41206
489.42	192.4166
489.903	157.38056
490.386	217.35457
490.869	123.2641
491.352	133.3134
491.835	159.324
492.318	134.30202
492.8	191.39683
493.283	125.31004
493.765	169.40656
494.247	153.34956
494.73	71.15606
495.212	103.24167
495.694	134.30991
496.175	85.20123
496.657	112.26109
497.139	84.1498
497.62	81.19294
498.102	152.37376
498.583	137.33781
499.064	78.17228
499.545	111.25166
500.026	93.20914
500.507	137.3149
500.988	96.23572
501.469	108.26763
501.949	52.12664
502.43	83.19786
502.91	98.20538
503.39	75.18528
503.87	103.2411
504.35	81.18871
504.83	71.15711
505.31	82.19701
505.79	55.13247
506.269	56.13044
506.749	49.11258
507.228	64.15049
507.707	45.09999
508.187	47.11157
508.666	16.03908
509.145	47.11032
509.623	84.19836
510.102	44.10652
510.581	36.08574
511.059	98.24445
511.538	19.04863
512.016	81.19479
512.494	74.18076
512.972	11.02613
513.45	14.03307
513.928	54.13166
514.406	68.16623
514.884	15.03862
515.361	-56.13516
515.839	95.21653
516.316	28.06799
516.793	29.07342
517.27	51.12283
517.747	70.17959
518.224	14.03251
518.701	22.04973
519.178	41.10143
519.654	42.09953
520.131	-3.00746
520.607	34.0837
521.083	7.01626
521.56	-51.12223
522.036	-18.04035
522.512	27.06587
522.987	22.05276
523.463	10.02404
523.939	17.04136
524.414	24.05597
524.89	11.02655
525.365	-43.09876
525.84	-9.02173
526.315	13.03162
526.79	-7.01591
527.265	11.02561
527.74	-18.04407
528.215	84.20136
528.689	-36.08154
529.164	11.02445
529.638	3.00773
530.112	12.02863
530.587	40.0879
531.061	-28.06901
531.534	37.0904
532.008	50.12122
532.482	-21.04852
532.956	-18.04605
533.429	-44.10748
533.903	-44.09889
534.376	-24.05489
534.849	-36.08415
535.322	26.06183
535.795	53.12818
536.268	16.03886
536.741	2.0048
537.213	18.04178
537.686	-14.03438
538.158	1.0023
538.631	-53.129
539.103	21.04817
539.575	-35.07453
540.047	45.10045
540.519	-40.09618
540.991	-26.06353
541.463	15.03633
541.934	-8.01839
542.406	-42.10083
542.877	-39.08871
543.348	-68.16244
543.82	-7.01714
544.291	-21.04891
544.762	1.0024
545.233	8.01996
545.703	1.00225
546.174	36.08392
546.645	5.01209
547.115	42.10156
547.585	-7.01606
548.056	20.04805
548.526	60.14064
548.996	44.10467
549.466	59.14151
549.935	84.1979
550.405	28.06187
550.875	60.14092
551.344	64.15131
551.814	79.18035
552.283	95.20284
552.752	93.21145
553.221	62.13493
553.69	83.18075
554.159	137.32908
554.628	192.42015
555.096	139.34123
555.565	194.42704
556.033	172.39147
556.502	138.32764
556.97	104.22508
557.438	131.30159
557.906	159.36634
558.374	159.35653
558.842	190.44029
559.31	191.41699
559.777	171.40262
560.245	211.47001
560.712	210.46594
561.18	239.51072
561.647	241.51366
562.114	306.67383
562.581	251.58106
563.048	332.72096
563.514	319.73903
563.981	357.76649
564.448	365.76068
564.914	379.80951
565.381	382.80053
565.847	460.97547
566.313	480.02483
566.779	469.97653
567.245	473.99406
567.711	520.1267
568.176	507.01819
568.642	556.23911
569.108	586.27424
569.573	573.18382
570.038	640.16971
570.504	699.35482
570.969	649.39018
571.434	675.26462
571.899	758.53268
572.363	719.38502
572.828	740.40676
573.293	842.61421
573.757	813.54616
574.222	827.54311
574.686	853.58465
575.15	840.66769
575.614	789.52082
576.078	779.5202
576.542	866.60127
577.006	877.60189
577.469	783.57426
577.933	926.6818
578.396	875.6933
578.86	821.59849
579.323	858.69952
579.786	841.47419
580.249	810.52962
580.712	771.56433
581.175	773.60476
581.637	713.37278
582.1	709.28206
582.563	674.22516
583.025	763.55512
583.487	751.28232
583.95	689.27121
584.412	647.14888
584.874	624.31728
585.336	632.29802
585.797	586.09947
586.259	592.21137
586.721	555.15118
587.182	520.06141
587.643	490.97646
588.105	479.99247
588.566	439.81486
589.027	465.99961
589.488	417.84896
589.949	463.99874
590.41	426.75669
590.87	369.74576
591.331	383.74814
591.791	412.85805
592.252	321.66988
592.712	308.66884
593.172	295.61262
593.632	285.56278
594.092	315.63984
594.552	265.51985
595.011	270.57609
595.471	288.59341
595.931	258.53016
596.39	289.64401
596.849	229.49698
597.308	157.31468
597.768	276.65499
598.227	230.51095
598.685	260.54681
599.144	249.54499
599.603	247.54267
600.062	288.56804
600.52	252.52438
600.978	251.55447
601.437	252.53302
601.895	187.36892
602.353	224.45801
602.811	286.59062
603.269	244.53664
603.727	273.60357
604.184	294.61422
604.642	236.53146
605.099	269.58453
605.557	293.65346
606.014	301.59633
606.471	270.62491
606.928	204.4122
607.385	283.63899
607.842	363.76156
608.299	385.80985
608.755	359.77742
609.212	379.76949
609.668	328.66579
610.125	393.84304
610.581	392.81604
611.037	339.69456
611.493	393.82813
611.949	305.66896
612.405	350.65758
612.861	337.7117
613.316	394.85703
613.772	318.65876
614.227	300.63898
614.683	402.77017
615.138	395.83673
615.593	407.86102
616.048	390.80863
616.503	347.75785
616.958	313.71133
617.412	390.83318
617.867	345.70845
618.321	427.80562
618.776	354.71036
619.23	324.69399
619.684	360.74743
620.138	341.70561
620.592	339.74477
621.046	334.70645
621.5	371.82157
621.954	302.62394
622.407	321.65501
622.861	324.72722
623.314	258.54499
623.768	245.53374
624.221	214.39987
624.674	270.57659
625.127	244.52965
625.58	279.57836
626.033	210.42997
626.485	233.52868
626.938	250.55076
627.39	278.60473
627.843	226.48765
628.295	174.37948
628.747	212.47683
629.199	200.43044
629.651	195.42645
630.103	228.49513
630.555	202.41528
631.006	182.406
631.458	144.32986
631.909	161.3509
632.361	172.38655
632.812	178.39626
633.263	143.29723
633.714	183.38224
634.165	117.2713
634.616	105.24144
635.067	142.29983
635.518	132.30322
635.968	125.24463
636.419	125.26353
636.869	68.15577
637.319	159.36488
637.769	98.214
638.219	90.20989
638.669	92.21371
639.119	40.09453
639.569	94.22189
640.019	68.15301
640.468	66.14577
640.918	51.11915
641.367	78.17372
641.816	5.011
642.265	9.02052
642.714	36.08214
643.163	100.22391
643.612	68.16195
644.061	-2.00425
644.51	20.04559
644.958	61.13442
645.406	70.16492
645.855	111.26856
646.303	79.18202
646.751	75.16935
647.199	7.01581
647.647	-5.01151
648.095	80.1812
648.543	82.16957
648.99	62.14737
649.438	58.13249
649.885	-8.01953
650.333	79.15461
650.78	81.19361
651.227	56.13562
651.674	81.18454
652.121	34.08271
652.568	51.12381
653.015	69.17245
653.461	8.01904
653.908	64.14714
654.354	64.15195
654.801	53.12649
655.247	16.035
655.693	-16.04145
656.139	61.14775
656.585	57.13713
657.031	63.14932
657.477	45.09929
657.922	73.16947
658.368	69.17064
658.813	73.1692
659.259	30.07243
659.704	11.02601
660.149	58.13633
660.594	72.17114
661.039	37.08477
661.484	68.16157
661.929	36.08432
662.373	3.00769
662.818	19.04744
663.262	6.01465
663.707	14.03558
664.151	25.06092
664.595	60.14711
665.039	45.11178
665.483	44.11352
665.927	-3.0071
666.371	43.10258
666.814	41.09894
667.258	42.10099
667.701	22.04839
668.145	23.05769
668.588	29.07196
669.031	9.02176
669.474	-6.01472
669.917	5.01126
670.36	60.14945
670.803	34.08308
671.245	29.06374
671.688	-4.00984
672.13	48.1115
672.573	40.10169
673.015	31.07534
673.457	-3.0068
673.899	47.1147
674.341	-8.01965
674.783	9.0221
675.225	90.22327
675.666	40.09851
676.108	-14.03102
676.549	0
676.991	23.0524
677.432	102.2149
677.873	31.07325
678.314	26.06313
678.755	1.0025
679.196	74.17468
679.637	34.08438
680.078	63.14978
680.518	47.11079
680.959	-43.10486
681.399	20.05032
681.839	49.12096
682.28	36.09077
682.72	33.07828
683.16	72.18142
683.6	58.13372
684.039	-23.04979
684.479	34.08487
684.919	23.0554
685.358	5.01282
685.798	80.2128
686.237	54.13205
686.676	-17.03993
687.115	28.06725
687.554	61.14781
687.993	36.0818
688.432	-11.026
688.871	63.1466
689.309	33.08089
689.748	10.02181
690.186	52.12631
690.625	28.06768
691.063	25.0618
691.501	46.11599
691.939	33.08459
692.377	47.1176
692.815	30.07369
693.253	5.01225
693.69	11.02508
694.128	48.1196
694.565	59.14302
695.003	34.08735
695.44	33.08017
695.877	37.08912
696.314	52.11495
696.751	43.09935
697.188	-3.00707
697.625	55.12703
698.061	18.04464
698.498	52.12787
698.934	23.05661
699.371	18.04364
699.807	62.14953
700.243	-22.0543
700.679	33.07661
701.115	54.12722
701.551	-10.02413
701.987	75.17212
702.422	37.09023
702.858	63.15334
703.294	-17.03928
703.729	2.00499
704.164	23.05625
704.599	10.02293
705.035	-7.01627
705.47	6.01485
705.904	59.14151
706.339	34.08051
706.774	36.08682
707.209	21.05029
707.643	54.13171
708.078	28.06918
708.512	40.10194
708.946	13.03168
709.38	1.00244
709.814	69.16259
710.248	41.10225
710.682	38.09286
711.116	39.09684
711.549	58.15243
711.983	11.02629
712.416	43.10364
712.85	71.1795
713.283	-10.02425
713.716	-3.00761
714.149	39.094
714.582	48.11119
715.015	20.05065
715.448	63.16058
715.881	-18.03999
716.313	-42.10049
716.746	30.07252
717.178	27.06658
717.61	33.08447
718.043	67.16812
718.475	-21.05211
718.907	33.08355
719.339	32.07533
719.77	10.02439
720.202	24.06185
720.634	35.08738
721.065	27.06599
721.497	10.02519
721.928	68.17011
722.359	3.00753
722.79	19.04699
723.221	35.08887
723.652	25.06482
724.083	53.12353
724.514	-2.00471
724.945	-30.07306
725.375	64.15371
725.806	-28.07058
726.236	-2.00517
726.666	78.18847
727.096	24.06062
727.526	30.07775
727.956	31.07328
728.386	63.15797
728.816	63.16453
729.246	8.01996
729.675	-11.02773
730.105	28.07045
730.534	5.01206
730.964	29.07415
731.393	16.04004
731.822	-14.03613
732.251	-4.01042
732.68	-24.05771
733.109	18.04589
733.537	-9.02244
733.966	-27.06887
734.395	-12.02867
734.823	14.03247
735.251	-10.02479
735.68	0
736.108	46.11847
736.536	32.07805
736.964	-46.11115
737.392	1.00256
737.82	-25.06078
738.247	29.07138
738.675	-1.00241
739.102	38.0978
739.53	-15.03903
739.957	-66.17433
740.384	6.01498
740.811	9.02317
741.238	-20.04994
741.665	-7.01674
742.092	12.02927
742.519	18.04597
742.945	-22.05438
743.372	20.05063
743.798	23.06017
744.225	12.02949
744.651	13.03325
745.077	-2.0051
745.503	32.08011
745.929	12.02956
746.355	-68.16968
746.781	23.05807
747.207	-32.07787
747.632	-9.02271
748.058	-4.01011
748.483	13.03104
748.908	-21.05358
749.334	-9.02284
749.759	6.01469
750.184	-13.03189
750.609	-9.02245
751.033	-43.10294
751.458	-16.03683
751.883	-52.13098
752.307	22.05362
752.732	24.06209
753.156	36.091
753.58	39.09386
754.005	27.06919
754.429	15.03628
754.853	42.10666
755.277	-16.03865
755.7	-14.03548
756.124	-42.10756
756.548	46.11211
756.971	12.03
757.394	-19.04994
757.818	14.03669
758.241	20.05169
758.664	-1.00261
759.087	-10.02331
759.51	-21.05332
759.933	-46.1137
760.356	-5.01296
760.778	40.10187
761.201	43.10646
761.623	-8.0199
762.046	7.01678
762.468	11.02684
762.89	-42.10511
763.312	-28.06967
763.734	-2.00494
764.156	2.00507
764.578	27.0631
765	41.1024
765.421	59.15487
765.843	-1.00266
766.264	-5.0122
766.686	7.01777
767.107	28.06967
767.528	-7.01824
767.949	-36.09307
768.37	-39.09927
768.791	-27.06717
769.212	19.04928
769.632	32.07671
770.053	-3.00805
770.473	21.05207
770.894	-62.15784
771.314	-21.05083
771.734	-4.00965
772.154	-28.07361
772.575	-7.01657
772.994	-36.08501
773.414	12.02929
773.834	-51.1294
774.254	31.0779
774.673	15.03706
775.093	-44.11134
775.512	-29.07423
775.931	-13.03381
776.351	-8.02032
776.77	13.03286
777.189	-49.12078
777.607	-38.09861
778.026	-19.04816
778.445	-43.11003
778.864	-1.00258
779.282	45.11072
779.701	-5.01285
780.119	-1.00258
780.537	-17.0437
780.955	31.07957
781.373	-15.03776
781.791	-27.06261
782.209	-25.05836
782.627	-22.05873
783.045	12.02829
783.462	-4.01034
783.88	21.05537
784.297	19.04891
784.715	5.01311
785.132	11.02707
785.549	13.03331
785.966	-38.09756
786.383	18.04501
786.8	-43.10168
787.217	-52.12707
787.633	23.05898
788.05	-16.03812
788.466	-14.03375
788.883	-29.07548
789.299	-3.00736
789.715	35.08703
790.131	-18.04594
790.547	-19.04788
790.963	-5.01268
791.379	-40.10316
791.795	-42.09779
792.21	43.10251
792.626	-13.03136
793.041	35.08764
793.457	-52.13154
793.872	-18.04312
794.287	17.04223
794.702	4.00993
795.117	35.08909
795.532	-28.07189
795.947	-29.07117
796.362	-11.02638
796.776	-13.03055
797.191	24.06017
797.605	10.02427
798.02	-5.01251
798.434	-6.01363
798.848	-8.0202
799.262	32.08103
799.676	-29.07172
800.09	-54.13475
800.504	13.03215
800.918	2.00476
801.331	-19.05006
801.745	-66.15507
802.158	10.02545
802.572	-57.13993
802.985	55.13382
803.398	33.07987
803.811	-17.04382
804.224	-6.01509
804.637	-56.1376
805.05	17.04026
805.462	42.10511
805.875	26.0687
806.288	-44.10844
806.7	-35.0899
807.112	-15.03563
807.525	11.02738
807.937	11.0277
808.349	-27.06826
808.761	-28.06954
809.173	8.01973
809.584	-7.01729
809.996	16.04011
810.408	5.01316
810.819	20.04847
811.231	17.04535
811.642	-17.04273
812.053	72.17535
812.464	57.13781
812.875	83.21342
813.286	1.00259
813.697	-20.0464
814.108	-10.02464
814.519	-9.02031
814.929	-23.05881
815.34	-36.08898
815.75	-2.00516
816.16	6.01509
816.571	24.06312
816.981	-59.14108
817.391	18.04418
817.801	-10.02528
818.211	-1.0024
818.62	32.07857
819.03	-8.01998
819.44	17.04447
819.849	14.0358
820.259	-1.00256
820.668	-7.01756
821.077	19.04822
821.486	18.04415
821.895	-29.07225
822.304	-22.05889
822.713	-10.02407
823.122	-6.01511
823.531	-12.02874
823.939	12.02966
824.348	27.06619
824.756	1.00253
825.164	7.01765
825.573	-13.03325
825.981	-46.11482
826.389	11.02798
826.797	28.07153
827.205	17.04012
827.612	-28.06994
828.02	-28.06796
828.428	1.00257
828.835	-42.11213
829.243	-18.04349
829.65	-29.07348
830.057	-32.07851
830.464	-12.02961
830.871	-15.03613
831.278	2.0049
831.685	11.02504
832.092	14.03477
832.499	-5.01121
832.905	26.06605
833.312	8.01851
833.718	-27.06795
834.124	-32.07422
834.531	17.04315
834.937	14.03611
835.343	16.03908
835.749	4.00943
836.155	25.06609
836.561	-27.06712
836.966	-6.0148
837.372	6.0155
837.777	-9.02273
838.183	-1.00227
838.588	9.02269
838.993	-18.04397
839.399	27.0676
839.804	-13.03246
840.209	-35.09113
840.613	-31.07091
841.018	22.05615
841.423	4.01035
841.828	-12.03068
842.232	-13.03235
842.637	1.00239
843.041	-15.03911
843.445	-14.03572
843.849	-23.05805
844.253	37.08814
844.657	18.04603
845.061	-27.06236
845.465	-23.05728
845.869	20.04712
846.272	-36.09029
846.676	-47.1135
847.079	-7.01817
847.483	-10.02504
847.886	-18.04426
848.289	1.0027
848.692	-30.0767
849.095	28.06786
849.498	5.01261
849.901	33.07637
850.304	-36.08702
850.707	-20.05145
851.109	-4.0101
851.512	34.08499
851.914	26.06754
852.316	34.08656
852.718	5.01337
853.121	31.07726
853.523	35.08468
853.925	-5.01328
854.326	-48.12345
854.728	-18.04703
855.13	-53.1395
855.531	35.08554
855.933	21.05094
856.334	-15.03795
856.736	43.09955
857.137	-20.0478
857.538	9.02313
857.939	50.12576
858.34	12.02954
858.741	-3.00792
859.142	-20.04864
859.542	-17.04542
859.943	42.10609
860.343	10.0254
860.744	20.04905
861.144	-8.01978
861.544	-10.0249
861.945	-13.03372
862.345	30.07369
862.745	10.02497
863.145	22.05243
863.544	9.02299
863.944	21.05071
864.344	-40.10032
864.743	-22.05494
865.143	41.10645
865.542	0
865.941	-8.01998
866.34	-8.01926
866.74	-20.05417
867.139	-33.08068
867.537	12.03083
867.936	26.06313
868.335	-5.01282
868.734	12.03101
869.132	-8.0189
869.531	-47.11376
869.929	-3.00707
870.327	55.13382
870.726	-22.05512
871.124	-50.11844
871.522	-5.01281
871.92	22.05486
872.318	-81.20186
872.715	-9.02222
873.113	2.00495
873.511	-40.09959
873.908	-50.12891
874.306	15.03795
874.703	-6.01514
875.1	-16.04098
875.497	-15.03657
875.894	15.03761
876.291	-31.07633
876.688	9.02342
877.085	19.04581
877.482	-6.01523
877.878	12.02945
878.275	-36.09281
878.671	-9.01993
879.068	-3.00732
879.464	-5.01233
879.86	-8.0194
880.256	-23.05734
880.652	44.11328
881.048	-3.0075
881.444	-4.00956
881.84	20.05142
882.236	-20.05083
882.631	-21.05214
883.027	-20.04858
883.422	18.04671
883.817	20.05145
884.213	2.0052
884.608	3.00757
885.003	16.03952
885.398	-3.00764
885.793	-11.02807
886.188	-2.00509
886.582	1.00258
886.977	62.148
887.371	-26.06565
887.766	-40.10183
888.16	29.07295
888.554	-17.04186
888.949	-10.02523
889.343	11.02709
889.737	6.01623
890.131	21.05321
890.525	-3.00781
890.918	-20.05126
891.312	-40.09698
891.706	-26.06884
892.099	-10.02562
892.492	-16.03498
892.886	48.11951
893.279	13.03374
893.672	0
894.065	-7.01769
894.458	-44.11186
894.851	-34.08351
895.244	4.01038
895.637	-32.07834
896.029	19.04728
896.422	26.06393
896.814	25.06327
897.206	4.0097
897.599	15.03701
897.991	-10.02467
898.383	-18.043
898.775	15.03433
899.167	15.03587
899.559	16.04039
899.951	32.07639
900.342	4.01028
900.734	-9.02293
901.125	24.06378
901.517	-56.13974
901.908	-37.08959
902.299	6.01509
902.69	-18.04331
903.082	-26.06301
903.473	-20.04927
903.863	-46.11855
904.254	-45.10645
904.645	5.01236
905.036	-14.03468
905.426	17.03933
905.817	37.09171
906.207	-11.02693
906.597	-20.04781
906.987	-30.07764
907.378	-17.04339
907.768	26.06914
908.158	-11.02719
908.547	30.07895
908.937	-20.05135
909.327	8.01955
909.717	4.01014
910.106	22.05398
910.495	8.02001
910.885	34.08668
911.274	-8.02029
911.663	-19.04848
912.052	-38.09458
912.441	31.0798
912.83	1.00235
913.219	11.02874
913.608	-58.14299
913.997	1.00256
914.385	19.04604
914.774	-9.0222
915.162	28.06796
915.55	18.04348
915.939	3.00767
916.327	-22.05478
916.715	23.0599
917.103	19.0469
917.491	41.10166
917.878	3.0075
918.266	-15.03908
918.654	-2.00515
919.041	3.00789
919.429	-49.11748
919.816	-10.02564
920.203	-13.032
920.591	0
920.978	32.07854
921.365	-34.0905
921.752	0
922.139	-24.05301
922.525	62.15257
922.912	13.03184
923.299	35.08868
923.685	-31.08159
924.072	4.00931
924.458	-51.12917
924.844	38.09561
925.231	1.00237
925.617	35.09084
926.003	39.09965
926.389	-8.02032
926.774	-6.01538
927.16	7.01756
927.546	-9.0233
927.931	37.09324
928.317	24.05582
928.702	20.04732
929.088	28.06799
929.473	-9.02321
929.858	20.04972
930.243	0
930.628	10.02487
931.013	-14.03523
931.398	-39.09
931.783	-13.03409
932.167	-21.05173
932.552	-35.08795
932.937	1.0025
933.321	34.08643
933.705	-9.02292
934.09	-40.10046
934.474	28.06709
934.858	-41.10697
935.242	-19.04474
935.626	19.04911
936.009	-19.05127
936.393	-12.03066
936.777	-16.04108
937.16	11.02892
937.544	-45.10694
937.927	-25.06424
938.311	39.0951
938.694	-22.05819
939.077	22.05354
939.46	-8.01964
939.843	15.03158
940.226	10.02598
940.609	1.00236
940.991	-4.01035
941.374	-66.16499
941.757	31.07726
942.139	-29.06634
942.522	-10.02372
942.904	-25.06071
943.286	-13.03325
943.668	-2.00526
944.05	14.03504
944.432	4.01009
944.814	62.15426
945.196	55.13682
945.578	12.0294
945.959	-15.03579
946.341	0
946.722	-35.08302
947.104	-14.03374
947.485	46.10901
947.866	19.04858
948.247	0
948.628	-12.02964
949.009	41.10572
949.39	8.01994
949.771	18.04229
950.152	5.01245
950.532	-25.06323
950.913	48.11755
951.293	-18.04951
951.674	-9.02204
952.054	-46.11615
952.434	-66.16677
952.814	-67.16009
953.194	-36.09407
953.574	-24.05937
953.954	11.02651
954.334	2.00503
954.714	-20.04976
955.093	-34.08361
955.473	-23.0584
955.853	-36.09378
956.232	-14.03831
956.611	-25.06026
956.99	-64.16207
957.37	-24.06177
957.749	-41.09957
958.128	-52.13285
958.506	-19.05004
958.885	-5.01275
959.264	25.06244
959.643	22.05104
960.021	-17.0425
960.4	-22.05074
960.778	20.04891
961.156	22.05581
961.535	22.05163
961.913	-5.01188
962.291	-44.11587
962.669	-73.18607
963.047	-24.06218
963.424	-12.03094
963.802	-28.06977
964.18	5.01266
964.557	21.04904
964.935	-62.14919
965.312	35.09209
965.69	8.02018
966.067	15.0368
966.444	7.01733
966.821	-34.08799
967.198	-62.15161
967.575	-23.0568
967.952	-27.06365
968.329	-40.09901
968.705	20.04397
969.082	57.14769
969.458	-21.0514
969.835	-5.01216
970.211	25.06471
970.587	9.02252
970.963	14.03604
971.339	-2.00527
971.715	19.04775
972.091	24.05958
972.467	-7.01758
972.843	46.11566
973.219	30.07161
973.594	-36.09589
973.97	42.10014
974.345	-7.01707
974.721	9.02193
975.096	16.03924
975.471	-69.16404
975.846	18.0438
976.221	-6.0156
976.596	9.02195
976.971	-22.05446
977.346	43.10006
977.72	-40.10226
978.095	-55.14344
978.469	-40.0968
978.844	9.02254
979.218	13.0319
979.593	-11.02633
979.967	-3.00743
980.341	-20.04717
980.715	28.07042
981.089	24.06069
981.463	-13.03048
981.837	46.11337
982.21	-61.14139
982.584	17.04164
982.957	24.06045
983.331	1.00238
983.704	-18.04516
984.078	-7.0174
984.451	-2.00492
984.824	51.12636
985.197	17.04158
985.57	-22.05579
985.943	34.08311
986.316	25.06144
986.688	3.00729
987.061	0
987.434	-22.05766
987.806	-24.05852
988.179	36.08669
988.551	17.04341
988.923	-27.0667
989.295	79.19666
989.667	12.02958
990.039	9.02254
990.411	1.00233
990.783	-30.06922
991.155	17.04193
991.527	-4.00974
991.898	-49.12419
992.27	1.00252
992.641	-2.00505
993.012	-13.03104
993.384	-4.00969
993.755	-1.00258
994.126	-25.06096
994.497	16.04001
994.868	16.03699
995.239	17.04155
995.61	3.00768
995.98	12.02966
996.351	-9.02279
996.722	3.00711
997.092	-58.14062
997.462	-13.03144
997.833	12.02838
998.203	-20.04894
998.573	-11.02768
998.943	4.00956
999.313	1.0024
999.683	2.00485
1000.053	-16.03727
1000.423	3.00731
1000.792	42.10997
1001.162	-8.01995
1001.531	8.01991
1001.901	-9.02261
1002.27	23.05227
1002.639	-18.04653
1003.009	24.05766
1003.378	5.01282
1003.747	-18.04328
1004.116	-4.00974
1004.485	-13.03119
1004.853	7.01779
1005.222	4.0102
1005.591	-1.0024
1005.959	45.10492
1006.328	6.01381
1006.696	-22.05366
1007.064	0
1007.433	-30.07529
1007.801	-20.049
1008.169	49.12463
1008.537	-37.08283
1008.905	-20.04769
1009.273	1.00249
1009.64	-8.01954
1010.008	6.01449
1010.375	-32.07653
1010.743	56.12921
1011.11	24.05757
1011.478	-17.04227
1011.845	-1.00237
1012.212	9.02085
1012.579	-8.01983
1012.946	36.08616
1013.313	17.04021
1013.68	3.00679
1014.047	44.1072
1014.414	-3.00721
1014.78	6.01499
1015.147	-25.06083
1015.513	18.04377
1015.88	-14.03597
1016.246	-9.02238
1016.612	18.04163
1016.978	-4.00996
1017.344	-19.04751
1017.71	-36.08738
1018.076	-11.02612
1018.442	-5.01292
1018.808	14.03534
1019.174	16.04063
1019.539	-4.00918
1019.905	-37.08871
1020.27	17.04243
1020.636	-11.02652
1021.001	48.11602
1021.366	-17.04115
1021.731	10.02585
1022.096	-60.15356
1022.461	-67.16021
1022.826	32.07697
1023.191	0
1023.556	-3.00713
1023.92	-7.01724
1024.285	-6.01472
1024.649	-16.03945
1025.014	22.05434
1025.378	4.0102
1025.742	0
1026.107	66.14888
1026.471	23.05348
1026.835	-41.10244
1027.199	12.02937
1027.562	16.03783
1027.926	-28.0689
1028.29	26.06694
1028.654	38.08834
1029.017	-27.06682
1029.381	50.12209
1029.744	0
1030.107	-6.01417
1030.471	-10.02419
1030.834	23.05259
1031.197	-9.02164
1031.56	-25.0596
1031.923	-20.05221
1032.286	-39.09176
1032.648	18.04351
1033.011	-14.03319
1033.374	-35.08276
1033.736	29.07715
1034.099	63.15472
1034.461	21.05419
1034.823	-37.09388
1035.185	17.04316
1035.548	9.02215
1035.91	18.04379
1036.272	-10.0232
1036.634	12.02924
1036.995	-40.09497
1037.357	-33.08161
1037.719	-14.03421
1038.08	-33.07858
1038.442	15.03588
1038.803	-11.02692
1039.165	-18.04574
1039.526	9.02183
1039.887	15.03628
1040.248	12.03029
1040.609	14.03454
1040.97	21.05235
1041.331	-14.03559
1041.692	-13.03106
1042.053	27.06164
1042.413	-37.08732
1042.774	-2.00489
1043.134	6.01423
1043.495	22.05535
1043.855	13.03165
1044.215	-47.11755
1044.576	4.00977
1044.936	-50.11514
1045.296	33.08218
1045.656	-30.07467
1046.016	16.03886
1046.375	41.10091
1046.735	-3.007
1047.095	8.019
1047.454	-14.02983
1047.814	-25.06019
1048.173	12.02847
1048.533	-28.06553
1048.892	-18.04448
1049.251	3.00754
1049.61	18.04477
1049.969	-23.05458
1050.328	20.0438
1050.687	25.06137
1051.046	-14.03439
1051.405	5.01254
1051.763	-23.05403
1052.122	12.03054
1052.48	-21.05182
1052.839	24.05698
1053.197	-47.11178
1053.555	-14.03154
1053.914	0
1054.272	8.01932
1054.63	-14.03505
1054.988	-17.0409
1055.345	14.03074
1055.703	-60.14574
1056.061	-2.00519
1056.419	1.00261
1056.776	-30.07312
1057.134	-2.00471
1057.491	-16.0404
1057.848	7.01755
1058.206	12.02856
1058.563	-20.04526
1058.92	24.05549
1059.277	-57.14184
1059.634	25.05951
1059.991	-59.14189
1060.348	-6.01403
1060.704	4.00967
1061.061	-107.2488
1061.418	23.05657
1061.774	-26.06528
1062.131	-35.0937
1062.487	-36.08547
1062.843	23.05765
1063.199	-9.02249
1063.555	-39.09208
1063.911	22.05609
1064.267	10.021
1064.623	-15.03714
1064.979	-22.05173
1065.335	-29.06889
1065.691	-49.11802
1066.046	-27.05997
1066.402	-23.05369
1066.757	-47.11934
1067.112	-44.10788
1067.468	-1.00241
1067.823	4.00972
1068.178	-50.12259
1068.533	-41.10035
1068.888	16.03863
1069.243	10.02487
1069.598	34.08336
1069.952	-24.05599
1070.307	-13.03287
1070.662	38.09147
1071.016	-5.01153
1071.371	-26.06025
1071.725	-1.0024
1072.079	-60.1458
1072.434	-42.10423
1072.788	53.12818
1073.142	-4.00989
1073.496	35.08554
1073.85	-21.04922
1074.203	-30.07282
1074.557	23.06148
1074.911	6.01432
1075.265	7.01639
1075.618	25.06128
1075.971	69.16417
1076.325	-6.01548
1076.678	0
1077.031	23.05306
1077.385	41.09156
1077.738	28.06491
1078.091	5.01176
1078.444	20.04695
1078.796	-33.08221
1079.149	-23.05761
1079.502	-11.02663
1079.855	12.0285
1080.207	-14.03462
1080.56	-7.0184
1080.912	-5.01232
1081.264	-12.0293
1081.617	4.00998
1081.969	6.01542
1082.321	52.1282
1082.673	36.08442
1083.025	-31.07424
1083.377	-276.63246
1083.728	-2.00472
1084.08	10.02533
1084.432	-41.10158
1084.783	-19.0446
1085.135	-1.00254
1085.486	-28.06622
1085.838	-7.01744
1086.189	-28.06923
1086.54	-20.04798
1086.891	20.05137
1087.242	-49.12127
1087.593	-38.09248
1087.944	27.06248
1088.295	-18.0411
1088.646	-6.01471
1088.996	-26.06431
1089.347	7.01731
1089.698	-41.10062
1090.048	-9.02346
1090.398	-14.03288
1090.749	-27.0652
1091.099	-39.10021
1091.449	-33.0829
1091.799	39.09867
1092.149	29.07274
1092.499	-104.25819
1092.849	-40.10323
1093.199	-21.05262
1093.548	-19.04616
1093.898	7.01781
1094.248	-16.04118
1094.597	-9.0235
1094.947	-4.01073
1095.296	18.04493
1095.645	-1.00261
1095.994	46.11169
1096.343	-3.0076
1096.692	9.02406
1097.041	-11.03022
1097.39	21.05277
1097.739	-24.06248
1098.088	33.08823
1098.437	-36.09627
1098.785	9.02448
1099.134	38.10061
1099.482	-20.05522
1099.83	-44.11579
1100.179	-25.06614
1100.527	-9.02424
1100.875	-22.05891
1101.223	-10.02658
1101.571	14.03902
1101.919	-2.00532
1102.267	-40.11375
1102.615	1.00322
1102.962	-11.03544
1103.31	6.01931
1103.658	-5.0161
