Data from N2 R3 sample 1_Subt2__0__17-28-06-629.txt Node

Date: Wed Aug 27 17:28:06 PDT 2025
User: uwsun
Spectrometer: HDX01956
Trigger mode: 0
Integration Time (sec): 5.000000E-1
Scans to average: 1
Nonlinearity correction enabled: true
Boxcar width: 0
Storing dark spectrum: false
XAxis mode: Wavelengths
Number of Pixels in Spectrum: 2068
>>>>>Begin Spectral Data<<<<<
194.03	57.16497
194.578	59.19123
195.127	71.22679
195.676	61.19559
196.225	39.10654
196.773	67.18924
197.321	84.23649
197.87	146.38226
198.418	133.35265
198.966	129.34558
199.513	139.35978
200.061	153.40079
200.609	105.28323
201.156	127.29145
201.704	153.39915
202.251	130.3513
202.798	192.51171
203.345	163.41282
203.892	149.38339
204.438	177.43403
204.985	142.34892
205.532	84.22766
206.078	156.39502
206.624	126.32246
207.17	148.35557
207.716	159.40226
208.262	132.27296
208.808	151.38515
209.354	172.43259
209.899	127.32815
210.445	162.41269
210.99	94.23617
211.535	183.44141
212.08	183.44007
212.625	121.31091
213.17	111.28611
213.715	112.26335
214.259	108.26017
214.804	171.432
215.348	146.34543
215.892	117.28935
216.436	128.30495
216.98	128.29474
217.524	145.35213
218.068	149.37884
218.612	171.43953
219.155	177.42565
219.698	112.27378
220.242	113.2863
220.785	111.26775
221.328	146.37181
221.871	75.19252
222.414	164.41631
222.956	86.21498
223.499	133.30986
224.041	164.39506
224.583	84.18762
225.126	169.38596
225.668	169.42146
226.21	76.19689
226.751	122.27992
227.293	135.317
227.835	126.31417
228.376	157.37339
228.918	135.34652
229.459	148.37863
230	66.16158
230.541	163.38751
231.082	141.35189
231.622	189.45053
232.163	121.30274
232.704	124.31679
233.244	117.29337
233.784	94.23498
234.324	110.25249
234.864	142.33154
235.404	100.24299
235.944	113.27422
236.484	94.23837
237.023	140.34108
237.563	125.29855
238.102	67.16161
238.641	113.29056
239.18	105.25519
239.719	149.38165
240.258	93.21676
240.797	154.37994
241.335	101.25325
241.874	184.3694
242.412	112.27602
242.95	149.36821
243.488	173.40812
244.026	108.25681
244.564	125.26608
245.102	138.32398
245.64	151.37192
246.177	89.20662
246.715	124.30277
247.252	107.25233
247.789	19.03752
248.326	136.33886
248.863	137.31162
249.4	112.25955
249.936	120.26138
250.473	147.35216
251.009	164.38847
251.546	146.33699
252.082	74.16781
252.618	149.34536
253.154	130.32026
253.69	167.38784
254.226	105.25394
254.761	145.33648
255.297	135.30968
255.832	117.28265
256.367	175.42355
256.903	119.27232
257.438	98.235
257.972	155.35969
258.507	167.39763
259.042	112.24923
259.576	129.29021
260.111	145.34273
260.645	91.2038
261.179	114.27285
261.713	115.26602
262.247	143.33866
262.781	115.24958
263.315	85.21337
263.849	151.38474
264.382	104.2454
264.915	174.42121
265.449	164.41114
265.982	145.33795
266.515	155.385
267.048	104.22691
267.58	138.30785
268.113	157.35176
268.646	154.38816
269.178	181.42035
269.71	144.31871
270.243	159.37072
270.775	186.47867
271.307	127.31062
271.838	134.32255
272.37	173.42987
272.902	153.35744
273.433	127.28806
273.965	161.39757
274.496	173.43143
275.027	186.46864
275.558	120.29889
276.089	166.41945
276.62	162.41502
277.15	176.43931
277.681	179.39857
278.211	168.41813
278.741	151.34555
279.272	168.39363
279.802	145.36959
280.332	170.41199
280.861	164.40193
281.391	150.3505
281.921	101.24712
282.45	180.45644
282.98	177.46412
283.509	200.46016
284.038	134.31397
284.567	175.41091
285.096	194.47209
285.625	97.22608
286.153	123.29725
286.682	164.38847
287.21	205.49746
287.739	150.3627
288.267	153.37851
288.795	213.55983
289.323	149.35709
289.851	123.29332
290.378	211.48731
290.906	204.50587
291.433	145.36658
291.961	180.42109
292.488	140.3506
293.015	158.3796
293.542	171.43999
294.069	224.55749
294.596	169.42146
295.122	193.46641
295.649	186.41578
296.175	180.44457
296.702	193.47115
297.228	162.39791
297.754	131.30316
298.28	213.49329
298.806	161.38952
299.332	227.51611
299.857	143.33132
300.383	198.49851
300.908	235.58113
301.433	174.42706
301.958	221.52215
302.483	189.47985
303.008	172.42247
303.533	206.5386
304.058	188.44393
304.582	218.52652
305.107	210.54905
305.631	207.47579
306.155	232.54846
306.679	219.52003
307.203	206.48455
307.727	239.57494
308.251	181.44531
308.775	157.38042
309.298	186.45567
309.822	228.57259
310.345	177.42322
310.868	209.50145
311.391	202.49376
311.914	266.66776
312.437	215.48923
312.96	225.53222
313.482	222.52888
314.005	236.5963
314.527	202.5276
315.049	207.52089
315.571	201.45589
316.093	221.54491
316.615	218.52413
317.137	254.55347
317.659	218.52154
318.18	238.5683
318.702	274.64171
319.223	241.50182
319.744	237.53754
320.265	266.63952
320.786	273.67187
321.307	267.65977
321.828	220.49685
322.348	271.62636
322.869	307.72081
323.389	363.61484
323.909	281.64249
324.43	276.64791
324.95	241.55326
325.47	317.76572
325.989	288.66763
326.509	296.65537
327.029	313.69979
327.548	259.58027
328.067	305.72728
328.587	265.63844
329.106	394.88212
329.625	318.80171
330.144	291.65571
330.662	313.71478
331.181	296.67392
331.7	281.64197
332.218	348.73477
332.736	330.74159
333.255	316.7212
333.773	363.82092
334.291	309.73597
334.808	319.69022
335.326	312.68589
335.844	343.77602
336.361	369.89296
336.879	418.93853
337.396	393.90032
337.913	451.99868
338.43	415.88485
338.947	424.95786
339.464	445.91585
339.981	372.84281
340.497	397.92406
341.014	402.93071
341.53	430.91663
342.046	406.93475
342.562	375.87596
343.078	439.96928
343.594	423.95229
344.11	410.91037
344.626	427.99973
345.141	397.84575
345.657	441.91252
346.172	449.00835
346.687	456.97753
347.202	470.99101
347.717	486.06052
348.232	462.07001
348.747	492.04369
349.261	473.95989
349.776	478.03995
350.29	528.1936
350.805	526.18956
351.319	522.10504
351.833	523.09388
352.347	515.10326
352.861	518.1085
353.374	524.08411
353.888	466.0095
354.401	533.11926
354.915	559.16104
355.428	555.23663
355.941	518.09034
356.454	565.11766
356.967	561.17764
357.48	531.08758
357.993	531.16744
358.505	568.24342
359.018	602.30908
359.53	560.182
360.042	589.15651
360.554	565.19543
361.066	566.23278
361.578	568.09762
362.09	633.31732
362.602	541.0521
363.113	606.22999
363.625	622.21079
364.136	639.21887
364.647	610.2353
365.158	669.34477
365.669	675.39861
366.18	632.28343
366.691	621.18332
367.201	590.2209
367.712	692.35816
368.222	646.2564
368.733	664.22346
369.243	753.39091
369.753	669.29411
370.263	762.53304
370.773	746.56139
371.282	697.38891
371.792	721.38622
372.301	746.50632
372.811	775.65892
373.32	797.39322
373.829	795.49941
374.338	845.48587
374.847	877.57529
375.356	878.61058
375.865	903.45779
376.373	921.56337
376.882	986.8608
377.39	976.74505
377.898	1047.89585
378.407	1081.74739
378.915	1001.50167
379.423	1140.81894
379.93	1139.71098
380.438	1217.94633
380.946	1237.8326
381.453	1371.02828
381.96	1356.91075
382.468	1507.97291
382.975	1720.16308
383.482	1722.964
383.989	1707.31946
384.495	1727.95448
385.002	1830.61293
385.509	1935.89806
386.015	2084.33888
386.521	2134.59124
387.028	2225.55262
387.534	2224.30304
388.04	2329.59478
388.546	2473.30785
389.051	2580.07947
389.557	2726.18091
390.063	2915.82237
390.568	3132.07145
391.073	3285.53348
391.578	3255.67385
392.084	3472.24408
392.589	3498.88287
393.093	3873.84248
393.598	4131.35008
394.103	4397.13502
394.607	4918.90752
395.112	5440.95936
395.616	5808.08647
396.12	6131.56899
396.624	6841.02821
397.128	7500.21122
397.632	8419.25767
398.136	9086.65312
398.639	9388.02393
399.143	10206.19819
399.646	11755.07534
400.15	13018.37513
400.653	14193.63343
401.156	15960.45513
401.659	18532.64457
402.162	22047.95322
402.664	27015.39374
403.167	27869.34525
403.67	2879.37279
404.172	0
404.674	0
405.176	0
405.678	0
406.18	0
406.682	0
407.184	0
407.686	12367.42319
408.187	34596.90747
408.688	44563.94194
409.19	48906.19284
409.691	45381.78445
410.192	38490.45198
410.693	33689.24692
411.194	29755.21947
411.694	28026.51352
412.195	26509.67046
412.696	23857.42508
413.196	21930.16378
413.696	20559.75358
414.196	20791.14127
414.696	21008.01388
415.196	20221.33885
415.696	19102.66588
416.196	16011.1235
416.695	12178.99756
417.195	9931.68718
417.694	9406.61876
418.194	8962.80716
418.693	8194.64399
419.192	7815.60945
419.691	7808.30335
420.19	7685.4872
420.688	7399.35378
421.187	7044.79492
421.685	6643.18413
422.184	6150.33405
422.682	5457.99316
423.18	4686.39742
423.678	4198.80419
424.176	3788.12192
424.674	3493.39093
425.172	3358.81381
425.669	3174.25141
426.167	3013.20556
426.664	2700.34911
427.161	2481.59991
427.659	2327.97454
428.156	2159.46927
428.652	2028.29575
429.149	1939.09613
429.646	1842.82791
430.143	1740.07212
430.639	1643.01668
431.135	1536.16404
431.632	1486.94825
432.128	1376.92215
432.624	1283.08976
433.12	1196.70676
433.616	1187.64052
434.111	1136.82385
434.607	1141.8345
435.103	1076.52088
435.598	1014.39928
436.093	955.58292
436.588	924.4679
437.083	879.47099
437.578	804.34035
438.073	765.48719
438.568	756.42887
439.062	754.23336
439.557	650.209
440.051	642.17633
440.546	641.18661
441.04	666.28799
441.534	594.22261
442.028	595.15622
442.522	558.10662
443.015	565.03158
443.509	620.25444
444.002	524.07637
444.496	518.94455
444.989	531.08464
445.482	476.00441
445.975	472.91916
446.468	509.94436
446.961	457.82421
447.454	474.93272
447.947	475.95647
448.439	430.90071
448.931	433.83138
449.424	433.93844
449.916	427.89344
450.408	376.73813
450.9	348.73283
451.392	357.78925
451.884	388.77823
452.375	366.79478
452.867	384.746
453.358	396.7862
453.849	338.64191
454.341	318.62898
454.832	350.66892
455.323	335.72948
455.814	310.63357
456.304	300.61897
456.795	343.70498
457.285	335.65997
457.776	299.6018
458.266	340.72575
458.756	363.78239
459.247	262.5709
459.737	324.70688
460.226	343.69544
460.716	266.57912
461.206	305.66473
461.695	294.67072
462.185	280.60675
462.674	305.63734
463.163	273.5601
463.653	265.51764
464.142	251.55795
464.63	235.52672
465.119	230.49458
465.608	251.54101
466.096	250.51326
466.585	251.54008
467.073	251.55563
467.561	199.44824
468.05	278.5983
468.538	231.52797
469.026	196.43796
469.513	161.32434
470.001	260.56991
470.489	270.60951
470.976	223.47901
471.463	180.42389
471.951	153.3601
472.438	125.28387
472.925	232.52181
473.412	162.37735
473.899	187.40999
474.385	187.4384
474.872	168.37586
475.359	192.45197
475.845	167.34061
476.331	214.44828
476.817	134.31348
477.303	164.36812
477.789	133.31059
478.275	144.34531
478.761	191.44533
479.247	83.18205
479.732	161.38879
480.218	131.3267
480.703	121.29132
481.188	84.1769
481.673	103.2321
482.158	183.38903
482.643	99.24582
483.128	136.30828
483.612	102.23469
484.097	111.26623
484.581	31.07108
485.066	155.36835
485.55	97.21168
486.034	89.19324
486.518	37.0858
487.002	114.27898
487.486	52.12683
487.969	86.20733
488.453	70.17296
488.936	59.1335
489.42	103.22773
489.903	54.13342
490.386	88.14899
490.869	115.24735
491.352	37.08881
491.835	72.14962
492.318	82.18678
492.8	151.31652
493.283	29.07319
493.765	65.15945
494.247	16.03756
494.73	20.04443
495.212	7.01673
495.694	39.0919
496.175	25.05987
496.657	79.18536
497.139	17.03084
497.62	4.00967
498.102	62.15499
498.583	42.10537
499.064	-30.06776
499.545	11.02545
500.026	12.02743
500.507	11.02592
500.988	35.08691
501.469	64.15987
501.949	-32.07915
502.43	24.05786
502.91	29.0617
503.39	-1.0025
503.87	4.00954
504.35	20.04716
504.83	-6.01349
505.31	-6.01466
505.79	13.03156
506.269	-20.04728
506.749	-64.15037
507.228	4.00952
507.707	3.00672
508.187	42.0998
508.666	-57.14112
509.145	-6.01423
509.623	3.0072
510.102	13.03165
510.581	-20.04814
511.059	10.02534
511.538	-39.10084
512.016	-3.00733
512.494	57.13967
512.972	-60.14448
513.45	-49.11717
513.928	15.03684
514.406	-37.09221
514.884	-10.02586
515.361	-23.05517
515.839	-5.01163
516.316	-13.03181
516.793	-58.14911
517.27	-41.10047
517.747	-42.10986
518.224	-21.0491
518.701	-37.08464
519.178	-39.0979
519.654	-29.06966
520.131	-43.10771
520.607	-59.14773
521.083	-82.19379
521.56	-71.17081
522.036	-50.11283
522.512	-46.11374
522.987	-7.01688
523.463	-57.13879
523.939	-53.13064
524.414	-27.0636
524.89	-37.09013
525.365	-76.1757
525.84	-35.0849
526.315	-63.1554
526.79	-62.14248
527.265	-16.03745
527.74	-95.23589
528.215	-19.04644
528.689	-39.08839
529.164	-45.1012
529.638	-5.0129
530.112	-31.07458
530.587	-74.16652
531.061	-16.03934
531.534	-6.01478
532.008	-25.06146
532.482	-57.13264
532.956	-52.13383
533.429	-49.1198
533.903	-73.16504
534.376	-11.02509
534.849	-81.19102
535.322	-36.08662
535.795	-78.19329
536.268	-81.20032
536.741	-71.17269
537.213	-68.16052
537.686	-102.25452
538.158	-43.09967
538.631	-86.21062
539.103	-54.12574
539.575	-46.09819
540.047	-29.06572
540.519	-50.12045
540.991	-77.18994
541.463	-30.07328
541.934	-48.11124
542.406	-81.1959
542.877	-86.19748
543.348	-82.19641
543.82	-19.04663
544.291	-49.11475
544.762	-26.06261
545.233	-74.18739
545.703	-46.10427
546.174	-35.08273
546.645	-58.14194
547.115	-11.02686
547.585	-44.10168
548.056	-41.09965
548.526	5.01185
548.996	-28.06753
549.466	-48.11747
549.935	-37.08922
550.405	15.03323
550.875	6.01424
551.344	-1.00239
551.814	-10.02324
552.283	11.02391
552.752	-16.03718
553.221	15.03297
553.69	2.00443
554.159	88.21335
554.628	47.106
555.096	68.16912
555.565	124.27696
556.033	109.25124
556.502	105.25088
556.97	55.12028
557.438	91.21118
557.906	98.22854
558.374	83.18902
558.842	102.24049
559.31	133.29393
559.777	148.35003
560.245	162.36453
560.712	124.28005
561.18	199.42893
561.647	191.41151
562.114	217.48678
562.581	183.42936
563.048	225.49974
563.514	289.67352
563.981	281.61321
564.448	303.64018
564.914	276.60268
565.381	332.70345
565.847	369.79805
566.313	401.87244
566.779	430.9031
567.245	437.92569
567.711	459.0072
568.176	467.94815
568.642	511.14925
569.108	493.09284
569.573	568.17478
570.038	608.12008
570.504	622.22746
570.969	594.28728
571.434	634.19966
571.899	742.50577
572.363	741.41995
572.828	711.36105
573.293	770.50154
573.757	787.50607
574.222	822.53566
574.686	842.56844
575.15	852.68683
575.614	909.70227
576.078	846.62501
576.542	876.61577
577.006	838.54555
577.469	845.6749
577.933	910.65937
578.396	890.71622
578.86	880.68961
579.323	906.77467
579.786	880.527
580.249	866.61323
580.712	865.71779
581.175	861.7527
581.637	827.54921
582.1	749.34077
582.563	799.40699
583.025	761.55174
583.487	765.30139
583.95	735.34068
584.412	718.25184
584.874	759.55537
585.336	682.38511
585.797	700.27703
586.259	683.36917
586.721	633.29043
587.182	610.22008
587.643	531.04635
588.105	521.06754
588.566	522.94895
589.027	504.07245
589.488	426.8655
589.949	486.04125
590.41	493.86053
590.87	389.78258
591.331	445.85648
591.791	404.84289
592.252	388.79765
592.712	346.74527
593.172	406.82223
593.632	315.61764
594.092	326.66052
594.552	281.54915
595.011	311.65766
595.471	314.6432
595.931	258.53016
596.39	312.69194
596.849	281.60307
597.308	242.47551
597.768	318.74853
598.227	276.60727
598.685	258.54284
599.144	289.62719
599.603	250.54891
600.062	265.5255
600.52	232.48491
600.978	251.55447
601.437	267.56289
601.895	171.33862
602.353	259.52537
602.811	299.61566
603.269	217.47997
603.727	269.59522
604.184	259.5453
604.642	219.4949
605.099	289.62532
605.557	274.61349
606.014	179.36476
606.471	277.64022
606.928	224.45053
607.385	269.60912
607.842	355.74609
608.299	276.59451
608.755	294.64551
609.212	302.62394
609.668	295.60332
610.125	314.68507
610.581	250.53689
611.037	318.65463
611.493	293.63099
611.949	294.64633
612.405	368.68833
612.861	284.60675
613.316	291.64685
613.772	236.49786
614.227	228.49323
614.683	313.61256
615.138	298.64465
615.593	342.73381
616.048	289.61274
616.503	221.49555
616.958	218.50497
617.412	273.59802
617.867	268.5599
618.321	361.69212
618.776	226.46692
619.23	285.61561
619.684	279.58973
620.138	226.4797
620.592	213.48036
621.046	221.47901
621.5	229.52213
621.954	247.51661
622.407	214.44729
622.861	277.62774
623.314	200.42785
623.768	218.47765
624.221	197.36965
624.674	194.42112
625.127	189.41507
625.58	151.32198
626.033	206.42216
626.485	201.45904
626.938	145.32648
627.39	191.42317
627.843	182.39642
628.295	172.37527
628.747	237.53033
629.199	174.37658
629.651	148.32688
630.103	169.37162
630.555	217.44461
631.006	127.28653
631.458	153.34984
631.909	170.36981
632.361	183.41034
632.812	126.28352
633.263	122.25477
633.714	147.3095
634.165	73.17075
634.616	111.25493
635.067	95.20266
635.518	125.28755
635.968	153.29744
636.419	84.17869
636.869	92.20973
637.319	176.40251
637.769	103.22468
638.219	129.29853
638.669	52.12175
639.119	102.23815
639.569	76.18003
640.019	99.22135
640.468	140.30442
640.918	83.19269
641.367	84.18685
641.816	114.24514
642.265	107.23914
642.714	108.24282
643.163	81.18208
643.612	83.1971
644.061	67.14032
644.51	111.24839
644.958	105.22924
645.406	60.14163
645.855	107.25907
646.303	143.32527
646.751	97.21805
647.199	64.14283
647.647	114.2561
648.095	60.13645
648.543	168.34071
648.99	135.31638
649.438	57.13023
649.885	78.1874
650.333	123.23821
650.78	115.27309
651.227	142.33831
651.674	91.20691
652.121	140.3338
652.568	115.27582
653.015	133.32855
653.461	54.12737
653.908	125.28387
654.354	134.31385
654.801	159.37174
655.247	42.09137
655.693	64.16351
656.139	81.19546
656.585	137.32458
657.031	126.295
657.477	106.23088
657.922	155.35399
658.368	135.32982
658.813	95.21924
659.259	112.26622
659.704	88.20498
660.149	101.2354
660.594	129.30326
661.039	85.19287
661.484	92.21759
661.929	60.13987
662.373	101.25444
662.818	81.19995
663.262	73.17602
663.707	111.27722
664.151	111.26613
664.595	120.29093
665.039	123.30117
665.483	121.30798
665.927	121.27946
666.371	86.20348
666.814	108.25731
667.258	85.2027
667.701	156.33344
668.145	173.42217
668.588	95.23287
669.031	115.27246
669.474	94.22627
669.917	120.26393
670.36	100.24726
670.803	159.37946
671.245	182.38715
671.688	152.36296
672.13	121.27701
672.573	110.27617
673.015	132.31472
673.457	99.2198
673.899	122.29356
674.341	129.30881
674.783	111.26744
675.225	166.40607
675.666	96.23397
676.108	82.17808
676.549	101.23818
676.991	128.28543
677.432	188.38859
677.873	155.35741
678.314	146.3465
678.755	185.44792
679.196	180.41613
679.637	163.39495
680.078	162.37779
680.518	167.38447
680.959	140.3297
681.399	127.31339
681.839	149.36103
682.28	182.44686
682.72	130.30257
683.16	176.43517
683.6	140.31748
684.039	113.2375
684.479	146.35702
684.919	181.42284
685.358	173.43049
685.798	206.53639
686.237	149.35791
686.676	138.31434
687.115	149.34959
687.554	233.54623
687.993	124.27674
688.432	185.42063
688.871	173.39382
689.309	185.44066
689.748	184.38646
690.186	225.52872
690.625	178.41804
691.063	223.53116
691.501	240.58402
691.939	222.5501
692.377	227.54939
692.815	194.46201
693.253	197.46527
693.69	144.31951
694.128	248.59534
694.565	214.50356
695.003	210.52284
695.44	238.55588
695.877	178.41722
696.314	217.46311
696.751	164.36978
697.188	176.40008
697.625	229.51053
698.061	231.55043
698.498	215.5127
698.934	210.49895
699.371	186.43666
699.807	228.53253
700.243	197.46654
700.679	227.5067
701.115	203.46435
701.551	189.43876
701.987	231.51349
702.422	228.53608
702.858	264.61829
703.294	211.46533
703.729	237.56645
704.164	210.49569
704.599	250.54545
705.035	229.50735
705.47	217.51628
705.904	255.58868
706.339	274.61854
706.774	239.55416
707.209	234.53752
707.643	243.57168
708.078	194.46466
708.512	194.4809
708.946	238.55545
709.38	264.61345
709.814	298.67079
710.248	276.65877
710.682	256.60003
711.116	272.64649
711.549	261.66215
711.983	252.57445
712.416	273.62922
712.85	271.66055
713.283	228.52813
713.716	243.58943
714.149	238.55195
714.582	267.59154
715.015	227.55352
715.448	239.59016
715.881	217.45849
716.313	183.41894
716.746	217.50594
717.178	222.52766
717.61	229.56588
718.043	221.53909
718.475	203.48297
718.907	220.53835
719.339	195.44444
719.77	225.52666
720.202	200.49957
720.634	272.64972
721.065	210.49569
721.497	222.5378
721.928	183.44824
722.359	143.35001
722.79	199.47582
723.221	212.52128
723.652	190.47854
724.083	248.55574
724.514	137.31364
724.945	130.3071
725.375	213.49701
725.806	133.32553
726.236	131.33084
726.666	190.44935
727.096	207.5057
727.526	122.31113
727.956	150.34636
728.386	207.50551
728.816	191.48785
729.246	127.31004
729.675	95.23494
730.105	140.34515
730.534	168.39271
730.964	138.34609
731.393	117.28744
731.822	87.22058
732.251	182.45905
732.68	103.24167
733.109	151.37589
733.537	118.28737
733.966	90.22482
734.395	127.2953
734.823	143.32316
735.251	119.28802
735.68	133.33084
736.108	150.37929
736.536	164.39012
736.964	74.17475
737.392	110.27607
737.82	65.15537
738.247	106.25718
738.675	87.20644
739.102	141.35634
739.53	93.23747
739.957	45.11664
740.384	91.22365
740.811	76.19341
741.238	62.15252
741.665	30.07126
742.092	69.1665
742.519	66.16713
742.945	37.09046
743.372	98.24462
743.798	84.21746
744.225	75.18214
744.651	37.09424
745.077	68.17121
745.503	108.26665
745.929	27.06633
746.355	0
746.781	77.19252
747.207	7.01691
747.632	39.09755
748.058	44.11031
748.483	64.15131
748.908	67.1683
749.334	77.19238
749.759	69.16694
750.184	38.09234
750.609	58.14294
751.033	-14.03333
751.458	25.05707
751.883	27.06704
752.307	43.10439
752.732	44.11344
753.156	60.15102
753.58	52.12484
754.005	38.09718
754.429	42.10106
754.853	47.11925
755.277	14.03362
755.7	35.08792
756.124	13.03297
756.548	9.02209
756.971	46.11428
757.394	7.01832
757.818	20.05237
758.241	12.03106
758.664	61.15756
759.087	-15.035
759.51	13.03281
759.933	30.07312
760.356	-24.06239
760.778	95.23958
761.201	63.1554
761.623	52.12792
762.046	38.09057
762.468	55.13312
762.89	-9.02239
763.312	13.0321
763.734	1.00247
764.156	52.13055
764.578	30.07007
765	65.16163
765.421	67.17563
765.843	19.05043
766.264	-8.01953
766.686	3.00762
767.107	46.11408
767.528	4.01041
767.949	2.00514
768.37	81.20179
768.791	4.00989
769.212	22.05703
769.632	13.03128
770.053	-15.04032
770.473	0
770.894	-15.03787
771.314	19.04564
771.734	28.06714
772.154	23.05994
772.575	12.0283
772.994	27.06298
773.414	28.06814
773.834	-35.08855
774.254	44.11031
774.673	-15.03726
775.093	-29.07319
775.512	41.10366
775.931	42.10821
776.351	-7.01777
776.77	15.0379
777.189	12.02925
777.607	-11.02841
778.026	-6.01517
778.445	-91.23481
778.864	-6.0155
779.282	35.08627
779.701	12.03075
780.119	-13.03367
780.537	26.06633
780.955	32.08213
781.373	18.04505
781.791	-7.01617
782.209	-59.13865
782.627	-12.03198
783.045	-30.07131
783.462	-30.07791
783.88	18.04748
784.297	-31.08049
784.715	-19.05003
785.132	7.01724
785.549	0
785.966	-3.00765
786.383	14.03504
786.8	-22.05181
787.217	-15.0364
787.633	-2.00515
788.05	2.00475
788.466	-5.01203
788.883	-14.03634
789.299	-23.05661
789.715	46.11416
790.131	40.10104
790.547	-9.02264
790.963	0
791.379	-12.0308
791.795	33.0757
792.21	23.05504
792.626	-30.0726
793.041	9.02264
793.457	-14.03517
793.872	-39.09379
794.287	23.05707
794.702	-16.03988
795.117	25.06375
795.532	-17.04356
795.947	11.02679
796.362	-3.00718
796.776	-46.10879
797.191	28.07015
797.605	-40.098
798.02	0
798.434	34.07663
798.848	-9.02273
799.262	19.04822
799.676	14.03435
800.09	-40.09956
800.504	14.03462
800.918	29.06868
801.331	-33.08715
801.745	-46.10766
802.158	-7.01787
802.572	4.00971
802.985	39.09518
803.398	20.04853
803.811	-7.01801
804.224	-5.01257
804.637	-43.10541
805.05	26.06147
805.462	74.18411
805.875	11.02914
806.288	-46.11341
806.7	13.03311
807.112	-12.02849
807.525	1.00249
807.937	-4.0101
808.349	10.02512
808.761	-44.10959
809.173	-14.03467
809.584	-41.10188
809.996	16.04011
810.408	-37.09811
810.819	9.02186
811.231	-29.07795
811.642	19.04745
812.053	54.13195
812.464	51.12344
812.875	30.07785
813.286	0
813.697	-24.05573
814.108	-1.00246
814.519	-30.068
814.929	-20.05111
815.34	-34.08401
815.75	-6.01548
816.16	-9.02269
816.571	34.08926
816.981	-30.07134
817.391	-6.01479
817.801	-8.02022
818.211	-4.00962
818.62	10.02465
819.03	-2.00499
819.44	-19.05001
819.849	-28.07214
820.259	-16.04112
820.668	-53.13404
821.077	24.06086
821.486	30.07342
821.895	-1.00248
822.304	13.0346
822.713	27.06454
823.122	-20.05048
823.531	-22.0528
823.939	-2.00496
824.348	36.0881
824.756	-10.02538
825.164	-33.08379
825.573	3.00765
825.981	-3.00743
826.389	10.02544
826.797	-24.06187
827.205	13.0307
827.612	-13.03239
828.02	7.01688
828.428	-13.03344
828.835	-38.10138
829.243	2.00481
829.65	-7.01767
830.057	-44.1082
830.464	-22.05438
830.871	-43.10412
831.278	-12.02945
831.685	-9.02057
832.092	14.03477
832.499	-5.01121
832.905	11.02802
833.312	-37.08637
833.718	-25.06289
834.124	-21.0486
834.531	-39.09997
834.937	-13.03368
835.343	-31.07638
835.749	-37.0879
836.155	2.00531
836.561	-63.15763
836.966	-12.02963
837.372	10.02581
837.777	24.06026
838.183	32.0723
838.588	18.04531
838.993	-9.02195
839.399	-5.01259
839.804	-10.02495
840.209	-9.02333
840.613	-47.10786
841.018	2.00512
841.423	-16.04154
841.828	7.01784
842.232	-4.00994
842.637	-12.02881
843.041	-13.03388
843.445	-3.00764
843.849	0
844.253	-13.03126
844.657	27.06894
845.061	5.01147
845.465	26.06417
845.869	7.01653
846.272	16.03975
846.676	-46.11106
847.079	32.0825
847.483	43.10666
847.886	12.02934
848.289	13.03503
848.692	-41.10502
849.095	-28.06857
849.498	21.05279
849.901	10.02325
850.304	-35.08459
850.707	-15.03856
851.109	-13.03288
851.512	57.1419
851.914	33.08562
852.316	-1.00256
852.718	24.06399
853.121	33.08221
853.523	24.05819
853.925	1.00265
854.326	9.02292
854.728	-8.02087
855.13	-35.09184
855.531	19.04658
855.933	-13.03174
856.334	-10.02528
856.736	35.08116
857.137	29.06865
857.538	4.01029
857.939	5.01268
858.34	18.04426
858.741	11.02898
859.142	0
859.542	-12.03204
859.943	20.05072
860.343	-12.03059
860.744	-15.03703
861.144	5.01233
861.544	29.07169
861.945	-13.03372
862.345	-5.01236
862.745	21.05233
863.145	-15.036
863.544	-15.03848
863.944	63.15093
864.344	-42.10537
864.743	-10.02492
865.143	32.08321
865.542	24.05676
865.941	6.01494
866.34	-26.0628
866.74	-18.04874
867.139	17.04118
867.537	-12.03096
867.936	-21.05144
868.335	-37.09541
868.734	15.03875
869.132	-31.07356
869.531	-48.1162
869.929	-6.01416
870.327	12.02943
870.726	7.01744
871.124	-6.01409
871.522	-10.02564
871.92	4.01001
872.318	-36.08898
872.715	-26.06438
873.113	3.00742
873.511	-38.09458
873.908	-55.14192
874.306	-17.04326
874.703	27.06773
875.1	-33.08477
875.497	-22.0537
875.894	29.07253
876.291	-25.06149
876.688	-15.0392
877.085	-3.00726
877.482	-11.02794
877.878	23.05634
878.275	-24.06175
878.671	-26.05779
879.068	-26.06372
879.464	29.07109
879.86	1.00242
880.256	-4.00994
880.652	9.02331
881.048	-6.015
881.444	-18.04315
881.84	-4.01033
882.236	-6.01521
882.631	1.00247
883.027	-34.0828
883.422	29.07512
883.817	-3.00775
884.213	-2.0052
884.608	2.00505
885.003	3.00743
885.398	-11.02804
885.793	11.02796
886.188	3.00763
886.582	7.01806
886.977	29.06966
887.371	-70.17814
887.766	-25.06348
888.16	28.07045
888.554	-46.11387
888.949	-20.05056
889.343	12.02955
889.737	-22.05978
890.131	52.13102
890.525	-4.01042
890.918	-16.04098
891.312	-23.05558
891.706	-11.02905
892.099	12.03063
892.492	-36.07905
892.886	17.04257
893.279	51.13151
893.672	-7.01811
894.065	-15.03796
894.458	-37.09394
894.851	-6.01466
895.244	29.07493
895.637	-25.06112
896.029	52.12862
896.422	5.01234
896.814	46.11599
897.206	-36.08797
897.599	29.07138
897.991	28.0686
898.383	-14.03342
898.775	3.00688
899.167	-49.1186
899.559	-26.06612
899.951	25.05976
900.342	28.07168
900.734	12.03046
901.125	33.08756
901.517	-16.03963
901.908	14.03357
902.299	19.04766
902.69	-15.03607
903.082	-26.06301
903.473	-16.03939
903.863	-19.04874
904.254	-33.07788
904.645	-36.08967
905.036	-18.04462
905.426	26.06004
905.817	18.04477
906.207	17.04141
906.597	0
906.987	11.02827
907.378	-7.01784
907.768	34.09029
908.158	-9.02224
908.547	8.02113
908.937	-11.0282
909.327	-14.03435
909.717	-3.00761
910.106	38.09296
910.495	25.06233
910.885	24.06129
911.274	8.02024
911.663	2.00508
912.052	1.00247
912.441	4.01034
912.83	21.04923
913.219	2.00523
913.608	-24.0588
913.997	5.01278
914.385	47.11329
914.774	-7.01726
915.162	-27.06621
915.55	-6.01456
915.939	-4.01023
916.327	-46.11503
916.715	28.07286
917.103	0
917.491	-18.04511
917.878	5.0125
918.266	-60.15752
918.654	-23.05945
919.041	-37.09798
919.429	-44.10539
919.816	32.08144
920.203	-37.09147
920.591	-40.10028
920.978	0
921.365	-27.07178
921.752	1.00241
922.139	-7.01541
922.525	47.11598
922.912	-50.1239
923.299	27.06851
923.685	-60.1587
924.072	-12.02803
924.458	-10.02514
924.844	2.00506
925.231	-8.01902
925.617	15.03907
926.003	0
926.389	-49.12538
926.774	17.04339
927.16	-5.01257
927.546	-38.09889
927.931	31.07821
928.317	-16.0375
928.702	-43.10298
929.088	28.06799
929.473	2.00515
929.858	-18.04506
930.243	-46.11303
930.628	23.05707
931.013	-19.04785
931.398	-37.08535
931.783	-8.02096
932.167	-21.05173
932.552	-22.05515
932.937	0
933.321	-9.02305
933.705	-29.0741
934.09	-26.06514
934.474	11.02644
934.858	-35.09122
935.242	-25.05893
935.626	3.00778
936.009	11.02954
936.393	-19.0486
936.777	-36.09275
937.16	27.0708
937.544	-29.06871
937.927	-28.07199
938.311	-5.01229
938.694	-13.03433
939.077	5.01221
939.46	1.00245
939.843	31.06504
940.226	42.10851
940.609	22.05177
940.991	25.06437
941.374	-24.05954
941.757	32.07973
942.139	-21.04796
942.522	-29.06903
942.904	-19.04609
943.286	-32.08213
943.668	-4.01052
944.05	11.02754
944.432	48.12012
944.814	50.12467
945.196	17.04258
945.578	19.04649
945.959	26.06154
946.341	-9.022
946.722	-19.04493
947.104	-37.08955
947.485	29.06895
947.866	38.09684
948.247	18.04589
948.628	17.04177
949.009	-7.0182
949.39	-6.01499
949.771	8.01883
950.152	2.00498
950.532	-31.07849
950.913	68.16592
951.293	19.05195
951.674	-16.03923
952.054	5.01251
952.434	-13.03254
952.814	-65.15525
953.194	-56.14682
953.574	-24.05937
953.954	8.01929
954.334	8.02009
954.714	-50.12508
955.093	-21.05152
955.473	29.07295
955.853	-4.01036
956.232	0
956.611	7.01677
956.99	-32.08057
957.37	-13.03339
957.749	22.0528
958.128	-11.0279
958.506	1.00262
958.885	5.01273
959.264	34.08478
959.643	-11.02569
960.021	-13.03248
960.4	9.02063
960.778	0
961.156	-12.03063
961.535	-1.00236
961.913	20.04728
962.291	-1.00261
962.669	-73.18607
963.047	-18.04658
963.424	-7.01803
963.802	-27.06726
964.18	-20.05088
964.557	45.10459
964.935	-18.04295
965.312	34.08948
965.69	49.12269
966.067	-37.09164
966.444	13.03215
966.821	3.00771
967.198	-40.09742
967.575	-3.00738
967.952	-17.04
968.329	8.01963
968.705	16.03521
969.082	27.07032
969.458	-45.11064
969.835	-36.08803
970.211	36.09301
970.587	-11.02762
970.963	11.02833
971.339	-1.00263
971.715	-26.06586
972.091	3.00748
972.467	12.03003
972.843	13.03288
973.219	60.1424
973.594	-9.02386
973.97	45.10723
974.345	-22.0538
974.721	9.02193
975.096	21.05146
975.471	-48.11366
975.846	-8.01956
976.221	31.08007
976.596	5.0122
976.971	-15.03708
977.346	0
977.72	-40.10226
978.095	-25.06487
978.469	-13.0313
978.844	8.02004
979.218	11.027
979.593	-37.08901
979.967	28.06898
980.341	17.03981
980.715	-11.02786
981.089	1.00254
981.463	14.03265
981.837	24.05939
982.21	-48.11097
982.584	0
982.957	-2.00506
983.331	-22.0527
983.704	-22.05523
984.078	-9.02238
984.451	11.02701
984.824	6.01499
985.197	12.02938
985.57	13.03276
985.943	-2.00492
986.316	26.06389
986.688	10.02426
987.061	14.0333
987.434	10.02607
987.806	-38.09289
988.179	14.03385
988.551	7.01791
988.923	-61.15163
989.295	40.10028
989.667	32.0786
990.039	-10.02513
990.411	-19.04453
990.783	33.07518
991.155	-20.04967
991.527	-15.03659
991.898	8.02007
992.27	-15.03792
992.641	16.04024
993.012	22.05217
993.384	16.03863
993.755	-31.08027
994.126	-18.04384
994.497	24.05993
994.868	-36.08409
995.239	18.04398
995.61	16.04088
995.98	-19.04723
996.351	-19.04821
996.722	12.0284
997.092	-60.14552
997.462	5.01205
997.833	14.0331
998.203	29.07032
998.573	0
998.943	-5.01197
999.313	-39.09429
999.683	-32.07805
1000.053	-1.00232
1000.423	-15.03667
1000.792	37.09696
1001.162	-32.08014
1001.531	-12.02998
1001.901	-8.02009
1002.27	20.04548
1002.639	-8.02065
1003.009	11.02649
1003.378	-49.12679
1003.747	34.08094
1004.116	-35.0857
1004.485	-47.1135
1004.853	-47.1206
1005.222	-12.03068
1005.591	-12.02889
1005.959	67.15554
1006.328	14.03216
1006.696	-28.06837
1007.064	13.03312
1007.433	22.0547
1007.801	3.00732
1008.169	15.03838
1008.537	-3.00667
1008.905	-4.00951
1009.273	-5.01248
1009.64	-8.01954
1010.008	15.03616
1010.375	-43.10306
1010.743	46.10635
1011.11	21.05041
1011.478	-18.04477
1011.845	-29.06913
1012.212	15.03471
1012.579	-9.02232
1012.946	-6.01448
1013.313	17.04021
1013.68	25.05631
1014.047	47.11444
1014.414	-23.05548
1014.78	-30.07543
1015.147	4.00968
1015.513	28.06796
1015.88	-4.01026
1016.246	-28.06987
1016.612	-6.01394
1016.978	40.09876
1017.344	-12.02997
1017.71	-8.01932
1018.076	11.02601
1018.442	-1.00258
1018.808	40.1005
1019.174	16.04063
1019.539	26.0593
1019.905	15.03561
1020.27	-3.00751
1020.636	4.00962
1021.001	9.02191
1021.366	-54.13161
1021.731	-2.00518
1022.096	-12.03045
1022.461	-67.16021
1022.826	14.03379
1023.191	-13.03436
1023.556	16.03787
1023.92	-4.00985
1024.285	-12.02946
1024.649	-38.09406
1025.014	-1.00248
1025.378	-9.02301
1025.742	12.03005
1026.107	1.00229
1026.471	22.05116
1026.835	-35.08735
1027.199	9.02204
1027.562	4.00948
1027.926	-2.0049
1028.29	41.10528
1028.654	1.00234
1029.017	-6.01479
1029.381	59.14382
1029.744	15.03872
1030.107	-34.08072
1030.471	-27.06552
1030.834	1.0023
1031.197	-40.09676
1031.56	2.00474
1031.923	-7.01823
1032.286	-32.07519
1032.648	36.08672
1033.011	53.12401
1033.374	-26.06137
1033.736	-11.02946
1034.099	30.07413
1034.461	29.07473
1034.823	5.01259
1035.185	3.00764
1035.548	10.02461
1035.91	-5.01222
1036.272	17.03923
1036.634	9.02194
1036.995	-31.07347
1037.357	-38.09406
1037.719	-20.04893
1038.08	-50.11944
1038.442	-12.02885
1038.803	12.02925
1039.165	-21.0534
1039.526	1.00243
1039.887	15.03628
1040.248	12.03029
1040.609	-33.08212
1040.97	31.07714
1041.331	-30.07648
1041.692	-9.02149
1042.053	-14.03223
1042.413	1.00234
1042.774	15.03659
1043.134	-12.02856
1043.495	10.02521
1043.855	-34.08351
1044.215	-20.04978
1044.576	6.01466
1044.936	-6.01369
1045.296	8.02001
1045.656	-9.02232
1046.016	-4.00975
1046.375	56.13745
1046.735	12.02792
1047.095	-1.00238
1047.454	-43.09221
1047.814	-39.09415
1048.173	-28.06694
1048.533	-56.13178
1048.892	-13.03209
1049.251	-21.05304
1049.61	34.08432
1049.969	-68.16275
1050.328	9.01976
1050.687	-6.01481
1051.046	-3.00735
1051.405	-8.02011
1051.763	8.01868
1052.122	17.04323
1052.48	3.00737
1052.839	-28.06714
1053.197	-45.10699
1053.555	-37.08375
1053.914	6.01481
1054.272	7.0169
1054.63	5.01247
1054.988	-33.07963
1055.345	-13.02871
1055.703	-9.02165
1056.061	4.01036
1056.419	-31.08135
1056.776	-11.02671
1057.134	23.05394
1057.491	-34.08613
1057.848	17.04254
1058.206	10.02381
1058.563	25.05606
1058.92	53.12182
1059.277	-62.15443
1059.634	17.04053
1059.991	-39.09343
1060.348	-1.00234
1060.704	-32.0779
1061.061	-49.11263
1061.418	24.05902
1061.774	11.02743
1062.131	-16.0427
1062.487	-14.0331
1062.843	-37.09375
1063.199	-40.1005
1063.555	-24.0565
1063.911	28.07131
1064.267	5.01051
1064.623	-24.05952
1064.979	-25.05882
1065.335	-3.00709
1065.691	-43.10345
1066.046	-82.18421
1066.402	11.02551
1066.757	-50.12702
1067.112	-65.15998
1067.468	-40.09694
1067.823	10.02427
1068.178	-6.01459
1068.533	-29.07082
1068.888	1.00242
1069.243	-69.17407
1069.598	-34.08441
1069.952	14.03242
1070.307	1.00252
1070.662	-1.00242
1071.016	-25.05788
1071.371	-17.03933
1071.725	-29.07006
1072.079	-51.12372
1072.434	-33.08176
1072.788	47.1138
1073.142	19.04678
1073.496	34.08311
1073.85	-41.09646
1074.203	-44.10708
1074.557	-6.01611
1074.911	-44.10599
1075.265	-38.08973
1075.618	18.04418
1075.971	5.01204
1076.325	5.01287
1076.678	3.00711
1077.031	6.01389
1077.385	24.05378
1077.738	0
1078.091	7.01646
1078.444	-18.04257
1078.796	-28.06969
1079.149	-21.05258
1079.502	12.02893
1079.855	-2.00476
1080.207	-20.04951
1080.56	21.05494
1080.912	13.03194
1081.264	-18.044
1081.617	8.01994
1081.969	-36.0932
1082.321	32.07918
1082.673	-14.03315
1083.025	-51.1226
1083.377	-65.14263
1083.728	18.04231
1084.08	8.02027
1084.432	-11.0271
1084.783	-22.05167
1085.135	-10.02541
1085.486	-6.01413
1085.838	15.03723
1086.189	36.08797
1086.54	-44.10603
1086.891	-10.02582
1087.242	-1.00245
1087.593	-18.04364
1087.944	-2.00466
1088.295	-10.0228
1088.646	-1.00245
1088.996	-9.02219
1089.347	-36.0897
1089.698	1.00243
1090.048	-9.02346
1090.398	-22.05175
1090.749	-61.14825
1091.099	-42.10798
1091.449	-20.05012
1091.799	9.02289
1092.149	4.01008
1092.499	-25.06117
1092.849	-23.05918
1093.199	-9.0225
1093.548	-9.02182
1093.898	-16.04088
1094.248	-21.05409
1094.597	10.02602
1094.947	-3.00805
1095.296	26.06481
1095.645	-37.09699
1095.994	27.06579
1096.343	18.04545
1096.692	25.06667
1097.041	-19.05227
1097.39	5.0126
1097.739	-26.0677
1098.088	-7.01884
1098.437	9.02389
1098.785	17.04619
1099.134	-1.00266
1099.482	15.04119
1099.83	-6.01569
1100.179	-34.09008
1100.527	26.06962
1100.875	-5.01335
1101.223	-56.15
1101.571	26.07233
1101.919	-7.01864
1102.267	21.05917
1102.615	-7.02256
1102.962	-5.0161
1103.31	2.00644
1103.658	2.00644
