Data from N2 R2  sample 12_Subt2__1__17-09-02-656.txt Node

Date: Wed Aug 27 17:09:02 PDT 2025
User: uwsun
Spectrometer: HDX01956
Trigger mode: 0
Integration Time (sec): 5.000000E-1
Scans to average: 1
Nonlinearity correction enabled: true
Boxcar width: 0
Storing dark spectrum: false
XAxis mode: Wavelengths
Number of Pixels in Spectrum: 2068
>>>>>Begin Spectral Data<<<<<
194.03	155.44214
194.578	185.59074
195.127	165.52104
195.676	182.57507
196.225	154.41289
196.773	166.46175
197.321	251.68842
197.87	420.04544
198.418	426.07114
198.966	396.01118
199.513	385.95369
200.061	410.0242
200.609	390.00001
201.156	356.77932
201.704	420.04279
202.251	370.96029
202.798	429.09542
203.345	410.99233
203.892	366.90581
204.438	391.92048
204.985	407.95068
205.532	402.03013
206.078	413.99752
206.624	449.08099
207.17	421.95864
207.716	467.11378
208.262	380.74211
208.808	349.85885
209.354	421.00887
209.899	380.93838
210.445	412.00054
210.99	409.96883
211.535	411.94834
212.08	383.88586
212.625	385.94322
213.17	380.93321
213.715	406.89962
214.259	417.94531
214.804	445.06649
215.348	408.91609
215.892	371.87443
216.436	440.98508
216.98	411.89267
217.524	406.93736
218.068	384.93536
218.612	433.05929
219.155	385.88907
219.698	381.88438
220.242	323.78755
220.785	392.89497
221.328	370.90463
221.871	303.74651
222.414	384.93641
222.956	345.82169
223.499	319.71585
224.041	386.89049
224.583	336.7113
225.126	347.76395
225.668	411.97957
226.21	315.78205
226.751	334.73363
227.293	363.81423
227.835	338.81011
228.376	414.93566
228.918	355.87586
229.459	343.8472
230	327.76146
230.541	357.81688
231.082	384.91577
231.622	432.98149
232.163	370.88374
232.704	380.92666
233.244	320.77282
233.784	330.78944
234.324	337.7382
234.864	338.75864
235.404	338.78444
235.944	372.85855
236.484	335.81284
237.023	376.87536
237.563	389.88186
238.102	319.73259
238.641	382.9357
239.18	414.94746
239.719	415.01066
240.258	334.74134
240.797	431.00655
241.335	360.8602
241.874	375.71966
242.412	379.88773
242.95	360.85493
243.488	368.83511
244.026	376.84772
244.564	409.81675
245.102	414.91925
245.64	386.90925
246.177	429.92858
246.715	359.83794
247.252	371.82978
247.789	331.6058
248.326	394.93529
248.863	403.8671
249.4	368.80932
249.936	411.83979
250.473	349.80371
251.009	365.83082
251.546	474.02031
252.082	330.70929
252.618	393.86665
253.154	409.95535
253.69	372.82876
254.226	364.83708
254.761	398.87712
255.297	364.79649
255.832	359.8274
256.367	448.02604
256.903	360.78375
257.438	375.85151
257.972	419.92126
258.507	402.91372
259.042	374.78689
259.576	354.75956
260.111	359.8132
260.645	356.75363
261.179	387.87768
261.713	376.82448
262.247	428.95743
262.781	362.7442
263.315	361.86077
263.849	417.00987
264.382	342.7695
264.915	464.05935
265.449	446.05854
265.982	468.01902
266.515	433.01835
267.048	428.86956
267.58	405.85341
268.113	414.87832
268.646	430.02754
269.178	457.00112
269.71	394.82641
270.243	450.98879
270.775	423.0409
271.307	408.94535
271.838	446.00754
272.37	418.99186
272.902	413.91532
273.433	431.91697
273.965	431.00892
274.496	421.00005
275.027	432.03783
275.558	415.97772
276.089	402.97261
276.62	404.99066
277.15	468.10359
277.681	431.90939
278.211	439.03609
278.741	423.91482
279.272	469.03178
279.802	481.15029
280.332	418.96544
280.861	473.09011
281.391	408.9048
281.921	420.9662
282.45	495.18202
282.98	433.08312
283.509	440.96357
284.038	460.00665
284.567	454.00561
285.096	446.03166
285.625	437.94994
286.153	447.01165
286.682	482.06908
287.21	468.07707
287.739	421.9656
288.267	478.10931
288.795	505.25851
289.323	409.93132
289.851	430.96468
290.378	498.08216
290.906	531.23517
291.433	490.15958
291.961	517.12709
292.488	481.12749
293.015	437.99385
293.542	496.20086
294.069	553.29096
294.596	542.25707
295.122	501.13776
295.649	483.01141
296.175	554.27125
296.702	526.20162
297.228	521.19185
297.754	520.10799
298.28	505.09949
298.806	452.03107
299.332	499.06985
299.857	523.11802
300.383	488.16195
300.908	543.26411
301.433	512.17522
301.958	563.23946
302.483	559.32283
303.008	491.13212
303.533	561.37443
304.058	448.00219
304.582	565.27243
305.107	570.39521
305.631	548.17129
306.155	570.25672
306.679	530.1806
307.203	577.25651
307.727	572.28638
308.251	483.11939
308.775	544.21933
309.298	546.24537
309.822	589.37993
310.345	550.21864
310.868	585.30033
311.391	569.29294
311.914	629.47258
312.437	530.12689
312.96	633.37628
313.482	633.38619
314.005	599.41212
314.527	588.43079
315.049	603.40615
315.571	663.36025
316.093	654.48059
316.615	638.40859
317.137	635.26988
317.659	572.27324
318.18	620.36938
318.702	686.47426
319.223	618.17731
319.744	687.41336
320.265	667.47851
320.786	703.58935
321.307	756.6964
321.828	656.34738
322.348	695.46832
322.869	748.60212
323.389	746.13285
323.909	737.52791
324.43	747.5893
324.95	768.57418
325.47	756.67142
325.989	731.5431
326.509	775.54242
327.029	818.63603
327.548	783.5627
328.067	815.74985
328.587	804.73547
329.106	870.7546
329.625	837.90924
330.144	833.66645
330.662	860.74472
331.181	864.7385
331.7	842.70351
332.218	843.58545
332.736	836.68133
333.255	872.76426
333.773	866.75531
334.291	900.89641
334.808	942.76549
335.326	903.73675
335.844	992.94518
336.361	1001.12743
336.879	979.94265
337.396	976.97129
337.913	1068.0576
338.43	1017.88436
338.947	1077.10515
339.464	1098.92861
339.981	1025.00989
340.497	1086.17915
341.014	1069.14253
341.53	1082.97973
342.046	1101.17846
342.562	1117.22351
343.078	1080.06192
343.594	1172.23051
344.11	1163.17548
344.626	1151.30716
345.141	1145.0421
345.657	1159.01318
346.172	1195.27494
346.687	1179.13208
347.202	1234.16599
347.717	1250.2901
348.232	1228.41277
348.747	1297.27411
349.261	1297.1409
349.776	1302.3417
350.29	1321.50578
350.805	1379.57956
351.319	1290.27766
351.833	1391.35884
352.347	1397.42998
352.861	1368.39609
353.374	1331.26378
353.888	1313.33581
354.401	1447.43602
354.915	1498.47166
355.428	1492.68494
355.941	1422.40721
356.454	1468.30406
356.967	1415.41904
357.48	1466.3801
357.993	1539.67558
358.505	1488.63171
359.018	1548.69764
359.53	1522.54593
360.042	1555.37574
360.554	1541.57585
361.066	1534.66336
361.578	1571.32758
362.09	1526.55543
362.602	1573.32918
363.113	1575.50542
363.625	1601.41107
364.136	1676.41906
364.647	1615.53634
365.158	1672.60362
365.669	1737.76426
366.18	1731.65717
366.691	1777.4709
367.201	1722.68238
367.712	1760.61073
368.222	1762.54667
368.733	1766.3911
369.243	1815.49767
369.753	1812.58019
370.263	1866.8283
370.773	1931.00904
371.282	1927.78009
371.792	2010.71688
372.301	2065.9543
372.811	2052.21056
373.32	2041.46568
373.829	2047.72997
374.338	2243.59419
374.847	2229.69771
375.356	2262.7882
375.865	2392.37361
376.373	2508.5827
376.882	2608.09936
377.39	2581.85248
377.898	2756.99755
378.407	2826.5575
378.915	2921.17199
379.423	2992.54771
379.93	3212.25104
380.438	3298.57468
380.946	3399.2457
381.453	3647.30413
381.96	3710.05656
382.468	4034.79065
382.975	4221.80072
383.482	4438.33414
383.989	4452.96181
384.495	4648.19615
385.002	4795.53072
385.509	5068.78069
386.015	5475.90644
386.521	5658.14974
387.028	5858.08321
387.534	6083.85536
388.04	6383.15668
388.546	6504.00162
389.051	6790.05284
389.557	7281.5292
390.063	7903.41835
390.568	8389.27803
391.073	8541.87583
391.578	8875.70075
392.084	9347.61589
392.589	9365.25367
393.093	10109.20701
393.598	11013.42493
394.103	11791.4156
394.607	13253.01134
395.112	14336.17786
395.616	15068.47615
396.12	16346.00367
396.624	18362.31442
397.128	20001.49087
397.632	22154.21368
398.136	24105.22626
398.639	25178.49693
399.143	27766.64212
399.646	31463.82804
400.15	34867.74926
400.653	38230.91116
401.156	42515.48683
401.659	49589.67711
402.162	52692.97807
402.664	47275.14456
403.167	32260.27245
403.67	3851.94142
404.172	0
404.674	0
405.176	0
405.678	0
406.18	0
406.682	0
407.184	0
407.686	12367.42319
408.187	34596.90747
408.688	44563.94194
409.19	48906.19284
409.691	51236.67962
410.192	52883.26968
410.693	53713.23343
411.194	54189.54801
411.694	54767.79104
412.195	55625.98899
412.696	55971.27715
413.196	55499.56996
413.696	53894.95305
414.196	53960.9994
414.696	53520.50575
415.196	51395.09748
415.696	47577.68243
416.196	39717.35414
416.695	30689.9243
417.195	25756.59777
417.694	24146.44243
418.194	22997.44212
418.693	21326.80073
419.192	20319.47668
419.691	19993.60682
420.19	19787.87444
420.688	19041.68949
421.187	18494.03952
421.685	17265.82199
422.184	15795.98356
422.682	13918.14789
423.18	11921.56725
423.678	10506.91452
424.176	9645.69217
424.674	9131.65085
425.172	8763.2453
425.669	8114.70523
426.167	7633.96917
426.664	6902.26616
427.161	6383.17844
427.659	5901.52868
428.156	5553.03787
428.652	5306.21031
429.149	4977.11895
429.646	4781.85599
430.143	4607.40849
430.639	4254.59834
431.135	4129.07099
431.632	3805.89019
432.128	3555.11676
432.624	3325.73032
433.12	3165.13631
433.616	3105.03089
434.111	3094.54815
434.607	2901.59367
435.103	2810.06711
435.598	2714.94519
436.093	2599.53117
436.588	2401.33943
437.083	2371.4742
437.578	2120.34202
438.073	2171.87384
438.568	2029.69479
439.062	1939.18563
439.557	1843.45491
440.051	1909.43406
440.546	1845.43356
441.04	1787.56052
441.534	1738.67967
442.028	1708.46744
442.522	1632.44742
443.015	1630.2052
443.509	1607.53373
444.002	1441.35937
444.496	1509.08086
444.989	1586.48252
445.482	1461.42801
445.975	1473.19918
446.468	1458.08118
446.961	1370.90883
447.454	1384.14875
447.947	1351.17806
448.439	1291.19187
448.931	1234.9185
449.424	1312.3107
449.916	1335.23548
450.408	1291.99551
450.9	1241.10203
451.392	1180.15819
451.884	1279.04272
452.375	1169.10324
452.867	1104.78024
453.358	1161.89735
453.849	1137.74479
454.341	1083.76146
454.832	1050.66992
455.323	1079.97769
455.814	1029.76142
456.304	1049.80152
456.795	1086.85982
457.285	1023.69139
457.776	968.64916
458.266	1011.8435
458.756	1006.86809
459.247	952.76938
459.737	1013.88624
460.226	937.64207
460.716	903.6985
461.206	938.76833
461.695	894.78987
462.185	891.67753
462.674	883.608
463.163	882.5604
463.653	906.50185
464.142	834.6273
464.63	793.57097
465.119	781.47872
465.608	869.62323
466.096	832.4832
466.585	822.55005
467.073	752.4886
467.561	719.44476
468.05	786.50524
468.538	757.54428
469.026	703.40413
469.513	696.22874
470.001	764.49476
470.489	732.49423
470.976	674.30535
471.463	681.44436
471.951	623.32925
472.438	611.24834
472.925	681.38843
473.412	581.23899
473.899	645.2756
474.385	584.2602
474.872	570.16734
475.359	586.271
475.845	614.12379
476.331	574.105
476.817	552.18291
477.303	548.13082
477.789	524.12717
478.275	505.12506
478.761	539.16818
479.247	531.05273
479.732	485.09692
480.218	447.04807
480.703	424.96176
481.188	431.83832
481.673	449.93988
482.158	505.99816
482.643	410.95975
483.128	434.92395
483.612	405.87515
484.097	431.9703
484.581	373.79635
485.066	459.02452
485.55	374.76818
486.034	381.77567
486.518	325.71041
487.002	426.98157
487.486	341.78655
487.969	330.7586
488.453	323.76074
488.936	314.67345
489.42	341.71636
489.903	308.72527
490.386	333.52651
490.869	275.57109
491.352	288.6581
491.835	280.55486
492.318	269.58951
492.8	340.6829
493.283	288.69293
493.765	296.69485
494.247	290.64423
494.73	252.53278
495.212	207.47579
495.694	291.65195
496.175	219.50497
496.657	234.53235
497.139	266.4521
497.62	218.50557
498.102	224.54346
498.583	264.63567
499.064	190.4098
499.545	230.50883
500.026	204.4483
500.507	244.5488
500.988	223.53463
501.469	185.45196
501.949	175.41636
502.43	179.41883
502.91	211.43114
503.39	161.39143
503.87	176.40607
504.35	184.41996
504.83	172.37257
505.31	177.41756
505.79	165.3891
506.269	173.39366
506.749	115.26073
507.228	159.36693
507.707	154.33444
508.187	123.28769
508.666	119.28509
509.145	126.29118
509.623	142.33154
510.102	106.25361
510.581	115.26972
511.059	174.42801
511.538	107.26965
512.016	167.39504
512.494	146.35183
512.972	93.21744
513.45	121.2799
513.928	163.3893
514.406	165.39604
514.884	125.31569
515.361	90.21121
515.839	91.20758
516.316	166.3926
516.793	140.34743
517.27	119.28291
517.747	183.46017
518.224	67.15394
518.701	116.25717
519.178	55.13572
519.654	120.28007
520.131	91.22241
520.607	88.21447
521.083	114.25915
521.56	70.16389
522.036	107.23371
522.512	56.13587
522.987	72.17101
523.463	93.22008
523.939	70.16863
524.414	103.23647
524.89	117.27677
525.365	56.12606
525.84	49.11699
526.315	100.23925
526.79	51.11455
527.265	95.21749
527.74	62.14953
528.215	115.27403
528.689	56.12446
529.164	55.12115
529.638	87.2209
530.112	78.18376
530.587	102.22123
531.061	81.19561
531.534	112.2698
532.008	82.19761
532.482	69.15657
532.956	37.09375
533.429	59.14135
533.903	43.09491
534.376	126.27945
534.849	-10.02326
535.322	102.239
535.795	52.12579
536.268	83.19907
536.741	60.14235
537.213	66.15174
537.686	47.1141
538.158	59.13399
538.631	5.01204
539.103	47.10725
539.575	55.11483
540.047	33.07385
540.519	23.05464
540.991	66.15851
541.463	49.11793
541.934	7.01604
542.406	-6.01431
542.877	14.0315
543.348	-11.02599
543.82	49.11873
544.291	9.02084
544.762	47.11161
545.233	32.0795
545.703	32.07139
546.174	82.18942
546.645	8.01934
547.115	108.2579
547.585	20.04563
548.056	23.05523
548.526	101.23485
548.996	86.20293
549.466	100.23797
549.935	84.1979
550.405	103.22402
550.875	115.26719
551.344	96.22555
551.814	140.31567
552.283	88.18817
552.752	117.26473
553.221	75.16277
553.69	114.24662
554.159	146.3501
554.628	157.3461
555.096	168.4102
555.565	155.34399
556.033	83.19231
556.502	99.23681
556.97	24.05283
557.438	85.19749
557.906	64.15025
558.374	68.15533
558.842	21.05029
559.31	42.09459
559.777	16.03881
560.245	44.1014
560.712	22.05072
561.18	-21.0474
561.647	-19.04278
562.114	47.10911
562.581	2.00486
563.048	40.09226
563.514	20.04907
563.981	49.11218
564.448	-10.02258
564.914	-21.04873
565.381	-5.01137
565.847	-1.00233
566.313	45.1053
566.779	14.0321
567.245	-24.05595
567.711	5.01204
568.176	-1.00225
568.642	-14.03491
569.108	-26.06393
569.573	2.00467
570.038	24.05076
570.504	12.0271
570.969	-43.10591
571.434	-22.04837
571.899	73.17088
572.363	28.06295
572.828	17.03804
573.293	108.24392
573.757	39.08821
574.222	73.16181
574.686	41.09163
575.15	61.14318
575.614	75.16949
576.078	51.1168
576.542	42.09373
577.006	91.19943
577.469	40.09424
577.933	54.11992
578.396	69.15936
578.86	70.16074
579.323	80.18737
579.786	77.16226
580.249	24.05409
580.712	59.13924
581.175	46.11102
581.637	49.10951
582.1	42.08899
582.563	79.16553
583.025	37.0879
583.487	69.13965
583.95	42.09016
584.412	5.01037
584.874	49.11658
585.336	102.23478
585.797	71.15034
586.259	88.20086
586.721	81.18603
587.182	59.13322
587.643	58.12719
588.105	-12.02759
588.566	44.08972
589.027	50.11706
589.488	41.09061
589.949	119.2756
590.41	108.2077
590.87	51.11059
591.331	125.25913
591.791	62.13917
592.252	60.13246
592.712	106.24008
593.172	74.16125
593.632	81.16761
594.092	81.17332
594.552	39.08059
595.011	121.26652
595.471	91.19581
595.931	116.24601
596.39	253.56799
596.849	163.35873
597.308	146.29338
597.768	226.54151
598.227	228.50672
598.685	275.57644
599.144	266.58011
599.603	274.59856
600.062	276.54591
600.52	313.64245
600.978	336.72902
601.437	367.75669
601.895	372.70201
602.353	365.72245
602.811	462.91638
603.269	461.96756
603.727	479.01142
604.184	521.03191
604.642	529.11768
605.099	613.23261
605.557	655.34926
606.014	640.16618
606.471	678.43955
606.928	691.23927
607.385	786.59009
607.842	892.65191
608.299	930.72071
608.755	976.83382
609.212	989.72892
609.668	938.6391
610.125	1015.88437
610.581	1012.81608
611.037	1056.81406
611.493	1073.92337
611.949	1048.93758
612.405	1111.70166
612.861	1134.97753
613.316	1137.08085
613.772	1159.95203
614.227	1143.98962
614.683	1225.88731
615.138	1224.1238
615.593	1220.12239
616.048	1271.11964
616.503	1212.16151
616.958	1238.28276
617.412	1234.15473
617.867	1259.05613
618.321	1321.95689
618.776	1228.97235
619.23	1194.07696
619.684	1292.1285
620.138	1147.94741
620.592	1120.05426
621.046	1107.94598
621.5	1130.10373
621.954	1117.88814
622.407	1074.81862
622.861	1046.99732
623.314	1045.82711
623.768	1009.84077
624.221	973.48049
624.674	974.76202
625.127	909.69223
625.58	888.58979
626.033	841.47573
626.485	881.73335
626.938	852.63813
627.39	854.6286
627.843	762.45358
628.295	741.41995
628.747	763.51991
629.199	690.32684
629.651	708.3785
630.103	723.40275
630.555	733.32555
631.006	654.31428
631.458	673.3752
631.909	672.30395
632.361	630.28052
632.812	599.21493
633.263	577.08175
633.714	617.16316
634.165	532.12968
634.616	548.146
635.067	502.97619
635.518	543.1423
635.968	584.01772
636.419	529.01454
636.869	447.94563
637.319	547.15527
637.769	458.92372
638.219	527.12075
638.669	464.99811
639.119	437.95276
639.569	474.03385
640.019	459.94976
640.468	500.00202
640.918	458.98393
641.367	486.99055
641.816	433.86708
642.265	452.938
642.714	494.02057
643.163	454.94215
643.612	412.91595
644.061	389.75662
644.51	457.94943
644.958	503.00363
645.406	458.99706
645.855	499.11626
646.303	527.10323
646.751	481.99573
647.199	439.9035
647.647	445.93151
648.095	512.05546
648.543	512.95679
648.99	503.09142
649.438	444.93497
649.885	474.05043
650.333	490.8659
650.78	452.00118
651.227	467.04069
651.674	484.0106
652.121	494.09529
652.568	515.13837
653.015	505.15936
653.461	467.01059
653.908	481.01121
654.354	498.08079
654.801	512.11169
655.247	461.91333
655.693	380.91628
656.139	552.21038
656.585	503.10486
657.031	498.07849
657.477	479.96053
657.922	454.97408
658.368	481.09668
658.813	484.02803
659.259	435.96928
659.704	428.92978
660.149	484.04053
660.594	435.96125
661.039	467.97713
661.484	441.97207
661.929	474.01243
662.373	445.04906
662.818	419.96948
663.262	440.9867
663.707	418.98536
664.151	440.98832
664.595	517.15707
665.039	484.10287
665.483	526.23961
665.927	419.91004
666.371	438.96525
666.814	448.9972
667.258	450.9975
667.701	493.97673
668.145	499.14099
668.588	486.10208
669.031	482.05844
669.474	471.05006
669.917	498.00629
670.36	528.1999
670.803	511.13469
671.245	534.04709
671.688	499.10984
672.13	549.14632
672.573	534.23508
673.015	555.21313
673.457	525.06023
673.899	591.29248
674.341	541.19046
674.783	557.22572
675.225	526.19776
675.666	575.27279
676.108	499.98723
676.549	517.11804
676.991	565.14377
677.432	627.167
677.873	535.13779
678.314	600.29643
678.755	563.26327
679.196	598.26508
679.637	596.32344
680.078	570.21996
680.518	563.1912
680.959	492.07681
681.399	544.23631
681.839	556.24116
682.28	578.31209
682.72	546.16399
683.16	559.28197
683.6	593.21863
684.039	494.95103
684.479	543.22681
684.919	629.33743
685.358	525.21976
685.798	629.51494
686.237	600.31467
686.676	550.14613
687.115	588.25855
687.554	619.33896
687.993	605.2137
688.432	575.20176
688.871	600.2455
689.309	633.37511
689.748	605.1511
690.186	654.40542
690.625	649.3812
691.063	650.41837
691.501	673.50171
691.939	657.49492
692.377	701.54169
692.815	640.39063
693.253	616.33389
693.69	670.32172
694.128	663.46293
694.565	655.40606
695.003	675.53467
695.44	696.47653
695.877	635.35254
696.314	656.26498
696.751	604.23708
697.188	646.32622
697.625	627.2805
698.061	675.46832
698.498	703.51634
698.934	702.50674
699.371	690.45742
699.807	709.49662
700.243	686.46794
700.679	699.40581
701.115	659.36664
701.551	698.45438
701.987	682.37189
702.422	744.57023
702.858	683.46561
703.294	697.37861
703.729	765.64032
704.164	688.47032
704.599	702.383
705.035	727.44139
705.47	673.45777
705.904	752.56147
706.339	765.55144
706.774	788.6254
707.209	774.58292
707.643	723.53886
708.078	756.613
708.512	746.65821
708.946	805.66606
709.38	847.73823
709.814	810.62973
710.248	850.80196
710.682	786.64808
711.116	858.8055
711.549	879.9793
711.983	813.64065
712.416	909.82621
712.85	881.8981
713.283	820.67332
713.716	827.78172
714.149	846.72253
714.582	834.6273
715.015	877.87416
715.448	858.87259
715.881	766.42238
716.313	842.66934
716.746	930.86031
717.178	858.78574
717.61	820.80168
718.043	898.90873
718.475	835.74129
718.907	811.76215
719.339	857.68923
719.77	813.68039
720.202	880.92142
720.634	910.90409
721.065	946.90977
721.497	896.89045
721.928	870.85399
722.359	896.88056
722.79	858.7889
723.221	844.82806
723.652	894.96102
724.083	912.76207
724.514	835.64042
724.945	858.7367
725.375	846.72487
725.806	789.69109
726.236	822.81363
726.666	860.76612
727.096	913.9318
727.526	904.97964
727.956	908.77692
728.386	895.90029
728.816	886.97923
729.246	811.72259
729.675	762.64896
730.105	857.82824
730.534	808.64806
730.964	765.6966
731.393	864.8237
731.822	789.74478
732.251	812.81168
732.68	798.61439
733.109	798.74746
733.537	782.66347
733.966	827.784
734.395	832.66177
734.823	768.51181
735.251	773.63612
735.68	763.67534
736.108	818.81606
736.536	807.67839
736.964	746.52835
737.392	765.68817
737.82	716.49457
738.247	805.69204
738.675	704.4682
739.102	721.62874
739.53	711.61266
739.957	727.65629
740.384	762.63563
740.811	703.58548
741.238	705.5239
741.665	695.43561
742.092	687.46027
742.519	676.52113
742.945	688.47413
743.372	682.51774
743.798	680.57373
744.225	665.43246
744.651	638.44785
745.077	621.40439
745.503	654.44877
745.929	692.48653
746.355	580.27293
746.781	576.30649
747.207	588.26126
747.632	573.291
748.058	556.26158
748.483	633.32842
748.908	583.32479
749.334	558.26919
749.759	589.28213
750.184	516.13845
750.609	524.17733
751.033	558.17931
751.458	532.08791
751.883	481.09227
752.307	568.23976
752.732	553.2955
753.156	538.23449
753.58	506.10704
754.005	486.14167
754.429	511.11729
754.853	499.16109
755.277	475.03801
755.7	466.07673
756.124	467.08566
756.548	452.01531
756.971	510.1566
757.394	482.15553
757.818	458.10623
758.241	464.10345
758.664	468.12022
759.087	396.84893
759.51	433.00767
759.933	406.91945
760.356	420.00513
760.778	478.1198
761.201	424.97579
761.623	420.96235
762.046	422.93117
762.468	409.92342
762.89	367.84987
763.312	388.89154
763.734	396.90664
764.156	388.91467
764.578	388.84219
765	382.89458
765.421	434.0635
765.843	376.93769
766.264	345.78626
766.686	324.77568
767.107	376.87571
767.528	350.85575
767.949	308.74833
768.37	341.80905
768.791	361.83399
769.212	322.79111
769.632	290.6608
770.053	299.76176
770.473	337.78691
770.894	313.74349
771.314	284.64765
771.734	280.63905
772.154	302.7491
772.575	315.69903
772.994	264.58696
773.414	291.67311
773.834	259.62068
774.254	313.74635
774.673	302.70645
775.093	250.59923
775.512	246.59906
775.931	280.69125
776.351	272.65617
776.77	261.63024
777.189	280.64805
777.607	223.55247
778.026	242.58469
778.445	156.38515
778.864	237.58629
779.282	219.52144
779.701	221.54552
780.119	214.53241
780.537	212.52301
780.955	215.53402
781.373	184.44659
781.791	206.45554
782.209	176.39457
782.627	157.40664
783.045	193.43899
783.462	192.47942
783.88	217.55308
784.297	234.57962
784.715	205.51918
785.132	147.3527
785.549	190.47167
785.966	116.28976
786.383	151.36849
786.8	172.38972
787.217	163.38229
787.633	193.48008
788.05	175.40159
788.466	198.4581
788.883	129.3266
789.299	147.35042
789.715	201.48464
790.131	160.39546
790.547	103.25389
790.963	173.42469
791.379	127.31799
791.795	99.22409
792.21	134.31385
792.626	144.33701
793.041	132.32471
793.457	159.387
793.872	114.26617
794.287	156.37764
794.702	87.21279
795.117	137.3424
795.532	107.2682
795.947	128.30495
796.362	76.17926
796.776	101.23206
797.191	157.38413
797.605	69.16562
798.02	103.25258
798.434	97.21581
798.848	113.27915
799.262	121.30154
799.676	99.23907
800.09	49.11998
800.504	99.24097
800.918	124.28827
801.331	68.17653
801.745	58.13297
802.158	55.13885
802.572	33.07966
802.985	69.16744
803.398	63.15162
803.811	45.11474
804.224	30.07494
804.637	24.0581
805.05	109.25355
805.462	122.30088
805.875	77.20171
806.288	17.04143
806.7	53.13404
807.112	60.14048
807.525	37.09167
807.937	65.1621
808.349	48.11973
808.761	16.03942
809.173	35.08589
809.584	11.02707
809.996	42.1048
810.408	20.05253
810.819	40.09658
811.231	73.19292
811.642	87.21461
812.053	137.32958
812.464	148.35165
812.875	127.32405
813.286	28.07226
813.697	47.1076
814.108	53.12905
814.519	51.1137
814.929	20.05075
815.34	10.02451
815.75	50.12774
816.16	27.06763
816.571	57.14906
816.981	-21.04985
817.391	40.09778
817.801	5.01261
818.211	7.01681
818.62	44.1078
819.03	14.03482
819.44	24.06271
819.849	28.07143
820.259	-16.04112
820.668	-4.01003
821.077	57.1437
821.486	85.20588
821.895	30.07393
822.304	17.04521
822.713	41.09774
823.122	11.02761
823.531	0
823.939	28.06901
824.348	18.0442
824.756	31.0781
825.164	-19.04812
825.573	14.03564
825.981	-20.04969
826.389	27.06848
826.797	38.09691
827.205	50.11725
827.612	-7.01742
828.02	28.06725
828.428	18.04605
828.835	-32.08529
829.243	26.0623
829.65	-35.08877
830.057	25.06069
830.464	-18.04446
830.871	20.04785
831.278	3.00734
831.685	36.08154
832.092	40.09887
832.499	36.08001
832.905	31.07868
833.312	26.05994
833.718	10.025
834.124	-12.02772
834.531	35.08855
834.937	26.06691
835.343	28.06824
835.749	17.03997
836.155	-6.01594
836.561	-37.09214
836.966	-39.09677
837.372	38.09759
837.777	-12.03032
838.183	13.02949
838.588	25.06285
838.993	-37.0907
839.399	45.11231
839.804	30.07432
840.209	2.00517
840.613	7.01589
841.018	23.05869
841.423	5.01293
841.828	-20.0512
842.232	36.08879
842.637	5.01197
843.041	-29.07579
843.445	27.06838
843.849	-11.0277
844.253	19.04541
844.657	3.00769
845.061	-10.02302
845.465	34.08379
845.869	9.02125
846.272	-5.01247
846.676	-48.11594
847.079	-8.02077
847.483	20.04982
847.886	15.03666
848.289	38.10199
848.692	-35.08956
849.095	40.09672
849.498	21.05279
849.901	9.02093
850.304	-6.01442
850.707	12.0307
851.109	-36.09142
851.512	7.01758
851.914	38.09851
852.316	-6.01538
852.718	43.11429
853.121	27.06734
853.523	84.20136
853.925	-8.02126
854.326	1.00255
854.728	-34.08908
855.13	-1.00261
855.531	-6.01478
855.933	34.08228
856.334	-25.06336
856.736	18.04188
857.137	5.01189
857.538	30.07681
857.939	47.11828
858.34	-10.02472
858.741	31.0814
859.142	-14.03401
859.542	20.05311
859.943	60.15107
860.343	-4.01018
860.744	35.08561
861.144	-33.08197
861.544	24.05939
861.945	17.04387
862.345	37.09077
862.745	-39.09825
863.145	-13.03119
863.544	0
863.944	42.10102
864.344	17.0422
864.743	21.05203
865.143	45.11676
865.542	25.05912
865.941	-3.00748
866.34	-10.02408
866.74	15.0404
867.139	3.00729
867.537	22.05642
867.936	-2.00488
868.335	57.14457
868.734	17.0439
869.132	12.02824
869.531	-29.06995
869.929	41.09586
870.327	14.03432
870.726	-14.03502
871.124	-25.05893
871.522	-24.06168
871.92	26.06478
872.318	-24.05919
872.715	8.01969
873.113	20.04929
873.511	-32.07956
873.908	-23.05902
874.306	60.15058
874.703	-5.01261
875.1	-25.06413
875.497	20.04843
875.894	-1.00251
876.291	-32.07881
876.688	-2.00522
877.085	-14.03397
877.482	37.09318
877.878	40.09767
878.275	31.07899
878.671	-11.02437
879.068	24.05827
879.464	21.05155
879.86	14.03382
880.256	27.0667
880.652	17.04397
881.048	-1.0025
881.444	30.07126
881.84	20.05142
882.236	16.0404
882.631	-29.07211
883.027	-12.0291
883.422	7.0182
883.817	5.0129
884.213	14.03633
884.608	18.04531
885.003	78.19046
885.398	-15.03826
885.793	32.08103
886.188	30.07597
886.582	53.13562
886.977	61.14564
887.371	-42.10636
887.766	-4.01012
888.16	30.07546
888.554	-12.02952
888.949	-8.02018
889.343	42.10286
889.737	10.02703
890.131	0
890.525	57.14693
890.918	22.05597
891.312	-1.00241
891.706	-12.0317
892.099	6.01533
892.492	-35.07683
892.886	57.14169
893.279	14.03633
893.672	-5.01293
894.065	-6.01516
894.458	-8.02021
894.851	-49.12069
895.244	9.02334
895.637	10.02429
896.029	36.08931
896.422	16.03942
896.814	49.12349
897.206	0
897.599	7.0173
897.991	4.00984
898.383	-7.01669
898.775	-25.05767
899.167	-13.03125
899.559	-22.05591
899.951	45.10715
900.342	9.02312
900.734	8.02032
901.125	33.08756
901.517	-21.05207
901.908	-17.04101
902.299	7.0176
902.69	-5.012
903.082	-73.17848
903.473	26.06351
903.863	-33.08486
904.254	-44.10406
904.645	-12.02976
905.036	-15.03716
905.426	10.02316
905.817	24.05963
906.207	-27.06631
906.597	19.04508
906.987	-37.09587
907.378	-14.03572
907.768	14.0373
908.158	10.02463
908.547	2.00529
908.937	-23.05908
909.327	4.00978
909.717	23.05809
910.106	44.10752
910.495	28.06977
910.885	58.14724
911.274	30.07559
911.663	-18.04592
912.052	8.01974
912.441	6.01551
912.83	44.10269
913.219	10.02613
913.608	-48.11812
913.997	30.07635
914.385	69.16562
914.774	8.01967
915.162	2.00488
915.55	-18.04377
915.939	-30.0771
916.327	-40.09992
916.715	33.0858
917.103	35.08615
917.491	18.04482
917.878	32.07962
918.266	-16.04169
918.654	-8.02062
919.041	-37.09798
919.429	-27.06446
919.816	8.02045
920.203	0
920.591	-23.05749
920.978	16.03939
921.365	25.06589
921.752	-7.01687
922.139	14.03068
922.525	85.20828
922.912	18.04405
923.299	19.04828
923.685	-31.08159
924.072	13.03022
924.458	26.06495
924.844	39.09811
925.231	25.05905
925.617	55.14226
926.003	0
926.389	-1.00254
926.774	19.04848
927.16	42.10469
927.546	-26.06752
927.931	29.07319
928.317	27.06276
928.702	-16.03812
929.088	29.0704
929.473	20.05131
929.858	32.07939
930.243	14.03402
930.628	36.08911
931.013	2.00502
931.398	-21.04829
931.783	-32.08418
932.167	7.01715
932.552	29.07204
932.937	52.12858
933.321	8.02043
933.705	-39.09983
934.09	-41.10299
934.474	28.06709
934.858	-21.0546
935.242	-22.05183
935.626	10.02589
936.009	5.01344
936.393	-11.0281
936.777	-40.10312
937.16	-8.0211
937.544	20.04694
937.927	0
938.311	14.0343
938.694	15.03943
939.077	42.10183
939.46	-47.11624
939.843	19.03997
940.226	16.04152
940.609	65.15168
940.991	-2.00517
941.374	38.0932
941.757	20.04994
942.139	24.05431
942.522	7.01655
942.904	-29.07048
943.286	-9.02301
943.668	36.094
944.05	32.07982
944.432	-1.00252
944.814	38.09496
945.196	9.02258
945.578	-4.00983
945.959	-16.03818
946.341	38.0921
946.722	-19.04493
947.104	8.0192
947.485	84.19759
947.866	15.03838
948.247	3.00767
948.628	73.17748
949.009	33.08521
949.39	-25.06269
949.771	18.04229
950.152	27.06695
950.532	-8.02017
950.913	19.04678
951.293	18.04923
951.674	-13.03186
952.054	-1.0025
952.434	11.02741
952.814	-24.05687
953.194	1.0026
953.574	-33.08176
953.954	8.01929
954.334	46.11474
954.714	18.04448
955.093	-27.06631
955.473	2.00506
955.853	9.02326
956.232	-12.03283
956.611	-38.09182
956.99	-26.06539
957.37	5.0128
957.749	53.12644
958.128	-18.04571
958.506	23.06015
958.885	16.04065
959.264	25.06244
959.643	50.11537
960.021	22.05462
960.4	5.01147
960.778	-18.04433
961.156	0
961.535	-16.03783
961.913	2.00474
962.291	10.02609
962.669	-57.14488
963.047	25.06422
963.424	21.05383
963.802	-23.05726
964.18	41.10318
964.557	37.08614
964.935	-1.00238
965.312	38.09993
965.69	2.00505
966.067	-7.01724
966.444	11.02721
966.821	-6.01545
967.198	-27.0656
967.575	-4.00984
967.952	1.00234
968.329	7.01718
968.705	42.09191
969.082	20.05215
969.458	20.04858
969.835	-28.06837
970.211	2.0052
970.587	-8.02008
970.963	16.04118
971.339	-9.02374
971.715	3.00756
972.091	31.07686
972.467	24.05993
972.843	31.07815
973.219	-9.02164
973.594	20.05278
973.97	71.16834
974.345	24.05819
974.721	7.01706
975.096	1.00246
975.471	-21.04947
975.846	29.07043
976.221	28.07236
976.596	32.0777
976.971	5.01232
977.346	10.02342
977.72	-32.0817
978.095	-14.03626
978.469	42.10006
978.844	6.01504
979.218	17.04169
979.593	-60.14498
979.967	3.00742
980.341	38.08862
980.715	2.00505
981.089	30.07578
981.463	9.02101
981.837	16.03965
982.21	-23.05291
982.584	30.07331
982.957	-4.01013
983.331	28.06643
983.704	27.06719
984.078	14.03467
984.451	-43.10666
984.824	46.11408
985.197	13.03182
985.57	6.01514
985.943	21.05146
986.316	13.03202
986.688	47.11324
987.061	25.05935
987.434	-14.03664
987.806	-18.04384
988.179	60.14383
988.551	2.00512
988.923	-30.07415
989.295	27.06785
989.667	62.15145
990.039	15.03753
990.411	-4.00935
990.783	-22.05068
991.155	31.07627
991.527	-29.07093
991.898	-29.07324
992.27	12.03019
992.641	9.02266
993.012	55.1296
993.384	23.05546
993.755	-18.0465
994.126	-8.01945
994.497	-2.00502
994.868	9.02084
995.239	10.02447
995.61	45.11438
995.98	0
996.351	15.03783
996.722	-9.02139
997.092	12.02871
997.462	-13.03144
997.833	19.04488
998.203	-9.02198
998.573	-6.01509
998.943	40.09497
999.313	-45.10892
999.683	7.01695
1000.053	3.00696
1000.423	-1.00244
1000.792	52.13592
1001.162	22.05456
1001.531	29.0719
1001.901	-18.04529
1002.27	46.10406
1002.639	13.03343
1003.009	-1.00241
1003.378	22.05623
1003.747	14.03346
1004.116	10.02428
1004.485	-29.06979
1004.853	-16.04083
1005.222	6.01529
1005.591	22.05262
1005.959	35.08177
1006.328	-23.05323
1006.696	-26.06346
1007.064	31.07874
1007.433	-12.03002
1007.801	12.02922
1008.169	25.06386
1008.537	6.01331
1008.905	-21.05008
1009.273	12.02987
1009.64	18.04376
1010.008	24.05775
1010.375	-25.05971
1010.743	38.08799
1011.11	7.01685
1011.478	5.01238
1011.845	46.10808
1012.212	15.03471
1012.579	21.05178
1012.946	27.06473
1013.313	22.05199
1013.68	3.00679
1014.047	2.00491
1014.414	17.0407
1014.78	14.03492
1015.147	1.00242
1015.513	14.03407
1015.88	31.07902
1016.246	-5.01242
1016.612	22.05084
1016.978	20.04956
1017.344	-8.01996
1017.71	30.07191
1018.076	-23.05474
1018.442	-2.00517
1018.808	31.07801
1019.174	9.02288
1019.539	54.12246
1019.905	9.02139
1020.27	15.03745
1020.636	5.01202
1021.001	32.07758
1021.366	-26.06304
1021.731	12.03101
1022.096	-50.12774
1022.461	-7.01655
1022.826	27.06501
1023.191	14.03683
1023.556	23.05437
1023.92	-4.00985
1024.285	3.00735
1024.649	27.06604
1025.014	12.02969
1025.378	3.00765
1025.742	54.13421
1026.107	12.02737
1026.471	32.07427
1026.835	-6.0149
1027.199	-14.03443
1027.562	37.08712
1027.926	29.07061
1028.29	51.13073
1028.654	46.10677
1029.017	-7.01726
1029.381	52.12692
1029.744	-4.01036
1030.107	9.02119
1030.471	-18.04361
1030.834	-12.02763
1031.197	17.04068
1031.56	2.00474
1031.923	4.0104
1032.286	-30.07046
1032.648	4.00969
1033.011	23.05413
1033.374	18.04213
1033.736	-15.0402
1034.099	45.11088
1034.461	57.14616
1034.823	33.08269
1035.185	-4.01019
1035.548	-17.04204
1035.91	5.01219
1036.272	26.05989
1036.634	31.07526
1036.995	1.00236
1037.357	8.01964
1037.719	1.00244
1038.08	-11.02608
1038.442	-5.01201
1038.803	51.12339
1039.165	-8.02029
1039.526	-29.07085
1039.887	7.01696
1040.248	14.03533
1040.609	-23.05713
1040.97	19.04738
1041.331	-23.05856
1041.692	-14.03346
1042.053	-17.03915
1042.413	-17.03997
1042.774	-11.02696
1043.134	-20.04767
1043.495	-4.01011
1043.855	10.02436
1044.215	-32.07982
1044.576	30.07295
1044.936	-44.1012
1045.296	23.05738
1045.656	-6.01487
1046.016	42.10152
1046.375	33.08134
1046.735	43.09943
1047.095	33.078
1047.454	3.00637
1047.814	-44.10632
1048.173	-5.0119
1048.533	-41.0962
1048.892	-3.00739
1049.251	23.05763
1049.61	44.10892
1049.969	-9.0213
1050.328	-35.07755
1050.687	34.08333
1051.046	-14.03439
1051.405	-10.02514
1051.763	-3.00702
1052.122	-4.01021
1052.48	-2.00492
1052.839	15.03568
1053.197	-35.08305
1053.555	-8.018
1053.914	-2.00495
1054.272	9.02173
1054.63	5.01247
1054.988	-23.0554
1055.345	13.02855
1055.703	-14.03371
1056.061	-16.04159
1056.419	-4.01045
1056.776	-29.07067
1057.134	30.07027
1057.491	20.05018
1057.848	28.06992
1058.206	-2.00477
1058.563	17.03818
1058.92	11.0255
1059.277	-34.08425
1059.634	13.03101
1059.991	-2.00476
1060.348	33.07655
1060.704	-29.07056
1061.061	-30.06869
1061.418	27.06636
1061.774	3.00749
1062.131	-45.12068
1062.487	10.02353
1062.843	-6.01512
1063.199	-28.0702
1063.555	-28.06597
1063.911	43.10922
1064.267	6.01261
1064.623	19.04675
1064.979	31.07214
1065.335	-36.08564
1065.691	-38.09133
1066.046	-7.01548
1066.402	9.02088
1066.757	-34.08613
1067.112	-16.03902
1067.468	-28.06771
1067.823	18.04362
1068.178	5.01213
1068.533	4.00971
1068.888	29.06985
1069.243	30.07434
1069.598	16.03936
1069.952	8.01855
1070.307	12.0302
1070.662	4.00969
1071.016	30.06869
1071.371	-14.03237
1071.725	1.0024
1072.079	-34.08222
1072.434	20.04907
1072.788	41.09938
1073.142	4.00988
1073.496	52.12669
1073.85	-26.06099
1074.203	-33.08014
1074.557	34.09071
1074.911	-10.02393
1075.265	11.02573
1075.618	2.00492
1075.971	35.08382
1076.325	15.03856
1076.678	40.09413
1077.031	14.03235
1077.385	23.05155
1077.738	10.02327
1078.091	16.03755
1078.444	22.05163
1078.796	-20.04971
1079.149	-5.01248
1079.502	24.05773
1079.855	29.06865
1080.207	-13.03214
1080.56	18.04711
1080.912	-50.12427
1081.264	31.07509
1081.617	-1.0025
1081.969	-19.04904
1082.321	13.03228
1082.673	0
1083.025	-54.12989
1083.377	-239.54361
1083.728	-11.026
1084.08	14.03544
1084.432	35.08551
1084.783	-10.02343
1085.135	25.06314
1085.486	17.03986
1085.838	0
1086.189	-17.04195
1086.54	-34.08178
1086.891	-14.03617
1087.242	-8.01965
1087.593	-19.04607
1087.944	29.06709
1088.295	-25.05717
1088.646	11.02687
1088.996	30.07344
1089.347	1.00247
1089.698	3.0073
1090.048	2.0052
1090.398	6.01404
1090.749	6.0144
1091.099	-32.08213
1091.449	-39.09807
1091.799	18.04571
1092.149	42.10511
1092.499	-44.10804
1092.849	-26.06694
1093.199	-33.08287
1093.548	-19.04616
1093.898	13.03304
1094.248	28.07151
1094.597	-33.08651
1094.947	0
1095.296	-2.00501
1095.645	3.00781
1095.994	11.02688
1096.343	11.02781
1096.692	26.06932
1097.041	-2.00549
1097.39	1.00252
1097.739	-28.07294
1098.088	9.02416
1098.437	-33.0882
1098.785	13.03534
1099.134	2.00533
1099.482	3.00825
1099.83	-35.09197
1100.179	15.03941
1100.527	30.08028
1100.875	-6.01602
1101.223	-16.04257
1101.571	21.05846
1101.919	-7.01864
1102.267	-34.0966
1102.615	-6.01933
1102.962	-7.02254
1103.31	7.02253
1103.658	-9.029
