Data from N2 R3 sample 2_Subt2__1__17-27-46-628.txt Node

Date: Wed Aug 27 17:27:46 PDT 2025
User: uwsun
Spectrometer: HDX01956
Trigger mode: 0
Integration Time (sec): 5.000000E-1
Scans to average: 1
Nonlinearity correction enabled: true
Boxcar width: 0
Storing dark spectrum: false
XAxis mode: Wavelengths
Number of Pixels in Spectrum: 2068
>>>>>Begin Spectral Data<<<<<
194.03	56.1621
194.578	65.21053
195.127	57.18238
195.676	53.1701
196.225	55.14986
196.773	50.14159
197.321	92.2587
197.87	145.3797
198.418	168.44284
198.966	152.40565
199.513	175.45013
200.061	164.4288
200.609	125.33608
201.156	151.34485
201.704	148.38644
202.251	147.39613
202.798	190.50655
203.345	196.49347
203.892	155.39841
204.438	198.48363
204.985	139.34173
205.532	126.33916
206.078	188.47334
206.624	158.40208
207.17	174.41597
207.716	192.48289
208.262	146.30097
208.808	152.38763
209.354	165.41551
209.899	165.42352
210.445	153.39039
210.99	134.33424
211.535	156.37821
212.08	206.49322
212.625	182.46266
213.17	169.43121
213.715	142.33193
214.259	143.34219
214.804	184.46376
215.348	177.41626
215.892	153.37587
216.436	150.35586
216.98	157.35942
217.524	165.3992
218.068	163.41341
218.612	188.48179
219.155	147.35552
219.698	159.38526
220.242	142.35791
220.785	164.39162
221.328	150.38172
221.871	130.33048
222.414	163.41385
222.956	102.25424
223.499	114.26659
224.041	156.37636
224.583	140.30908
225.126	148.33943
225.668	146.36562
226.21	173.44064
226.751	129.29556
227.293	138.32385
227.835	117.29221
228.376	164.38952
228.918	152.389
229.459	167.42581
230	90.21935
230.541	169.40131
231.082	156.38826
231.622	202.48032
232.163	135.33692
232.704	187.47242
233.244	110.27617
233.784	148.36634
234.324	143.32606
234.864	158.36774
235.404	144.34702
235.944	142.34271
236.484	138.34721
237.023	149.36239
237.563	149.35423
238.102	137.32608
238.641	154.39315
239.18	128.30974
239.719	172.43878
240.258	137.31654
240.797	168.41341
241.335	166.41135
241.874	145.29373
242.412	159.38845
242.95	185.45414
243.488	195.45805
244.026	132.31243
244.564	140.29703
245.102	219.50598
245.64	174.42675
246.177	166.37949
246.715	140.34082
247.252	159.37116
247.789	121.23321
248.326	153.38004
248.863	165.37318
249.4	158.3628
249.936	140.30364
250.473	165.39393
251.009	177.4182
251.546	168.38607
252.082	149.33273
252.618	164.37899
253.154	186.45347
253.69	173.4013
254.226	133.31996
254.761	185.4259
255.297	182.41355
255.832	137.32971
256.367	193.46553
256.903	193.43508
257.438	155.36765
257.972	203.46659
258.507	155.36991
259.042	117.26009
259.576	191.42423
260.111	140.33124
260.645	155.34255
261.179	118.28221
261.713	150.34457
262.247	140.33175
262.781	126.27281
263.315	142.35278
263.849	182.46118
264.382	136.31891
264.915	218.52334
265.449	174.43542
265.982	172.39874
266.515	191.4713
267.048	134.29051
267.58	135.30135
268.113	169.37771
268.646	203.50716
269.178	206.47604
269.71	127.28208
270.243	150.35036
270.775	166.42869
271.307	152.37003
271.838	159.38091
272.37	158.39367
272.902	179.41604
273.433	220.48955
273.965	167.41193
274.496	145.36344
275.027	180.45401
275.558	183.45056
276.089	189.4756
276.62	187.47696
277.15	204.50661
277.681	203.44975
278.211	174.43259
278.741	189.4292
279.272	213.49466
279.802	198.49994
280.332	235.56253
280.861	187.45633
281.391	169.39342
281.921	165.3989
282.45	230.57803
282.98	219.57014
283.509	187.43137
284.038	174.4045
284.567	183.42903
285.096	166.40607
285.625	129.29876
286.153	209.49686
286.682	162.38388
287.21	216.52307
287.739	178.42813
288.267	178.43834
288.795	182.48087
289.323	189.44949
289.851	142.3374
290.378	197.45624
290.906	203.50348
291.433	238.59168
291.961	221.51283
292.488	169.421
293.015	213.50637
293.542	201.51447
294.069	240.59556
294.596	218.5388
295.122	233.55881
295.649	219.48621
296.175	255.62109
296.702	209.50868
297.228	237.57402
297.754	215.48923
298.28	228.52646
298.806	178.42927
299.332	295.66146
299.857	208.47569
300.383	241.60208
300.908	235.58113
301.433	211.51432
301.958	309.71757
302.483	241.60621
303.008	190.46512
303.533	281.72523
304.058	191.45076
304.582	278.6638
305.107	234.60929
305.631	239.54581
306.155	243.57324
306.679	271.63705
307.203	241.563
307.727	260.62296
308.251	225.54905
308.775	240.57242
309.298	247.59824
309.822	225.56536
310.345	237.56017
310.868	248.59059
311.391	229.55694
311.914	298.74377
312.437	202.46086
312.96	261.61306
313.482	227.54027
314.005	282.70665
314.527	283.72887
315.049	295.73054
315.571	290.64583
316.093	278.67824
316.615	256.61104
317.137	308.66343
317.659	252.59896
318.18	286.67662
318.702	382.87565
319.223	226.47216
319.744	363.80218
320.265	274.65775
320.786	314.7669
321.307	285.70191
321.828	323.7141
322.348	285.65688
322.869	368.85371
323.389	507.82542
323.909	346.78073
324.43	301.70314
324.95	322.72718
325.47	297.72012
325.989	332.76289
326.509	388.84254
327.029	354.78475
327.548	361.79176
328.067	392.91907
328.587	321.76513
329.106	393.88006
329.625	407.00733
330.144	326.7293
330.662	395.88709
331.181	386.86279
331.7	338.76331
332.218	394.82349
332.736	367.81847
333.255	414.92612
333.773	383.86261
334.291	366.86215
334.808	415.87948
335.326	418.8984
335.844	408.91082
336.361	444.05702
336.879	487.07593
337.396	439.99638
337.913	520.13293
338.43	528.09631
338.947	487.084
339.464	477.97464
339.981	445.99319
340.497	427.98799
341.014	492.11661
341.53	463.9799
342.046	457.03935
342.562	479.09387
343.078	505.09763
343.594	541.18647
344.11	520.12622
344.626	493.13719
345.141	491.02275
345.657	492.0046
346.172	513.13725
346.687	529.11426
347.202	601.22899
347.717	521.12863
348.232	638.42677
348.747	585.21621
349.261	529.05805
349.776	564.20502
350.29	544.22583
350.805	620.37565
351.319	628.29907
351.833	638.30093
352.347	616.29128
352.861	637.3286
353.374	627.26776
353.888	609.27968
354.401	620.27735
354.915	672.36105
355.428	637.39554
355.941	639.30976
356.454	654.26716
356.967	624.29194
357.48	600.21003
357.993	681.45064
358.505	643.38561
359.018	711.51068
359.53	641.32926
360.042	672.29403
360.554	674.39249
361.066	701.48359
361.578	668.26041
362.09	709.45082
362.602	674.26989
363.113	757.48419
363.625	697.33292
364.136	738.37437
364.647	717.4169
365.158	744.47
365.669	757.54009
366.18	734.45631
366.691	775.42235
367.201	743.48551
367.712	848.60385
368.222	740.40745
368.733	768.37874
369.243	784.4371
369.753	786.47842
370.263	858.68844
370.773	928.86485
371.282	885.6874
371.792	908.66823
372.301	912.77215
372.811	934.93112
373.32	974.62474
373.829	960.7384
374.338	1012.70312
374.847	1041.79249
375.356	993.7696
375.865	1140.72017
376.373	1105.78436
376.882	1159.09473
377.39	1191.01259
377.898	1232.12652
378.407	1278.95401
378.915	1308.78684
379.423	1330.00931
379.93	1408.94992
380.438	1440.16034
380.946	1521.06551
381.453	1582.19626
381.96	1675.1321
382.468	1741.10839
382.975	1825.21596
383.482	2023.06485
383.989	1937.44568
384.495	2061.05978
385.002	2173.64219
385.509	2288.9414
386.015	2392.29386
386.521	2460.55994
387.028	2641.48078
387.534	2727.17321
388.04	2748.50782
388.546	2855.18497
389.051	2968.92437
389.557	3356.89821
390.063	3597.46534
390.568	3869.67959
391.073	3908.18378
391.578	3962.27961
392.084	4093.8967
392.589	4165.52647
393.093	4472.54526
393.598	4898.099
394.103	5234.99937
394.607	5830.11299
395.112	6424.5811
395.616	6769.13389
396.12	7468.20466
396.624	8217.17052
397.128	8940.11753
397.632	9985.49821
398.136	10850.66051
398.639	11255.55016
399.143	12227.44588
399.646	14076.74029
400.15	15528.81256
400.653	16834.71068
401.156	18628.56365
401.659	21777.72284
402.162	26256.73283
402.664	32348.75393
403.167	30296.15919
403.67	3764.78191
404.172	0
404.674	0
405.176	0
405.678	0
406.18	0
406.682	0
407.184	0
407.686	12367.42319
408.187	34596.90747
408.688	44563.94194
409.19	48906.19284
409.691	51236.67962
410.192	45207.26356
410.693	38975.86404
411.194	34960.25181
411.694	33119.7529
412.195	31133.15767
412.696	27977.03276
413.196	25834.61356
413.696	24364.68677
414.196	25067.54605
414.696	24862.64168
415.196	24042.6755
415.696	22700.05098
416.196	18903.86745
416.695	14366.41705
417.195	11572.61461
417.694	10989.0667
418.194	10568.80623
418.693	9676.58896
419.192	9401.13245
419.691	9218.665
420.19	9077.29829
420.688	8668.92676
421.187	8409.45597
421.685	7956.32266
422.184	7351.04096
422.682	6352.49813
423.18	5539.26722
423.678	4699.57751
424.176	4431.78102
424.674	4286.95076
425.172	3986.46411
425.669	3757.95194
426.167	3518.95959
426.664	3148.17379
427.161	2937.4749
427.659	2670.9451
428.156	2521.41351
428.652	2410.37124
429.149	2229.15923
429.646	2214.88591
430.143	1994.17049
430.639	1904.13438
431.135	1772.31904
431.632	1780.11495
432.128	1519.02808
432.624	1453.25748
433.12	1409.88114
433.616	1358.77704
434.111	1438.11624
434.607	1266.96516
435.103	1285.70015
435.598	1238.58896
436.093	1161.81745
436.588	1095.65631
437.083	1074.70341
437.578	944.51437
438.073	926.73204
438.568	891.62915
439.062	877.38619
439.557	834.48141
440.051	779.37885
440.546	731.32327
441.04	723.37939
441.534	687.38481
442.028	712.34556
442.522	694.33326
443.015	715.25678
443.509	719.42219
444.002	691.36672
444.496	612.08801
444.989	611.22576
445.482	611.25172
445.975	677.25277
446.468	634.13829
446.961	561.98497
447.454	641.21026
447.947	536.06242
448.439	553.12506
448.931	476.90447
449.424	496.0586
449.916	508.04203
450.408	506.96289
450.9	439.90594
451.392	501.07229
451.884	456.90025
452.375	453.96544
452.867	386.74953
453.358	391.77718
453.849	439.81324
454.341	382.74424
454.832	372.70718
455.323	422.90192
455.814	391.78443
456.304	431.86308
456.795	420.84825
457.285	388.75485
457.776	363.71984
458.266	365.77488
458.756	400.85528
459.247	345.73849
459.737	409.87623
460.226	375.75476
460.716	310.6686
461.206	354.76349
461.695	359.80824
462.185	382.80973
462.674	294.61586
463.163	388.77535
463.653	300.58114
464.142	327.71539
464.63	279.61967
465.119	288.61156
465.608	314.66764
466.096	334.67271
466.585	328.69406
467.073	274.60363
467.561	269.59721
468.05	311.66457
468.538	290.65492
469.026	254.56074
469.513	215.42775
470.001	337.72667
470.489	298.66887
470.976	226.48514
471.463	267.61809
471.951	226.52433
472.438	254.56168
472.925	236.53037
473.412	208.48009
473.899	211.46026
474.385	210.49011
474.872	188.41887
475.359	241.56189
475.845	186.37773
476.331	224.46819
476.817	214.49276
477.303	224.49659
477.789	168.38962
478.275	218.51537
478.761	208.48334
479.247	159.34316
479.732	172.41449
480.218	162.40173
480.703	130.31245
481.188	115.24053
481.673	141.31526
482.158	139.29832
482.643	136.33541
483.128	178.40004
483.612	139.31745
484.097	180.42603
484.581	102.23055
485.066	151.35913
485.55	126.27328
486.034	109.23565
486.518	90.2065
487.002	149.36225
487.486	152.3638
487.969	125.29912
488.453	53.13136
488.936	73.1647
489.42	125.2751
489.903	78.19187
490.386	102.17204
490.869	89.1925
491.352	40.09596
491.835	46.09615
492.318	118.26683
492.8	116.24504
493.283	62.15555
493.765	94.22935
494.247	99.22865
494.73	67.14739
495.212	48.11383
495.694	76.1778
496.175	45.10736
496.657	77.18074
497.139	50.08995
497.62	39.09365
498.102	96.2385
498.583	61.15252
499.064	19.04248
499.545	25.05767
500.026	12.02743
500.507	41.09605
500.988	68.16783
501.469	19.04785
501.949	72.17469
502.43	45.10805
502.91	46.09751
503.39	19.04742
503.87	26.06178
504.35	-2.00474
504.83	44.09791
505.31	23.05588
505.79	29.07019
506.269	-7.01651
506.749	-3.00696
507.228	20.04743
507.707	18.04022
508.187	7.01674
508.666	-26.06401
509.145	-31.07387
509.623	45.10707
510.102	-16.03917
510.581	-43.10396
511.059	14.03545
511.538	-8.02057
512.016	93.22314
512.494	2.00495
512.972	-44.10563
513.45	0
513.928	-4.00986
514.406	31.0763
514.884	31.0796
515.361	-51.12297
515.839	2.00464
516.316	-15.03672
516.793	-18.04595
517.27	-14.03413
517.747	32.08264
518.224	-42.0986
518.701	-34.07773
519.178	-24.06008
519.654	-8.01914
520.131	-14.03488
520.607	-43.10736
521.083	-50.11743
521.56	-26.06202
522.036	-62.14026
522.512	-67.1663
522.987	-37.08972
523.463	-31.07512
523.939	-26.06377
524.414	-44.10398
524.89	18.04339
525.365	-54.1243
525.84	-21.05081
526.315	-45.11064
526.79	-27.06161
527.265	-24.05626
527.74	-67.16551
528.215	17.04127
528.689	-75.17122
529.164	-26.05824
529.638	21.05394
530.112	18.0429
530.587	-6.01331
531.061	-38.09382
531.534	30.07339
532.008	-29.07135
532.482	-54.12559
532.956	-52.13383
533.429	-24.05841
533.903	-56.12617
534.376	7.01591
534.849	-99.23428
535.322	-62.14992
535.795	-43.10588
536.268	-11.02685
536.741	-50.12113
537.213	-20.04677
537.686	-33.08131
538.158	-44.10201
538.631	-58.14131
539.103	1.0023
539.575	-95.20495
540.047	-8.01805
540.519	-45.1083
540.991	-45.11035
541.463	-58.14241
541.934	-60.13938
542.406	-46.11052
542.877	-88.20215
543.348	-131.3167
543.82	-45.11096
544.291	-72.16936
544.762	-18.04328
545.233	-62.15667
545.703	-80.1826
546.174	-40.09464
546.645	-35.08529
547.115	-4.00976
547.585	-80.1862
548.056	-30.07276
548.526	13.03075
548.996	22.05256
549.466	16.03869
549.935	-5.01198
550.405	8.01775
550.875	9.02135
551.344	29.06903
551.814	24.0554
552.283	44.09498
552.752	29.06679
553.221	1.0022
553.69	7.01549
554.159	66.16068
554.628	66.14827
555.096	57.14205
555.565	89.20023
556.033	58.13505
556.502	85.20387
556.97	57.1246
557.438	90.2089
557.906	138.31929
558.374	109.24693
558.842	116.27275
559.31	97.21599
559.777	104.24806
560.245	146.3296
560.712	142.31953
561.18	182.39372
561.647	139.30283
562.114	243.54218
562.581	202.47218
563.048	279.61271
563.514	251.58935
563.981	295.64184
564.448	323.67944
564.914	313.67811
565.381	369.77551
565.847	369.79805
566.313	423.91599
566.779	434.9107
567.245	427.90649
567.711	514.1151
568.176	460.93543
568.642	556.23911
569.108	606.31221
569.573	617.26233
570.038	671.21691
570.504	682.32717
570.969	716.51174
571.434	718.3311
571.899	735.49392
572.363	762.45288
572.828	757.4332
573.293	847.62186
573.757	934.72469
574.222	990.77377
574.686	957.73252
575.15	962.85616
575.614	1029.87073
576.078	1043.90965
576.542	1051.85495
577.006	1017.79291
577.469	1007.92134
577.933	1064.86579
578.396	1051.94942
578.86	1087.98441
579.323	1076.02266
579.786	1047.7379
580.249	1051.86939
580.712	1022.95612
581.175	1018.99904
581.637	968.75114
582.1	936.59619
582.563	947.60418
583.025	931.82585
583.487	912.49105
583.95	881.54853
584.412	877.46603
584.874	870.73856
585.336	844.65151
585.797	796.41741
586.259	817.58768
586.721	766.51494
587.182	726.4136
587.643	687.30489
588.105	675.33565
588.566	627.1081
589.027	638.31861
589.488	547.07895
589.949	607.26706
590.41	650.08655
590.87	536.04013
591.331	557.04161
591.791	459.94594
592.252	438.89029
592.712	455.95708
593.172	426.85879
593.632	415.79451
594.092	408.81116
594.552	387.73731
595.011	397.82369
595.471	382.77044
595.931	367.7356
596.39	410.89069
596.849	416.86677
597.308	314.60651
597.768	434.9984
598.227	366.79004
598.685	328.67947
599.144	375.79888
599.603	379.80951
600.062	389.74905
600.52	323.66148
600.978	377.81082
601.437	345.71485
601.895	299.57435
602.353	354.70249
602.811	388.7829
603.269	346.74463
603.727	409.8785
604.184	387.79183
604.642	367.80424
605.099	459.95699
605.557	413.89816
606.014	374.72831
606.471	393.8873
606.928	374.72623
607.385	443.96748
607.842	456.93701
608.299	530.07745
608.755	481.01254
609.212	487.96439
609.668	432.85607
610.125	497.04032
610.581	512.03558
611.037	490.96965
611.493	476.98472
611.949	458.97207
612.405	581.02823
612.861	520.05228
613.316	544.14365
613.772	469.93874
614.227	454.93458
614.683	517.96303
615.138	553.12914
615.593	563.14856
616.048	549.0961
616.503	502.05845
616.958	487.06562
617.412	495.03155
617.867	469.93613
618.321	556.01435
618.776	532.02203
619.23	512.05025
619.684	531.05862
620.138	454.91566
620.592	426.91875
621.046	401.8357
621.5	487.05036
621.954	447.89346
622.407	479.94233
622.861	448.97984
623.314	472.95021
623.768	402.84654
624.221	395.70507
624.674	383.79784
625.127	394.82787
625.58	342.69896
626.033	347.68843
626.485	395.86668
626.938	385.8241
627.39	401.84944
627.843	370.77367
628.295	334.70366
628.747	343.7507
629.199	313.65725
629.651	372.78302
630.103	335.71089
630.555	354.70281
631.006	305.66304
631.458	314.69464
631.909	268.57083
632.361	302.66056
632.812	265.57927
633.263	221.45137
633.714	306.6217
634.165	250.56437
634.616	224.50279
635.067	239.49389
635.518	298.66172
635.968	277.52259
636.419	259.52994
636.869	175.39225
637.319	295.65846
637.769	206.43954
638.219	263.59238
638.669	206.46771
639.119	162.37377
639.569	196.45348
640.019	188.41262
640.468	175.37769
640.918	200.45353
641.367	222.47964
641.816	169.35911
642.265	154.34084
642.714	152.33866
643.163	157.34741
643.612	167.39014
644.061	147.30241
644.51	141.31357
644.958	172.37018
645.406	147.34113
645.855	248.58446
646.303	207.46473
646.751	205.45059
647.199	162.35421
647.647	125.28018
648.095	217.47776
648.543	202.40647
648.99	207.47826
649.438	164.36661
649.885	154.36464
650.333	228.43046
650.78	195.45591
651.227	174.41199
651.674	187.4169
652.121	195.46002
652.568	187.44234
653.015	201.49031
653.461	138.32018
653.908	195.43653
654.354	182.42226
654.801	184.42808
655.247	182.38412
655.693	158.39695
656.139	234.54826
656.585	185.43422
657.031	205.47251
657.477	147.3174
657.922	173.39366
658.368	199.48036
658.813	231.51861
659.259	183.42903
659.704	177.40504
660.149	165.37971
660.594	225.51902
661.039	169.37693
661.484	179.4162
661.929	147.3368
662.373	200.49486
662.818	146.35609
663.262	150.3564
663.707	172.42481
664.151	171.40528
664.595	172.41292
665.039	152.37017
665.483	211.52847
665.927	156.35778
666.371	189.43824
666.814	186.43649
667.258	167.39198
667.701	224.47172
668.145	216.52287
668.588	181.43658
669.031	159.37349
669.474	177.41934
669.917	151.32995
670.36	149.3651
670.803	189.44846
671.245	256.53578
671.688	165.39302
672.13	181.40936
672.573	203.50109
673.015	188.44342
673.457	215.46581
673.899	194.46041
674.341	191.4518
674.783	161.38423
675.225	213.51648
675.666	200.47794
676.108	138.29611
676.549	206.47585
676.991	235.5124
677.432	286.57815
677.873	223.50722
678.314	174.41072
678.755	219.52684
679.196	201.46273
679.637	235.56167
680.078	232.53356
680.518	220.50111
680.959	197.45877
681.399	193.47045
681.839	237.56472
682.28	230.55968
682.72	238.5421
683.16	246.6004
683.6	229.50989
684.039	190.39255
684.479	195.47248
684.919	265.60884
685.358	222.54748
685.798	257.66331
686.237	218.51676
686.676	200.44984
687.115	231.53328
687.554	185.43778
687.993	245.53307
688.432	232.52246
688.871	269.60044
689.309	258.6059
689.748	259.53498
690.186	237.55561
690.625	258.59643
691.063	286.67295
691.501	288.6945
691.939	300.73272
692.377	270.64815
692.815	282.66019
693.253	280.65062
693.69	318.67997
694.128	307.72868
694.565	276.64159
695.003	266.65549
695.44	287.66386
695.877	283.64967
696.314	291.61105
696.751	293.64318
697.188	300.66478
697.625	304.66718
698.061	304.71419
698.498	351.81508
698.934	315.73324
699.371	324.74005
699.807	316.72526
700.243	325.75054
700.679	293.64507
701.115	305.68331
701.551	312.70661
701.987	340.73864
702.422	356.81607
702.858	309.71729
703.294	301.65128
703.729	353.82491
704.164	329.75857
704.599	368.78278
705.035	328.71166
705.47	301.70452
705.904	367.82828
706.339	342.7613
706.774	345.78308
707.209	358.80187
707.643	352.81046
708.078	367.84987
708.512	346.8337
708.946	326.74761
709.38	351.80154
709.814	380.84097
710.248	358.84102
710.682	339.78162
711.116	372.86708
711.549	395.97809
711.983	342.7654
712.416	394.88611
712.85	364.87174
713.283	324.73617
713.716	413.96961
714.149	358.81044
714.582	376.81406
715.015	381.90218
715.448	380.91386
715.881	333.68566
716.313	322.71649
716.746	334.76073
717.178	334.77669
717.61	364.87705
718.043	326.77957
718.475	318.73978
718.907	320.76844
719.339	343.75831
719.77	299.68969
720.202	344.83671
720.634	311.73732
721.065	329.75857
721.497	301.71829
721.928	297.712
722.359	283.67457
722.79	296.69458
723.221	267.64983
723.652	260.64659
724.083	292.6484
724.514	255.5699
724.945	242.55923
725.375	260.60105
725.806	217.52282
726.236	232.57529
726.666	249.58214
727.096	264.63808
727.526	223.55853
727.956	238.53991
728.386	306.73343
728.816	257.64877
729.246	231.55296
729.675	174.42406
730.105	194.4735
730.534	209.48461
730.964	177.44077
731.393	196.47446
731.822	172.42948
732.251	197.49555
732.68	196.45149
733.109	220.54075
733.537	168.40531
733.966	130.32238
734.395	170.39192
734.823	150.33849
735.251	118.28565
735.68	154.38161
736.108	154.38913
736.536	189.44742
736.964	124.28997
737.392	140.34946
737.82	91.21643
738.247	120.29039
738.675	145.34021
739.102	177.44445
739.53	100.25503
739.957	85.21879
740.384	110.26939
740.811	65.16574
741.238	105.25624
741.665	67.158
742.092	121.28911
742.519	75.18962
742.945	60.14607
743.372	102.25442
743.798	108.27843
744.225	69.16776
744.651	89.22461
745.077	71.17867
745.503	121.29803
745.929	59.14409
746.355	18.04421
746.781	55.13806
747.207	32.07694
747.632	82.2035
748.058	12.03026
748.483	88.20708
748.908	11.02791
749.334	68.17017
749.759	75.18125
750.184	48.11642
750.609	41.10136
751.033	30.07082
751.458	43.09781
751.883	-6.01499
752.307	45.1092
752.732	51.13132
753.156	69.17339
753.58	67.16039
754.005	49.12507
754.429	38.09151
754.853	28.07128
755.277	48.11453
755.7	53.13271
756.124	44.11098
756.548	43.10486
756.971	78.19265
757.394	26.06782
757.818	15.03931
758.241	41.10557
758.664	74.19071
759.087	28.06478
759.51	28.07048
759.933	-12.02948
760.356	42.10794
760.778	94.2371
761.201	24.05963
761.623	25.0618
762.046	8.01918
762.468	38.09227
762.89	7.01736
763.312	11.02717
763.734	40.09811
764.156	46.11561
764.578	-14.03298
765	61.1518
765.421	25.066
765.843	36.09528
766.264	-21.05138
766.686	1.00254
767.107	31.07709
767.528	10.02599
767.949	15.03844
768.37	14.0353
768.791	-6.01487
769.212	68.17488
769.632	25.06001
770.053	6.01607
770.473	19.04713
770.894	-11.02775
771.314	-2.00482
771.734	-6.01448
772.154	28.07291
772.575	18.04241
772.994	8.01873
773.414	66.15947
773.834	-18.0454
774.254	19.04785
774.673	16.03952
775.093	-4.01005
775.512	25.06339
775.931	18.04657
776.351	4.01014
776.77	-5.01268
777.189	-7.01712
777.607	-24.06213
778.026	-20.0507
778.445	-41.10488
778.864	-5.01292
779.282	19.04697
779.701	0
780.119	-13.03367
780.537	-13.03339
780.955	34.08723
781.373	-2.00502
781.791	-51.11882
782.209	-44.1031
782.627	-42.1125
783.045	-31.0737
783.462	-34.08836
783.88	5.01322
784.297	37.09494
784.715	2.00525
785.132	-23.05696
785.549	14.03587
785.966	-5.01276
786.383	-11.02765
786.8	-6.01409
787.217	6.0145
787.633	24.06153
788.05	-18.0429
788.466	22.05268
788.883	-36.09381
789.299	-30.07393
789.715	55.13627
790.131	16.04059
790.547	-27.06814
790.963	6.01518
791.379	10.02557
791.795	-67.15677
792.21	17.04073
792.626	-13.03136
793.041	-7.01766
793.457	2.00501
793.872	-14.03351
794.287	21.05213
794.702	-16.03988
795.117	39.0992
795.532	-12.03072
795.947	5.01219
796.362	-43.10376
796.776	-22.05179
797.191	28.07015
797.605	-36.08813
798.02	2.005
798.434	14.03168
798.848	7.01763
799.262	-4.01019
799.676	-16.03948
800.09	-87.21839
800.504	28.06906
800.918	-1.00238
801.331	-17.04478
801.745	-47.11002
802.158	12.03053
802.572	-24.05856
802.985	8.01964
803.398	12.02916
803.811	-17.04382
804.224	-19.04788
804.637	2.00486
805.05	19.04498
805.462	56.13979
805.875	19.05026
806.288	-86.21358
806.7	2.0051
807.112	-16.03802
807.525	-26.06516
807.937	-32.08121
808.349	-16.04037
808.761	-14.03468
809.173	2.00494
809.584	-71.17739
809.996	-19.04793
810.408	-30.07946
810.819	17.04122
811.231	8.02137
811.642	10.02502
812.053	35.08583
812.464	60.14498
812.875	39.10105
813.286	14.03622
813.697	-35.08145
814.108	-3.00738
814.519	-11.02484
814.929	9.02288
815.34	-36.08898
815.75	-19.04913
816.16	11.02763
816.571	-7.01851
816.981	-53.12659
817.391	31.07591
817.801	-17.04303
818.211	-23.05554
818.62	-8.01979
819.03	19.04721
819.44	12.03142
819.849	42.10689
820.259	-12.03082
820.668	28.06979
821.077	0
821.486	29.07098
821.895	4.00991
822.304	-8.02137
822.713	-46.11148
823.122	1.00251
823.531	-25.06003
823.939	-30.07472
824.348	-29.07183
824.756	-3.0076
825.164	-15.03796
825.573	4.0102
825.981	1.00247
826.389	25.06343
826.797	11.02819
827.205	37.08698
827.612	-41.10266
828.02	-6.0145
828.428	-31.07999
828.835	-12.03188
829.243	7.01683
829.65	-32.08112
830.057	-26.06372
830.464	-20.04942
830.871	-39.09436
831.278	-30.07388
831.685	-13.02974
832.092	8.01989
832.499	11.02457
832.905	-3.00766
833.312	1.00232
833.718	-10.02509
834.124	-14.03235
834.531	14.03555
834.937	-19.04928
835.343	8.01957
835.749	22.05167
836.155	-10.02659
836.561	-32.07962
836.966	-34.08429
837.372	29.0746
837.777	-34.08625
838.183	0
838.588	5.01261
838.993	5.01216
839.399	26.06511
839.804	-17.04247
840.209	-41.10686
840.613	-21.04794
841.018	-12.03081
841.423	-15.03893
841.828	-42.10794
842.232	-24.05984
842.637	23.05485
843.041	-35.09156
843.445	6.01525
843.849	11.02759
844.253	17.04065
844.657	-35.09034
845.061	-7.0161
845.465	41.10091
845.869	-33.07855
846.272	-6.01497
846.676	-67.16241
847.079	27.06967
847.483	-39.09818
847.886	-23.05661
848.289	-4.01081
848.692	-13.03314
849.095	-5.01219
849.498	-14.03541
849.901	-5.01166
850.304	-4.00961
850.707	-16.04114
851.109	14.03524
851.512	-6.01511
851.914	2.00522
852.316	3.00768
852.718	15.04005
853.121	36.08963
853.523	57.13734
853.925	0
854.326	-10.02555
854.728	-11.02871
855.13	-25.06549
855.531	29.07096
855.933	29.07024
856.334	-47.11959
856.736	34.07885
857.137	6.01427
857.538	32.0819
857.939	15.03796
858.34	-3.00741
858.741	-2.00528
859.142	-44.10748
859.542	4.01065
859.943	27.06838
860.343	22.05575
860.744	17.04172
861.144	20.0492
861.544	4.00993
861.945	-9.02333
862.345	4.00987
862.745	-12.03008
863.145	-2.00479
863.544	-24.06166
863.944	-10.02429
864.344	-27.06756
864.743	16.03968
865.143	30.07804
865.542	-36.08613
865.941	-37.09288
866.34	-21.05067
866.74	-2.0054
867.139	11.02667
867.537	5.01286
867.936	-18.04407
868.335	-2.00513
868.734	18.04647
869.132	-3.00708
869.531	-26.06268
869.929	-31.0735
870.327	44.10728
870.726	1.00249
871.124	-30.07079
871.522	-42.10828
871.92	28.06974
872.318	-50.1239
872.715	-62.15454
873.113	-16.03969
873.511	-48.11969
873.908	-45.11591
874.306	0
874.703	-18.04552
875.1	-27.06928
875.497	-12.02924
875.894	-20.05047
876.291	-37.0912
876.688	15.039
877.085	-1.00242
877.482	26.06561
877.878	-7.01724
878.275	-33.08503
878.671	-55.12298
879.068	1.00244
879.464	-2.00493
879.86	15.03622
880.256	-6.01491
880.652	6.01555
881.048	-22.05515
881.444	-22.05278
881.84	29.07444
882.236	-29.07382
882.631	-9.0223
883.027	-22.05346
883.422	19.0493
883.817	25.06426
884.213	17.04409
884.608	-24.06086
885.003	-1.00248
885.398	11.02793
885.793	1.00255
886.188	2.00509
886.582	51.13055
886.977	-24.05823
887.371	-43.10891
887.766	-42.10696
888.16	-3.00759
888.554	-32.07901
888.949	-7.01765
889.343	20.04918
889.737	-17.04616
890.131	7.01778
890.525	28.07254
890.918	47.11904
891.312	0
891.706	-5.01319
892.099	19.04843
892.492	19.04124
892.886	39.09726
893.279	31.08021
893.672	18.04636
894.065	13.03274
894.458	19.04776
894.851	-25.06131
895.244	23.05949
895.637	-4.00974
896.029	6.01497
896.422	37.0908
896.814	30.07586
897.206	-4.00972
897.599	-9.02231
897.991	1.00246
898.383	-64.15423
898.775	-15.03453
899.167	-32.0772
899.559	-20.05081
899.951	18.04308
900.342	48.12246
900.734	-13.03315
901.125	2.00533
901.517	-40.09952
901.908	6.01441
902.299	60.14939
902.69	-5.012
903.082	-48.11681
903.473	44.10712
903.863	-43.11076
904.254	-17.04
904.645	-22.05466
905.036	18.04433
905.426	27.06233
905.817	12.02988
906.207	21.05111
906.597	3.00714
906.987	-46.11937
907.378	-25.0639
907.768	18.04793
908.158	-18.04456
908.547	1.00264
908.937	10.02554
909.327	-23.05653
909.717	-15.03814
910.106	24.05886
910.495	-25.06289
910.885	2.00513
911.274	23.05803
911.663	-5.01273
912.052	-9.02228
912.441	12.03099
912.83	3.00706
913.219	-34.08951
913.608	-65.16046
913.997	-3.00768
914.385	23.05569
914.774	26.06372
915.162	-11.02689
915.55	-35.08538
915.939	14.0357
916.327	-41.10244
916.715	41.10645
917.103	3.00743
917.491	16.03985
917.878	39.09691
918.266	-37.09676
918.654	-26.06724
919.041	-54.1434
919.429	-37.08851
919.816	47.11929
920.203	-7.01721
920.591	15.03723
920.978	-6.01483
921.365	0
921.752	-17.04104
922.139	18.03941
922.525	47.11598
922.912	-5.01229
923.299	37.09371
923.685	-13.03411
924.072	-19.04444
924.458	-9.02262
924.844	21.053
925.231	1.00237
925.617	21.05464
926.003	-16.04128
926.389	-25.0637
926.774	-7.01794
927.16	6.01505
927.546	4.01033
927.931	52.13069
928.317	-2.00468
928.702	36.08491
929.088	17.04136
929.473	18.0462
929.858	23.05715
930.243	-41.10065
930.628	-34.08524
931.013	-32.08077
931.398	-16.03676
931.783	-58.15325
932.167	-22.0542
932.552	-13.03254
932.937	25.06212
933.321	-14.03589
933.705	-15.03823
934.09	-15.0375
934.474	2.00482
934.858	-75.1968
935.242	-40.09457
935.626	-9.02338
936.009	18.04828
936.393	-33.08462
936.777	-24.0617
937.16	-14.03697
937.544	-29.06871
937.927	-40.10305
938.311	17.04163
938.694	-12.03169
939.077	4.00977
939.46	-16.03934
939.843	1.00211
940.226	5.013
940.609	8.01888
940.991	24.06181
941.374	-44.10955
941.757	28.06982
942.139	-63.1451
942.522	-10.02372
942.904	-3.00726
943.286	-13.03325
943.668	26.06801
944.05	8.02004
944.432	12.03023
944.814	19.04764
945.196	12.03008
945.578	-20.04929
945.959	-4.00952
946.341	15.03651
946.722	-53.12615
947.104	-38.09199
947.485	-1.00239
947.866	6.01538
948.247	-18.04618
948.628	32.0784
949.009	-22.05735
949.39	-53.13357
949.771	6.01413
950.152	14.03479
950.532	1.00252
950.913	29.07127
951.293	15.04104
951.674	9.02196
952.054	-41.10344
952.434	-13.03254
952.814	-47.11187
953.194	-18.04689
953.574	-18.04448
953.954	4.00965
954.334	-9.02267
954.714	-35.08732
955.093	-28.06878
955.473	-37.09418
955.853	-35.09116
956.232	-32.08782
956.611	-43.104
956.99	-38.09578
957.37	-47.12144
957.749	-19.04595
958.128	-29.07379
958.506	-14.03684
958.885	-21.0537
959.264	7.01754
959.643	24.05566
960.021	0
960.4	-14.03224
960.778	-39.09642
961.156	-41.10517
961.535	1.00236
961.913	16.03786
962.291	10.02609
962.669	-76.19382
963.047	6.01546
963.424	31.07932
963.802	-21.05226
964.18	9.02278
964.557	7.01639
964.935	-33.07897
965.312	61.1598
965.69	29.07287
966.067	4.00983
966.444	18.04448
966.821	-23.05941
967.198	-9.02179
967.575	-46.11408
967.952	-14.03292
968.329	-4.00984
968.705	9.01983
969.082	-6.01572
969.458	-59.14543
969.835	-67.16479
970.211	18.04665
970.587	2.00501
970.963	2.00516
971.339	-13.03432
971.715	-23.05823
972.091	-20.05005
972.467	-4.01004
972.843	7.01772
973.219	-11.02646
973.594	-22.05846
973.97	26.06218
974.345	-10.0244
974.721	14.03408
975.096	4.00983
975.471	-71.16886
975.846	51.12335
976.221	24.06207
976.596	-18.04412
976.971	-22.05446
977.346	-29.06844
977.72	-29.074
978.095	-64.16717
978.469	34.08113
978.844	13.03254
979.218	30.07339
979.593	-57.13765
979.967	-4.00991
980.341	-7.01647
980.715	-32.08135
981.089	12.03041
981.463	11.02567
981.837	11.02728
982.21	-20.04598
982.584	-4.00984
982.957	-37.09421
983.331	-3.00716
983.704	18.04487
984.078	-25.06235
984.451	5.01229
984.824	23.05728
985.197	-33.08146
985.57	-1.00253
985.943	-23.05682
986.316	15.03693
986.688	-31.07579
987.061	46.10875
987.434	-43.1131
987.806	-43.10521
988.179	15.03626
988.551	35.08909
988.923	-43.10654
989.295	27.06785
989.667	22.05414
990.039	-10.02513
990.411	27.06271
990.783	-40.09248
991.155	14.03455
991.527	-44.10792
991.898	-18.04537
992.27	9.02266
992.641	-6.01515
993.012	20.04745
993.384	13.03141
993.755	-16.04132
994.126	5.01212
994.497	4.01002
994.868	14.03238
995.239	4.0098
995.61	19.04852
995.98	-20.04972
996.351	7.01768
996.722	-5.01187
997.092	-60.14552
997.462	-33.08011
997.833	-50.11967
998.203	-22.05386
998.573	-32.08083
998.943	9.0215
999.313	-25.06028
999.683	-28.06824
1000.053	-4.0093
1000.423	-7.01709
1000.792	36.09435
1001.162	-11.02744
1001.531	21.05214
1001.901	18.045
1002.27	14.03188
1002.639	-3.00774
1003.009	5.01206
1003.378	-45.11636
1003.747	46.10926
1004.116	-11.02681
1004.485	-25.06012
1004.853	-7.01784
1005.222	32.08118
1005.591	17.0407
1005.959	63.14637
1006.328	27.06186
1006.696	-2.00486
1007.064	-2.00511
1007.433	-26.06521
1007.801	-10.02445
1008.169	16.04093
1008.537	12.02659
1008.905	14.03316
1009.273	1.00249
1009.64	-11.02688
1010.008	39.09358
1010.375	-20.04772
1010.743	43.09947
1011.11	20.04802
1011.478	-9.02235
1011.845	24.05663
1012.212	2.00464
1012.579	-9.02232
1012.946	23.05519
1013.313	-15.0357
1013.68	-10.02269
1014.047	0
1014.414	-16.03854
1014.78	-36.09061
1015.147	24.05786
1015.513	29.07038
1015.88	3.00768
1016.246	-6.01491
1016.612	-2.00464
1016.978	-14.03491
1017.344	7.01742
1017.71	-19.04597
1018.076	-16.03803
1018.442	-10.02586
1018.808	11.02778
1019.174	-16.04086
1019.539	42.09548
1019.905	-42.10079
1020.27	-6.01504
1020.636	30.07178
1021.001	22.05344
1021.366	-34.08256
1021.731	4.01035
1022.096	-59.15097
1022.461	-71.1699
1022.826	28.0674
1023.191	-23.06089
1023.556	5.01186
1023.92	-10.02464
1024.285	-8.01963
1024.649	-19.04687
1025.014	-14.03481
1025.378	-8.02045
1025.742	12.03005
1026.107	14.03192
1026.471	-22.05161
1026.835	-18.04478
1027.199	-2.00491
1027.562	1.00237
1027.926	-32.07881
1028.29	9.02324
1028.654	13.03037
1029.017	-9.0222
1029.381	26.06377
1029.744	-4.01036
1030.107	6.01414
1030.471	-9.02177
1030.834	-24.0554
1031.197	-16.03853
1031.56	-4.0095
1031.923	-5.01302
1032.286	-23.05394
1032.648	35.08433
1033.011	19.04475
1033.374	22.05145
1033.736	-18.04826
1034.099	27.06675
1034.461	17.0439
1034.823	-26.06584
1035.185	-21.05368
1035.548	-5.01234
1035.91	36.08728
1036.272	-5.01159
1036.634	13.03167
1036.995	-52.12375
1037.357	13.03188
1037.719	-49.12051
1038.08	-38.09057
1038.442	-29.06995
1038.803	45.109
1039.165	-43.10976
1039.526	-16.039
1039.887	0
1040.248	19.0479
1040.609	6.01483
1040.97	-20.05023
1041.331	-20.0509
1041.692	-3.00715
1042.053	26.05937
1042.413	-9.02113
1042.774	22.0536
1043.134	-17.04049
1043.495	-13.03291
1043.855	2.00488
1044.215	-4.00993
1044.576	23.056
1044.936	-44.1012
1045.296	22.0549
1045.656	-4.00991
1046.016	32.0775
1046.375	-4.00993
1046.735	4.00932
1047.095	28.06625
1047.454	-1.00212
1047.814	-48.11607
1048.173	-25.05973
1048.533	-4.00932
1048.892	6.01476
1049.251	-34.08607
1049.61	-8.01999
1049.969	-34.08085
1050.328	-5.01101
1050.687	9.02216
1051.046	20.04882
1051.405	-3.00753
1051.763	-16.03753
1052.122	6.01529
1052.48	-43.10654
1052.839	9.02143
1053.197	-37.08783
1053.555	-24.05418
1053.914	4.00988
1054.272	1.00242
1054.63	10.02493
1054.988	-20.04814
1055.345	-22.04867
1055.703	-30.07246
1056.061	6.01554
1056.419	1.00261
1056.776	-28.06822
1057.134	-26.06156
1057.491	-8.02017
1057.848	18.04503
1058.206	-1.00239
1058.563	-4.00902
1058.92	17.03936
1059.277	-18.04448
1059.634	55.13016
1059.991	-29.06934
1060.348	22.05114
1060.704	8.01933
1061.061	-54.12425
1061.418	-24.05954
1061.774	-29.07285
1062.131	-44.11797
1062.487	-1.00236
1062.843	-2.00504
1063.199	-22.0551
1063.555	-52.12308
1063.911	20.05101
1064.267	-7.01476
1064.623	-20.04956
1064.979	-82.19506
1065.335	-54.1289
1065.691	-12.0287
1066.046	-41.09133
1066.402	14.03244
1066.757	-71.18104
1067.112	-43.10541
1067.468	-17.04102
1067.823	9.02185
1068.178	-10.02434
1068.533	-29.07082
1068.888	46.11043
1069.243	-29.07264
1069.598	-11.02719
1069.952	5.0116
1070.307	-1.00252
1070.662	-18.04379
1071.016	7.0161
1071.371	-9.02079
1071.725	-12.0289
1072.079	-56.13597
1072.434	-8.01973
1072.788	4.00976
1073.142	-6.01484
1073.496	40.09767
1073.85	-20.04686
1074.203	-22.05332
1074.557	12.03213
1074.911	-4.00956
1075.265	-20.04706
1075.618	23.0564
1075.971	-2.00482
1076.325	0
1076.678	31.07308
1077.031	14.03235
1077.385	54.12027
1077.738	27.06261
1078.091	-15.03541
1078.444	51.11901
1078.796	-38.09475
1079.149	2.00499
1079.502	17.04094
1079.855	-7.01669
1080.207	-27.06692
1080.56	12.03144
1080.912	-17.042
1081.264	-8.01952
1081.617	-4.00999
1081.969	36.09204
1082.321	12.0298
1082.673	27.06343
1083.025	-26.06221
1083.377	-9.01952
1083.728	-5.0118
1084.08	14.03544
1084.432	11.02699
1084.783	-30.07057
1085.135	3.00761
1085.486	-22.05197
1085.838	11.02732
1086.189	-31.07669
1086.54	-27.06486
1086.891	-11.0284
1087.242	6.0147
1087.593	-2.00483
1087.944	37.08546
1088.295	-20.04569
1088.646	-24.05902
1088.996	5.0123
1089.347	-19.0472
1089.698	18.04369
1090.048	0
1090.398	2.00468
1090.749	-13.03131
1091.099	-16.04095
1091.449	-18.04509
1091.799	34.0861
1092.149	8.02014
1092.499	-44.10804
1092.849	-4.01026
1093.199	-20.0501
1093.548	-3.00727
1093.898	-10.02552
1094.248	-17.04376
1094.597	-64.16865
1094.947	5.0134
1095.296	29.07225
1095.645	-6.01565
1095.994	33.08032
1096.343	-37.09434
1096.692	28.07463
1097.041	-13.03573
1097.39	-14.0354
1097.739	-15.03899
1098.088	-33.08919
1098.437	-21.05602
1098.785	6.01633
1099.134	-8.02134
1099.482	-13.03585
1099.83	-50.13172
1100.179	-17.04491
1100.527	3.00806
1100.875	22.05848
1101.223	-13.03457
1101.571	7.01953
1101.919	5.01328
1102.267	-12.03398
1102.615	-4.01288
1102.962	-6.01932
1103.31	3.00966
1103.658	-2.00644
