Data from N2 R2  sample 12_Subt2__2__17-09-03-658.txt Node

Date: Wed Aug 27 17:09:03 PDT 2025
User: uwsun
Spectrometer: HDX01956
Trigger mode: 0
Integration Time (sec): 5.000000E-1
Scans to average: 1
Nonlinearity correction enabled: true
Boxcar width: 0
Storing dark spectrum: false
XAxis mode: Wavelengths
Number of Pixels in Spectrum: 2068
>>>>>Begin Spectral Data<<<<<
194.03	157.44771
194.578	181.57824
195.127	177.55811
195.676	165.52245
196.225	195.51927
196.773	193.53458
197.321	251.68842
197.87	382.95955
198.418	399.00796
198.966	368.94655
199.513	386.95599
200.061	383.96361
200.609	363.93743
201.156	391.8496
201.704	410.01977
202.251	371.96272
202.798	425.08595
203.345	398.96547
203.892	358.88732
204.438	392.92266
204.985	417.97212
205.532	387.99661
206.078	429.03081
206.624	410.99643
207.17	430.97734
207.716	450.07665
208.262	403.78273
208.808	415.00652
209.354	440.05068
209.899	370.91537
210.445	420.01848
210.99	425.00144
211.535	439.00518
212.08	406.93475
212.625	428.03792
213.17	390.95599
213.715	360.80535
214.259	358.82131
214.804	382.92841
215.348	393.88513
215.892	392.92015
216.436	408.91947
216.98	407.88474
217.524	402.92887
218.068	345.84651
218.612	421.03216
219.155	424.97151
219.698	368.85641
220.242	330.80357
220.785	390.89076
221.328	383.93414
221.871	325.79745
222.414	395.96125
222.956	333.79494
223.499	345.77005
224.041	414.94974
224.583	391.81776
225.126	394.85885
225.668	350.84397
226.21	345.85183
226.751	392.8505
227.293	344.77464
227.835	330.79215
228.376	382.86898
228.918	407.9945
229.459	375.92077
230	319.74401
230.541	410.92813
231.082	400.95099
231.622	408.93148
232.163	378.90147
232.704	414.0009
233.244	355.85165
233.784	364.8651
234.324	356.77669
234.864	361.80642
235.404	325.75621
235.944	345.80052
236.484	343.831
237.023	382.88828
237.563	387.87768
238.102	334.76473
238.641	341.84164
239.18	361.83499
239.719	369.90838
240.258	403.88163
240.797	405.95269
241.335	367.87574
241.874	330.64017
242.412	383.8964
242.95	406.9556
243.488	415.93276
244.026	379.85396
244.564	331.67296
245.102	385.86002
245.64	357.84569
246.177	338.74585
246.715	387.8983
247.252	395.87908
247.789	345.62919
248.326	372.88682
248.863	389.8395
249.4	397.86777
249.936	404.8268
250.473	379.86756
251.009	387.87697
251.546	424.92423
252.082	342.73318
252.618	362.80348
253.154	381.89486
253.69	418.92235
254.226	367.84347
254.761	402.88519
255.297	410.88841
255.832	336.77795
256.367	409.94598
256.903	390.84364
257.438	399.90158
257.972	410.90318
258.507	414.9387
259.042	363.76559
259.576	376.80293
260.111	384.8654
260.645	406.85007
261.179	392.88811
261.713	364.80019
262.247	373.84388
262.781	337.69671
263.315	377.89615
263.849	414.00315
264.382	369.82565
264.915	479.09036
265.449	399.95754
265.982	392.86897
266.515	412.97499
267.048	372.76545
267.58	374.79347
268.113	414.87832
268.646	435.03852
269.178	418.92505
269.71	353.74712
270.243	403.89428
270.775	459.12217
271.307	386.89828
271.838	401.91606
272.37	385.91938
272.902	422.93351
273.433	390.83715
273.965	436.01965
274.496	384.92068
275.027	412.99566
275.558	422.99286
276.089	437.04808
276.62	452.09623
277.15	447.05827
277.681	392.83419
278.211	462.08563
278.741	424.91678
279.272	393.88006
279.802	466.11754
280.332	449.02854
280.861	451.04387
281.391	407.90277
281.921	365.84893
282.45	434.04816
282.98	416.0437
283.509	439.96158
284.038	439.96685
284.567	455.00762
285.096	441.02108
285.625	380.83606
286.153	446.00958
286.682	515.13458
287.21	468.07707
287.739	498.12248
288.267	441.03076
288.795	463.16246
289.323	433.98117
289.851	473.04974
290.378	540.16313
290.906	486.14034
291.433	481.14022
291.961	464.02268
292.488	461.08475
293.015	487.09429
293.542	481.16776
294.069	516.21319
294.596	519.20912
295.122	507.15001
295.649	471.99073
296.175	520.20123
296.702	533.21592
297.228	480.10693
297.754	489.04882
298.28	476.04261
298.806	496.12161
299.332	518.10611
299.857	459.99648
300.383	492.17059
300.908	530.23696
301.433	497.14415
301.958	528.1708
302.483	535.27182
303.008	470.08814
303.533	527.29915
304.058	506.11868
304.582	537.21619
305.107	512.26652
305.631	534.14477
306.155	585.2858
306.679	561.24176
307.203	538.18112
307.727	580.30226
308.251	527.21091
308.775	568.26693
309.298	550.25349
309.822	561.32143
310.345	589.2946
310.868	567.26496
311.391	579.31303
311.914	619.45197
312.437	554.17187
312.96	616.3441
313.482	631.38238
314.005	593.39959
314.527	600.45675
315.049	628.45733
315.571	639.31802
316.093	631.43513
316.615	607.34873
317.137	591.19376
317.659	616.35884
318.18	631.39051
318.702	682.46691
319.223	606.15777
319.744	708.44976
320.265	686.51467
320.786	731.6433
321.307	721.6294
321.828	717.45265
322.348	691.46113
322.869	699.51285
323.389	706.08467
323.909	717.49302
324.43	751.59644
324.95	766.57079
325.47	760.67887
325.989	730.54133
326.509	834.6373
327.029	808.61974
327.548	750.50817
328.067	832.77986
328.587	807.74083
329.106	882.77395
329.625	854.94138
330.144	776.5727
330.662	832.6986
331.181	881.76584
331.7	843.70514
332.218	876.63431
332.736	807.63374
333.255	932.86002
333.773	866.75531
334.291	901.89811
334.808	906.71291
335.326	956.81552
335.844	1015.97959
336.361	1001.12743
336.879	1037.02871
337.396	984.98384
337.913	1070.06047
338.43	1008.87181
338.947	1037.04586
339.464	1033.84486
339.981	1063.06601
340.497	1082.1731
341.014	1121.22016
341.53	1063.95415
342.046	1110.19171
342.562	1125.23533
343.078	1121.11931
343.594	1203.27257
344.11	1159.1701
344.626	1132.27889
345.141	1158.05849
345.657	1144.99607
346.172	1224.31403
346.687	1206.1662
347.202	1238.17078
347.717	1254.29516
348.232	1294.50359
348.747	1232.1962
349.261	1296.13983
349.776	1252.28004
350.29	1336.52514
350.805	1379.57956
351.319	1358.35624
351.833	1355.3196
352.347	1308.32747
352.861	1401.43315
353.374	1368.3041
353.888	1283.29978
354.401	1425.41296
354.915	1438.41101
355.428	1449.63561
355.941	1481.46817
356.454	1431.26932
356.967	1409.41256
357.48	1391.30463
357.993	1424.54909
358.505	1484.62729
359.018	1557.70706
359.53	1476.4992
360.042	1606.41798
360.554	1534.56892
361.066	1576.70675
361.578	1581.33554
362.09	1637.66088
362.602	1563.32116
363.113	1610.53635
363.625	1586.39883
364.136	1654.40296
364.647	1650.56604
365.158	1668.60031
365.669	1697.73037
366.18	1766.68407
366.691	1654.38685
367.201	1811.75099
367.712	1739.59534
368.222	1762.54667
368.733	1701.34996
369.243	1851.51907
369.753	1781.55964
370.263	1910.85879
370.773	1946.01979
371.282	1958.79899
371.792	1952.68598
372.301	2068.95597
372.811	2117.2531
373.32	2005.45155
373.829	2009.71113
374.338	2184.57734
374.847	2188.68428
375.356	2271.79105
375.865	2434.37688
376.373	2522.58377
376.882	2557.09005
377.39	2584.85282
377.898	2676.99212
378.407	2856.55425
378.915	2875.18192
379.423	3053.53591
379.93	3196.25606
380.438	3267.58359
380.946	3519.19832
381.453	3650.30283
381.96	3735.0447
382.468	4087.7619
382.975	4243.78849
383.482	4410.35004
383.989	4516.92565
384.495	4734.14861
385.002	4875.49146
385.509	5090.77025
386.015	5492.90292
386.521	5602.16167
387.028	5844.08453
387.534	6051.85165
388.04	6270.13802
388.546	6485.99475
389.051	6718.0047
389.557	7403.66436
390.063	7820.27066
390.568	8392.2845
391.073	8587.99709
391.578	8880.71542
392.084	9215.13342
392.589	9343.16524
393.093	9991.64368
393.598	10921.84087
394.103	11996.00422
394.607	13094.49018
395.112	14235.07442
395.616	15283.05675
396.12	16569.99856
396.624	18493.1949
397.128	19930.45822
397.632	22133.93227
398.136	24108.26452
398.639	25186.59087
399.143	27749.4786
399.646	31393.26628
400.15	34763.82078
400.653	37936.36511
401.156	42755.35486
401.659	49645.437
402.162	52658.32378
402.664	47275.14456
403.167	32260.27245
403.67	3851.94142
404.172	0
404.674	0
405.176	0
405.678	0
406.18	0
406.682	0
407.184	0
407.686	12367.42319
408.187	34596.90747
408.688	44563.94194
409.19	48906.19284
409.691	51236.67962
410.192	52883.26968
410.693	53713.23343
411.194	54189.54801
411.694	54767.79104
412.195	55625.98899
412.696	55971.27715
413.196	55390.07896
413.696	53538.34703
414.196	54151.21136
414.696	53388.65023
415.196	51016.09251
415.696	47471.95496
416.196	39370.27867
416.695	30931.94098
417.195	25693.88068
417.694	24212.2622
418.194	22970.07568
418.693	21318.68518
419.192	20654.32146
419.691	20282.80692
420.19	19730.03303
420.688	19094.45411
421.187	18514.33209
421.685	17298.26956
422.184	15834.46472
422.682	13866.61205
423.18	11704.9916
423.678	10459.66545
424.176	9572.39715
424.674	9119.61073
425.172	8684.03795
425.669	8281.0098
426.167	7674.02261
426.664	6960.30522
427.161	6382.17825
427.659	5954.51927
428.156	5419.07057
428.652	5250.23724
429.149	4927.14517
429.646	4872.8087
430.143	4605.40962
430.639	4285.58088
431.135	4097.08802
431.632	3866.85916
432.128	3472.15162
432.624	3319.73199
433.12	3232.11399
433.616	3160.01278
434.111	3002.56665
434.607	2894.59455
435.103	2827.06359
435.598	2687.95017
436.093	2613.53129
436.588	2513.3441
437.083	2403.47822
437.578	2235.36849
438.073	2167.87213
438.568	2053.7062
439.062	1959.19251
439.557	1986.52725
440.051	1839.39832
440.546	1811.41454
441.04	1798.56783
441.534	1721.6662
442.028	1652.42639
442.522	1606.42657
443.015	1661.22532
443.509	1631.55442
444.002	1541.455
444.496	1451.037
444.989	1468.3741
445.482	1468.43508
445.975	1557.26783
446.468	1505.11779
446.961	1373.91123
447.454	1423.18492
447.947	1288.11253
448.439	1391.29959
448.931	1281.96496
449.424	1303.30012
449.916	1340.24086
450.408	1312.01485
450.9	1222.08025
451.392	1195.17752
451.884	1225.98692
452.375	1218.16447
452.867	1164.84585
453.358	1117.84746
453.849	1106.71242
454.341	1095.7751
454.832	1084.70757
455.323	1071.96693
455.814	1013.74135
456.304	1048.80027
456.795	1140.92458
457.285	1040.71156
457.776	954.63134
458.266	988.8119
458.756	1013.87786
459.247	895.68672
459.737	1018.89323
460.226	977.69447
460.716	920.72333
461.206	919.74049
461.695	899.79782
462.185	909.70395
462.674	843.55052
463.163	886.56587
463.653	907.5031
464.142	856.66161
464.63	806.59193
465.119	781.47872
465.608	792.50725
466.096	852.51111
466.585	807.52729
467.073	798.56285
467.561	716.43972
468.05	725.40864
468.538	720.481
469.026	695.39069
469.513	667.18632
470.001	721.42482
470.489	792.59493
470.976	659.28082
471.463	644.37678
471.951	640.36055
472.438	600.22888
472.925	659.35021
473.412	594.26319
473.899	590.18165
474.385	604.29785
474.872	577.17983
475.359	606.30886
475.845	537.00165
476.331	554.07154
476.817	553.1848
477.303	543.12174
477.789	497.07518
478.275	483.08085
478.761	533.15663
479.247	473.952
479.732	461.04762
480.218	436.02442
480.703	463.03985
481.188	387.76062
481.673	388.82316
482.158	479.95254
482.643	448.03875
483.128	440.9355
483.612	434.93198
484.097	420.94767
484.581	426.89904
485.066	422.95101
485.55	392.80188
486.034	352.72136
486.518	323.70634
487.002	419.96679
487.486	351.808
487.969	343.78643
488.453	290.68741
488.936	337.71919
489.42	373.77805
489.903	303.7142
490.386	304.48466
490.869	257.53585
491.352	258.59311
491.835	269.53443
492.318	288.62861
492.8	306.61943
493.283	252.61046
493.765	265.62586
494.247	283.62959
494.73	233.49467
495.212	203.46697
495.694	224.50878
496.175	241.55326
496.657	238.54101
497.139	222.3818
497.62	235.54316
498.102	248.59896
498.583	242.58514
499.064	156.33892
499.545	254.5591
500.026	203.44619
500.507	196.44518
500.988	203.48853
501.469	190.46374
501.949	192.45531
502.43	195.45483
502.91	222.45248
503.39	180.43606
503.87	168.38823
504.35	142.32685
504.83	149.32434
505.31	143.33958
505.79	148.35016
506.269	119.27375
506.749	143.32237
507.228	163.37586
507.707	121.26462
508.187	169.39171
508.666	94.22627
509.145	136.31366
509.623	143.33381
510.102	139.33046
510.581	140.32675
511.059	181.44466
511.538	111.27953
512.016	188.4429
512.494	171.41013
512.972	79.18521
513.45	130.30018
513.928	125.30072
514.406	132.31882
514.884	137.34525
515.361	80.18811
515.839	155.34899
516.316	149.35355
516.793	124.30862
517.27	99.23627
517.747	141.35723
518.224	86.19685
518.701	129.28521
519.178	104.25432
519.654	88.20668
520.131	119.28932
520.607	104.25271
521.083	53.12197
521.56	80.18693
522.036	120.26138
522.512	68.16462
522.987	102.24086
523.463	104.24559
523.939	83.19945
524.414	100.22972
524.89	88.20934
525.365	59.13274
525.84	81.1922
526.315	90.21574
526.79	93.20708
527.265	106.24213
527.74	36.08725
528.215	145.34353
528.689	82.18126
529.164	78.17098
529.638	129.32509
530.112	88.20692
530.587	125.26978
531.061	73.17655
531.534	111.26744
532.008	96.23073
532.482	63.14313
532.956	34.08619
533.429	92.21902
533.903	58.12762
534.376	101.22517
534.849	50.11491
535.322	80.18825
535.795	45.109
536.268	63.15168
536.741	25.05971
537.213	23.05333
537.686	43.10447
538.158	60.13623
538.631	-9.02173
539.103	63.1433
539.575	40.08379
540.047	73.16201
540.519	55.12985
540.991	41.09894
541.463	46.11077
541.934	16.03661
542.406	38.08984
542.877	53.11831
543.348	29.06799
543.82	17.04144
544.291	72.1646
544.762	62.14681
545.233	67.16539
545.703	52.11552
546.174	99.22792
546.645	113.26772
547.115	96.22977
547.585	6.01373
548.056	53.12654
548.526	93.21659
548.996	86.20293
549.466	107.25429
549.935	107.25096
550.405	102.22189
550.875	154.35503
551.344	81.19087
551.814	119.26947
552.283	68.14604
552.752	67.15314
553.221	142.30378
553.69	129.27818
554.159	91.2205
554.628	140.30973
555.096	136.33405
555.565	171.37823
556.033	89.20596
556.502	122.29055
556.97	56.12244
557.438	48.11234
557.906	60.14097
558.374	51.1169
558.842	59.14027
559.31	63.14127
559.777	4.00972
560.245	0
560.712	-20.0465
561.18	30.06701
561.647	-1.00224
562.114	64.14808
562.581	-14.03411
563.048	39.08997
563.514	55.13407
563.981	37.08491
564.448	-18.0407
564.914	-10.02316
565.381	-7.01593
565.847	-19.04449
566.313	25.05873
566.779	22.05036
567.245	-31.07237
567.711	43.10278
568.176	-6.0135
568.642	7.01739
569.108	26.06332
569.573	11.02562
570.038	11.02333
570.504	29.06527
570.969	12.02926
571.434	-36.07938
571.899	33.07785
572.363	-1.00226
572.828	10.02241
573.293	96.21735
573.757	78.17501
574.222	85.18793
574.686	39.0872
575.15	67.15708
575.614	96.21602
576.078	53.12134
576.542	66.14656
577.006	78.17141
577.469	6.01423
577.933	98.21563
578.396	81.18663
578.86	90.20583
579.323	74.17353
579.786	47.0997
580.249	-27.06149
580.712	87.20421
581.175	86.20599
581.637	43.09622
582.1	-17.03649
582.563	77.16141
583.025	42.09968
583.487	51.10364
583.95	49.10503
584.412	32.066
584.874	54.12836
585.336	63.14614
585.797	64.13573
586.259	63.14452
586.721	15.03491
587.182	78.17544
587.643	49.10766
588.105	18.04113
588.566	8.01645
589.027	83.19307
589.488	72.15809
589.949	104.24158
590.41	106.20396
590.87	36.07831
591.331	51.10747
591.791	76.1701
592.252	25.0556
592.712	30.069
593.172	107.23153
593.632	66.13703
594.092	76.1628
594.552	99.20183
595.011	102.22557
595.471	164.34734
595.931	85.18148
596.39	233.52524
596.849	222.48251
597.308	170.33972
597.768	216.51854
598.227	202.45136
598.685	195.41598
599.144	280.60882
599.603	296.64361
600.062	320.62641
600.52	289.59641
600.978	371.79894
601.437	362.74722
601.895	325.62038
602.353	411.80474
602.811	459.91107
603.269	485.01067
603.727	470.99623
604.184	561.10092
604.642	547.15123
605.099	604.21699
605.557	639.32098
606.014	640.16618
606.471	679.44137
606.928	731.29773
607.385	787.59175
607.842	906.67205
608.299	916.70065
608.755	928.76397
609.212	912.62616
609.668	987.70283
610.125	1017.88716
610.581	1001.80134
611.037	1068.82889
611.493	1065.9129
611.949	1036.92106
612.405	1136.72739
612.861	1172.02249
613.316	1116.05304
613.772	1109.89277
614.227	1134.97856
614.683	1215.87728
615.138	1150.03371
615.593	1265.17512
616.048	1188.02534
616.503	1164.10113
616.958	1210.24648
617.412	1253.17721
617.867	1190.98119
618.321	1309.94599
618.776	1123.8564
619.23	1167.04417
619.684	1232.06263
620.138	1135.93317
620.592	1114.04628
621.046	1152.00044
621.5	1101.06423
621.954	1091.85696
622.407	1125.87917
622.861	1047.99875
623.314	1053.83729
623.768	996.82295
624.221	953.45852
624.674	918.68411
625.127	939.73524
625.58	908.61735
626.033	894.54727
626.485	846.67806
626.938	829.60263
627.39	833.59655
627.843	790.49688
628.295	703.35934
628.747	736.47523
629.199	721.37624
629.651	735.422
630.103	687.34421
630.555	706.2854
631.006	667.33643
631.458	694.41144
631.909	604.19076
632.361	644.30486
632.812	581.18319
633.263	604.12495
633.714	566.08016
634.165	557.17643
634.616	525.1034
635.067	475.92962
635.518	555.16451
635.968	515.91508
636.419	491.95185
636.869	463.97604
637.319	594.24181
637.769	494.98809
638.219	503.07519
638.669	460.99036
639.119	465.00583
639.569	462.01018
640.019	452.93675
640.468	418.85506
640.918	453.97424
641.367	450.92468
641.816	445.88864
642.265	464.96032
642.714	481.9984
643.163	456.94588
643.612	423.93825
644.061	439.84371
644.51	438.91382
644.958	483.96989
645.406	456.99312
645.855	532.18213
646.303	474.00369
646.751	470.97535
647.199	441.90721
647.647	427.8974
648.095	452.94595
648.543	553.02136
648.99	511.10693
649.438	465.97466
649.885	465.03238
650.333	522.91478
650.78	491.07891
651.227	510.1266
651.674	507.05333
652.121	472.0512
652.568	503.11458
653.015	533.2169
653.461	414.90779
653.908	480.00932
654.354	501.08662
654.801	512.11169
655.247	439.87422
655.693	455.07932
656.139	476.06013
656.585	443.9871
657.031	472.02774
657.477	432.87569
657.922	463.99146
658.368	469.07186
658.813	490.03944
659.259	413.92446
659.704	481.03119
660.149	424.92501
660.594	431.95321
661.039	428.90326
661.484	430.95001
661.929	457.98157
662.373	464.08991
662.818	440.01171
663.262	432.97036
663.707	460.07336
664.151	417.94109
664.595	469.05981
665.039	441.01341
665.483	464.10641
665.927	430.93174
666.371	453.99517
666.814	520.1382
667.258	463.02154
667.701	457.91303
668.145	512.16771
668.588	492.11436
669.031	520.13293
669.474	488.08421
669.917	470.9575
670.36	475.09082
670.803	514.14065
671.245	547.06935
671.688	469.04947
672.13	558.16283
672.573	494.15147
673.015	529.16255
673.457	549.1027
673.899	566.24425
674.341	550.20801
674.783	545.20228
675.225	562.27057
675.666	547.21777
676.108	505.9977
676.549	555.19063
676.991	533.08676
677.432	638.18428
677.873	542.15095
678.314	534.16987
678.755	591.31857
679.196	536.14907
679.637	561.25465
680.078	568.2162
680.518	517.10469
680.959	503.09838
681.399	544.23631
681.839	529.18736
682.28	512.17756
682.72	561.19213
683.16	550.26357
683.6	537.11726
684.039	552.04625
684.479	536.2127
684.919	594.2725
685.358	540.25095
685.798	592.4357
686.237	540.19794
686.676	513.07766
687.115	582.2473
687.554	576.25724
687.993	559.13315
688.432	543.1428
688.871	590.22744
689.309	629.36757
689.748	590.1266
690.186	634.36824
690.625	625.33698
691.063	599.32102
691.501	651.45916
691.939	618.41714
692.377	686.51341
692.815	610.3338
693.253	635.36952
693.69	617.23211
694.128	602.34508
694.565	620.34084
695.003	622.42917
695.44	678.44393
695.877	667.41094
696.314	654.26172
696.751	667.34691
697.188	643.32094
697.625	662.34138
698.061	664.44773
698.498	687.48685
698.934	670.44787
699.371	666.41405
699.807	677.43899
700.243	688.47159
700.679	676.36667
701.115	708.45237
701.551	715.48423
701.987	729.45075
702.422	736.55604
702.858	747.58104
703.294	683.35529
703.729	697.51622
704.164	693.47942
704.599	665.32136
705.035	728.44304
705.47	695.49842
705.904	762.57874
706.339	729.49046
706.774	779.61005
707.209	769.57446
707.643	736.56215
708.078	768.63437
708.512	719.60707
708.946	789.63874
709.38	818.6896
709.814	811.63137
710.248	791.69829
710.682	788.65156
711.116	855.80036
711.549	811.85142
711.983	776.57914
712.416	778.60977
712.85	803.75878
713.283	811.6583
713.716	842.80824
714.149	827.69105
714.582	860.6678
715.015	881.88109
715.448	825.81305
715.881	747.39358
716.313	787.58013
716.746	812.66821
717.178	858.78574
717.61	844.84513
718.043	854.83245
718.475	796.67421
718.907	847.82638
719.339	846.67182
719.77	826.70233
720.202	824.82031
720.634	881.85514
721.065	858.76676
721.497	846.80438
721.928	877.86609
722.359	869.83466
722.79	838.75489
723.221	813.77247
723.652	836.85603
724.083	854.67268
724.514	841.6499
724.945	837.70226
725.375	857.74297
725.806	804.71771
726.236	806.78423
726.666	870.78267
727.096	840.80549
727.526	885.94575
727.956	913.78462
728.386	840.80471
728.816	884.97557
729.246	844.7799
729.675	788.69583
730.105	873.85597
730.534	821.66968
730.964	819.7961
731.393	834.77186
731.822	786.73922
732.251	812.81168
732.68	791.60277
733.109	852.84461
733.537	771.64396
733.966	816.76439
734.395	843.67949
734.823	784.53756
735.251	716.53418
735.68	775.69743
736.108	805.79199
736.536	800.6664
736.964	758.54877
737.392	750.66022
737.82	737.53131
738.247	729.55769
738.675	654.37889
739.102	730.64607
739.53	706.60293
739.957	707.61718
740.384	695.51314
740.811	678.53683
741.238	678.47391
741.665	696.43736
742.092	678.44393
742.519	613.39696
742.945	669.43923
743.372	648.45213
743.798	663.53952
744.225	642.38966
744.651	617.40609
745.077	611.38456
745.503	615.37331
745.929	610.33324
746.355	562.23803
746.781	587.3285
747.207	566.21974
747.632	581.30691
748.058	551.25148
748.483	614.29388
748.908	539.23555
749.334	601.35526
749.759	561.22833
750.184	485.07686
750.609	540.20936
751.033	508.08519
751.458	501.03158
751.883	526.18376
752.307	532.16989
752.732	540.26822
753.156	508.17254
753.58	486.06768
754.005	507.18622
754.429	455.00637
754.853	493.14846
755.277	464.01627
755.7	481.10814
756.124	458.06659
756.548	478.06811
756.971	471.07644
757.394	428.03637
757.818	443.07295
758.241	444.05985
758.664	450.08074
759.087	439.93236
759.51	391.91941
759.933	419.94637
760.356	416.99851
760.778	482.1283
761.201	424.97579
761.623	459.04138
762.046	360.80469
762.468	428.96256
762.89	362.83913
763.312	381.87669
763.734	360.8302
764.156	408.95806
764.578	347.75978
765	405.94416
765.421	402.99305
765.843	357.89339
766.264	318.72868
766.686	303.72832
767.107	371.86492
767.528	360.87856
767.949	300.72999
768.37	336.79795
768.791	378.87031
769.212	320.78649
769.632	292.66509
770.053	313.79544
770.473	276.65221
770.894	308.73232
771.314	312.70747
771.734	268.61314
772.154	302.7491
772.575	269.60267
772.994	235.52564
773.414	262.60953
773.834	203.49168
774.254	260.62628
774.673	251.59303
775.093	221.53265
775.512	213.5219
775.931	251.62297
776.351	217.52894
776.77	261.63024
777.189	255.59313
777.607	206.51195
778.026	217.52677
778.445	166.40909
778.864	152.38188
779.282	256.60519
779.701	254.62316
780.119	204.50845
780.537	210.51827
780.955	205.51011
781.373	200.48396
781.791	177.39379
782.209	174.39024
782.627	166.42928
783.045	177.4039
783.462	149.37495
783.88	217.55308
784.297	171.42845
784.715	183.46528
785.132	156.37365
785.549	191.47407
785.966	139.34577
786.383	156.38034
786.8	155.35242
787.217	125.29535
787.633	159.39796
788.05	114.26481
788.466	155.36168
788.883	155.39061
789.299	111.26643
789.715	178.43105
790.131	142.35214
790.547	101.24905
790.963	124.30716
791.379	109.2738
791.795	80.18179
792.21	139.32524
792.626	119.27986
793.041	140.34387
793.457	124.30379
793.872	86.2019
794.287	118.28769
794.702	112.27266
795.117	93.23429
795.532	75.18908
795.947	115.27467
796.362	114.2669
796.776	91.2095
797.191	131.32207
797.605	69.16562
798.02	142.34569
798.434	90.20053
798.848	80.19883
799.262	94.2354
799.676	82.19866
800.09	66.1611
800.504	79.19301
800.918	105.24501
801.331	85.22001
801.745	28.06458
802.158	68.17128
802.572	61.14647
802.985	115.27666
803.398	35.08468
803.811	88.22268
804.224	77.19071
804.637	72.17272
805.05	91.21243
805.462	115.28398
805.875	66.17322
806.288	23.05598
806.7	57.14406
807.112	53.12426
807.525	51.12604
807.937	39.09772
808.349	57.14195
808.761	5.01234
809.173	18.04431
809.584	4.00986
809.996	10.0251
810.408	13.03418
810.819	59.14194
811.231	60.15891
811.642	87.21461
812.053	132.31786
812.464	124.29599
812.875	110.28152
813.286	42.10813
813.697	6.01385
814.108	71.1723
814.519	24.05381
814.929	24.06086
815.34	61.14809
815.75	52.1328
816.16	24.06015
816.571	42.11012
816.981	-21.04985
817.391	94.22747
817.801	44.11015
818.211	12.02879
818.62	60.14656
819.03	31.07686
819.44	37.09646
819.849	48.12203
820.259	11.02814
820.668	33.08218
821.077	16.04063
821.486	38.09286
821.895	10.02474
822.304	3.008
822.713	37.08827
823.122	4.01005
823.531	4.00955
823.939	5.01237
824.348	72.17502
824.756	37.09311
825.164	-4.0101
825.573	14.03564
825.981	-7.01735
826.389	50.1263
826.797	6.01539
827.205	52.12189
827.612	35.08643
828.02	31.07441
828.428	15.0384
828.835	9.02382
829.243	10.02404
829.65	30.07521
830.057	-13.03178
830.464	35.08561
830.871	-2.00481
831.278	-11.02699
831.685	57.12855
832.092	39.09642
832.499	48.10642
832.905	14.03564
833.312	27.06224
833.718	-7.01755
834.124	-4.00923
834.531	28.07093
834.937	8.02065
835.343	67.1621
835.749	32.07501
836.155	20.05292
836.561	-27.06712
836.966	31.07593
837.372	18.04639
837.777	19.04775
838.183	7.0159
838.588	-16.04052
838.993	-5.01218
839.399	46.11478
839.804	-32.08017
840.209	-30.07804
840.613	3.00682
841.018	2.00512
841.423	-4.01036
841.828	-19.04863
842.232	-20.04983
842.637	19.04535
843.041	-25.06529
843.445	-4.01019
843.849	16.0401
844.253	-2.0048
844.657	-27.0696
845.061	4.00918
845.465	50.12286
845.869	29.0682
846.272	49.121
846.676	-39.09404
847.079	21.05424
847.483	-4.01001
847.886	7.01713
848.289	20.05384
848.692	-30.0767
849.095	31.07509
849.498	33.08278
849.901	-4.00932
850.304	-21.05062
850.707	-7.01797
851.109	6.01512
851.512	59.14682
851.914	63.16262
852.316	15.03832
852.718	61.16164
853.121	32.07973
853.523	83.199
853.925	37.09758
854.326	8.02037
854.728	3.00781
855.13	-29.07602
855.531	48.11703
855.933	2.00487
856.334	-31.07865
856.736	30.06963
857.137	9.02139
857.538	40.10223
857.939	28.0707
858.34	22.05406
858.741	43.11268
859.142	-8.01941
859.542	20.05311
859.943	58.14609
860.343	0
860.744	25.06126
861.144	-33.08197
861.544	38.09379
861.945	5.01293
862.345	15.03695
862.745	10.02497
863.145	-5.01198
863.544	22.05607
863.944	64.1533
864.344	-12.02994
864.743	7.01739
865.143	54.13989
865.542	2.00475
865.941	10.02489
866.34	7.0168
866.74	11.02964
867.139	6.01456
867.537	26.06663
867.936	3.00732
868.335	-27.0695
868.734	27.0696
869.132	-27.06402
869.531	-34.08209
869.929	61.14206
870.327	4.00983
870.726	9.02242
871.124	-4.00939
871.522	-9.02307
871.92	17.04243
872.318	-15.03693
872.715	2.00493
873.113	-29.07211
873.511	-65.16258
873.908	-39.10035
874.306	7.01774
874.703	31.0777
875.1	5.01276
875.497	22.05326
875.894	10.0251
876.291	-38.09368
876.688	-10.02611
877.085	-16.03884
877.482	23.05807
877.878	11.027
878.275	19.04852
878.671	-30.06673
879.068	17.04133
879.464	13.03196
879.86	61.14603
880.256	8.01983
880.652	38.09793
881.048	-10.02502
881.444	-27.06483
881.84	9.02318
882.236	31.07807
882.631	-9.0223
883.027	-25.06078
883.422	38.09827
883.817	29.07449
884.213	9.02338
884.608	24.06034
885.003	23.05674
885.398	8.02032
885.793	49.12371
886.188	28.07093
886.582	67.17102
886.977	26.06249
887.371	-55.1396
887.766	37.09291
888.16	56.14019
888.554	-19.0468
888.949	-10.02523
889.343	31.07608
889.737	27.07279
890.131	0
890.525	54.13927
890.918	14.03567
891.312	28.06702
891.706	27.07085
892.099	-14.03589
892.492	27.0585
892.886	52.12938
893.279	18.04668
893.672	47.12043
894.065	10.0252
894.458	6.01512
894.851	-19.04654
895.244	20.05176
895.637	11.02671
896.029	56.13842
896.422	-22.05458
896.814	51.12848
897.206	-29.07077
897.599	-7.01734
897.991	12.02949
898.383	4.00952
898.775	-8.01839
899.167	1.0024
899.559	14.03535
899.951	29.06926
900.342	17.04361
900.734	-35.08959
901.125	58.15325
901.517	-32.0795
901.908	43.10255
902.299	36.09003
902.69	2.00479
903.082	11.02647
903.473	19.04647
903.863	-31.07969
904.254	30.06994
904.645	-25.06214
905.036	-12.02972
905.426	8.01854
905.817	1.00249
906.207	20.04869
906.597	-7.01669
906.987	-23.05945
907.378	0
907.768	17.04527
908.158	40.09796
908.547	32.08418
908.937	-26.06682
909.327	27.06574
909.717	27.06814
910.106	53.12929
910.495	7.01751
910.885	37.09428
911.274	26.06556
911.663	13.03298
912.052	24.05906
912.441	35.09003
912.83	46.10732
913.219	0
913.608	-25.06126
913.997	21.05353
914.385	28.06773
914.774	24.05884
915.162	-26.06375
915.55	-19.04621
915.939	-20.05131
916.327	-8.01987
916.715	38.09872
917.103	34.0837
917.491	5.01248
917.878	51.12645
918.266	-30.07836
918.654	-2.00515
919.041	-33.08733
919.429	-19.04529
919.816	12.03065
920.203	-2.00491
920.591	-20.04996
920.978	8.01972
921.365	24.06327
921.752	24.05749
922.139	-3.0066
922.525	49.12087
922.912	32.07811
923.299	67.16879
923.685	-18.04727
924.072	12.0279
924.458	32.07985
924.844	37.09311
925.231	-9.0214
925.617	32.0831
926.003	23.05894
926.389	-2.00508
926.774	14.03575
927.16	4.01004
927.546	11.02838
927.931	58.14562
928.317	11.02565
928.702	5.01186
929.088	48.11611
929.473	2.00515
929.858	4.00997
930.243	15.03644
930.628	13.03232
931.013	-15.03775
931.398	11.02513
931.783	-13.03409
932.167	-18.04431
932.552	1.0025
932.937	24.05965
933.321	26.06619
933.705	-13.03312
934.09	-13.03249
934.474	28.06709
934.858	-28.07289
935.242	-34.08029
935.626	29.07483
936.009	59.15718
936.393	-20.05117
936.777	-46.11872
937.16	8.02105
937.544	-2.00471
937.927	-24.06166
938.311	23.05625
938.694	-27.07147
939.077	13.03169
939.46	-26.06405
939.843	26.05461
940.226	48.12388
940.609	27.06347
940.991	0
941.374	-43.10704
941.757	27.06734
942.139	8.01816
942.522	5.01182
942.904	-27.0656
943.286	5.01275
943.668	23.06019
944.05	21.05249
944.432	12.03023
944.814	14.03514
945.196	51.12696
945.578	17.04161
945.959	16.03794
946.341	15.03651
946.722	-8.01888
947.104	-26.0628
947.485	53.12542
947.866	-1.00257
948.247	9.02298
948.628	17.04177
949.009	3.00779
949.39	29.07201
949.771	53.12367
950.152	31.07681
950.532	-25.06323
950.913	31.07616
951.293	8.02191
951.674	32.07776
952.054	21.05239
952.434	-21.05264
952.814	-55.13111
953.194	-21.05473
953.574	-24.05937
953.954	62.148
954.334	-38.09623
954.714	2.00496
955.093	-18.04413
955.473	7.01768
955.853	-1.00259
956.232	-30.08231
956.611	-23.05542
956.99	-58.14672
957.37	11.02814
957.749	-52.12655
958.128	-36.09171
958.506	-20.05269
958.885	9.02289
959.264	24.05995
959.643	46.10622
960.021	15.03729
960.4	-2.00459
960.778	8.01961
961.156	-2.0051
961.535	-2.00472
961.913	-1.00237
962.291	3.00784
962.669	-45.11414
963.047	-10.02584
963.424	12.03081
963.802	-17.04227
964.18	-12.03048
964.557	28.0653
964.935	-19.04535
965.312	-3.00794
965.69	37.09284
966.067	4.00983
966.444	4.00991
966.821	9.02312
967.198	-23.05584
967.575	24.05876
967.952	-1.00235
968.329	-8.01969
968.705	26.05709
969.082	34.08845
969.458	0
969.835	8.0194
970.211	11.02854
970.587	-12.03014
970.963	16.04118
971.339	-42.11142
971.715	-18.04553
972.091	24.05958
972.467	39.09712
972.843	11.02783
973.219	45.10711
973.594	5.01323
973.97	30.07169
974.345	22.05336
974.721	-15.03672
975.096	46.1122
975.471	-55.13041
975.846	-20.04902
976.221	5.01297
976.596	12.02925
976.971	-9.02223
977.346	-6.0141
977.72	-41.10484
978.095	-23.05966
978.469	3.0072
978.844	11.02754
979.218	33.08068
979.593	-18.04315
979.967	34.08367
980.341	9.02111
980.715	-20.05074
981.089	58.14577
981.463	19.04427
981.837	5.01242
982.21	-48.11097
982.584	-29.07164
982.957	-40.1019
983.331	12.02856
983.704	17.04238
984.078	-31.0774
984.451	-20.0494
984.824	-4.01001
985.197	6.01471
985.57	17.04281
985.943	-12.02958
986.316	35.08586
986.688	12.0291
987.061	32.07586
987.434	-9.02354
987.806	-24.05852
988.179	8.01937
988.551	44.11182
988.923	-25.06174
989.295	44.11023
989.667	26.06393
990.039	-1.00251
990.411	-18.04218
990.783	-20.04605
991.155	22.05422
991.527	5.01215
991.898	7.01757
992.27	21.05275
992.641	-11.0278
993.012	48.11326
993.384	18.04344
993.755	10.02571
994.126	9.02181
994.497	9.02253
994.868	-34.07939
995.239	-9.0221
995.61	11.02813
995.98	2.00495
996.351	-11.02787
996.722	8.01895
997.092	-6.0144
997.462	44.10527
997.833	-1.00237
998.203	12.02919
998.573	-24.06054
998.943	35.08318
999.313	-44.10648
999.683	-26.06334
1000.053	7.01623
1000.423	1.00244
1000.792	17.0447
1001.162	-7.01745
1001.531	29.0719
1001.901	20.04998
1002.27	42.09509
1002.639	-11.0284
1003.009	-1.00241
1003.378	17.04348
1003.747	-4.00959
1004.116	0
1004.485	-40.09647
1004.853	8.02033
1005.222	8.02038
1005.591	21.05023
1005.959	31.07248
1006.328	36.08233
1006.696	-17.04143
1007.064	40.10144
1007.433	-13.03253
1007.801	15.03651
1008.169	26.0664
1008.537	-15.03343
1008.905	-25.05967
1009.273	35.08675
1009.64	-25.06126
1010.008	-4.00968
1010.375	-57.13697
1010.743	36.08339
1011.11	12.02885
1011.478	-20.04976
1011.845	36.08475
1012.212	37.08525
1012.579	-22.05468
1012.946	8.01925
1013.313	-3.00712
1013.68	1.00226
1014.047	7.01717
1014.414	-7.01683
1014.78	-44.11091
1015.147	23.05546
1015.513	21.05104
1015.88	16.04089
1016.246	24.05932
1016.612	28.06463
1016.978	25.0619
1017.344	4.00996
1017.71	-29.0703
1018.076	0
1018.442	13.03349
1018.808	10.02526
1019.174	25.06339
1019.539	40.09097
1019.905	-2.00476
1020.27	16.03994
1020.636	25.05987
1021.001	34.0824
1021.366	-28.06791
1021.731	-24.06241
1022.096	-47.12001
1022.461	-33.0784
1022.826	49.11748
1023.191	10.02633
1023.556	11.02606
1023.92	-2.00492
1024.285	16.03908
1024.649	-13.03203
1025.014	68.16653
1025.378	51.12899
1025.742	14.03505
1026.107	15.03419
1026.471	-18.04219
1026.835	-19.04728
1027.199	-22.05418
1027.562	72.16837
1027.926	-29.07138
1028.29	46.11802
1028.654	51.11826
1029.017	57.1389
1029.381	48.11725
1029.744	32.08236
1030.107	-12.02837
1030.471	-2.00483
1030.834	-23.05308
1031.197	-20.0482
1031.56	10.02368
1031.923	-1.0026
1032.286	-38.08939
1032.648	48.11537
1033.011	11.02595
1033.374	23.05378
1033.736	20.05329
1034.099	38.09375
1034.461	62.15884
1034.823	-2.00504
1035.185	0
1035.548	-3.0074
1035.91	61.1472
1036.272	15.03463
1036.634	24.05834
1036.995	-37.0878
1037.357	-29.07167
1037.719	4.00974
1038.08	10.02361
1038.442	-24.05784
1038.803	23.05594
1039.165	-34.08665
1039.526	-25.06103
1039.887	-15.03648
1040.248	44.11043
1040.609	-11.02726
1040.97	70.17296
1041.331	-7.01777
1041.692	8.01904
1042.053	1.00229
1042.413	5.0117
1042.774	10.02442
1043.134	-10.02379
1043.495	-13.03291
1043.855	-19.04654
1044.215	-11.02733
1044.576	-25.06142
1044.936	-16.03659
1045.296	4.01001
1045.656	24.05915
1046.016	28.06786
1046.375	40.09847
1046.735	31.07185
1047.095	15.03558
1047.454	-5.01063
1047.814	-29.06987
1048.173	30.07093
1048.533	-26.06083
1048.892	-19.04695
1049.251	9.02261
1049.61	25.0621
1049.969	-29.06889
1050.328	-15.0331
1050.687	23.05648
1051.046	-23.05659
1051.405	11.02755
1051.763	2.00468
1052.122	3.00765
1052.48	-4.00984
1052.839	-4.00955
1053.197	-32.07589
1053.555	-7.01575
1053.914	18.04434
1054.272	-15.03637
1054.63	30.07451
1054.988	-54.13082
1055.345	35.07651
1055.703	-19.0458
1056.061	-24.06248
1056.419	2.00522
1056.776	-10.02428
1057.134	7.01647
1057.491	-8.02017
1057.848	-4.01005
1058.206	-12.02869
1058.563	40.08942
1058.92	25.05779
1059.277	-2.00493
1059.634	39.09258
1059.991	-17.04056
1060.348	52.12017
1060.704	-46.11228
1061.061	-55.12657
1061.418	17.04186
1061.774	-14.03507
1062.131	-27.07219
1062.487	-33.07831
1062.843	-2.00504
1063.199	-39.09797
1063.555	-30.07071
1063.911	26.06624
1064.267	-14.02956
1064.623	-25.06201
1064.979	1.00234
1065.335	-34.08085
1065.691	-27.06476
1066.046	-13.02879
1066.402	0
1066.757	-13.03281
1067.112	-49.12025
1067.468	-5.01204
1067.823	10.02427
1068.178	-10.02434
1068.533	6.01456
1068.888	15.03622
1069.243	-6.01497
1069.598	30.07361
1069.952	1.00232
1070.307	-3.00757
1070.662	-23.056
1071.016	29.06642
1071.371	0
1071.725	30.07167
1072.079	-24.05792
1072.434	-29.0718
1072.788	42.10179
1073.142	30.07372
1073.496	24.05878
1073.85	0
1074.203	-29.07038
1074.557	9.02411
1074.911	17.04048
1075.265	32.07454
1075.618	20.04907
1075.971	37.08857
1076.325	-23.05951
1076.678	41.09646
1077.031	26.05994
1077.385	-13.02935
1077.738	82.18807
1078.091	33.07719
1078.444	72.16732
1078.796	-23.05719
1079.149	-13.0325
1079.502	0
1079.855	1.00238
1080.207	11.02707
1080.56	-5.01314
1080.912	13.03194
1081.264	13.0316
1081.617	59.1457
1081.969	29.07423
1082.321	-9.02244
1082.673	10.02357
1083.025	-9.02146
1083.377	-261.59629
1083.728	27.06335
1084.08	43.10829
1084.432	-4.00984
1084.783	-7.01639
1085.135	13.0329
1085.486	23.05386
1085.838	8.01988
1086.189	11.027
1086.54	-36.08662
1086.891	4.0103
1087.242	13.03181
1087.593	-68.16641
1087.944	44.10148
1088.295	-34.07789
1088.646	-8.01961
1088.996	-8.01972
1089.347	8.01977
1089.698	43.10388
1090.048	17.04411
1090.398	51.11826
1090.749	8.01919
1091.099	-21.05379
1091.449	-29.0728
1091.799	17.04318
1092.149	17.04273
1092.499	-61.15025
1092.849	13.03324
1093.199	-27.06773
1093.548	-36.08774
1093.898	-3.00765
1094.248	-27.06962
1094.597	16.04159
1094.947	-5.01342
1095.296	21.05239
1095.645	47.12144
1095.994	68.16443
1096.343	-17.04319
1096.692	12.03207
1097.041	-3.00823
1097.39	31.07776
1097.739	-30.07817
1098.088	25.06693
1098.437	-32.08552
1098.785	38.10289
1099.134	6.01597
1099.482	12.03296
1099.83	-38.0999
1100.179	-24.06348
1100.527	50.13335
1100.875	-22.05891
1101.223	-6.01594
1101.571	25.06955
1101.919	-20.05336
1102.267	-22.06239
1102.615	-4.01288
1102.962	4.01286
1103.31	4.01288
1103.658	-6.01933
