Data from N2 R3 sample 7_Subt2__3__17-14-59-647.txt Node

Date: Wed Aug 27 17:14:59 PDT 2025
User: uwsun
Spectrometer: HDX01956
Trigger mode: 0
Integration Time (sec): 5.000000E-1
Scans to average: 1
Nonlinearity correction enabled: true
Boxcar width: 0
Storing dark spectrum: false
XAxis mode: Wavelengths
Number of Pixels in Spectrum: 2068
>>>>>Begin Spectral Data<<<<<
194.03	171.48661
194.578	168.53755
195.127	174.54885
195.676	159.50382
196.225	198.527
196.773	188.52114
197.321	256.70157
197.87	361.91023
198.418	397.00325
198.966	400.0207
199.513	325.81392
200.061	389.97765
200.609	353.91319
201.156	372.81159
201.704	409.01746
202.251	352.91642
202.798	451.14725
203.345	379.92267
203.892	388.95637
204.438	391.92048
204.985	399.93347
205.532	339.88032
206.078	407.98414
206.624	377.92191
207.17	373.8576
207.716	432.03705
208.262	357.70099
208.808	361.88641
209.354	427.02211
209.899	381.94068
210.445	396.96674
210.99	384.91402
211.535	395.91433
212.08	377.87302
212.625	414.00653
213.17	401.98094
213.715	368.82189
214.259	342.78713
214.804	393.95316
215.348	387.87269
215.892	386.90713
216.436	384.86964
216.98	374.81871
217.524	380.88189
218.068	375.91498
218.612	386.95459
219.155	361.83764
219.698	355.82828
220.242	336.81726
220.785	338.78009
221.328	343.84285
221.871	350.8548
222.414	422.01951
222.956	329.78599
223.499	327.73259
224.041	382.88197
224.583	348.73477
225.126	388.84685
225.668	353.85072
226.21	299.74451
226.751	372.81056
227.293	312.70719
227.835	324.77863
228.376	361.82471
228.918	371.91263
229.459	364.89559
230	319.74401
230.541	384.87388
231.082	381.90914
231.622	400.9147
232.163	347.83247
232.704	340.83532
233.244	309.7478
233.784	304.73086
234.324	324.71167
234.864	313.70614
235.404	328.76274
235.944	354.81994
236.484	342.82873
237.023	368.85809
237.563	332.76137
238.102	264.61297
238.641	322.79753
239.18	308.71991
239.719	376.92442
240.258	332.73721
240.797	394.92881
241.335	373.88903
241.874	342.66155
242.412	327.77375
242.95	352.83723
243.488	405.91215
244.026	365.82477
244.564	323.65789
245.102	397.88463
245.64	376.88742
246.177	356.78261
246.715	379.88113
247.252	348.78204
247.789	302.55676
248.326	354.84683
248.863	372.80574
249.4	321.71294
249.936	423.86195
250.473	404.92013
251.009	367.83503
251.546	431.93809
252.082	328.70529
252.618	416.91294
253.154	406.94891
253.69	428.94243
254.226	309.71842
254.761	368.81611
255.297	363.79447
255.832	303.70614
256.367	415.95871
256.903	373.8098
257.438	356.81148
257.972	377.83624
258.507	359.82311
259.042	386.80999
259.576	386.82249
260.111	370.83624
260.645	344.73014
261.179	400.90476
261.713	397.86667
262.247	359.81452
262.781	362.7442
263.315	357.85189
263.849	411.99867
264.382	353.79246
264.915	427.98407
265.449	374.90182
265.982	408.90142
266.515	410.97063
267.048	328.6816
267.58	399.84188
268.113	406.86285
268.646	405.97451
269.178	423.93513
269.71	343.72754
270.243	384.85549
270.775	388.96304
271.307	391.90902
271.838	389.8908
272.37	399.95025
272.902	406.90112
273.433	405.86653
273.965	398.93969
274.496	358.8626
275.027	437.04887
275.558	467.08694
276.089	439.05248
276.62	357.88306
277.15	407.97301
277.681	413.87486
278.211	420.99699
278.741	410.88917
279.272	397.88829
279.802	439.05807
280.332	458.0473
280.861	423.98649
281.391	438.96525
281.921	411.94721
282.45	490.17118
282.98	458.14061
283.509	414.91161
284.038	457.0007
284.567	379.85431
285.096	437.0126
285.625	355.78516
286.153	416.94936
286.682	474.05305
287.21	470.08125
287.739	444.01157
288.267	438.02433
288.795	439.10684
289.323	430.97497
289.851	439.98304
290.378	499.08411
290.906	460.0847
291.433	447.06641
291.961	514.12125
292.488	411.97845
293.015	499.11855
293.542	429.05142
294.069	507.19409
294.596	439.03849
295.122	459.05107
295.649	445.9414
296.175	520.20123
296.702	450.0434
297.228	456.0565
297.754	440.95544
298.28	468.02678
298.806	422.97042
299.332	495.06217
299.857	468.01211
300.383	456.09228
300.908	506.18642
301.433	507.16489
301.958	570.25305
302.483	560.32494
303.008	458.06282
303.533	510.2611
304.058	531.16793
304.582	522.18577
305.107	504.24852
305.631	526.12953
306.155	577.27032
306.679	562.24372
307.203	596.29272
307.727	514.16945
308.251	487.12778
308.775	559.24915
309.298	554.26161
309.822	536.26859
310.345	547.21274
310.868	565.26101
311.391	564.28286
311.914	617.44784
312.437	526.11934
312.96	549.21466
313.482	591.30553
314.005	581.37442
314.527	639.5402
315.049	600.39997
315.571	595.23923
316.093	673.51777
316.615	628.38938
317.137	596.2025
317.659	592.31237
318.18	623.37516
318.702	676.45586
319.223	606.15777
319.744	683.40638
320.265	635.41685
320.786	733.64712
321.307	716.61974
321.828	685.39786
322.348	660.40494
322.869	691.49806
323.389	893.29797
323.909	737.52791
324.43	729.55702
324.95	712.47767
325.47	691.54825
325.989	735.5502
326.509	758.51449
327.029	794.59677
327.548	749.50651
328.067	806.73385
328.587	730.60049
329.106	855.73023
329.625	756.75245
330.144	764.55258
330.662	786.62127
331.181	829.68138
331.7	788.61377
332.218	853.60036
332.736	848.7008
333.255	892.79655
333.773	831.6977
334.291	885.8709
334.808	852.63184
335.326	964.82719
335.844	885.77876
336.361	901.95776
336.879	962.91641
337.396	936.90767
337.913	1013.97848
338.43	986.84085
338.947	1032.03835
339.464	945.7255
339.981	953.90153
340.497	991.03149
341.014	999.03413
341.53	1021.89647
342.046	1056.11109
342.562	1076.16202
343.078	1122.1207
343.594	1083.10497
344.11	1083.06518
344.626	1117.25633
345.141	1113.00111
345.657	1097.93738
346.172	1190.26812
346.687	1143.08559
347.202	1174.09241
347.717	1165.17923
348.232	1214.39301
348.747	1260.23021
349.261	1163.99059
349.776	1203.21747
350.29	1249.41005
350.805	1306.48622
351.319	1322.31514
351.833	1306.26439
352.347	1312.33223
352.861	1284.29748
353.374	1270.19474
353.888	1300.32029
354.401	1361.34353
354.915	1398.36888
355.428	1329.48939
355.941	1382.36419
356.454	1393.23244
356.967	1403.40605
357.48	1359.27098
357.993	1396.51656
358.505	1419.55367
359.018	1555.70497
359.53	1459.48147
360.042	1487.31613
360.554	1479.51302
361.066	1500.62715
361.578	1569.32598
362.09	1494.52311
362.602	1508.27556
363.113	1514.44909
363.625	1541.36102
364.136	1592.35553
364.647	1589.51363
365.158	1629.56731
365.669	1618.65958
366.18	1614.56008
366.691	1591.33918
367.201	1623.59853
367.712	1703.56815
368.222	1674.48292
368.733	1736.37252
369.243	1723.43849
369.753	1812.58019
370.263	1817.79255
370.773	1849.94789
371.282	1919.77509
371.792	1878.6429
372.301	1964.89415
372.811	2020.18841
373.32	2075.47818
373.829	1981.69657
374.338	2129.55952
374.847	2206.69032
375.356	2175.75779
375.865	2325.3662
376.373	2422.57352
376.882	2448.06453
377.39	2527.8455
377.898	2694.99367
378.407	2666.56689
378.915	2731.20669
379.423	2944.55577
379.93	2993.3109
380.438	3189.60429
380.946	3380.25278
381.453	3451.38307
381.96	3547.13002
382.468	3863.88068
382.975	4027.90635
383.482	4268.43063
383.989	4341.02452
384.495	4452.30647
385.002	4613.62462
385.509	4829.90069
386.015	5161.99368
386.521	5389.21944
387.028	5708.10262
387.534	5857.84238
388.04	6013.12481
388.546	6196.91534
389.051	6540.90395
389.557	7044.30525
390.063	7576.87971
390.568	8014.54978
391.073	8166.98198
391.578	8319.25948
392.084	8821.83205
392.589	9047.04098
393.093	9667.18527
393.598	10534.49887
394.103	11435.79007
394.607	12598.9409
395.112	13470.10839
395.616	14480.64177
396.12	15723.87409
396.624	17482.82057
397.128	18928.90076
397.632	21071.96823
398.136	23012.08082
398.639	24015.51796
399.143	26499.05532
399.646	30061.52373
400.15	33245.85082
400.653	36252.57404
401.156	40456.65802
401.659	47129.87379
402.162	52323.24408
402.664	47079.36251
403.167	32260.27245
403.67	3851.94142
404.172	0
404.674	0
405.176	0
405.678	0
406.18	0
406.682	0
407.184	0
407.686	12367.42319
408.187	34596.90747
408.688	44563.94194
409.19	48906.19284
409.691	51236.67962
410.192	52883.26968
410.693	53713.23343
411.194	54189.54801
411.694	54767.79104
412.195	55625.98899
412.696	55971.27715
413.196	53377.74049
413.696	51207.60148
414.196	51410.96473
414.696	51463.29523
415.196	49168.34203
415.696	45701.64679
416.196	38007.29809
416.695	29285.75065
417.195	24592.83588
417.694	23116.24436
418.194	21892.33732
418.693	20153.92757
419.192	19386.92465
419.691	19075.25441
420.19	18716.32077
420.688	18251.30097
421.187	17437.97817
421.685	16519.70077
422.184	15063.07822
422.682	13211.07549
423.18	11195.53979
423.678	9923.04963
424.176	9236.13311
424.674	8834.71412
425.172	8283.09994
425.669	7832.25425
426.167	7277.56079
426.664	6732.16719
427.161	6185.15292
427.659	5648.591
428.156	5195.14158
428.652	4930.4028
429.149	4802.21234
429.646	4590.95919
430.143	4329.56613
430.639	4082.69401
431.135	3860.20869
431.632	3607.98552
432.128	3311.21305
432.624	3235.75367
433.12	3133.14638
433.616	3056.04605
434.111	2917.5802
434.607	2729.60819
435.103	2724.08289
435.598	2578.96676
436.093	2568.53051
436.588	2278.32573
437.083	2252.45366
437.578	2069.32749
438.073	2046.81482
438.568	1957.65803
439.062	1880.16375
439.557	1798.429
440.051	1819.38744
440.546	1725.3625
441.04	1696.49642
441.534	1587.55178
442.028	1692.45597
442.522	1550.37981
443.015	1561.15774
443.509	1594.52233
444.002	1452.3703
444.496	1467.04937
444.989	1432.33871
445.482	1406.37104
445.975	1348.08634
446.468	1468.08912
446.961	1291.84296
447.454	1381.14591
447.947	1261.08341
448.439	1314.21741
448.931	1250.93453
449.424	1275.26677
449.916	1243.13258
450.408	1226.93033
450.9	1133.97526
451.392	1223.21306
451.884	1176.9332
452.375	1094.00542
452.867	1072.74398
453.358	1131.86352
453.849	1120.72714
454.341	1044.71627
454.832	1041.65979
455.323	1002.8717
455.814	1033.7664
456.304	995.73307
456.795	996.74621
457.285	948.59939
457.776	940.61334
458.266	939.74301
458.756	965.81
459.247	891.68081
459.737	923.75658
460.226	920.61937
460.716	904.69996
461.206	856.64583
461.695	853.72382
462.185	866.64035
462.674	839.54469
463.163	802.44803
463.653	795.35765
464.142	801.57502
464.63	782.55312
465.119	828.54994
465.608	798.51648
466.096	727.33074
466.585	759.4531
467.073	747.48041
467.561	700.41267
468.05	746.44228
468.538	687.42351
469.026	677.36025
469.513	649.15961
470.001	722.42647
470.489	720.47369
470.976	650.266
471.463	674.43167
471.951	571.23185
472.438	616.25715
472.925	586.22019
473.412	589.2539
473.899	552.11511
474.385	591.27342
474.872	537.10783
475.359	557.21546
475.845	574.06102
476.331	521.01553
476.817	488.05995
477.303	526.09069
477.789	479.04014
478.275	455.02394
478.761	509.11009
479.247	457.92319
479.732	508.14366
480.218	458.07161
480.703	416.94515
481.188	419.8173
481.673	390.82705
482.158	431.86667
482.643	422.98551
483.128	453.96042
483.612	381.82752
484.097	391.88747
484.581	363.77668
485.066	378.85953
485.55	318.66141
486.034	386.78495
486.518	334.72869
487.002	360.84044
487.486	305.70857
487.969	339.77789
488.453	300.70973
488.936	276.59681
489.42	318.67143
489.903	285.67412
490.386	323.51216
490.869	279.57888
491.352	261.59965
491.835	291.57517
492.318	311.6755
492.8	357.71423
493.283	244.59197
493.765	238.56504
494.247	274.61071
494.73	219.46636
495.212	198.45592
495.694	231.52393
496.175	201.46514
496.657	223.50845
497.139	209.36069
497.62	205.47665
498.102	241.58283
498.583	216.52484
499.064	150.3263
499.545	205.45589
500.026	220.48183
500.507	209.47346
500.988	213.51163
501.469	155.38079
501.949	163.38871
502.43	197.45932
502.91	175.3605
503.39	153.37254
503.87	189.43494
504.35	131.30219
504.83	143.31167
505.31	137.32571
505.79	210.49088
506.269	128.29392
506.749	127.28724
507.228	126.29268
507.707	186.40117
508.187	155.36026
508.666	95.22863
509.145	87.20261
509.623	130.30424
510.102	157.37196
510.581	90.21212
511.059	156.38501
511.538	95.23992
512.016	180.42472
512.494	188.44944
512.972	119.27681
513.45	89.20719
513.928	120.28896
514.406	149.35872
514.884	141.35507
515.361	70.16492
515.839	105.23883
516.316	142.3374
516.793	120.29889
517.27	128.30378
517.747	138.34982
518.224	119.27057
518.701	137.30239
519.178	101.24712
519.654	41.09718
520.131	81.19833
520.607	86.20968
521.083	91.20783
521.56	50.11752
522.036	82.18005
522.512	74.17894
522.987	91.21535
523.463	82.19446
523.939	63.15197
524.414	128.29239
524.89	104.24663
525.365	51.11493
525.84	82.19454
526.315	100.23925
526.79	71.15881
527.265	81.18596
527.74	34.08243
528.215	142.33662
528.689	70.15512
529.164	67.14721
529.638	72.1833
530.112	73.17215
530.587	87.1893
531.061	76.1837
531.534	104.25091
532.008	60.14519
532.482	68.15433
532.956	17.04323
533.429	58.13898
533.903	19.04215
534.376	82.18353
534.849	10.02316
535.322	100.2344
535.795	58.14014
536.268	54.13023
536.741	62.14703
537.213	62.14265
537.686	49.11891
538.158	69.15638
538.631	36.08616
539.103	86.19471
539.575	45.09416
540.047	94.2077
540.519	55.12985
540.991	28.06773
541.463	44.10599
541.934	30.06845
542.406	26.06161
542.877	27.06059
543.348	-25.05923
543.82	45.10912
544.291	42.0966
544.762	48.11396
545.233	96.23572
545.703	59.13088
546.174	86.19851
546.645	142.33454
547.115	143.33918
547.585	68.15364
548.056	88.20869
548.526	101.23485
548.996	119.27899
549.466	132.31219
549.935	129.30125
550.405	102.22189
550.875	171.39289
551.344	159.36897
551.814	164.36797
552.283	167.35099
552.752	158.35451
553.221	184.39004
553.69	166.35512
554.159	228.53817
554.628	238.51574
555.096	229.55277
555.565	249.54177
556.033	224.50444
556.502	239.55635
556.97	187.39753
557.438	171.39053
557.906	223.50722
558.374	212.47018
558.842	216.49796
559.31	230.49798
559.777	197.46148
560.245	175.39273
560.712	237.52289
561.18	254.54101
561.647	188.40531
562.114	288.63659
562.581	213.49681
563.048	296.64771
563.514	285.66473
563.981	295.64184
564.448	264.56255
564.914	326.70431
565.381	343.725
565.847	347.75401
566.313	399.86845
566.779	396.83793
567.245	399.85222
567.711	428.94717
568.176	395.81515
568.642	465.05545
569.108	480.06685
569.573	525.09613
570.038	518.97711
570.504	551.10519
570.969	534.17184
571.434	543.04997
571.899	638.32509
572.363	641.25761
572.828	639.24424
573.293	700.38746
573.757	715.39182
574.222	708.35955
574.686	659.28264
575.15	733.4912
575.614	710.3942
576.078	687.36959
576.542	788.4851
577.006	770.44402
577.469	689.41494
577.933	773.45785
578.396	784.54986
578.86	768.51394
579.323	748.51934
579.786	755.35292
580.249	678.32125
580.712	671.39217
581.175	693.46409
581.637	672.30644
582.1	580.08283
582.563	656.19781
583.025	604.27501
583.487	613.08499
583.95	572.08582
584.412	593.06752
584.874	584.24351
585.336	561.17038
585.797	528.00457
586.259	516.07373
586.721	514.07573
587.182	494.01417
587.643	418.84692
588.105	378.8009
588.566	432.80327
589.027	386.84391
589.488	380.78015
589.949	434.94201
590.41	399.71369
590.87	348.70671
591.331	367.71961
591.791	365.76812
592.252	285.59951
592.712	260.57039
593.172	290.60291
593.632	277.54801
594.092	283.57904
594.552	240.47359
595.011	258.55192
595.471	272.56246
595.931	219.45398
596.39	296.65865
596.849	238.51552
597.308	205.40633
597.768	245.5849
598.227	244.54047
598.685	242.51097
599.144	246.53877
599.603	239.52598
600.062	253.50311
600.52	176.37243
600.978	196.43796
601.437	238.50495
601.895	187.36892
602.353	184.37964
602.811	244.50863
603.269	197.43755
603.727	236.5258
604.184	273.57301
604.642	244.54858
605.099	255.55576
605.557	192.43716
606.014	225.45369
606.471	231.53879
606.928	217.43716
607.385	266.60269
607.842	316.66984
608.299	321.68475
608.755	269.59373
609.212	380.77134
609.668	286.58611
610.125	325.70741
610.581	281.59943
611.037	320.65845
611.493	286.61684
611.949	254.56309
612.405	298.56705
612.861	268.57455
613.316	296.65728
613.772	237.49986
614.227	237.51171
614.683	272.53749
615.138	304.65679
615.593	309.66773
616.048	360.75143
616.503	296.65346
616.958	268.61462
617.412	322.69805
617.867	294.61068
618.321	343.66047
618.776	248.50985
619.23	263.57077
619.684	312.65472
620.138	286.5991
620.592	259.5786
621.046	248.53443
621.5	246.55897
621.954	193.4085
622.407	272.5612
622.861	256.58263
623.314	238.50495
623.768	241.52548
624.221	196.36787
624.674	198.42944
625.127	228.49661
625.58	182.38547
626.033	186.3829
626.485	227.51569
626.938	197.43883
627.39	222.48867
627.843	206.4464
628.295	174.37948
628.747	214.48113
629.199	152.33051
629.651	148.32688
630.103	202.4411
630.555	179.3699
631.006	109.24683
631.458	186.42247
631.909	135.29586
632.361	163.367
632.812	145.32501
633.263	87.18309
633.714	116.2459
634.165	83.19375
634.616	75.1735
635.067	40.08635
635.518	89.20621
635.968	97.19109
636.419	48.10291
636.869	54.12405
637.319	151.34708
637.769	69.1516
638.219	108.25097
638.669	29.0682
639.119	25.05925
639.569	71.16834
640.019	24.05449
640.468	75.16534
640.918	13.0306
641.367	79.17591
641.816	25.05479
642.265	25.05682
642.714	28.06399
643.163	34.07717
643.612	13.03129
644.061	-32.06849
644.51	41.09307
644.958	26.05771
645.406	-15.03592
645.855	57.13931
646.303	65.15018
646.751	-2.00459
647.199	-5.01132
647.647	20.0458
648.095	-28.06481
648.543	92.18982
648.99	18.04315
649.438	10.02306
649.885	-28.06862
650.333	-19.03805
650.78	28.0676
651.227	-5.01225
651.674	29.06677
652.121	25.06092
652.568	60.14541
653.015	56.14029
653.461	-25.05987
653.908	-31.07262
654.354	56.13316
654.801	57.13593
655.247	-8.01759
655.693	-8.0207
656.139	82.19783
656.585	30.07254
657.031	34.08104
657.477	32.0708
657.922	29.06791
658.368	22.05488
658.813	9.02113
659.259	21.05079
659.704	27.06365
660.149	34.08029
660.594	34.08141
661.039	-19.04402
661.484	50.11922
661.929	18.04231
662.373	22.05621
662.818	-28.0705
663.262	-25.0614
663.707	25.06341
664.151	-11.02698
664.595	37.0911
665.039	3.00751
665.483	69.17724
665.927	-35.08334
666.371	49.11676
666.814	19.04604
667.258	-5.01213
667.701	78.16954
668.145	37.09258
668.588	24.0596
669.031	18.04344
669.474	10.02445
669.917	-17.03847
670.36	-14.03534
670.803	11.02699
671.245	45.09858
671.688	12.02942
672.13	42.09768
672.573	26.06626
673.015	16.039
673.457	38.08544
673.899	20.04905
674.341	-2.00491
674.783	30.07339
675.225	14.03521
675.666	28.06911
676.108	-40.08912
676.549	22.05268
676.991	23.0524
677.432	78.1652
677.873	-9.02143
678.314	39.09447
678.755	73.18047
679.196	73.17235
679.637	45.11145
680.078	-17.04104
680.518	7.01663
680.959	-13.03152
681.399	-13.0329
681.839	39.09645
682.28	25.06316
682.72	64.1509
683.16	16.04072
683.6	18.04183
684.039	2.00431
684.479	20.05005
684.919	-14.03396
685.358	7.01794
685.798	57.1522
686.237	7.01727
686.676	-31.07302
687.115	13.03131
687.554	26.06342
687.993	25.05694
688.432	-11.026
688.871	28.06561
689.309	23.05648
689.748	66.14223
690.186	-6.01473
690.625	25.06046
691.063	51.12548
691.501	41.10347
691.939	38.09732
692.377	30.07529
692.815	58.14173
693.253	-9.0221
693.69	18.04098
694.128	6.01506
694.565	25.06099
695.003	23.0592
695.44	8.01953
695.877	36.08672
696.314	14.03119
696.751	41.09477
697.188	19.04456
697.625	7.01632
698.061	47.11594
698.498	54.13274
698.934	10.02467
699.371	15.03639
699.807	33.08002
700.243	0
700.679	38.08813
701.115	-6.0143
701.551	0
701.987	52.11988
702.422	32.07811
702.858	20.04907
703.294	-37.08583
703.729	32.07947
704.164	-17.04189
704.599	14.03207
705.035	6.01391
705.47	-19.04725
705.904	24.05795
706.339	10.02379
706.774	6.01455
707.209	20.04791
707.643	16.0393
708.078	-41.10258
708.512	-3.0077
708.946	-8.01957
709.38	25.06083
709.814	67.15794
710.248	28.06999
710.682	21.05148
711.116	30.07461
711.549	62.16283
711.983	-39.09411
712.416	5.01214
712.85	37.09411
713.283	2.00484
713.716	8.02026
714.149	8.0194
714.582	31.07205
715.015	31.07835
715.448	37.09474
715.881	-11.0244
716.313	-46.11014
716.746	43.10368
717.178	-17.04226
717.61	20.05131
718.043	44.11087
718.475	17.04189
718.907	30.076
719.339	10.02364
719.77	-41.10095
720.202	22.05672
720.634	34.0849
721.065	48.11686
721.497	31.07779
721.928	15.03788
722.359	-2.00503
722.79	19.04699
723.221	13.03314
723.652	-2.00521
724.083	11.02585
724.514	2.0047
724.945	9.02176
725.375	-4.00973
725.806	-1.00251
726.236	-6.01552
726.666	26.06344
727.096	42.10575
727.526	-21.0549
727.956	50.11775
728.386	17.04298
728.816	89.2314
729.246	4.00999
729.675	-62.15773
730.105	42.10541
730.534	19.04571
730.964	14.03589
731.393	49.12189
731.822	15.03852
732.251	46.11884
732.68	31.07376
733.109	33.08391
733.537	24.05947
733.966	7.01775
734.395	2.00476
734.823	52.11969
735.251	25.06158
735.68	42.10621
736.108	56.14397
736.536	51.12395
736.964	44.10451
737.392	36.09155
737.82	-31.07546
738.247	47.1153
738.675	24.05764
739.102	28.07219
739.53	-22.05731
739.957	16.04168
740.384	14.0349
740.811	-16.04138
741.238	-26.065
741.665	-36.08659
742.092	33.08017
742.519	-6.01539
742.945	-4.00985
743.372	37.09338
743.798	31.08099
744.225	25.06128
744.651	3.00769
745.077	-6.01531
745.503	21.05268
745.929	21.05165
746.355	-29.07185
746.781	19.048
747.207	0
747.632	-11.02776
748.058	-26.066
748.483	49.11618
748.908	-17.04335
749.334	32.0806
749.759	51.12381
750.184	1.00245
750.609	-8.01996
751.033	-48.11502
751.458	7.01604
751.883	-36.09042
752.307	10.02443
752.732	50.12877
753.156	26.06584
753.58	9.02178
754.005	13.03339
754.429	1.00242
754.853	13.03318
755.277	-29.07022
755.7	-33.08391
756.124	-11.02802
756.548	-3.00738
756.971	74.18291
757.394	-48.12679
757.818	-20.05272
758.241	38.0979
758.664	43.11142
759.087	-1.00233
759.51	-18.04568
759.933	-57.14117
760.356	23.05931
760.778	64.1623
761.201	62.15297
761.623	18.04456
762.046	-5.01202
762.468	19.0463
762.89	-16.03985
763.312	1.00247
763.734	-1.00247
764.156	53.13304
764.578	-15.03535
765	89.22035
765.421	62.16266
765.843	10.02658
766.264	25.06065
766.686	-14.03567
767.107	41.10177
767.528	20.05188
767.949	3.0077
768.37	12.03027
768.791	21.05178
769.212	58.14943
769.632	31.07432
770.053	28.07473
770.473	-11.02743
770.894	-26.06577
771.314	-3.00724
771.734	31.0743
772.154	45.11684
772.575	11.02595
772.994	-18.04236
773.414	15.03659
773.834	-34.08601
774.254	44.11031
774.673	14.03459
775.093	-32.0808
775.512	4.01018
775.931	31.08002
776.351	1.00254
776.77	-3.0076
777.189	7.01708
777.607	-49.1274
778.026	-15.03799
778.445	-51.13068
778.864	-10.02585
779.282	17.04204
779.701	37.09441
780.119	-27.0701
780.537	17.04344
780.955	37.09488
781.373	-29.07319
781.791	20.04594
782.209	-20.04664
782.627	-44.1179
783.045	9.02123
783.462	6.01548
783.88	-7.01854
784.297	10.02578
784.715	-13.03419
785.132	-38.09437
785.549	16.04098
785.966	20.05083
786.383	23.05746
786.8	-37.08739
787.217	-10.02424
787.633	4.01029
788.05	3.00712
788.466	8.01921
788.883	17.0439
789.299	16.0391
789.715	45.1117
790.131	28.07088
790.547	-46.11649
790.963	4.01013
791.379	-11.02823
791.795	-14.03242
792.21	18.04312
792.626	-15.0362
793.041	27.0677
793.457	31.07726
793.872	10.02382
794.287	65.16004
794.702	18.04459
795.117	29.07389
795.532	17.0433
795.947	1.00244
796.362	-11.02638
796.776	24.05599
797.191	16.04017
797.605	-6.01461
798.02	-18.04513
798.434	2.00454
798.848	16.04023
799.262	13.03303
799.676	31.07582
800.09	-16.03965
800.504	11.02721
800.918	14.03325
801.331	-30.07919
801.745	-22.05125
802.158	-8.02042
802.572	-2.00486
802.985	35.08548
803.398	21.05094
803.811	25.06397
804.224	-7.0176
804.637	-3.0073
805.05	32.07557
805.462	68.16937
805.875	53.13941
806.288	-29.07127
806.7	6.0153
807.112	30.07065
807.525	4.00997
807.937	-1.00252
808.349	-11.02773
808.761	-17.04214
809.173	18.04431
809.584	-24.05945
809.996	-5.01258
810.408	10.02631
810.819	45.10855
811.231	42.11157
811.642	91.22431
812.053	105.25414
812.464	89.21387
812.875	118.30156
813.286	-1.00259
813.697	-7.0162
814.108	27.06606
814.519	-33.07485
814.929	-9.02296
815.34	-14.03446
815.75	-30.07772
816.16	-33.08355
816.571	27.07097
816.981	14.03301
817.391	29.07104
817.801	2.00504
818.211	-5.01203
818.62	5.01234
819.03	1.00249
819.44	29.07571
819.849	28.07143
820.259	-8.02053
820.668	34.08466
821.077	31.07852
821.486	46.11224
821.895	-5.0124
822.304	-5.01335
822.713	21.05025
823.122	-19.04795
823.531	-13.03114
823.939	10.02473
824.348	31.07593
824.756	27.06807
825.164	-10.02529
825.573	15.03818
825.981	-11.02728
826.389	0
826.797	67.17
827.205	-21.04993
827.612	-13.03239
828.02	32.0768
828.428	-14.03602
828.835	4.0106
829.243	18.0432
829.65	2.00504
830.057	-58.14299
830.464	-7.01725
830.871	14.03353
831.278	-36.08875
831.685	12.02731
832.092	51.1258
832.499	34.0756
832.905	30.07616
833.312	33.07597
833.718	14.03497
834.124	-7.01615
834.531	2.00509
834.937	26.06691
835.343	17.04152
835.749	24.05634
836.155	11.02915
836.561	-39.09716
836.966	34.08324
837.372	28.07204
837.777	-13.03286
838.183	20.0453
838.588	32.08034
838.993	-4.00975
839.399	57.14195
839.804	9.02238
840.209	12.03099
840.613	18.04077
841.018	4.01024
841.423	-10.02593
841.828	-12.03068
842.232	7.01736
842.637	25.0596
843.041	-5.01301
843.445	16.0406
843.849	14.0351
844.253	-6.01441
844.657	1.00257
845.061	-9.02071
845.465	37.09114
845.869	29.0682
846.272	-3.00748
846.676	-32.07706
847.079	-14.03638
847.483	30.07459
847.886	49.119
848.289	-1.0027
848.692	-15.03825
849.095	-34.08336
849.498	42.10518
849.901	-9.021
850.304	-4.00961
850.707	-6.0154
851.109	-33.08376
851.512	22.05512
851.914	58.14984
852.316	21.05358
852.718	29.07726
853.121	55.13647
853.523	78.18719
853.925	22.05817
854.326	2.0051
854.728	-17.04441
855.13	4.01043
855.531	28.06852
855.933	-4.00975
856.334	-5.01263
856.736	60.13844
857.137	6.01427
857.538	29.07426
857.939	32.08075
858.34	1.00247
858.741	9.02372
859.142	-27.06574
859.542	0
859.943	50.12612
860.343	24.0608
860.744	29.07101
861.144	40.09803
861.544	27.06677
861.945	3.00776
862.345	-4.00989
862.745	-9.02255
863.145	19.04531
863.544	18.04591
863.944	47.11294
864.344	-46.11549
864.743	-12.02991
865.143	30.07804
865.542	-9.02142
865.941	-4.00998
866.34	-6.01444
866.74	-10.02704
867.139	-10.02434
867.537	14.03596
867.936	12.02921
868.335	16.04088
868.734	-14.03634
869.132	21.04933
869.531	-20.04816
869.929	-9.02125
870.327	35.08548
870.726	12.02988
871.124	-2.00469
871.522	2.00512
871.92	43.10681
872.318	-3.00737
872.715	-17.04203
873.113	6.01483
873.511	-27.06707
873.908	-18.04615
874.306	3.00761
874.703	26.06523
875.1	-30.07702
875.497	12.0291
875.894	-21.053
876.291	-11.02698
876.688	-14.03658
877.085	-12.0291
877.482	-12.03048
877.878	14.03435
878.275	-13.03338
878.671	-35.07793
879.068	15.03648
879.464	40.09785
879.86	12.029
880.256	-4.00994
880.652	19.04913
881.048	-9.02251
881.444	-20.04796
881.84	14.03603
882.236	2.00506
882.631	-11.02726
883.027	-4.00969
883.422	31.08027
883.817	21.05402
884.213	15.03892
884.608	37.09281
885.003	14.03459
885.398	-8.02038
885.793	22.05581
886.188	14.03555
886.582	43.11022
886.977	52.12436
887.371	-56.14216
887.766	-35.08902
888.16	25.06294
888.554	-22.05422
888.949	17.04269
889.343	-9.02225
889.737	-22.05978
890.131	9.02285
890.525	6.0156
890.918	30.07621
891.312	-3.00722
891.706	-8.02112
892.099	-10.02562
892.492	-40.0879
892.886	17.04257
893.279	12.03115
893.672	-17.04405
894.065	31.07782
894.458	-15.03794
894.851	4.00976
895.244	28.07236
895.637	-29.07096
896.029	46.11391
896.422	36.08836
896.814	19.04814
897.206	18.04354
897.599	14.03455
897.991	40.09778
898.383	-41.09838
898.775	-1.0023
899.167	-16.03849
899.559	12.03031
899.951	10.02397
900.342	53.13509
900.734	-10.02549
901.125	30.07964
901.517	-17.04212
901.908	-8.01926
902.299	17.04266
902.69	3.00719
903.082	0
903.473	0
903.863	-41.10557
904.254	-25.05891
904.645	-27.06714
905.036	-51.12719
905.426	47.10808
905.817	0
906.207	56.13541
906.597	0
906.987	-24.06205
907.378	-6.01529
907.768	10.02666
908.158	3.0074
908.547	56.14672
908.937	-6.01537
909.327	-24.059
909.717	-9.02286
910.106	34.08324
910.495	21.05239
910.885	21.05366
911.274	13.03286
911.663	-17.04336
912.052	-12.02973
912.441	32.08236
912.83	18.04223
913.219	-3.00786
913.608	-41.10076
913.997	-43.11084
914.385	57.13713
914.774	56.13648
915.162	-2.00488
915.55	-35.08538
915.939	-3.00767
916.327	-48.12008
916.715	17.04432
917.103	18.04444
917.491	7.01746
917.878	28.06972
918.266	-24.06263
918.654	35.08956
919.041	11.02889
919.429	-23.05487
919.816	-30.07718
920.203	24.05867
920.591	-7.01744
920.978	29.07122
921.365	-35.09318
921.752	-21.05073
922.139	-45.09983
922.525	28.06934
922.912	23.05623
923.299	40.10126
923.685	-10.02623
924.072	6.01397
924.458	38.09472
924.844	0
925.231	33.07782
925.617	35.09084
926.003	13.03337
926.389	-11.02796
926.774	3.00768
927.16	57.14169
927.546	-11.02849
927.931	38.09575
928.317	0
928.702	-2.00475
929.088	37.08969
929.473	10.0257
929.858	20.04972
930.243	19.04613
930.628	42.10385
931.013	3.00753
931.398	0
931.783	-37.09742
932.167	-18.04431
932.552	4.00998
932.937	32.07941
933.321	25.06366
933.705	-17.04335
934.09	3.00748
934.474	23.05517
934.858	-42.10959
935.242	-1.00235
935.626	10.02589
936.009	34.09095
936.393	-6.01531
936.777	-18.04623
937.16	18.04727
937.544	-30.07109
937.927	-56.14467
938.311	19.04651
938.694	0
939.077	-2.00489
939.46	0
939.843	27.0567
940.226	7.01819
940.609	27.06347
940.991	47.12056
941.374	-14.03467
941.757	30.07478
942.139	-40.0917
942.522	13.03069
942.904	-15.03636
943.286	-14.03582
943.668	40.10438
944.05	8.02004
944.432	60.14983
944.814	80.19839
945.196	-9.02265
945.578	-4.00983
945.959	14.03321
946.341	-45.11076
946.722	-2.00471
947.104	-9.02167
947.485	44.10431
947.866	25.06386
948.247	-10.02562
948.628	7.01723
949.009	-7.0182
949.39	-24.06017
949.771	46.10749
950.152	35.08665
950.532	-16.0404
950.913	7.01727
951.293	37.10088
951.674	38.09223
952.054	1.0025
952.434	-2.005
952.814	-44.10467
953.194	-27.07044
953.574	15.03684
953.954	10.02411
954.334	-27.06824
954.714	-39.09737
955.093	-47.11585
955.473	-4.01012
955.853	-26.06761
956.232	-17.04654
956.611	-13.03126
956.99	-49.12375
957.37	-6.01539
957.749	2.00482
958.128	-25.06357
958.506	-22.05797
958.885	10.02543
959.264	11.02754
959.643	22.05104
960.021	-2.00499
960.4	-10.02301
960.778	-4.00983
961.156	3.00764
961.535	-9.02125
961.913	2.00474
962.291	-20.05246
962.669	-60.15259
963.047	34.0872
963.424	-14.03611
963.802	-21.05226
964.18	14.0354
964.557	43.09998
964.935	-18.04295
965.312	-6.0159
965.69	4.0101
966.067	24.05878
966.444	30.07396
966.821	-38.09841
967.198	-16.03879
967.575	15.03678
967.952	-48.11361
968.329	31.07574
968.705	24.05272
969.082	14.03654
969.458	-21.0514
969.835	-35.08557
970.211	8.02077
970.587	17.04247
970.963	17.04374
971.339	-21.05552
971.715	13.0327
972.091	32.07933
972.467	-12.03016
972.843	20.05052
973.219	7.01678
973.594	9.02379
973.97	25.0598
974.345	17.04127
974.721	26.06315
975.096	0
975.471	-19.04474
975.846	0
976.221	30.0775
976.596	23.05594
976.971	-27.0669
977.346	-23.05422
977.72	-40.10226
978.095	-14.03626
978.469	39.09297
978.844	-35.08836
979.218	22.0539
979.593	5.01193
979.967	43.10564
980.341	8.01877
980.715	-27.06858
981.089	23.05817
981.463	-13.03048
981.837	30.07415
982.21	-14.03215
982.584	-8.01969
982.957	13.03281
983.331	5.01191
983.704	20.04983
984.078	-31.0774
984.451	2.00492
984.824	-31.07796
985.197	-11.02704
985.57	-19.04816
985.943	3.00738
986.316	6.0148
986.688	-7.01704
987.061	21.04989
987.434	-29.0761
987.806	-47.11508
988.179	5.01211
988.551	26.06628
988.923	-61.15163
989.295	37.09281
989.667	3.00741
990.039	-25.063
990.411	29.06732
990.783	-21.04837
991.155	17.04193
991.527	4.00972
991.898	-25.06309
992.27	24.06026
992.641	-5.01262
993.012	43.10156
993.384	1.00242
993.755	-30.07767
994.126	-15.03651
994.497	6.01503
994.868	-6.01393
995.239	8.01959
995.61	13.03323
995.98	0
996.351	9.02272
996.722	-2.00475
997.092	-31.07478
997.462	-16.03872
997.833	-46.11001
998.203	-24.05878
998.573	-6.01509
998.943	37.0879
999.313	-76.18502
999.683	-15.03647
1000.053	-5.01162
1000.423	4.00975
1000.792	31.08132
1001.162	1.00249
1001.531	7.01743
1001.901	-1.00251
1002.27	25.0568
1002.639	-25.06471
1003.009	7.01687
1003.378	1.00257
1003.747	25.05962
1004.116	3.00729
1004.485	-26.06254
1004.853	12.03047
1005.222	43.10887
1005.591	13.03114
1005.959	78.18069
1006.328	-31.07185
1006.696	-6.01459
1007.064	-8.02046
1007.433	-9.0225
1007.801	-23.05638
1008.169	31.0791
1008.537	-3.00667
1008.905	-25.05967
1009.273	19.04723
1009.64	-9.02199
1010.008	55.13156
1010.375	-47.11273
1010.743	34.07879
1011.11	26.06235
1011.478	-20.04976
1011.845	-4.00949
1012.212	30.06922
1012.579	-6.01487
1012.946	0
1013.313	-20.04765
1013.68	-39.089
1014.047	55.13372
1014.414	-36.08705
1014.78	38.09437
1015.147	8.01934
1015.513	-26.06375
1015.88	23.05871
1016.246	17.04207
1016.612	18.04163
1016.978	30.07421
1017.344	-25.06257
1017.71	-17.04112
1018.076	11.02601
1018.442	24.0617
1018.808	32.08051
1019.174	26.06591
1019.539	7.01603
1019.905	-30.07183
1020.27	15.03745
1020.636	8.01922
1021.001	29.07035
1021.366	-62.15133
1021.731	4.01035
1022.096	-17.04318
1022.461	-35.08318
1022.826	-26.06323
1023.191	8.02107
1023.556	7.0166
1023.92	-52.12914
1024.285	-30.07391
1024.649	-23.05678
1025.014	2.00496
1025.378	4.0102
1025.742	17.04254
1026.107	-11.0252
1026.471	15.03493
1026.835	-20.04978
1027.199	-12.0295
1027.562	11.02603
1027.926	20.04878
1028.29	23.05925
1028.654	62.14345
1029.017	-12.02962
1029.381	50.12209
1029.744	14.03614
1030.107	-11.026
1030.471	-10.02419
1030.834	-10.02302
1031.197	-32.07729
1031.56	-9.02139
1031.923	-17.04435
1032.286	-15.03513
1032.648	68.16282
1033.011	23.05413
1033.374	-40.09468
1033.736	11.02935
1034.099	41.1011
1034.461	8.02069
1034.823	-19.04805
1035.185	44.11118
1035.548	33.08086
1035.91	45.10892
1036.272	30.06905
1036.634	10.02437
1036.995	-33.07824
1037.357	11.02698
1037.719	7.01704
1038.08	0
1038.442	-2.0048
1038.803	34.08252
1039.165	-12.03046
1039.526	10.02425
1039.887	-4.00971
1040.248	17.04287
1040.609	-8.01982
1040.97	29.07219
1041.331	-2.00507
1041.692	-3.00715
1042.053	43.09785
1042.413	-41.09684
1042.774	42.10194
1043.134	9.02133
1043.495	24.06036
1043.855	23.0559
1044.215	-27.06729
1044.576	10.02441
1044.936	4.00911
1045.296	17.04246
1045.656	0
1046.016	18.04371
1046.375	6.01486
1046.735	34.07876
1047.095	43.10144
1047.454	-9.01916
1047.814	-33.07957
1048.173	-8.01905
1048.533	-5.01165
1048.892	16.03929
1049.251	10.02512
1049.61	10.02491
1049.969	-32.07606
1050.328	-28.06195
1050.687	3.00739
1051.046	16.03908
1051.405	14.03505
1051.763	-6.01405
1052.122	37.09375
1052.48	-25.06174
1052.839	-5.01194
1053.197	-53.1262
1053.555	-58.13185
1053.914	30.07374
1054.272	-30.07295
1054.63	20.04976
1054.988	19.0454
1055.345	34.07434
1055.703	-13.0313
1056.061	-18.04681
1056.419	9.02346
1056.776	-16.03889
1057.134	10.02351
1057.491	-27.06831
1057.848	6.01504
1058.206	-29.06956
1058.563	22.04936
1058.92	35.08074
1059.277	-26.06434
1059.634	49.11609
1059.991	-2.00476
1060.348	24.05577
1060.704	-10.02424
1061.061	-44.10104
1061.418	11.02711
1061.774	-4.01
1062.131	4.01064
1062.487	11.02588
1062.843	24.06015
1063.199	-25.06264
1063.555	-14.03289
1063.911	20.05101
1064.267	-6.01265
1064.623	10.02464
1064.979	1.00234
1065.335	-32.07606
1065.691	-16.0383
1066.046	-9.01992
1066.402	20.04629
1066.757	-11.02775
1067.112	-24.05862
1067.468	-19.04587
1067.823	-7.01704
1068.178	-25.06101
1068.533	17.04116
1068.888	18.04344
1069.243	-1.00249
1069.598	17.04181
1069.952	1.00232
1070.307	33.08275
1070.662	32.07712
1071.016	-10.02308
1071.371	9.02071
1071.725	-35.08465
1072.079	-15.03614
1072.434	12.02949
1072.788	77.18538
1073.142	12.02958
1073.496	75.18194
1073.85	19.04418
1074.203	3.00724
1074.557	27.07212
1074.911	15.03573
1075.265	8.01872
1075.618	27.06616
1075.971	-10.02415
1076.325	22.05648
1076.678	32.07542
1077.031	39.08968
1077.385	13.0292
1077.738	49.11313
1078.091	18.04223
1078.444	-1.00236
1078.796	-19.04721
1079.149	43.10642
1079.502	13.03133
1079.855	55.12955
1080.207	-24.05945
1080.56	24.06275
1080.912	13.03194
1081.264	5.01217
1081.617	39.09666
1081.969	17.04361
1082.321	27.06687
1082.673	-30.07126
1083.025	-7.01669
1083.377	4.00865
1083.728	19.04465
1084.08	17.04301
1084.432	-14.03452
1084.783	-19.0446
1085.135	-5.0127
1085.486	21.0492
1085.838	5.01243
1086.189	-5.01231
1086.54	-10.02394
1086.891	11.0283
1087.242	6.0147
1087.593	-24.05825
1087.944	36.08316
1088.295	13.0295
1088.646	29.07061
1088.996	4.00984
1089.347	4.00989
1089.698	79.18955
1090.048	-5.01302
1090.398	-9.02112
1090.749	-24.05792
1091.099	-24.06151
1091.449	-16.04007
1091.799	47.11874
1092.149	71.17675
1092.499	-29.07101
1092.849	-8.02053
1093.199	1.0025
1093.548	-9.02182
1093.898	37.09365
1094.248	-35.09037
1094.597	-9.0235
1094.947	-15.04032
1095.296	19.04742
1095.645	-14.03656
1095.994	32.0779
1096.343	17.04293
1096.692	-19.05104
1097.041	16.04377
1097.39	14.03523
1097.739	-32.08341
1098.088	17.04557
1098.437	-33.0882
1098.785	-2.00545
1099.134	3.00799
1099.482	-21.05799
1099.83	-11.02879
1100.179	-28.07411
1100.527	42.11217
1100.875	-19.05085
1101.223	-20.05325
1101.571	-3.00838
1101.919	-22.05872
1102.267	0
1102.615	0
1102.962	-1.00322
1103.31	-4.01289
1103.658	-7.02255
