Data from N2 R3 sample 4_Subt2__5__17-28-56-128.txt Node

Date: Wed Aug 27 17:28:56 PDT 2025
User: uwsun
Spectrometer: HDX01956
Trigger mode: 0
Integration Time (sec): 5.000000E-1
Scans to average: 1
Nonlinearity correction enabled: true
Boxcar width: 0
Storing dark spectrum: false
XAxis mode: Wavelengths
Number of Pixels in Spectrum: 2068
>>>>>Begin Spectral Data<<<<<
194.03	121.34691
194.578	121.38934
195.127	112.35599
195.676	113.36008
196.225	101.27316
196.773	124.34718
197.321	198.54765
197.87	219.56623
198.418	253.65728
198.966	229.6033
199.513	230.5859
200.061	257.66123
200.609	235.62036
201.156	201.45441
201.704	267.68289
202.251	246.65211
202.798	295.77267
203.345	241.60186
203.892	250.63189
204.438	298.71426
204.985	248.59738
205.532	240.63387
206.078	251.62478
206.624	279.69472
207.17	292.68225
207.716	264.65535
208.262	207.42085
208.808	251.62887
209.354	258.63882
209.899	258.65141
210.445	269.67226
210.99	227.55662
211.535	275.65173
212.08	258.61157
212.625	260.65176
213.17	214.54168
213.715	228.52394
214.259	261.61043
214.804	264.65582
215.348	253.58615
215.892	246.59391
216.436	261.60588
216.98	267.5977
217.524	254.60418
218.068	263.65512
218.612	273.68915
219.155	256.60636
219.698	241.57491
220.242	213.53002
220.785	229.54001
221.328	230.57699
221.871	217.54311
222.414	236.5914
222.956	191.46835
223.499	206.47301
224.041	268.63282
224.583	193.42136
225.126	225.50804
225.668	189.46962
226.21	245.61605
226.751	187.42345
227.293	214.49473
227.835	179.44202
228.376	285.66106
228.918	211.53437
229.459	187.47511
230	176.42204
230.541	247.57769
231.082	234.5741
231.622	285.66682
232.163	226.55468
232.704	279.6932
233.244	164.40773
233.784	216.52798
234.324	275.61027
234.864	182.42159
235.404	188.44926
235.944	215.51172
236.484	267.65613
237.023	269.63948
237.563	251.58498
238.102	172.40663
238.641	210.5308
239.18	184.44055
239.719	244.61453
240.258	205.46723
240.797	258.62429
241.335	195.48064
241.874	202.40385
242.412	251.60266
242.95	272.65692
243.488	256.59416
244.026	225.52294
244.564	227.47246
245.102	292.66482
245.64	265.63893
246.177	195.44318
246.715	267.63449
247.252	240.5513
247.789	211.39788
248.326	280.67929
248.863	234.52178
249.4	204.4641
249.936	268.56537
250.473	220.51969
251.009	249.58009
251.546	271.6099
252.082	218.47986
252.618	219.50054
253.154	225.54455
253.69	254.57971
254.226	228.53859
254.761	243.55293
255.297	285.63404
255.832	210.49838
256.367	248.59195
256.903	253.56333
257.438	187.4408
257.972	288.65067
258.507	266.62127
259.042	222.48272
259.576	236.51927
260.111	249.57666
260.645	229.49825
261.179	234.54718
261.713	255.57342
262.247	236.54883
262.781	243.51297
263.315	249.60648
263.849	242.60665
264.382	222.51179
264.915	334.78404
265.449	265.65218
265.982	265.60299
266.515	282.68415
267.048	255.53854
267.58	248.54062
268.113	227.50125
268.646	268.66163
269.178	284.64608
269.71	232.50403
270.243	284.64582
270.775	270.68461
271.307	240.57461
271.838	254.59744
272.37	293.71203
272.902	275.627
273.433	280.61529
273.965	237.57704
274.496	258.63344
275.027	305.75198
275.558	252.61252
276.089	260.64589
276.62	251.63294
277.15	298.72729
277.681	230.5067
278.211	306.74236
278.741	282.62828
279.272	262.60255
279.802	276.68713
280.332	303.71586
280.861	319.7592
281.391	303.68665
281.921	280.66217
282.45	284.70678
282.98	316.80888
283.509	285.64455
284.038	259.59196
284.567	291.66776
285.096	275.65902
285.625	271.6099
286.153	236.55813
286.682	358.81604
287.21	249.59922
287.739	306.71804
288.267	283.68335
288.795	286.74235
289.323	307.71349
289.851	244.56833
290.378	348.78172
290.906	351.84686
291.433	323.79049
291.961	357.80604
292.488	273.66716
293.015	309.72097
293.542	338.84418
294.069	353.85779
294.596	292.71185
295.122	321.75691
295.649	282.61786
296.175	340.8149
296.702	278.66786
297.228	336.79857
297.754	306.68344
298.28	316.71683
298.806	300.70671
299.332	332.73874
299.857	322.71946
300.383	331.81337
300.908	355.85845
301.433	347.82423
301.958	391.89322
302.483	345.85151
303.008	279.67166
303.533	355.90437
304.058	313.72111
304.582	390.91117
305.107	357.90979
305.631	318.71463
306.155	347.80198
306.679	355.82079
307.203	329.75525
307.727	439.01363
308.251	300.72179
308.775	340.79531
309.298	367.8687
309.822	347.85267
310.345	372.85615
310.868	358.83446
311.391	367.86937
311.914	375.92281
312.437	304.67925
312.96	362.83348
313.482	398.91597
314.005	379.93299
314.527	396.99969
315.049	398.96692
315.571	355.77992
316.093	451.06241
316.615	376.87674
317.137	429.90001
317.659	402.92776
318.18	415.95718
318.702	448.01124
319.223	406.81433
319.744	453.9822
320.265	414.96722
320.786	443.05363
321.307	459.09175
321.828	460.9878
322.348	423.948
322.869	484.09488
323.389	631.99185
323.909	458.00775
324.43	444.00586
324.95	509.10353
325.47	510.18463
325.989	469.04602
326.509	487.03329
327.029	551.16933
327.548	456.98006
328.067	556.25954
328.587	463.07127
329.106	548.18595
329.625	545.31544
330.144	485.04738
330.662	514.12409
331.181	557.19903
331.7	516.12087
332.218	534.07967
332.736	528.13627
333.255	584.25859
333.773	576.24398
334.291	537.22063
334.808	559.14555
335.326	619.271
335.844	614.31031
336.361	630.44699
336.879	631.35274
337.396	618.34961
337.913	738.53441
338.43	631.28052
338.947	688.46842
339.464	671.30914
339.981	656.39823
340.497	703.5351
341.014	680.48515
341.53	634.28984
342.046	691.49806
342.562	692.51329
343.078	712.4803
343.594	776.61851
344.11	706.46911
344.626	752.64599
345.141	711.40963
345.657	702.36615
346.172	766.60964
346.687	758.51729
347.202	820.59465
347.717	762.56679
348.232	847.81314
348.747	833.63726
349.261	793.49052
349.776	826.66577
350.29	828.75834
350.805	889.86299
351.319	850.67189
351.833	830.61949
352.347	864.71301
352.861	926.80878
353.374	868.65934
353.888	800.61106
354.401	904.74493
354.915	944.79444
355.428	906.87319
355.941	905.74477
356.454	931.6862
356.967	866.69702
357.48	879.66056
357.993	923.86372
358.505	920.86571
359.018	1009.00443
359.53	960.85053
360.042	944.70069
360.554	937.82296
361.066	964.92395
361.578	992.72556
362.09	978.88078
362.602	949.66924
363.113	1037.90054
363.625	1005.78091
364.136	1057.8153
364.647	1017.87034
365.158	1115.01289
365.669	1018.94939
366.18	1080.9721
366.691	1072.82304
367.201	1065.9725
367.712	1160.02815
368.222	1140.96096
368.733	1136.85064
369.243	1150.91744
369.753	1175.00146
370.263	1268.25716
370.773	1243.31761
371.282	1191.10379
371.792	1282.1375
372.301	1336.33734
372.811	1320.49482
373.32	1354.02892
373.829	1313.16747
374.338	1411.12335
374.847	1414.19826
375.356	1437.27373
375.865	1549.06198
376.373	1572.21546
376.882	1637.60941
377.39	1622.43224
377.898	1672.56031
378.407	1783.33762
378.915	1810.09147
379.423	1814.3642
379.93	1956.26082
380.438	2059.54965
380.946	2112.35399
381.453	2213.49672
381.96	2347.35746
382.468	2466.28778
382.975	2614.37524
383.482	2769.07506
383.989	2796.59995
384.495	2948.0175
385.002	2969.47732
385.509	3092.7944
386.015	3404.89114
386.521	3562.14021
387.028	3765.98423
387.534	3801.64608
388.04	3980.92922
388.546	3977.61204
389.051	4242.23645
389.557	4571.23084
390.063	4869.80999
390.568	5281.9951
391.073	5292.59492
391.578	5529.65739
392.084	5733.43741
392.589	5759.24883
393.093	6082.43138
393.598	6790.93507
394.103	7349.83923
394.607	8143.89809
395.112	8868.30969
395.616	9395.19044
396.12	10289.02034
396.624	11536.47832
397.128	12297.8123
397.632	13803.6177
398.136	14934.45574
398.639	15341.52699
399.143	16939.34714
399.646	19219.96633
400.15	21521.5894
400.653	23500.94988
401.156	26048.9872
401.659	30507.74488
402.162	36866.13616
402.664	44879.34691
403.167	31713.50341
403.67	3851.94142
404.172	0
404.674	0
405.176	0
405.678	0
406.18	0
406.682	0
407.184	0
407.686	12367.42319
408.187	34596.90747
408.688	44563.94194
409.19	48906.19284
409.691	51236.67962
410.192	52883.26968
410.693	52674.37285
411.194	47074.52878
411.694	44697.13158
412.195	42077.98322
412.696	38116.09571
413.196	35355.09936
413.696	33796.43293
414.196	34249.71115
414.696	34089.29543
415.196	32755.31885
415.696	30789.15463
416.196	25665.18902
416.695	19760.07701
417.195	16155.44898
417.694	15206.8143
418.194	14298.08067
418.693	13280.23328
419.192	12804.79755
419.691	12724.17268
420.19	12405.85867
420.688	12038.59053
421.187	11615.22312
421.685	10959.79627
422.184	9937.3929
422.682	8727.6303
423.18	7407.72285
423.678	6686.84154
424.176	6009.51977
424.674	5708.53899
425.172	5526.81267
425.669	5075.25858
426.167	4759.28263
426.664	4370.51299
427.161	4008.94658
427.659	3733.54958
428.156	3447.04337
428.652	3266.24753
429.149	3127.0553
429.646	2949.77795
430.143	2927.18814
430.639	2686.22067
431.135	2492.54478
431.632	2460.27195
432.128	2194.32551
432.624	2023.64985
433.12	1972.17366
433.616	2003.09151
434.111	1875.41067
434.607	1781.3675
435.103	1759.97982
435.598	1677.8467
436.093	1603.19975
436.588	1499.0036
437.083	1489.08972
437.578	1292.87375
438.073	1336.24989
438.568	1263.0959
439.062	1209.73354
439.557	1106.82869
440.051	1204.90092
440.546	1027.72143
441.04	1086.89257
441.534	988.8555
442.028	998.75613
442.522	958.72509
443.015	919.53059
443.509	980.82152
444.002	902.69703
444.496	873.44896
444.989	862.63038
445.482	893.7142
445.975	885.55395
446.468	855.44946
446.961	828.35177
447.454	826.48994
447.947	770.44402
448.439	762.47748
448.931	734.3061
449.424	786.57341
449.916	724.41371
450.408	705.27546
450.9	685.33396
451.392	637.32389
451.884	676.26431
452.375	695.40161
452.867	604.11046
453.358	637.19212
453.849	659.15268
454.341	590.0912
454.832	643.14058
455.323	622.26998
455.814	597.13916
456.304	642.22134
456.795	623.19807
457.285	614.12889
457.776	554.048
458.266	603.21191
458.756	600.22555
459.247	560.14113
459.737	549.13872
460.226	584.11727
460.716	509.04903
461.206	530.09802
461.695	521.13199
462.185	516.0599
462.674	510.0155
463.163	525.01413
463.653	480.88987
464.142	480.0142
464.63	475.00997
465.119	421.86802
465.608	459.94509
466.096	447.87689
466.585	498.01274
467.073	452.9585
467.561	428.9187
468.05	413.863
468.538	428.93927
469.026	388.8325
469.513	347.66913
470.001	456.95812
470.489	433.94484
470.976	361.75235
471.463	378.85571
471.951	368.82969
472.438	325.70801
472.925	375.81865
473.412	333.74941
473.899	349.73898
474.385	365.82578
474.872	335.7236
475.359	369.83856
475.845	336.65898
476.331	355.72043
476.817	255.58235
477.303	313.681
477.789	307.69232
478.275	248.58287
478.761	287.65647
479.247	259.54698
479.732	244.57995
480.218	222.54446
480.703	278.64929
481.188	191.39275
481.673	245.53601
482.158	274.57092
482.643	249.60126
483.128	225.50078
483.612	257.57294
484.097	221.51892
484.581	201.44514
485.066	206.48474
485.55	202.43101
486.034	224.47234
486.518	152.34441
487.002	209.5024
487.486	197.46744
487.969	182.43077
488.453	145.35332
488.936	157.34813
489.42	160.34954
489.903	110.26899
490.386	152.25288
490.869	122.26201
491.352	141.33173
491.835	145.29642
492.318	150.33697
492.8	220.45412
493.283	139.34388
493.765	120.29137
494.247	120.27599
494.73	106.23128
495.212	93.21863
495.694	100.23284
496.175	105.24761
496.657	123.28611
497.139	31.05604
497.62	99.235
498.102	111.27501
498.583	124.30649
499.064	23.05138
499.545	98.22278
500.026	112.25089
500.507	101.23382
500.988	78.19216
501.469	91.2262
501.949	63.15311
502.43	83.19786
502.91	96.20128
503.39	54.13391
503.87	79.18579
504.35	64.14961
504.83	73.16147
505.31	64.15429
505.79	29.07019
506.269	27.06325
506.749	-1.00232
507.228	48.11322
507.707	59.13072
508.187	51.12097
508.666	10.02445
509.145	26.06128
509.623	55.13061
510.102	19.04621
510.581	-7.01681
511.059	87.21744
511.538	26.06647
512.016	107.25605
512.494	94.22875
512.972	-8.01907
513.45	-17.0404
513.928	12.02949
514.406	39.09585
514.884	39.1
515.361	16.03809
515.839	48.11044
516.316	31.07523
516.793	19.04819
517.27	33.07975
517.747	68.17452
518.224	12.02788
518.701	34.07666
519.178	4.00996
519.654	4.00955
520.131	10.02481
520.607	15.03706
521.083	6.01394
521.56	-37.08844
522.036	-31.06969
522.512	7.01714
522.987	-7.01688
523.463	39.09326
523.939	12.02922
524.414	44.10221
524.89	32.07694
525.365	6.01365
525.84	-2.00482
526.315	25.06067
526.79	-34.0777
527.265	26.06035
527.74	-3.00732
528.215	76.18246
528.689	-28.06332
529.164	-12.0268
529.638	6.01545
530.112	-14.03357
530.587	36.07918
531.061	26.06344
531.534	18.04413
532.008	9.02199
532.482	-32.0741
532.956	-15.03836
533.429	-10.02427
533.903	-54.12161
534.376	56.12601
534.849	-9.02093
535.322	46.10896
535.795	-41.10091
536.268	8.01946
536.741	-5.01201
537.213	-38.08918
537.686	-10.02454
538.158	16.03665
538.631	-41.09957
539.103	-16.03698
539.575	6.01266
540.047	58.12912
540.519	-22.05272
540.991	5.01215
541.463	-18.04387
541.934	-26.05999
542.406	-40.09599
542.877	-49.11168
543.348	-63.15036
543.82	-15.03678
544.291	-31.07234
544.762	12.02869
545.233	-6.01501
545.703	11.02465
546.174	48.11163
546.645	8.01934
547.115	28.06789
547.585	-15.03446
548.056	-10.02416
548.526	63.14759
548.996	64.15166
549.466	65.15572
549.935	85.20022
550.405	33.07284
550.875	81.18946
551.344	62.14664
551.814	68.15558
552.283	22.04772
552.752	37.08508
553.221	63.13708
553.69	39.08572
554.159	86.20858
554.628	131.29036
555.096	135.33166
555.565	130.29001
556.033	147.33626
556.502	108.2579
556.97	69.15045
557.438	147.33734
557.906	130.30126
558.374	158.35436
558.842	152.35489
559.31	163.35797
559.777	136.32239
560.245	171.38407
560.712	169.37817
561.18	196.42274
561.647	176.38042
562.114	251.5591
562.581	230.53467
563.048	264.5816
563.514	261.61163
563.981	291.63368
564.448	264.56255
564.914	305.66191
565.381	323.68572
565.847	347.75401
566.313	408.88634
566.779	391.82826
567.245	378.81105
567.711	402.89447
568.176	412.84698
568.642	448.02029
569.108	466.03867
569.573	564.16754
570.038	577.0711
570.504	594.1798
570.969	569.23959
571.434	577.10679
571.899	604.26386
572.363	649.27094
572.828	626.22264
573.293	720.42051
573.757	709.38209
574.222	749.42425
574.686	696.34289
575.15	749.51826
575.614	761.47659
576.078	735.44913
576.542	735.40301
577.006	739.39634
577.469	714.4581
577.933	756.43166
578.396	696.40395
578.86	772.52041
579.323	789.58779
579.786	688.25383
580.249	714.37966
580.712	693.43084
581.175	647.38052
581.637	645.2619
582.1	588.09563
582.563	641.17479
583.025	608.28234
583.487	550.99074
583.95	577.094
584.412	564.02274
584.874	548.17584
585.336	510.07582
585.797	529.00623
586.259	482.01042
586.721	480.01198
587.182	471.97372
587.643	393.80082
588.105	390.82416
588.566	362.68482
589.027	397.86594
589.488	334.69283
589.949	386.8464
590.41	360.6504
590.87	282.58131
591.331	331.65454
591.791	291.62237
592.252	250.52994
592.712	263.5766
593.172	247.51844
593.632	253.50335
594.092	248.51146
594.552	189.37742
595.011	202.43736
595.471	199.41824
595.931	205.42629
596.39	268.59981
596.849	172.37782
597.308	170.33972
597.768	217.52084
598.227	188.4213
598.685	190.40575
599.144	185.41039
599.603	196.43524
600.062	199.40071
600.52	153.32539
600.978	217.48277
601.437	169.36396
601.895	172.34052
602.353	115.24095
602.811	184.38868
603.269	174.38832
603.727	179.40352
604.184	213.453
604.642	185.42097
605.099	263.57223
605.557	209.47423
606.014	212.42876
606.471	186.43768
606.928	226.45435
607.385	231.52712
607.842	275.58816
608.299	293.62882
608.755	218.48631
609.212	263.54812
609.668	258.53208
610.125	244.54025
610.581	287.61143
611.037	283.58718
611.493	292.62897
611.949	268.59239
612.405	295.56175
612.861	310.65856
613.316	334.73579
613.772	282.58889
614.227	212.46019
614.683	256.50777
615.138	247.54016
615.593	316.68183
616.048	272.57884
616.503	231.5169
616.958	252.57978
617.412	258.56695
617.867	301.62424
618.321	352.67633
618.776	264.54078
619.23	245.53374
619.684	366.75887
620.138	291.6089
620.592	238.53399
621.046	215.4666
621.5	272.61478
621.954	244.51067
622.407	267.5515
622.861	251.57183
623.314	236.50092
623.768	220.48183
624.221	203.38035
624.674	224.48313
625.127	171.37696
625.58	166.35281
626.033	187.38488
626.485	218.49615
626.938	185.41312
627.39	217.47816
627.843	154.33743
628.295	162.35421
628.747	177.40097
629.199	184.39737
629.651	186.40754
630.103	158.34823
630.555	155.32203
631.006	129.29093
631.458	143.32764
631.909	130.2852
632.361	105.23922
632.812	132.29666
633.263	122.25477
633.714	115.24383
634.165	104.24177
634.616	49.11394
635.067	29.06275
635.518	79.1834
635.968	58.11531
636.419	60.1283
636.869	33.07613
637.319	157.36043
637.769	42.0928
638.219	82.19153
638.669	20.04712
639.119	20.04745
639.569	42.10014
640.019	11.02504
640.468	23.05126
640.918	56.1307
641.367	58.12971
641.816	4.00881
642.265	-4.00914
642.714	12.02751
643.163	52.11759
643.612	48.11475
644.061	18.03811
644.51	38.08631
644.958	47.10387
645.406	4.00954
645.855	40.09807
646.303	48.11128
646.751	7.01603
647.199	2.00452
647.647	-8.01842
648.095	-12.02769
648.543	9.01892
648.99	55.13091
649.438	5.01154
649.885	-5.0122
650.333	40.07901
650.78	1.00243
651.227	-2.0049
651.674	5.01157
652.121	45.10924
652.568	36.08764
653.015	30.07551
653.461	33.07815
653.908	8.0186
654.354	29.06932
654.801	56.13357
655.247	6.01315
655.693	24.06175
656.139	69.16688
656.585	23.05569
657.031	11.02633
657.477	5.01112
657.922	36.08419
658.368	46.11424
658.813	20.04684
659.259	2.00485
659.704	-12.0285
660.149	41.09669
660.594	32.07665
661.039	-17.03937
661.484	45.1074
661.929	3.00707
662.373	25.06384
662.818	2.00501
663.262	6.01465
663.707	11.02797
664.151	0
664.595	4.00991
665.039	8.02001
665.483	13.03372
665.927	-10.0237
666.371	85.20115
666.814	28.06773
667.258	44.10575
667.701	59.12876
668.145	37.09258
668.588	22.05466
669.031	29.06985
669.474	-4.00981
669.917	37.0828
670.36	50.12476
670.803	2.00492
671.245	98.21228
671.688	14.03431
672.13	53.12299
672.573	3.00768
673.015	-11.02694
673.457	13.02938
673.899	42.10259
674.341	8.01959
674.783	8.01965
675.225	53.13237
675.666	-16.03981
676.108	-30.0667
676.549	16.03835
676.991	22.05013
677.432	69.14643
677.873	16.03791
678.314	11.02678
678.755	17.04246
679.196	50.11858
679.637	21.05224
680.078	56.13332
680.518	22.05211
680.959	-45.10978
681.399	-12.03037
681.839	15.03726
682.28	41.10329
682.72	53.12523
683.16	47.11895
683.6	-17.03978
684.039	-28.06068
684.479	0
684.919	35.08411
685.358	20.05115
685.798	34.09113
686.237	20.04922
686.676	-42.09914
687.115	-6.0145
687.554	-9.02209
687.993	-22.05058
688.432	27.06335
688.871	24.05628
689.309	38.09306
689.748	18.03919
690.186	48.11668
690.625	25.06046
691.063	51.12548
691.501	20.05066
691.939	67.17072
692.377	29.0728
692.815	45.11023
693.253	24.05858
693.69	8.01825
694.128	18.04509
694.565	29.07069
695.003	9.02322
695.44	61.14742
695.877	13.03145
696.314	58.12805
696.751	-21.04914
697.188	21.04923
697.625	-3.00701
698.061	-6.01494
698.498	49.12056
698.934	49.12003
699.371	27.06535
699.807	55.13282
700.243	-9.02216
700.679	6.014
701.115	4.00952
701.551	32.07659
701.987	67.154
702.422	0
702.858	45.1099
703.294	-27.06251
703.729	49.12131
704.164	46.11203
704.599	40.09115
705.035	-12.02792
705.47	-34.08478
705.904	53.12726
706.339	42.0993
706.774	31.07483
707.209	-1.0024
707.643	19.04664
708.078	-9.02239
708.512	-16.04118
708.946	12.02925
709.38	21.05113
709.814	58.13696
710.248	22.05506
710.682	27.06611
711.116	42.10423
711.549	18.04763
711.983	12.02868
712.416	4.00971
712.85	52.13191
713.283	11.02657
713.716	11.02784
714.149	35.08443
714.582	9.02101
715.015	8.0203
715.448	29.07436
715.881	-17.03776
716.313	-29.06921
716.746	6.01457
717.178	-2.00496
717.61	21.05387
718.043	34.08582
718.475	-10.02476
718.907	8.02034
719.339	33.07767
719.77	-10.02448
720.202	-7.01814
720.634	67.1663
721.065	54.13131
721.497	29.0728
721.928	24.06052
722.359	8.02007
722.79	44.10832
723.221	3.00766
723.652	39.10088
724.083	-2.00471
724.514	0
724.945	10.02417
725.375	26.06289
725.806	-1.00251
726.236	-8.0207
726.666	33.08041
727.096	32.08072
727.526	47.12144
727.956	-11.02621
728.386	40.10071
728.816	73.19032
729.246	-31.0779
729.675	3.00754
730.105	46.11537
730.534	18.04331
730.964	24.06142
731.393	-7.01759
731.822	-24.06205
732.251	38.09831
732.68	10.02389
733.109	68.17183
733.537	10.02484
733.966	-21.05351
734.395	39.09226
734.823	13.03016
735.251	-15.03722
735.68	45.11373
736.108	20.05174
736.536	26.06349
736.964	-38.09168
737.392	25.0637
737.82	-41.09998
738.247	41.10069
738.675	-2.00483
739.102	41.10546
739.53	-13.03381
739.957	2.00522
740.384	12.02992
740.811	22.05652
741.238	-21.05245
741.665	8.01908
742.092	-1.00244
742.519	32.08152
742.945	-58.14431
743.372	41.1034
743.798	-3.00788
744.225	17.04173
744.651	9.02304
745.077	20.05079
745.503	80.19854
745.929	-2.00494
746.355	-29.07185
746.781	9.02278
747.207	-11.02666
747.632	-14.03535
748.058	5.01262
748.483	24.05718
748.908	-14.03568
749.334	16.04042
749.759	11.0269
750.184	-43.10607
750.609	-30.07513
751.033	-32.07644
751.458	7.01604
751.883	-32.08031
752.307	-4.0098
752.732	22.05694
753.156	11.02793
753.58	10.0242
754.005	-1.00257
754.429	-37.09036
754.853	46.11673
755.277	-15.03622
755.7	23.0579
756.124	-38.09725
756.548	16.03921
756.971	3.00751
757.394	13.03399
757.818	30.07842
758.241	31.07996
758.664	35.09081
759.087	-41.09616
759.51	-27.06863
759.933	-58.14368
760.356	-20.05196
760.778	54.13718
761.201	19.04725
761.623	22.05442
762.046	11.02635
762.468	-3.00734
762.89	-42.10511
763.312	-3.00743
763.734	-12.02972
764.156	24.06056
764.578	-15.03535
765	47.11726
765.421	65.17045
765.843	4.01064
766.264	-33.08092
766.686	0
767.107	11.02745
767.528	-8.02085
767.949	-7.01801
768.37	25.06291
768.791	-5.01239
769.212	-5.01302
769.632	17.04087
770.053	16.04279
770.473	14.03476
770.894	-3.00756
771.314	-5.01207
771.734	17.04085
772.154	-28.07361
772.575	5.01181
772.994	-19.04472
773.414	29.07056
773.834	-34.08601
774.254	46.11528
774.673	0
775.093	-20.05039
775.512	-8.0204
775.931	39.10053
776.351	-5.01269
776.77	29.07308
777.189	-8.01957
777.607	-15.03877
778.026	-10.02531
778.445	-75.19299
778.864	-5.01292
779.282	1.00248
779.701	-42.10866
780.119	11.02837
780.537	-4.01026
780.955	-18.0466
781.373	10.02506
781.791	-10.02311
782.209	-28.0654
782.627	-33.08826
783.045	-6.0142
783.462	13.03351
783.88	14.03696
784.297	5.0129
784.715	-7.01839
785.132	-5.01234
785.549	7.01796
785.966	-12.03067
786.383	-25.063
786.8	-19.04472
787.217	-34.0828
787.633	-22.05686
788.05	-7.01665
788.466	37.08834
788.883	-49.12797
789.299	-25.06156
789.715	28.06972
790.131	29.0734
790.547	-36.091
790.963	54.13548
791.379	-12.0308
791.795	6.01384
792.21	16.03834
792.626	-34.08234
793.041	-5.01261
793.457	-28.07053
793.872	-45.10834
794.287	-5.01247
794.702	-32.07999
795.117	-4.01025
795.532	-25.06415
795.947	20.04864
796.362	-18.04323
796.776	-11.02584
797.191	44.10991
797.605	-3.0073
798.02	19.04732
798.434	6.0136
798.848	18.04524
799.262	2.00509
799.676	-7.01724
800.09	-46.11462
800.504	33.08131
800.918	24.05689
801.331	-5.01314
801.745	-48.11238
802.158	28.07103
802.572	0
802.985	3.00737
803.398	13.03158
803.811	-33.0853
804.224	-20.05041
804.637	-8.01948
805.05	-4.00951
805.462	55.13732
805.875	27.07133
806.288	-9.02204
806.7	-28.07184
807.112	9.02128
807.525	-14.03501
807.937	-27.06846
808.349	-18.04544
808.761	-22.05458
809.173	-2.00494
809.584	-37.09187
809.996	17.04261
810.408	-24.0635
810.819	-8.01949
811.231	-7.01875
811.642	27.06734
812.053	35.08583
812.464	2.00489
812.875	32.08301
813.286	29.07483
813.697	-11.02548
814.108	-26.06424
814.519	-26.05889
814.929	-21.05368
815.34	-15.03693
815.75	-12.03099
816.16	6.01509
816.571	34.08926
816.981	-52.12417
817.391	-1.00246
817.801	10.02519
818.211	-30.07254
818.62	17.04186
819.03	7.01743
819.44	-6.01576
819.849	29.07397
820.259	2.00512
820.668	-49.12384
821.077	24.06086
821.486	46.11224
821.895	-11.02731
822.304	20.05317
822.713	18.0431
823.122	-10.0252
823.531	-53.12794
823.939	-22.05472
824.348	-22.05442
824.756	22.05551
825.164	-31.07868
825.573	2.0051
825.981	-51.12742
826.389	26.06596
826.797	3.0077
827.205	22.05187
827.612	-33.08251
828.02	1.00241
828.428	-3.0077
828.835	-44.11751
829.243	-20.04834
829.65	-50.12715
830.057	-31.07605
830.464	1.00246
830.871	2.0048
831.278	-8.01962
831.685	-21.04812
832.092	2.00498
832.499	7.01565
832.905	-37.09504
833.312	20.04616
833.718	21.05239
834.124	-52.12108
834.531	3.00763
834.937	3.00775
835.343	-6.01472
835.749	-29.06879
836.155	-4.01063
836.561	-37.09214
836.966	-27.06685
837.372	-1.00259
837.777	-4.01009
838.183	17.03853
838.588	-10.0253
838.993	-62.15268
839.399	31.07756
839.804	-42.10541
840.209	11.02841
840.613	-45.10323
841.018	19.04852
841.423	-14.03633
841.828	-26.06663
842.232	-38.09499
842.637	5.01197
843.041	-24.06267
843.445	-17.04339
843.849	14.0351
844.253	20.0478
844.657	-22.05666
845.061	-39.09029
845.465	29.07154
845.869	-19.0451
846.272	-5.01247
846.676	-69.16732
847.079	-2.00519
847.483	0
847.886	25.06099
848.289	3.0081
848.692	-32.08184
849.095	-18.044
849.498	6.01512
849.901	-22.05147
850.304	-32.07729
850.707	-12.03083
851.109	-14.03541
851.512	14.03512
851.914	28.07271
852.316	-13.03337
852.718	9.02406
853.121	33.08221
853.523	55.13257
853.925	-16.04257
854.326	-7.01787
854.728	-4.01043
855.13	-23.06023
855.531	1.00246
855.933	9.02188
856.334	-8.02022
856.736	32.07425
857.137	-14.03342
857.538	20.05129
857.939	5.01268
858.34	0
858.741	12.03161
859.142	-25.06085
859.542	-28.07495
859.943	32.08098
860.343	-15.03826
860.744	5.0123
861.144	-3.00741
861.544	-12.02989
861.945	20.05158
862.345	-17.04212
862.745	-32.08051
863.145	8.01912
863.544	-2.00512
863.944	18.04349
864.344	-10.02494
864.743	-12.02991
865.143	19.04952
865.542	1.00238
865.941	-30.07521
866.34	9.02159
866.74	16.04308
867.139	-19.04633
867.537	17.04364
867.936	-3.00732
868.335	-32.08244
868.734	-17.04415
869.132	-6.01417
869.531	-39.09425
869.929	18.04228
870.327	42.10244
870.726	-26.06518
871.124	-18.04237
871.522	-14.03592
871.92	70.17302
872.318	3.00736
872.715	-12.02964
873.113	8.01976
873.511	-65.16258
873.908	-48.12371
874.306	-2.00508
874.703	15.03771
875.1	-25.06413
875.497	-1.00243
875.894	33.08248
876.291	-67.16606
876.688	0
877.085	-53.12953
877.482	8.02025
877.878	-2.00492
878.275	-16.04111
878.671	-11.02437
879.068	22.05344
879.464	50.12209
879.86	-12.02913
880.256	-7.0174
880.652	9.02331
881.048	-27.06775
881.444	-40.09629
881.84	29.07444
882.236	-9.02283
882.631	-2.00495
883.027	-18.04371
883.422	-1.0026
883.817	-4.01033
884.213	-9.02345
884.608	-17.04306
885.003	5.01237
885.398	5.01271
885.793	22.05581
886.188	-26.06649
886.582	-1.00258
886.977	43.10302
887.371	-52.13191
887.766	-10.02532
888.16	7.01768
888.554	-49.12136
888.949	19.04769
889.343	26.06386
889.737	-4.01084
890.131	7.01778
890.525	21.05447
890.918	21.05343
891.312	17.04077
891.706	-18.04759
892.099	2.00511
892.492	-26.05697
892.886	6.01505
893.279	20.05185
893.672	12.03094
894.065	-5.01263
894.458	-3.00757
894.851	-17.04163
895.244	35.09034
895.637	-15.03661
896.029	-11.02752
896.422	9.0222
896.814	0
897.206	-15.03651
897.599	48.11773
897.991	13.03194
898.383	-21.0502
898.775	-1.0023
899.167	-8.01921
899.559	-28.07123
899.951	55.13071
900.342	21.05383
900.734	-5.01273
901.125	32.08492
901.517	-22.05456
901.908	-1.0024
902.299	40.09996
902.69	19.0454
903.082	3.00723
903.473	-11.02705
903.863	-19.04874
904.254	-12.02821
904.645	15.03701
905.036	-4.00989
905.426	-2.00464
905.817	1.00249
906.207	-49.12083
906.597	-33.07909
906.987	-6.01546
907.378	-20.05108
907.768	2.00534
908.158	0
908.547	32.08418
908.937	-20.05135
909.327	15.03661
909.717	23.05809
910.106	0
910.495	-7.01755
910.885	33.08414
911.274	29.07308
911.663	29.07337
912.052	-18.04464
912.441	28.07211
912.83	10.0235
913.219	25.06516
913.608	-50.12309
913.997	0
914.385	45.10851
914.774	-15.03704
915.162	2.00488
915.55	-12.02915
915.939	-22.05646
916.327	-52.13018
916.715	0
917.103	21.05182
917.491	11.02742
917.878	44.10923
918.266	-20.05215
918.654	14.03596
919.041	1.00263
919.429	-30.07167
919.816	-4.01024
920.203	-20.04929
920.591	-35.08767
920.978	31.0761
921.365	19.05013
921.752	5.01202
922.139	-33.07302
922.525	51.12576
922.912	9.02206
923.299	-2.0051
923.685	-4.01048
924.072	-24.05619
924.458	-14.03523
924.844	8.02024
925.231	7.01659
925.617	9.02346
926.003	16.04105
926.389	-31.07907
926.774	-14.03593
927.16	-31.07829
927.546	-34.08842
927.931	27.06817
928.317	-20.04692
928.702	-5.01189
929.088	14.03408
929.473	4.01029
929.858	-13.03252
930.243	-11.02685
930.628	4.00996
931.013	-25.06303
931.398	-35.08071
931.783	-47.12396
932.167	-38.09389
932.552	-36.09048
932.937	-20.0501
933.321	16.0408
933.705	-40.10241
934.09	-36.09035
934.474	57.13583
934.858	-41.10697
935.242	-86.20513
935.626	17.04396
936.009	-3.00807
936.393	-41.10528
936.777	-42.10832
937.16	12.03155
937.544	-21.04968
937.927	-38.09787
938.311	40.09753
938.694	-12.03169
939.077	5.01221
939.46	-39.09631
939.843	-12.02542
940.226	15.03893
940.609	15.03535
940.991	-11.0285
941.374	-45.11206
941.757	31.07726
942.139	-45.10327
942.522	18.04246
942.904	-54.13186
943.286	-15.03838
943.668	4.0105
944.05	-16.04026
944.432	30.07532
944.814	65.16163
945.196	10.02508
945.578	19.04649
945.959	-11.02622
946.341	-5.01222
946.722	-19.04493
947.104	-13.03132
947.485	38.09019
947.866	-21.05407
948.247	-9.02305
948.628	6.01477
949.009	8.02075
949.39	-15.03754
949.771	24.05632
950.152	27.06695
950.532	-20.05054
950.913	61.14903
951.293	-7.01922
951.674	-7.01713
952.054	-23.05784
952.434	-29.0728
952.814	-48.11427
953.194	-8.0208
953.574	1.00246
953.954	3.00724
954.334	-22.05555
954.714	-10.02484
955.093	-4.00978
955.473	-5.01265
955.853	-3.00777
956.232	-57.15705
956.611	-78.18989
956.99	-20.05025
957.37	7.01792
957.749	1.00241
958.128	-30.07635
958.506	-23.06062
958.885	-4.0102
959.264	-1.00251
959.643	22.05104
960.021	-37.09284
960.4	-37.08559
960.778	31.07565
961.156	2.00509
961.535	-17.0402
961.913	22.05199
962.291	-1.00261
962.669	-72.18349
963.047	23.0591
963.424	-4.0103
963.802	-5.01241
964.18	19.048
964.557	10.0234
964.935	23.05445
965.312	17.04487
965.69	-5.01264
966.067	-3.00738
966.444	39.09599
966.821	-34.08799
967.198	-28.06804
967.575	0
967.952	-3.00704
968.329	-18.04438
968.705	58.12649
969.082	14.03654
969.458	9.02191
969.835	-19.04632
970.211	-19.04955
970.587	25.06237
970.963	10.02576
971.339	-13.03432
971.715	7.01763
972.091	39.09656
972.467	-18.04529
972.843	-17.04323
973.219	19.04545
973.594	-29.07715
973.97	32.07644
974.345	1.00243
974.721	-3.00733
975.096	29.07096
975.471	-47.11127
975.846	48.11616
976.221	-6.0156
976.596	-22.05396
976.971	-22.05446
977.346	-15.0353
977.72	-40.10226
978.095	-66.17245
978.469	12.02875
978.844	10.02504
979.218	37.0904
979.593	-13.03113
979.967	15.03704
980.341	-14.03298
980.715	-26.06603
981.089	10.02535
981.463	23.05354
981.837	-5.01244
982.21	-47.10864
982.584	-28.06916
982.957	-3.00759
983.331	6.01429
983.704	-4.01001
984.078	-25.06235
984.451	-30.07423
984.824	3.0075
985.197	-5.01228
985.57	0
985.943	-12.02958
986.316	-24.05952
986.688	20.04843
987.061	-12.02869
987.434	4.01044
987.806	-3.00729
988.179	32.07712
988.551	30.07643
988.923	-67.16673
989.295	57.14246
989.667	26.06393
990.039	10.02504
990.411	25.05808
990.783	-25.05763
991.155	-1.00247
991.527	-18.04394
991.898	3.00753
992.27	17.04273
992.641	-19.04809
993.012	23.05453
993.384	-12.02913
993.755	-33.08548
994.126	16.03872
994.497	-17.04277
994.868	-10.02324
995.239	-38.09382
995.61	24.06123
995.98	28.06901
996.351	-6.01519
996.722	10.02368
997.092	-25.06024
997.462	13.03129
997.833	-25.05955
998.203	-4.00976
998.573	-9.02264
998.943	24.05716
999.313	-44.10648
999.683	-44.10756
1000.053	1.00232
1000.423	-19.04649
1000.792	16.04208
1001.162	4.00995
1001.531	7.01743
1001.901	-26.06551
1002.27	40.0906
1002.639	9.02316
1003.009	15.0361
1003.378	-13.03343
1003.747	-2.00479
1004.116	-38.0931
1004.485	-17.04082
1004.853	-25.0639
1005.222	17.04324
1005.591	33.07876
1005.959	47.10954
1006.328	-7.01615
1006.696	-25.06101
1007.064	-18.04612
1007.433	-27.06773
1007.801	4.00976
1008.169	5.01282
1008.537	-22.0491
1008.905	-12.02857
1009.273	27.06702
1009.64	-9.02199
1010.008	29.06971
1010.375	-36.08616
1010.743	-1.00233
1011.11	21.05041
1011.478	-5.01241
1011.845	28.06602
1012.212	44.10124
1012.579	-18.0447
1012.946	41.09804
1013.313	-46.11014
1013.68	12.0271
1014.047	30.07328
1014.414	10.02397
1014.78	-46.11599
1015.147	4.00968
1015.513	-18.04407
1015.88	-11.02825
1016.246	11.02725
1016.612	43.09896
1016.978	-3.00747
1017.344	-10.02496
1017.71	-47.11431
1018.076	-2.00474
1018.442	-2.00517
1018.808	7.01769
1019.174	14.03557
1019.539	50.11348
1019.905	-3.00715
1020.27	-24.06034
1020.636	-21.05073
1021.001	18.04376
1021.366	-53.12915
1021.731	-31.08071
1022.096	-50.12774
1022.461	-22.05215
1022.826	-7.01696
1023.191	-11.02906
1023.556	-19.04528
1023.92	4.00983
1024.285	-20.04918
1024.649	6.01473
1025.014	-49.1226
1025.378	1.00255
1025.742	20.05001
1026.107	11.02509
1026.471	39.0904
1026.835	-4.00993
1027.199	7.01715
1027.562	23.0543
1027.926	-6.01471
1028.29	27.0695
1028.654	21.04898
1029.017	-11.02714
1029.381	27.06621
1029.744	28.07211
1030.107	-30.07117
1030.471	-55.13417
1030.834	-22.05076
1031.197	8.01918
1031.56	1.00237
1031.923	-11.02867
1032.286	-28.06574
1032.648	-1.00243
1033.011	-31.07373
1033.374	-23.05426
1033.736	18.04798
1034.099	0
1034.461	19.04904
1034.823	-8.02019
1035.185	26.06591
1035.548	-6.01481
1035.91	24.05832
1036.272	-21.04883
1036.634	-7.01711
1036.995	-12.02834
1037.357	-19.04687
1037.719	-43.10564
1038.08	-55.13151
1038.442	-23.05542
1038.803	8.01951
1039.165	-8.02029
1039.526	1.00243
1039.887	-16.03892
1040.248	-25.06352
1040.609	7.01729
1040.97	11.02747
1041.331	-56.14342
1041.692	12.02854
1042.053	4.00917
1042.413	0
1042.774	-16.03926
1043.134	8.01896
1043.495	-13.03291
1043.855	38.0921
1044.215	-19.04728
1044.576	7.0171
1044.936	-46.10584
1045.296	21.05241
1045.656	-33.08218
1046.016	32.0775
1046.375	25.06171
1046.735	-16.03743
1047.095	6.01426
1047.454	-46.09871
1047.814	-53.12828
1048.173	-15.03577
1048.533	5.01163
1048.892	4.00984
1049.251	-8.02016
1049.61	8.01993
1049.969	-32.07606
1050.328	-2.0044
1050.687	-21.05199
1051.046	-9.02209
1051.405	13.03255
1051.763	-10.02343
1052.122	-10.02555
1052.48	-24.05926
1052.839	-14.03348
1053.197	-34.08066
1053.555	-41.09288
1053.914	-12.02973
1054.272	31.07452
1054.63	23.05719
1054.988	-26.06266
1055.345	-15.03314
1055.703	-29.07003
1056.061	-16.04159
1056.419	-14.03663
1056.776	-15.03646
1057.134	-28.06633
1057.491	5.01258
1057.848	-17.0428
1058.206	11.02618
1058.563	-19.04299
1058.92	12.02781
1059.277	-13.03209
1059.634	19.04528
1059.991	-51.12246
1060.348	44.10184
1060.704	-54.132
1061.061	-36.08253
1061.418	42.10294
1061.774	14.0349
1062.131	-20.05341
1062.487	-25.05923
1062.843	17.04266
1063.199	-23.05761
1063.555	0
1063.911	18.04592
1064.267	-16.0338
1064.623	-7.01731
1064.979	-2.00468
1065.335	-28.0665
1065.691	-50.12045
1066.046	-13.02879
1066.402	7.01624
1066.757	-33.08358
1067.112	-29.0709
1067.468	-39.0945
1067.823	8.01942
1068.178	-31.07574
1068.533	-53.13002
1068.888	3.00726
1069.243	-47.11811
1069.598	49.1198
1069.952	-13.03026
1070.307	24.06028
1070.662	9.02178
1071.016	-5.01153
1071.371	-26.06025
1071.725	-11.02648
1072.079	-42.10171
1072.434	-3.00739
1072.788	68.164
1073.142	32.0786
1073.496	40.09767
1073.85	-28.06571
1074.203	-34.08259
1074.557	-9.02418
1074.911	-10.02393
1075.265	2.00469
1075.618	18.04418
1075.971	18.04325
1076.325	-20.05172
1076.678	48.11278
1077.031	-34.07932
1077.385	24.05378
1077.738	31.07183
1078.091	14.03287
1078.444	13.03056
1078.796	-6.01487
1079.149	0
1079.502	-7.01694
1079.855	14.03324
1080.207	-17.04206
1080.56	36.09394
1080.912	5.0123
1081.264	-6.01463
1081.617	29.07201
1081.969	16.04105
1082.321	11.02732
1082.673	21.04939
1083.025	-29.06942
1083.377	-274.62762
1083.728	-33.07834
1084.08	15.03796
1084.432	23.05632
1084.783	-21.04931
1085.135	-6.01524
1085.486	2.0047
1085.838	-14.03493
1086.189	1.00246
1086.54	-21.05039
1086.891	-11.0284
1087.242	3.00735
1087.593	-25.06069
1087.944	62.14248
1088.295	-38.08712
1088.646	-25.06149
1088.996	1.00246
1089.347	-25.06217
1089.698	25.0606
1090.048	6.0156
1090.398	-7.01642
1090.749	-29.07006
1091.099	-9.02301
1091.449	-31.07784
1091.799	39.09867
1092.149	16.04023
1092.499	-26.06363
1092.849	-20.05144
1093.199	8.01994
1093.548	-55.13452
1093.898	16.04065
1094.248	9.02306
1094.597	-11.02873
1094.947	14.03745
1095.296	-5.01253
1095.645	-13.03394
1095.994	11.02688
1096.343	6.01518
1096.692	-5.0134
1097.041	-13.03573
1097.39	3.00756
1097.739	-26.0677
1098.088	23.0616
1098.437	-10.02663
1098.785	-1.00272
1099.134	-5.01333
1099.482	-2.00551
1099.83	-33.08668
1100.179	-29.07677
1100.527	47.12542
1100.875	-3.00801
1101.223	-30.08001
1101.571	8.02232
1101.919	-25.06676
1102.267	-9.02547
1102.615	-1.00322
1102.962	-5.0161
1103.31	-1.00322
1103.658	0
