Data from N2 R2  sample 10_Subt2__3__17-01-30-666.txt Node

Date: Wed Aug 27 17:01:30 PDT 2025
User: uwsun
Spectrometer: HDX01956
Trigger mode: 0
Integration Time (sec): 5.000000E-1
Scans to average: 1
Nonlinearity correction enabled: true
Boxcar width: 0
Storing dark spectrum: false
XAxis mode: Wavelengths
Number of Pixels in Spectrum: 2068
>>>>>Begin Spectral Data<<<<<
194.03	207.58584
194.578	227.72115
195.127	218.68387
195.676	224.70408
196.225	200.53214
196.773	205.56674
197.321	367.98779
197.87	474.16855
198.418	534.31714
198.966	481.21031
199.513	467.13711
200.061	461.14124
200.609	455.15378
201.156	490.04034
201.704	475.1678
202.251	437.11862
202.798	498.25649
203.345	501.18952
203.892	467.13203
204.438	519.18917
204.985	470.08211
205.532	501.26205
206.078	554.30012
206.624	498.18806
207.17	533.18411
207.716	531.25117
208.262	488.92864
208.808	475.13937
209.354	531.24633
209.899	488.17881
210.445	454.09408
210.99	504.16975
211.535	535.20183
212.08	503.13354
212.625	503.20298
213.17	483.16123
213.715	471.02751
214.259	479.07013
214.804	527.24366
215.348	499.09744
215.892	491.12807
216.436	465.03366
216.98	512.08619
217.524	477.08361
218.068	476.13723
218.612	535.28447
219.155	461.04635
219.698	452.03231
220.242	441.04926
220.785	442.99892
221.328	465.1145
221.871	392.94985
222.414	450.08156
222.956	476.10292
223.499	418.91887
224.041	486.09673
224.583	413.85956
225.126	455.97896
225.668	475.11601
226.21	408.99565
226.751	451.96619
227.293	431.95321
227.835	431.01246
228.376	436.98095
228.918	477.14808
229.459	484.1621
230	411.94116
230.541	469.04688
231.082	496.15523
231.622	467.05142
232.163	433.01954
232.704	488.16372
233.244	388.92495
233.784	403.95057
234.324	423.90973
234.864	439.96482
235.404	428.97556
235.944	434.98923
236.484	406.97192
237.023	459.04896
237.563	459.02368
238.102	410.92435
238.641	442.06832
239.18	474.0696
239.719	476.14632
240.258	462.99808
240.797	484.11883
241.335	427.00499
241.874	451.84966
242.412	425.98648
242.95	469.08818
243.488	497.09624
244.026	431.96076
244.564	423.84196
245.102	496.08055
245.64	494.13701
246.177	424.91874
246.715	494.12025
247.252	475.03757
247.789	454.80518
248.326	461.07801
248.863	450.95843
249.4	459.99011
249.936	477.96005
250.473	484.08243
251.009	469.043
251.546	527.12172
252.082	422.88904
252.618	491.05855
253.154	484.11174
253.69	478.03951
254.226	417.94877
254.761	500.07638
255.297	476.01496
255.832	450.01618
256.367	503.13954
256.903	470.99928
257.438	465.03452
257.972	513.1037
258.507	502.11583
259.042	420.87471
259.576	459.96251
260.111	458.01449
260.645	461.95347
261.179	458.02165
261.713	522.10745
262.247	505.10973
262.781	445.89771
263.315	475.1056
263.849	539.27594
264.382	502.09041
264.915	585.30356
265.449	513.20215
265.982	525.12956
266.515	489.13779
267.048	442.89514
267.58	472.97994
268.113	509.05561
268.646	475.12554
269.178	475.03669
269.71	474.97663
270.243	510.10452
270.775	502.21768
271.307	521.17799
271.838	497.11132
272.37	494.15283
272.902	519.12285
273.433	495.03658
273.965	576.31071
274.496	508.18694
275.027	562.31738
275.558	541.24114
276.089	501.18724
276.62	499.19975
277.15	556.28908
277.681	534.09941
278.211	526.22088
278.741	531.11995
279.272	554.19742
279.802	589.37993
280.332	538.21081
280.861	555.25854
281.391	559.19871
281.921	493.11549
282.45	524.24445
282.98	518.27623
283.509	577.22512
284.038	560.20008
284.567	549.19241
285.096	540.22622
285.625	504.07803
286.153	569.25635
286.682	575.25109
287.21	588.32132
287.739	567.26027
288.267	576.31124
288.795	566.39513
289.323	580.27293
289.851	571.24185
290.378	644.35659
290.906	621.4192
291.433	588.3655
291.961	626.33364
292.488	593.36003
293.015	610.33661
293.542	622.47064
294.069	656.50075
294.596	615.40603
295.122	642.41684
295.649	513.06724
296.175	646.45535
296.702	641.43084
297.228	601.35305
297.754	631.31257
298.28	612.30265
298.806	561.25207
299.332	615.28606
299.857	636.3268
300.383	627.45357
300.908	665.5113
301.433	654.45898
301.958	675.45153
302.483	685.58187
303.008	603.35977
303.533	695.66072
304.058	611.32164
304.582	677.49011
305.107	689.64951
305.631	640.34107
306.155	690.4835
306.679	666.44228
307.203	696.47781
307.727	727.58354
308.251	625.40829
308.775	713.54318
309.298	715.57579
309.822	730.66346
310.345	729.55568
310.868	712.54134
311.391	680.51079
311.914	781.77435
312.437	680.39926
312.96	696.49321
313.482	742.58789
314.005	782.77841
314.527	758.78612
315.049	764.72557
315.571	745.50051
316.093	787.73385
316.615	773.65891
317.137	781.50969
317.659	739.58861
318.18	793.68871
318.702	859.77792
319.223	827.49669
319.744	833.658
320.265	822.76375
320.786	847.85908
321.307	828.83067
321.828	880.71719
322.348	913.83762
322.869	870.81474
323.389	886.29052
323.909	897.79381
324.43	909.86642
324.95	880.75856
325.47	972.05099
325.989	940.89418
326.509	956.82344
327.029	975.87994
327.548	915.77083
328.067	1029.10667
328.587	924.94361
329.106	1006.96618
329.625	1015.23071
330.144	965.87218
330.662	1020.99452
331.181	1048.01897
331.7	1066.0459
332.218	1080.91469
332.736	1068.03307
333.255	1116.13186
333.773	1111.12585
334.291	1077.18036
334.808	1083.96021
335.326	1166.10156
335.844	1178.20848
336.361	1151.36736
336.879	1220.28521
337.396	1178.26896
337.913	1294.36035
338.43	1267.2028
338.947	1296.40429
339.464	1345.21211
339.981	1266.34383
340.497	1309.49374
341.014	1356.54074
341.53	1357.31318
342.046	1310.46748
342.562	1353.54809
343.078	1377.44389
343.594	1437.56265
344.11	1410.48027
344.626	1424.67765
345.141	1433.3708
345.657	1394.27496
346.172	1491.63907
346.687	1453.44882
347.202	1603.55038
347.717	1520.60034
348.232	1560.83056
348.747	1618.60572
349.261	1512.35204
349.776	1625.68802
350.29	1649.88443
350.805	1691.92625
351.319	1676.67145
351.833	1662.61912
352.347	1686.71628
352.861	1716.74048
353.374	1740.64559
353.888	1622.66183
354.401	1733.69894
354.915	1841.76127
355.428	1769.96495
355.941	1808.7536
356.454	1843.59353
356.967	1795.76788
357.48	1794.65555
357.993	1740.86977
358.505	1774.91203
359.018	1970.06635
359.53	1938.8894
360.042	1896.61889
360.554	1857.84662
361.066	1894.98757
361.578	1890.54279
362.09	1976.92087
362.602	1929.56375
363.113	2018.8247
363.625	2025.68408
364.136	2108.66015
364.647	2017.81886
365.158	2097.88399
365.669	2114.02081
366.18	2069.87698
366.691	2111.64147
367.201	2105.93376
367.712	2183.84884
368.222	2139.75286
368.733	2202.58645
369.243	2303.70743
369.753	2312.81312
370.263	2355.08487
370.773	2370.25292
371.282	2406.99366
371.792	2452.8738
372.301	2556.1414
372.811	2611.47431
373.32	2541.57267
373.829	2568.88704
374.338	2796.64638
374.847	2814.77258
375.356	2841.86653
375.865	2977.33244
376.373	3104.53415
376.882	3197.09675
377.39	3286.79558
377.898	3351.93038
378.407	3549.3677
378.915	3515.9688
379.423	3737.30263
379.93	3821.99728
380.438	4032.27037
380.946	4202.86046
381.453	4350.9467
381.96	4570.59339
382.468	4808.35708
382.975	5269.22802
383.482	5518.79384
383.989	5493.40329
384.495	5709.71131
385.002	5940.16584
385.509	6296.46058
386.015	6809.13863
386.521	6975.39113
387.028	7145.49479
387.534	7475.74971
388.04	7613.97942
388.546	7937.41902
389.051	8210.97787
389.557	8897.55753
390.063	9660.40561
390.568	10103.72585
391.073	10474.24905
391.578	10808.74706
392.084	11280.3141
392.589	11583.49343
393.093	12240.7092
393.598	13429.95243
394.103	14659.61032
394.607	16222.73627
395.112	17344.51295
395.616	18435.04579
396.12	20208.68338
396.624	22634.73468
397.128	24518.11188
397.632	27014.59863
398.136	29583.83842
398.639	30885.03957
399.143	33707.43713
399.646	38181.81915
400.15	42607.78774
400.653	46365.14067
401.156	51557.83127
401.659	55016.20776
402.162	53727.22129
402.664	47275.14456
403.167	32260.27245
403.67	3851.94142
404.172	0
404.674	0
405.176	0
405.678	0
406.18	0
406.682	0
407.184	0
407.686	12367.42319
408.187	34596.90747
408.688	44563.94194
409.19	48906.19284
409.691	51236.67962
410.192	52883.26968
410.693	53713.23343
411.194	54189.54801
411.694	54767.79104
412.195	55625.98899
412.696	55971.27715
413.196	55815.15953
413.696	55802.1488
414.196	55740.09561
414.696	56340.4775
415.196	57067.59327
415.696	57243.83115
416.196	47996.62382
416.695	37355.44764
417.195	31546.9096
417.694	29532.59999
418.194	28126.39766
418.693	26159.69459
419.192	25153.23648
419.691	24704.67961
420.19	24167.25014
420.688	23262.96653
421.187	22423.5669
421.685	20909.08759
422.184	19188.19667
422.682	16835.98349
423.18	14530.40326
423.678	13010.49919
424.176	11987.95064
424.674	11211.44512
425.172	10683.68944
425.669	10006.06566
426.167	9356.8319
426.664	8464.40562
427.161	7980.48393
427.659	7248.80888
428.156	6723.17102
428.652	6417.89572
429.149	6027.72269
429.646	5814.44938
430.143	5602.91943
430.639	5302.03492
431.135	5008.57976
431.632	4755.36611
432.128	4272.75164
432.624	4208.35776
433.12	3938.79665
433.616	3845.70957
434.111	3803.29552
434.607	3572.40897
435.103	3454.8534
435.598	3333.74907
436.093	3250.43126
436.588	3022.28152
437.083	2936.45971
437.578	2706.39283
438.073	2713.00616
438.568	2664.86412
439.062	2518.28009
439.557	2385.65307
440.051	2325.57508
440.546	2251.5963
441.04	2181.76566
441.534	2136.93067
442.028	2144.70525
442.522	2026.6986
443.015	2086.42908
443.509	2027.82961
444.002	1965.77042
444.496	1899.30838
444.989	1918.72724
445.482	1837.7503
445.975	1797.43312
446.468	1873.34501
446.961	1773.16792
447.454	1823.48497
447.947	1659.4508
448.439	1714.59029
448.931	1630.25245
449.424	1654.66127
449.916	1593.48574
450.408	1550.21969
450.9	1570.43051
451.392	1552.57965
451.884	1525.27087
452.375	1450.42601
452.867	1420.09074
453.358	1453.18589
453.849	1405.99114
454.341	1374.05671
454.832	1365.98122
455.323	1382.34286
455.814	1338.10445
456.304	1316.10164
456.795	1355.15643
457.285	1253.94315
457.776	1292.01295
458.266	1243.13484
458.756	1289.22715
459.247	1281.18878
459.737	1249.19072
460.226	1211.97288
460.716	1206.10123
461.206	1163.0722
461.695	1159.1786
462.185	1141.01721
462.674	1166.97396
463.163	1126.86804
463.653	1092.71924
464.142	1061.96021
464.63	1088.00735
465.119	1072.88771
465.608	1079.91242
466.096	1058.77792
466.585	994.79646
467.073	983.84202
467.561	940.79374
468.05	951.74959
468.538	938.83571
469.026	898.71347
469.513	889.49183
470.001	946.77213
470.489	961.86087
470.976	862.59545
471.463	870.76984
471.951	862.74481
472.438	841.62974
472.925	798.5842
473.412	752.54482
473.899	767.4741
474.385	759.57707
474.872	744.4645
475.359	783.62771
475.845	765.34768
476.331	752.38664
476.817	684.42454
477.303	705.40422
477.789	727.49643
478.275	593.2974
478.761	685.43895
479.247	560.10283
479.732	679.47578
480.218	581.32716
480.703	574.26027
481.188	549.03624
481.673	556.13451
482.158	545.06543
482.643	549.24794
483.128	602.23298
483.612	547.14416
484.097	569.24273
484.581	489.01586
485.066	542.18942
485.55	496.99071
486.034	488.96931
486.518	428.91514
487.002	515.16346
487.486	487.08848
487.969	418.94392
488.453	452.03563
488.936	416.87255
489.42	406.84067
489.903	404.93349
490.386	427.65695
490.869	391.79095
491.352	388.86869
491.835	428.8188
492.318	412.8756
492.8	453.88615
493.283	368.87191
493.765	368.85168
494.247	367.80221
494.73	323.67226
495.212	292.65971
495.694	351.77664
496.175	301.68267
496.657	339.75478
497.139	307.51602
497.62	298.68012
498.102	334.79351
498.583	288.6903
499.064	243.51814
499.545	284.62119
500.026	318.68203
500.507	252.56586
500.988	316.74411
501.469	297.71037
501.949	281.65488
502.43	272.62479
502.91	254.51394
503.39	241.57711
503.87	240.54666
504.35	238.53728
504.83	261.55459
505.31	245.57032
505.79	269.62149
506.269	226.50874
506.749	233.51557
507.228	180.41365
507.707	237.50557
508.187	217.49817
508.666	195.46037
509.145	185.4225
509.623	256.58428
510.102	234.54611
510.581	191.44129
511.059	200.4896
511.538	167.41632
512.016	199.46781
512.494	198.47244
512.972	158.36469
513.45	156.35835
513.928	200.47428
514.406	192.45847
514.884	213.52944
515.361	120.27996
515.839	190.42472
516.316	171.40403
516.793	190.46719
517.27	216.50391
517.747	192.48202
518.224	141.31916
518.701	160.35146
519.178	144.34951
519.654	147.34126
520.131	138.33432
520.607	134.32377
521.083	136.30778
521.56	130.30078
522.036	158.34137
522.512	78.18847
522.987	161.37583
523.463	178.41428
523.939	117.27934
524.414	185.41773
524.89	188.43859
525.365	101.22527
525.84	115.27109
526.315	160.37841
526.79	104.23105
527.265	128.29109
527.74	109.26053
528.215	175.4122
528.689	108.23744
529.164	146.31544
529.638	177.44221
530.112	120.2804
530.587	154.3303
531.061	117.28062
531.534	144.34478
532.008	160.37987
532.482	121.27166
532.956	88.22094
533.429	111.26329
533.903	108.23514
534.376	137.30315
534.849	75.17149
535.322	127.29611
535.795	123.29355
536.268	181.426
536.741	127.2974
537.213	118.26846
537.686	107.25683
538.158	79.17868
538.631	99.2341
539.103	172.38258
539.575	109.22485
540.047	105.23147
540.519	114.26607
540.991	95.2269
541.463	99.236
541.934	79.17846
542.406	78.18298
542.877	120.26415
543.348	17.03995
543.82	105.25174
544.291	157.35277
544.762	138.32195
545.233	109.26699
545.703	143.31167
546.174	143.32632
546.645	136.32078
547.115	235.54747
547.585	91.20464
548.056	105.24819
548.526	188.42961
548.996	166.3856
549.466	166.39001
549.935	197.45389
550.405	186.39738
550.875	215.48962
551.344	182.42042
551.814	227.50271
552.283	195.40731
552.752	203.45125
553.221	218.45868
553.69	225.47518
554.159	235.55394
554.628	282.60534
555.096	234.5643
555.565	292.62951
556.033	257.57484
556.502	224.52298
556.97	156.33387
557.438	165.37728
557.906	195.44605
558.374	175.39111
558.842	179.41571
559.31	186.40651
559.777	160.37753
560.245	102.23234
560.712	120.27124
561.18	163.35406
561.647	124.27101
562.114	204.45884
562.581	97.23141
563.048	163.3667
563.514	150.35915
563.981	143.32118
564.448	114.25084
564.914	159.3558
565.381	137.30265
565.847	126.28666
566.313	198.44936
566.779	226.49601
567.245	120.27179
567.711	161.37612
568.176	97.21357
568.642	146.35343
569.108	166.39366
569.573	156.3529
570.038	194.39505
570.504	151.33134
570.969	138.32852
571.434	137.29111
571.899	165.37925
572.363	210.45449
572.828	173.37466
573.293	208.46016
573.757	145.32086
574.222	238.50936
574.686	199.43022
575.15	230.52198
575.614	206.45307
576.078	206.45707
576.542	198.4276
577.006	183.39326
577.469	135.31216
577.933	176.38091
578.396	165.37379
578.86	216.48145
579.323	242.54876
579.786	189.38847
580.249	222.48005
580.712	178.41036
581.175	175.41204
581.637	119.26211
582.1	181.37186
582.563	173.35494
583.025	180.4158
583.487	217.42428
583.95	191.39683
584.412	206.40822
584.874	185.42862
585.336	152.34637
585.797	155.32218
586.259	188.42043
586.721	72.16566
587.182	158.34955
587.643	126.27235
588.105	98.22034
588.566	114.22876
589.027	112.25903
589.488	98.214
589.949	164.37643
590.41	189.35639
590.87	101.21667
591.331	175.35872
591.791	141.31135
592.252	91.1996
592.712	89.20228
593.172	127.27363
593.632	115.23616
594.092	127.26904
594.552	129.2612
595.011	155.33897
595.471	161.34121
595.931	136.28716
596.39	191.43427
596.849	216.47007
597.308	159.31855
597.768	217.52084
598.227	182.40835
598.685	170.36462
599.144	251.54914
599.603	265.58001
600.062	291.57355
600.52	277.57319
600.978	244.5398
601.437	277.58268
601.895	242.47125
602.353	264.5349
602.811	329.67285
603.269	299.64999
603.727	326.71275
604.184	367.75431
604.642	346.76158
605.099	387.81979
605.557	446.96311
606.014	391.75834
606.471	475.05244
606.928	477.90351
607.385	523.12091
607.842	582.16022
608.299	646.27908
608.755	514.07431
609.212	642.22371
609.668	587.1195
610.125	631.28227
610.581	629.23868
611.037	647.23177
611.493	629.25495
611.949	618.26409
612.405	755.27673
612.861	668.30667
613.316	690.40457
613.772	631.21407
614.227	656.2874
614.683	701.245
615.138	781.5133
615.593	740.44978
616.048	769.45809
616.503	700.41267
616.958	744.54073
617.412	735.45117
617.867	756.40726
618.321	822.4005
618.776	720.32155
619.23	687.35436
619.684	837.55179
620.138	709.34479
620.592	699.41743
621.046	695.35219
621.5	741.51228
621.954	714.3375
622.407	653.23055
622.861	693.43532
623.314	653.25828
623.768	645.28395
624.221	620.04138
624.674	618.21841
625.127	631.25487
625.58	618.18245
626.033	561.05583
626.485	588.23576
626.938	540.11528
627.39	618.24525
627.843	558.11642
628.295	539.08258
628.747	614.26497
629.199	511.02435
629.651	555.11939
630.103	622.2355
630.555	582.09248
631.006	573.1727
631.458	558.16953
631.909	558.11178
632.361	518.07933
632.812	560.14579
633.263	524.99667
633.714	545.04529
634.165	503.07473
634.616	476.011
635.067	496.9659
635.518	525.10873
635.968	562.98647
636.419	539.03127
636.869	488.02122
637.319	615.27981
637.769	532.053
638.219	570.20103
638.669	517.09754
639.119	553.17409
639.569	568.21463
640.019	585.17459
640.468	581.14292
640.918	654.34387
641.367	637.25211
641.816	569.10193
642.265	611.22124
642.714	667.32534
643.163	683.34331
643.612	686.43631
644.061	642.17219
644.51	677.33587
644.958	718.36222
645.406	705.45239
645.855	813.70212
646.303	775.53455
646.751	782.50838
647.199	777.47615
647.647	801.54324
648.095	785.52034
648.543	910.53342
648.99	882.76094
649.438	821.58411
649.885	830.70446
650.333	933.45984
650.78	924.84744
651.227	898.82437
651.674	928.74945
652.121	884.80242
652.568	896.82443
653.015	985.04362
653.461	925.8081
653.908	917.74514
654.354	984.91679
654.801	1019.97615
655.247	913.61748
655.693	964.06153
656.139	1007.99827
656.585	1031.0141
657.031	1025.97272
657.477	1019.78898
657.922	1109.04164
658.368	1054.12549
658.813	1082.00121
659.259	1102.11314
659.704	1097.04161
660.149	1108.06468
660.594	1177.19527
661.039	1058.92407
661.484	1116.10932
661.929	1156.1078
662.373	1179.38284
662.818	1207.35096
663.262	1209.2795
663.707	1247.45989
664.151	1312.41727
664.595	1324.47334
665.039	1352.54311
665.483	1419.76348
665.927	1359.36231
666.371	1480.55163
666.814	1477.58732
667.258	1498.59779
667.701	1538.3172
668.145	1577.82931
668.588	1534.74414
669.031	1621.71936
669.474	1629.7726
669.917	1670.49324
670.36	1710.96475
670.803	1802.94552
671.245	1841.53738
671.688	1759.90535
672.13	1800.74285
672.573	1811.13448
673.015	1936.02297
673.457	1969.70904
673.899	1958.07174
674.341	1959.05506
674.783	2034.1207
675.225	2046.25187
675.666	2053.17487
676.108	2018.6283
676.549	2108.05448
676.991	2193.86042
677.432	2272.60924
677.873	2237.06203
678.314	2282.21744
678.755	2289.36416
679.196	2355.1475
679.637	2311.35697
680.078	2342.16884
680.518	2410.13182
680.959	2415.22434
681.399	2383.45399
681.839	2584.44681
682.28	2570.55717
682.72	2530.18475
683.16	2614.60689
683.6	2626.07382
684.039	2654.65868
684.479	2719.53228
684.919	2796.30881
685.358	2877.70481
685.798	2919.06716
686.237	2908.45043
686.676	2900.11513
687.115	2989.30527
687.554	3017.40269
687.993	3111.96163
688.432	3082.15122
688.871	3080.14405
689.309	3250.43048
689.748	3277.65186
690.186	3352.37607
690.625	3353.31025
691.063	3485.44011
691.501	3481.61777
691.939	3511.72208
692.377	3576.53928
692.815	3605.36889
693.253	3684.28994
693.69	3729.77667
694.128	3733.46476
694.565	3818.241
695.003	3889.64096
695.44	4007.14549
695.877	3971.10077
696.314	4000.50728
696.751	4122.73587
697.188	4064.83715
697.625	4205.70867
698.061	4295.15318
698.498	4420.07235
698.934	4347.07374
699.371	4399.91903
699.807	4491.89414
700.243	4562.91569
700.679	4543.53435
701.115	4634.62367
701.551	4640.70886
701.987	4831.349
702.422	4812.76811
702.858	4879.75444
703.294	4867.24491
703.729	4993.80863
704.164	5037.64356
704.599	5086.10437
705.035	5158.13891
705.47	5203.62249
705.904	5432.32256
706.339	5437.18498
706.774	5443.32558
707.209	5619.15881
707.643	5473.42576
708.078	5739.3552
708.512	5835.58555
708.946	5818.18554
709.38	6029.10045
709.814	6007.93453
710.248	6144.27062
710.682	6240.07372
711.116	6253.19338
711.549	6277.68856
711.983	6419.82754
712.416	6356.94469
712.85	6524.29781
713.283	6592.8664
713.716	6746.1771
714.149	6708.8711
714.582	6817.62645
715.015	6826.18259
715.448	6938.27818
715.881	6913.33373
716.313	6908.71699
716.746	7147.8837
717.178	7251.01939
717.61	7245.27408
718.043	7338.19342
718.475	7347.02349
718.907	7460.23934
719.339	7597.88484
719.77	7588.03897
720.202	7598.38451
720.634	7896.34868
721.065	7873.21919
721.497	7865.35324
721.928	8007.46198
722.359	8091.48382
722.79	8192.5112
723.221	8196.64922
723.652	8177.7325
724.083	8335.46171
724.514	8265.37996
724.945	8435.66735
725.375	8559.83134
725.806	8550.92513
726.236	8574.06958
726.666	8730.08628
727.096	8796.28124
727.526	9094.81161
727.956	9073.58708
728.386	9074.70784
728.816	9077.82464
729.246	9137.78523
729.675	9099.73247
730.105	9288.08517
730.534	9306.06127
730.964	9352.23714
731.393	9483.4722
731.822	9526.59316
732.251	9583.72991
732.68	9716.00916
733.109	9667.89878
733.537	9795.199
733.966	9933.55235
734.395	9967.69811
734.823	9940.65454
735.251	9927.54856
735.68	10055.88106
736.108	10059.88268
736.536	10022.82109
736.964	10225.47062
737.392	10051.86725
737.82	10183.31846
738.247	10422.03769
738.675	10264.58035
739.102	10290.54164
739.53	10222.3387
739.957	10235.37071
740.384	10369.84587
740.811	10349.72742
741.238	10415.002
741.665	10358.91288
742.092	10303.67822
742.519	10258.45919
742.945	10252.50246
743.372	10290.56805
743.798	10403.86846
744.225	10293.63124
744.651	10313.62519
745.077	10221.35511
745.503	10315.65997
745.929	10399.96978
746.355	10261.52867
746.781	10158.17558
747.207	10006.79175
747.632	10026.80833
748.058	9995.72084
748.483	10226.4754
748.908	10048.86301
749.334	10012.76592
749.759	9945.60531
750.184	9837.31377
750.609	9860.36649
751.033	9861.40265
751.458	9758.15537
751.883	9691.9439
752.307	9589.69605
752.732	9463.47574
753.156	9642.83751
753.58	9500.48669
754.005	9447.42881
754.429	9355.1679
754.853	9127.81902
755.277	9162.77223
755.7	9170.86745
756.124	9123.79718
756.548	8964.45303
756.971	8967.50216
757.394	8866.48917
757.818	8824.44268
758.241	8733.27462
758.664	8662.21332
759.087	8683.89278
759.51	8549.95612
759.933	8341.60513
760.356	8325.82546
760.778	8450.90334
761.201	8133.48504
761.623	8116.44938
762.046	7959.17471
762.468	7876.19954
762.89	7846.25782
763.312	7726.17383
763.734	7632.11885
764.156	7574.24305
764.578	7559.82684
765	7453.16061
765.421	7410.50887
765.843	7320.53103
766.264	7030.88795
766.686	7008.17081
767.107	6934.05804
767.528	6802.37276
767.949	6670.29158
768.37	6683.16313
768.791	6548.033
769.212	6408.46757
769.632	6410.87718
770.053	6197.81698
770.473	6238.16164
770.894	6070.31767
771.314	5869.06208
771.734	5836.07663
772.154	5787.78253
772.575	5709.98901
772.994	5635.96454
773.414	5605.30048
773.834	5488.58711
774.254	5463.64351
774.673	5420.49938
775.093	5190.7399
775.512	5191.8631
775.931	5024.12791
776.351	5077.89048
776.77	4965.94475
777.189	4859.69935
777.607	4698.24953
778.026	4638.10259
778.445	4489.22745
778.864	4512.35706
779.282	4481.03457
779.701	4333.40289
780.119	4326.46115
780.537	4140.47263
780.955	4138.53346
781.373	4007.35694
781.791	3940.74925
782.209	3864.8323
782.627	3699.94296
783.045	3741.00286
783.462	3683.70027
783.88	3592.91965
784.297	3531.73212
784.715	3469.87286
785.132	3327.4197
785.549	3283.723
785.966	3222.67466
786.383	3154.55945
786.8	3087.11392
787.217	2910.31888
787.633	2929.73388
788.05	2987.20128
788.466	2918.27856
788.883	2787.75003
789.299	2724.3797
789.715	2677.50006
790.131	2574.57396
790.547	2527.47925
790.963	2522.52961
791.379	2396.54322
791.795	2349.95873
792.21	2328.1573
792.626	2268.13812
793.041	2183.33718
793.457	2149.28801
793.872	2058.9919
794.287	2019.17336
794.702	2003.14962
795.117	1943.25163
795.532	1817.13022
795.947	1852.95355
796.362	1774.80714
796.776	1767.71629
797.191	1766.017
797.605	1585.70007
798.02	1627.85014
798.434	1578.44161
798.848	1505.75295
799.262	1452.7278
799.676	1444.59162
800.09	1360.50726
800.504	1398.5648
800.918	1331.3522
801.331	1237.54557
801.745	1207.12556
802.158	1244.45795
802.572	1140.16736
802.985	1153.21911
803.398	1147.18438
803.811	1092.2564
804.224	1091.1897
804.637	1012.98724
805.05	987.89402
805.462	1070.16862
805.875	875.97189
806.288	870.77625
806.7	908.93834
807.112	882.72841
807.525	808.71361
807.937	813.7463
808.349	792.70299
808.761	760.61033
809.173	728.55254
809.584	688.4773
809.996	702.53712
810.408	684.588
810.819	669.4195
811.231	646.53742
811.642	653.43904
812.053	700.50051
812.464	698.47949
812.875	692.58506
813.286	583.35521
813.697	576.17592
814.108	534.18019
814.519	502.01253
814.929	506.16977
815.34	480.07082
815.75	448.06125
816.16	448.03383
816.571	496.19636
816.981	431.93331
817.391	428.97004
817.801	383.89955
818.211	368.82256
818.62	414.94404
819.03	398.91999
819.44	365.89755
819.849	400.95282
820.259	310.75093
820.668	322.75941
821.077	356.84902
821.486	346.79665
821.895	295.69129
822.304	313.79094
822.713	288.65386
823.122	270.64593
823.531	292.65863
823.939	265.6244
824.348	232.54697
824.756	296.71001
825.164	237.57272
825.573	232.56772
825.981	189.45157
826.389	255.62039
826.797	236.58072
827.205	255.57389
827.612	196.46963
828.02	152.35642
828.428	216.53327
828.835	191.49008
829.243	186.43205
829.65	147.36073
830.057	146.34637
830.464	203.48093
830.871	166.38605
831.278	137.32696
831.685	123.27365
832.092	177.42645
832.499	140.30442
832.905	161.39918
833.312	133.30007
833.718	144.35121
834.124	100.22585
834.531	190.46737
834.937	177.44349
835.343	139.33173
835.749	153.35013
836.155	130.33759
836.561	83.20217
836.966	97.23469
837.372	145.36541
837.777	63.15706
838.183	141.31148
838.588	136.33504
838.993	79.18948
839.399	120.29541
839.804	64.15755
840.209	99.25181
840.613	93.20742
841.018	92.23189
841.423	59.15118
841.828	52.13145
842.232	98.23893
842.637	101.23725
843.041	81.2077
843.445	56.1411
843.849	56.13933
844.253	98.2307
844.657	71.17989
845.061	29.06623
845.465	82.2003
845.869	95.22055
846.272	56.13811
846.676	24.05718
847.079	52.1336
847.483	86.21163
847.886	52.12621
848.289	30.08062
848.692	34.08595
849.095	59.14216
849.498	65.1621
849.901	76.17438
850.304	-10.02405
850.707	31.07905
851.109	39.09772
851.512	42.10484
851.914	42.10881
852.316	39.0992
852.718	61.16164
853.121	67.16588
853.523	137.32508
853.925	43.11329
854.326	-12.03067
854.728	30.07775
855.13	6.01563
855.531	10.02455
855.933	43.10388
856.334	-13.03288
856.736	75.17253
857.137	37.08746
857.538	65.16539
857.939	71.1779
858.34	53.12949
858.741	43.11268
859.142	-4.0097
859.542	13.03456
859.943	30.07594
860.343	39.09853
860.744	58.14125
861.144	6.0148
861.544	74.18143
861.945	11.02841
862.345	34.08345
862.745	-3.00751
863.145	23.05481
863.544	1.00256
863.944	57.13671
864.344	28.06936
864.743	15.03721
865.143	66.17063
865.542	62.14556
865.941	8.01992
866.34	29.06932
866.74	1.0027
867.139	28.06768
867.537	19.04875
867.936	17.04135
868.335	38.09671
868.734	38.09776
869.132	38.08897
869.531	-10.02404
869.929	33.07728
870.327	65.15786
870.726	4.00997
871.124	8.01874
871.522	9.023
871.92	46.1142
872.318	-4.00983
872.715	-10.02469
873.113	-1.00247
873.511	-49.1222
873.908	-12.03073
874.306	6.0152
874.703	12.03018
875.1	-7.0179
875.497	19.04602
875.894	40.09985
876.291	-9.02207
876.688	32.08296
877.085	12.02897
877.482	28.07063
877.878	45.10978
878.275	2.00512
878.671	-56.12524
879.068	10.02434
879.464	47.11483
879.86	-4.00969
880.256	23.05686
880.652	47.12094
881.048	35.08684
881.444	-5.01196
881.84	31.07955
882.236	4.01012
882.631	37.0909
883.027	3.00726
883.422	43.11111
883.817	32.08216
884.213	22.05701
884.608	32.08034
885.003	25.06165
885.398	15.03806
885.793	8.02034
886.188	17.04315
886.582	32.08218
886.977	51.122
887.371	-24.06058
887.766	-37.09414
888.16	48.12034
888.554	-14.03445
888.949	4.01007
889.343	31.07608
889.737	40.1076
890.131	-17.04336
890.525	27.06996
890.918	21.05343
891.312	34.08128
891.706	25.06562
892.099	29.07379
892.492	23.04987
892.886	73.18093
893.279	47.12128
893.672	11.02836
894.065	8.02016
894.458	-15.03794
894.851	-11.0269
895.244	20.05176
895.637	18.04366
896.029	36.08931
896.422	21.05169
896.814	70.17574
897.206	20.04836
897.599	1.00247
897.991	32.07834
898.383	-31.07424
898.775	21.048
899.167	45.10699
899.559	23.05798
899.951	24.05738
900.342	79.20044
900.734	2.00509
901.125	71.18719
901.517	-14.03467
901.908	6.01441
902.299	30.0751
902.69	16.03825
903.082	8.01926
903.473	26.06351
903.863	14.0357
904.254	2.00469
904.645	0
905.036	2.00494
905.426	51.11718
905.817	44.10892
906.207	9.02196
906.597	21.04981
906.987	-27.06984
907.378	4.01017
907.768	9.024
908.158	2.00493
908.547	35.09203
908.937	-25.06424
909.327	6.01467
909.717	25.06312
910.106	47.11478
910.495	24.05984
910.885	56.14221
911.274	7.01771
911.663	-4.01018
912.052	0
912.441	-19.04933
912.83	21.04923
913.219	-40.10541
913.608	-11.02688
913.997	24.06114
914.385	56.13475
914.774	32.07834
915.162	33.08002
915.55	18.04348
915.939	11.02807
916.327	-33.08233
916.715	21.05471
917.103	19.0469
917.491	28.06959
917.878	34.08456
918.266	15.03888
918.654	-25.06464
919.041	-31.08201
919.429	-29.06926
919.816	13.03319
920.203	-4.00983
920.591	6.01492
920.978	19.04675
921.365	42.11038
921.752	-1.00241
922.139	14.03068
922.525	48.11843
922.912	22.0538
923.299	37.09371
923.685	-10.02623
924.072	19.04411
924.458	-12.03018
924.844	42.1056
925.231	0
925.617	36.09342
926.003	7.01799
926.389	-59.15124
926.774	-2.00512
927.16	39.09726
927.546	20.05153
927.931	72.18031
928.317	18.04191
928.702	4.00949
929.088	27.06557
929.473	17.04364
929.858	10.02491
930.243	47.1135
930.628	37.09157
931.013	7.01755
931.398	-27.06216
931.783	-23.06042
932.167	-16.03937
932.552	-34.08542
932.937	21.05222
933.321	48.12172
933.705	4.01016
934.09	-19.04754
934.474	26.06232
934.858	-14.03636
935.242	-19.04474
935.626	2.00518
936.009	-14.03775
936.393	-16.04091
936.777	-5.01281
937.16	12.03155
937.544	16.03758
937.927	-3.00768
938.311	51.12409
938.694	3.0079
939.077	27.06565
939.46	5.01225
939.843	33.0692
940.226	37.09567
940.609	57.13322
940.991	46.11802
941.374	6.0148
941.757	26.06485
942.139	-29.06634
942.522	-21.04991
942.904	6.01449
943.286	26.06605
943.668	47.12249
944.05	50.12431
944.432	23.05782
944.814	25.06262
945.196	4.01004
945.578	38.09265
945.959	-1.00238
946.341	2.00488
946.722	9.02117
947.104	-19.04583
947.485	61.14413
947.866	15.03838
948.247	6.01533
948.628	37.09056
949.009	-7.0182
949.39	0
949.771	34.07963
950.152	47.11611
950.532	10.02513
950.913	44.10784
951.293	11.03012
951.674	-33.08116
952.054	-37.09328
952.434	17.04232
952.814	-42.09987
953.194	-33.08618
953.574	7.01722
953.954	19.04573
954.334	4.01005
954.714	-2.00496
955.093	-9.02203
955.473	-17.04312
955.853	-19.04935
956.232	-17.04654
956.611	-12.02885
956.99	-55.13905
957.37	-1.00256
957.749	5.01204
958.128	2.00506
958.506	28.07316
958.885	26.06593
959.264	-6.01507
959.643	47.10851
960.021	-31.0777
960.4	-5.01149
960.778	-15.03692
961.156	5.01272
961.535	61.14206
961.913	0
962.291	-5.01308
962.669	-39.09881
963.047	29.07444
963.424	-30.07758
963.802	-15.03729
964.18	0
964.557	45.10459
964.935	9.02136
965.312	-3.00794
965.69	29.07287
966.067	-4.00985
966.444	10.02474
966.821	8.02055
967.198	1.00242
967.575	31.07579
967.952	24.05601
968.329	22.05384
968.705	30.06582
969.082	29.0755
969.458	-16.03913
969.835	10.02424
970.211	45.11608
970.587	-12.03014
970.963	-11.02844
971.339	4.01053
971.715	13.0327
972.091	45.11129
972.467	12.03003
972.843	37.09318
973.219	-34.08215
973.594	-8.02121
973.97	68.16132
974.345	32.07747
974.721	25.06074
975.096	-6.01478
975.471	-56.1328
975.846	43.10415
976.221	41.10572
976.596	14.03411
976.971	-4.00987
977.346	-1.00235
977.72	-40.10226
978.095	-39.10144
978.469	3.0072
978.844	-7.01758
979.218	48.11703
979.593	-7.01674
979.967	65.15904
980.341	26.06078
980.715	23.0579
981.089	66.16564
981.463	-16.03753
981.837	-6.01493
982.21	-11.02524
982.584	0
982.957	-37.09421
983.331	25.05935
983.704	53.13127
984.078	-3.00745
984.451	-28.06926
984.824	27.06719
985.197	-10.02458
985.57	8.02018
985.943	-1.00246
986.316	39.0956
986.688	5.01214
987.061	67.15776
987.434	-2.00522
987.806	8.01939
988.179	39.09386
988.551	26.06628
988.923	-9.02216
989.295	37.09281
989.667	25.06149
990.039	11.02754
990.411	-14.03278
990.783	-29.0669
991.155	5.01236
991.527	-23.05619
991.898	15.03759
992.27	14.03521
992.641	-4.0101
993.012	37.08749
993.384	14.03382
993.755	45.11499
994.126	-15.03651
994.497	18.045
994.868	14.03238
995.239	-13.03195
995.61	30.07645
995.98	-1.00248
996.351	13.0328
996.722	4.00948
997.092	-23.0554
997.462	41.09815
997.833	-11.02613
998.203	9.02191
998.573	-10.02516
998.943	4.00956
999.313	-18.04335
999.683	3.00727
1000.053	7.01623
1000.423	16.03889
1000.792	-29.07685
1001.162	3.00747
1001.531	15.03729
1001.901	-21.05287
1002.27	25.0568
1002.639	-21.05432
1003.009	14.0337
1003.378	-14.03601
1003.747	16.03822
1004.116	-27.06601
1004.485	0
1004.853	-8.02039
1005.222	18.04578
1005.591	9.02158
1005.959	48.11185
1006.328	4.00921
1006.696	-19.04632
1007.064	-15.03841
1007.433	-23.05765
1007.801	-25.06131
1008.169	21.05368
1008.537	-31.06931
1008.905	-22.05248
1009.273	47.11624
1009.64	-29.07111
1010.008	11.02653
1010.375	-18.04293
1010.743	36.08339
1011.11	37.08854
1011.478	-16.03978
1011.845	27.06367
1012.212	34.07839
1012.579	30.07385
1012.946	41.09804
1013.313	-3.00712
1013.68	25.05631
1014.047	30.07328
1014.414	-25.06033
1014.78	-29.0729
1015.147	14.03382
1015.513	54.13043
1015.88	16.04089
1016.246	38.09368
1016.612	43.09896
1016.978	17.04215
1017.344	24.05954
1017.71	-45.10941
1018.076	-13.03088
1018.442	-7.01809
1018.808	43.10798
1019.174	50.12621
1019.539	11.02516
1019.905	-5.01191
1020.27	-11.02759
1020.636	50.11917
1021.001	70.1685
1021.366	-37.08989
1021.731	4.01035
1022.096	-49.12516
1022.461	-62.14811
1022.826	5.01209
1023.191	33.08654
1023.556	-9.02141
1023.92	9.0221
1024.285	17.04152
1024.649	9.02209
1025.014	7.01734
1025.378	13.0331
1025.742	-27.06809
1026.107	-19.0436
1026.471	33.07658
1026.835	-22.05478
1027.199	-11.02703
1027.562	57.13369
1027.926	-18.04421
1028.29	37.09508
1028.654	43.09987
1029.017	38.09293
1029.381	59.14382
1029.744	32.08236
1030.107	-11.026
1030.471	9.02169
1030.834	29.06623
1031.197	5.01199
1031.56	-9.02139
1031.923	-7.01823
1032.286	-5.01169
1032.648	59.14151
1033.011	19.04475
1033.374	18.04213
1033.736	-8.02141
1034.099	46.11332
1034.461	43.11053
1034.823	21.05273
1035.185	4.01018
1035.548	23.05646
1035.91	20.04864
1036.272	-1.00232
1036.634	14.0341
1036.995	7.01647
1037.357	4.00983
1037.719	-19.04647
1038.08	31.07291
1038.442	-25.06026
1038.803	52.12579
1039.165	2.00506
1039.526	9.02183
1039.887	-1.00243
1040.248	37.09298
1040.609	15.037
1040.97	23.05732
1041.331	-22.05601
1041.692	-7.01671
1042.053	6.01376
1042.413	-10.02348
1042.774	28.06814
1043.134	-19.04528
1043.495	28.07037
1043.855	-22.05392
1044.215	-12.02982
1044.576	12.02928
1044.936	-25.05728
1045.296	-26.06544
1045.656	60.14689
1046.016	32.0775
1046.375	33.08134
1046.735	18.04183
1047.095	37.08739
1047.454	-50.10738
1047.814	-32.07715
1048.173	16.03793
1048.533	8.01859
1048.892	-8.01973
1049.251	22.05514
1049.61	8.01993
1049.969	-85.2041
1050.328	-27.05972
1050.687	-12.02966
1051.046	-16.03932
1051.405	-15.03775
1051.763	22.05123
1052.122	12.03054
1052.48	-31.07664
1052.839	-13.03109
1053.197	-35.08305
1053.555	-25.05645
1053.914	56.13699
1054.272	-5.0121
1054.63	24.05967
1054.988	-25.06024
1055.345	23.05041
1055.703	-5.01202
1056.061	19.04909
1056.419	-17.0445
1056.776	-15.03646
1057.134	-15.03544
1057.491	36.09006
1057.848	25.06246
1058.206	21.04989
1058.563	30.0672
1058.92	42.09675
1059.277	-7.01726
1059.634	53.12547
1059.991	-10.02382
1060.348	26.0604
1060.704	-14.03397
1061.061	-64.14755
1061.418	-1.00247
1061.774	14.0349
1062.131	-13.03468
1062.487	-12.02836
1062.843	-10.02521
1063.199	-9.02249
1063.555	28.06525
1063.911	25.0637
1064.267	36.07518
1064.623	-1.00247
1064.979	-26.06118
1065.335	-27.06412
1065.691	-7.01673
1066.046	18.03961
1066.402	-6.01396
1066.757	-31.07849
1067.112	-29.0709
1067.468	-5.01204
1067.823	6.01457
1068.178	21.05081
1068.533	-15.03654
1068.888	50.11995
1069.243	7.01742
1069.598	35.0858
1069.952	11.02549
1070.307	2.00504
1070.662	18.04349
1071.016	41.09368
1071.371	12.0276
1071.725	16.03832
1072.079	0
1072.434	13.03194
1072.788	42.10179
1073.142	46.1127
1073.496	49.11945
1073.85	17.03954
1074.203	11.02649
1074.557	23.06148
1074.911	51.12064
1075.265	16.03739
1075.618	34.08321
1075.971	38.09095
1076.325	26.0667
1076.678	64.1499
1077.031	19.04387
1077.385	45.10041
1077.738	43.09939
1078.091	42.09806
1078.444	39.09122
1078.796	-6.01487
1079.149	-2.00499
1079.502	17.04094
1079.855	9.02139
1080.207	-11.02718
1080.56	2.00525
1080.912	27.06616
1081.264	42.10152
1081.617	64.1579
1081.969	39.09965
1082.321	28.06934
1082.673	67.15616
1083.025	-7.01669
1083.377	-217.49138
1083.728	49.11448
1084.08	3.00761
1084.432	4.00983
1084.783	-17.03989
1085.135	0
1085.486	-4.00942
1085.838	25.06194
1086.189	36.08797
1086.54	-32.07694
1086.891	1.00258
1087.242	-7.01719
1087.593	12.02893
1087.944	34.07857
1088.295	-28.06406
1088.646	-5.01225
1088.996	34.08317
1089.347	36.08853
1089.698	18.04369
1090.048	13.03375
1090.398	44.10217
1090.749	27.06454
1091.099	-7.01789
1091.449	13.03239
1091.799	26.06593
1092.149	41.10262
1092.499	-35.0858
1092.849	-23.05918
1093.199	-19.04759
1093.548	-29.07059
1093.898	31.07854
1094.248	-22.05668
1094.597	5.01302
1094.947	9.0241
1095.296	22.05488
1095.645	38.09834
1095.994	56.13572
1096.343	9.02276
1096.692	31.08258
1097.041	21.0574
1097.39	18.04526
1097.739	-20.05203
1098.088	43.11478
1098.437	-31.08283
1098.785	31.08403
1099.134	-15.04007
1099.482	38.10396
1099.83	-27.07085
1100.179	6.01579
1100.527	35.09358
1100.875	-6.01602
1101.223	-12.03191
1101.571	12.03345
1101.919	-11.0293
1102.267	-18.05102
1102.615	3.00966
1102.962	1.00322
1103.31	14.04502
1103.658	-3.00966
