Data from N2 R3 sample 8_Subt2__3__17-15-24-146.txt Node

Date: Wed Aug 27 17:15:24 PDT 2025
User: uwsun
Spectrometer: HDX01956
Trigger mode: 0
Integration Time (sec): 5.000000E-1
Scans to average: 1
Nonlinearity correction enabled: true
Boxcar width: 0
Storing dark spectrum: false
XAxis mode: Wavelengths
Number of Pixels in Spectrum: 2068
>>>>>Begin Spectral Data<<<<<
194.03	123.35254
194.578	141.45262
195.127	142.44969
195.676	147.46648
196.225	156.41812
196.773	134.3746
197.321	175.48579
197.87	251.64535
198.418	307.79012
198.966	277.72381
199.513	266.67328
200.061	302.77089
200.609	261.68596
201.156	246.55103
201.704	314.79643
202.251	275.72543
202.798	292.76521
203.345	270.67072
203.892	248.62706
204.438	273.65747
204.985	280.67036
205.532	269.70698
206.078	305.75171
206.624	265.66154
207.17	295.68886
207.716	337.82535
208.262	272.54481
208.808	310.76838
209.354	322.7879
209.899	290.728
210.445	298.7408
210.99	242.59174
211.535	320.75177
212.08	318.74503
212.625	289.72066
213.17	254.63833
213.715	282.64101
214.259	253.59265
214.804	336.82367
215.348	273.62997
215.892	290.6943
216.436	273.63223
216.98	273.61037
217.524	286.6761
218.068	248.61945
218.612	313.78445
219.155	258.61086
219.698	233.55668
220.242	262.64611
220.785	225.53099
221.328	273.67953
221.871	230.57429
222.414	240.60099
222.956	265.64086
223.499	235.53646
224.041	268.63282
224.583	211.4589
225.126	263.58923
225.668	264.64697
226.21	231.58231
226.751	242.54185
227.293	254.58252
227.835	234.57197
228.376	334.76718
228.918	254.63833
229.459	266.66632
230	240.56847
230.541	271.63083
231.082	291.70637
231.622	306.71299
232.163	287.6964
232.704	270.67195
233.244	203.50109
233.784	229.5584
234.324	217.48738
234.864	238.54517
235.404	224.5316
235.944	222.52766
236.484	236.58329
237.023	320.75323
237.563	230.53825
238.102	190.44761
238.641	285.71069
239.18	240.56847
239.719	286.71486
240.258	271.6094
240.797	337.80325
241.335	277.6724
241.874	273.53681
242.412	256.61408
242.95	278.67064
243.488	323.73969
244.026	280.64368
244.564	253.52353
245.102	308.69897
245.64	272.65493
246.177	269.60217
246.715	256.60964
247.252	267.60999
247.789	249.46515
248.326	283.68618
248.863	280.6184
249.4	237.53557
249.936	313.65377
250.473	238.56024
251.009	276.63956
251.546	301.67324
252.082	257.56107
252.618	294.66179
253.154	272.65245
253.69	283.64212
254.226	219.51823
254.761	284.64085
255.297	294.65284
255.832	267.62667
256.367	288.68214
256.903	268.59487
257.438	263.61077
257.972	311.69933
258.507	309.71559
259.042	260.56077
259.576	269.58777
260.111	273.62922
260.645	294.63083
261.179	237.55387
261.713	302.67255
262.247	286.65852
262.781	275.57644
263.315	261.63428
263.849	270.67341
264.382	255.58399
264.915	351.8212
265.449	322.78409
265.982	321.72211
266.515	308.74356
267.048	243.51454
267.58	277.60012
268.113	358.7688
268.646	310.75939
269.178	289.65679
269.71	237.51434
270.243	306.69274
270.775	320.80415
271.307	320.7544
271.838	289.67511
272.37	298.7235
272.902	311.70392
273.433	305.6667
273.965	306.73539
274.496	269.65909
275.027	282.69823
275.558	305.73396
276.089	310.76304
276.62	292.73091
277.15	319.77548
277.681	321.69366
278.211	309.74921
278.741	286.63666
279.272	302.68897
279.802	323.79723
280.332	332.77995
280.861	351.8302
281.391	319.72055
281.921	266.63077
282.45	365.8949
282.98	351.89292
283.509	322.72273
284.038	332.74762
284.567	310.70865
285.096	337.79802
285.625	247.55862
286.153	351.81154
286.682	368.83714
287.21	320.75967
287.739	318.74445
288.267	331.79198
288.795	369.944
289.323	331.76561
289.851	354.8066
290.378	392.87258
290.906	356.85811
291.433	299.73503
291.961	369.83109
292.488	358.86097
293.015	357.82508
293.542	357.88855
294.069	365.88495
294.596	379.90886
295.122	339.79655
295.649	316.68738
296.175	382.90821
296.702	348.82485
297.228	366.86483
297.754	346.76638
298.28	367.82388
298.806	302.71115
299.332	347.76971
299.857	348.77337
300.383	356.87074
300.908	357.86296
301.433	346.82201
301.958	422.958
302.483	386.94549
303.008	407.9559
303.533	424.06458
304.058	350.80039
304.582	403.93913
305.107	387.98099
305.631	398.87969
306.155	381.87459
306.679	378.86996
307.203	442.99159
307.727	415.9648
308.251	344.82072
308.775	382.88618
309.298	393.92555
309.822	408.9912
310.345	416.94898
310.868	398.92036
311.391	368.87157
311.914	426.03615
312.437	375.82558
312.96	428.97241
313.482	441.00411
314.005	425.03506
314.527	438.09506
315.049	431.03836
315.571	425.91993
316.093	493.15206
316.615	441.01301
317.137	473.98267
317.659	410.94471
318.18	420.96775
318.702	495.10684
319.223	483.95155
319.744	495.06171
320.265	452.04598
320.786	513.20402
321.307	478.13288
321.828	486.03587
322.348	462.02507
322.869	522.17187
323.389	770.16108
323.909	548.18342
324.43	514.14821
324.95	524.13248
325.47	561.29016
325.989	543.19287
326.509	531.11603
327.029	551.16933
327.548	509.07958
328.067	614.37474
328.587	575.30131
329.106	633.34536
329.625	610.45446
330.144	539.15078
330.662	586.26236
331.181	617.31131
331.7	541.16903
332.218	620.22923
332.736	592.25674
333.255	668.41399
333.773	583.25724
334.291	635.4151
334.808	629.2689
335.326	653.33066
335.844	634.3472
336.361	678.54242
336.879	699.47678
337.396	702.50609
337.913	761.57421
338.43	709.41351
338.947	715.51721
339.464	759.4503
339.981	714.5029
340.497	739.60154
341.014	812.72434
341.53	776.5283
342.046	765.63257
342.562	749.6184
343.078	785.60581
343.594	809.6751
344.11	823.66844
344.626	845.81352
345.141	809.56763
345.657	763.46358
346.172	868.78337
346.687	859.67972
347.202	896.7113
347.717	879.76021
348.232	917.93352
348.747	935.79409
349.261	877.6148
349.776	920.8157
350.29	938.94458
350.805	985.01917
351.319	919.77858
351.833	968.82766
352.347	954.85212
352.861	977.8856
353.374	960.79487
353.888	936.82662
354.401	1034.93445
354.915	982.84963
355.428	1011.04002
355.941	975.84853
356.454	1012.79566
356.967	1024.93265
357.48	990.82013
357.993	1056.06644
358.505	1057.07569
359.018	1144.20227
359.53	1059.99347
360.042	1111.9175
360.554	1054.99421
361.066	1124.15956
361.578	1111.8729
362.09	1094.04454
362.602	1095.85381
363.113	1121.01042
363.625	1155.96842
364.136	1187.96916
364.647	1126.01375
365.158	1128.02973
365.669	1240.2479
366.18	1207.13327
366.691	1187.95729
367.201	1219.17126
367.712	1192.06695
368.222	1191.02017
368.733	1258.98102
369.243	1294.07327
369.753	1247.08392
370.263	1356.36016
370.773	1334.43236
371.282	1357.29593
371.792	1362.22238
372.301	1420.43086
372.811	1440.64345
373.32	1478.135
373.829	1429.28543
374.338	1467.17181
374.847	1593.35207
375.356	1605.42146
375.865	1692.15053
376.373	1795.35994
376.882	1808.74717
377.39	1801.56188
377.898	1895.71974
378.407	1968.42933
378.915	1981.15329
379.423	2105.49212
379.93	2222.33472
380.438	2214.603
380.946	2418.40905
381.453	2489.54252
381.96	2530.36837
382.468	2805.26363
382.975	2978.32773
383.482	3103.98876
383.989	3120.54932
384.495	3274.90955
385.002	3462.25879
385.509	3550.59965
386.015	3787.68061
386.521	3854.98041
387.028	4146.76918
387.534	4125.46256
388.04	4283.75751
388.546	4487.33024
389.051	4754.98078
389.557	5079.00648
390.063	5539.64037
390.568	5831.89617
391.073	5887.57169
391.578	6052.67623
392.084	6232.56962
392.589	6508.64367
393.093	6967.10292
393.598	7569.17334
394.103	8248.95849
394.607	9185.59516
395.112	9992.41919
395.616	10531.44931
396.12	11357.70111
396.624	12665.77561
397.128	13932.07158
397.632	15358.94323
398.136	16806.92071
398.639	17597.24657
399.143	19074.32264
399.646	21748.02514
400.15	24081.86671
400.653	26055.3101
401.156	29519.04682
401.659	34071.67577
402.162	40966.01556
402.664	45427.92574
403.167	32260.27245
403.67	3851.94142
404.172	0
404.674	0
405.176	0
405.678	0
406.18	0
406.682	0
407.184	0
407.686	12367.42319
408.187	34596.90747
408.688	44563.94194
409.19	48906.19284
409.691	51236.67962
410.192	52883.26968
410.693	53713.23343
411.194	52613.89157
411.694	50137.78782
412.195	47183.68646
412.696	42776.10197
413.196	39302.25833
413.696	37474.54735
414.196	37865.64849
414.696	37721.00959
415.196	36195.899
415.696	33935.85522
416.196	28157.32591
416.695	21907.51045
417.195	18002.66753
417.694	16935.65704
418.194	15791.36985
418.693	14885.23707
419.192	14223.57451
419.691	14031.40014
420.19	13726.57621
420.688	13314.09542
421.187	12875.14812
421.685	12066.6017
422.184	11124.66561
422.682	9784.10818
423.18	8201.34893
423.678	7427.69945
424.176	6746.91157
424.674	6323.68001
425.172	6099.80766
425.669	5836.05638
426.167	5432.02707
426.664	4886.25171
427.161	4521.65868
427.659	4134.33106
428.156	3741.88389
428.652	3628.1043
429.149	3498.91184
429.646	3389.60714
430.143	3159.1245
430.639	2972.16871
431.135	2708.54855
431.632	2675.26336
432.128	2401.35496
432.624	2331.76148
433.12	2208.23031
433.616	2154.12345
434.111	2062.49279
434.607	2036.49155
435.103	1970.05148
435.598	1942.93474
436.093	1813.3275
436.588	1669.11129
437.083	1602.17092
437.578	1429.98756
438.073	1459.3772
438.568	1375.21331
439.062	1391.88497
439.557	1270.0059
440.051	1260.95805
440.546	1197.91525
441.04	1189.01568
441.534	1192.1268
442.028	1126.91624
442.522	1131.948
443.015	1106.7494
443.509	1109.99621
444.002	1048.90199
444.496	994.59581
444.989	1009.84077
445.482	1010.88482
445.975	976.67354
446.468	1033.66854
446.961	893.43185
447.454	967.68239
447.947	880.60617
448.439	880.65881
448.931	850.4678
449.424	837.65594
449.916	916.70824
450.408	824.44621
450.9	773.47424
451.392	817.63064
451.884	783.42626
452.375	756.50351
452.867	725.29305
453.358	774.40021
453.849	739.26584
454.341	728.30075
454.832	673.18464
455.323	712.42443
455.814	690.28737
456.304	718.34103
456.795	739.38203
457.285	657.1951
457.776	670.23207
458.266	658.30591
458.756	678.3607
459.247	627.25849
459.737	691.38842
460.226	648.22081
460.716	646.29101
461.206	620.25902
461.695	584.25213
462.185	615.2355
462.674	619.2018
463.163	558.0695
463.653	566.02533
464.142	560.16286
464.63	543.13779
465.119	506.02155
465.608	565.13385
466.096	500.9686
466.585	521.05406
467.073	492.03233
467.561	524.0996
468.05	548.10904
468.538	474.02817
469.026	495.03567
469.513	441.83122
470.001	530.09361
470.489	493.06014
470.976	427.87683
471.463	432.96717
471.951	434.96525
472.438	374.80627
472.925	421.9101
473.412	371.82841
473.899	394.82604
474.385	371.83833
474.872	372.79714
475.359	405.91364
475.845	392.75864
476.331	361.7316
476.817	341.76521
477.303	372.79921
477.789	338.75739
478.275	277.64734
478.761	329.74617
479.247	254.53701
479.732	319.74723
480.218	283.68618
480.703	293.68231
481.188	266.53772
481.673	297.64262
482.158	286.59433
482.643	250.60356
483.128	283.62228
483.612	283.6275
484.097	284.65861
484.581	243.53343
485.066	273.63399
485.55	279.58534
486.034	262.54786
486.518	182.40986
487.002	266.63247
487.486	213.50384
487.969	227.53259
488.453	171.41465
488.936	207.45422
489.42	213.46009
489.903	192.46233
490.386	234.38053
490.869	166.35312
491.352	143.3363
491.835	135.2766
492.318	181.40402
492.8	243.499
493.283	149.36794
493.765	171.41122
494.247	162.36945
494.73	129.28009
495.212	112.26232
495.694	135.31216
496.175	112.26376
496.657	145.33582
497.139	161.28141
497.62	118.27908
498.102	170.41663
498.583	165.40475
499.064	108.23704
499.545	168.37648
500.026	105.23554
500.507	118.27226
500.988	156.37877
501.469	64.15987
501.949	59.1435
502.43	84.2002
502.91	108.22584
503.39	117.2868
503.87	131.30496
504.35	90.20931
504.83	128.27987
505.31	84.20174
505.79	86.20591
506.269	66.15343
506.749	49.11258
507.228	82.19213
507.707	36.08014
508.187	73.17242
508.666	24.05854
509.145	76.17738
509.623	97.22848
510.102	59.14243
510.581	58.13755
511.059	127.31511
511.538	52.13233
512.016	120.28644
512.494	85.2072
512.972	24.05687
513.45	31.07299
513.928	55.13407
514.406	42.10316
514.884	77.19613
515.361	36.08537
515.839	78.17839
516.316	69.16625
516.793	81.20318
517.27	23.05569
517.747	115.29271
518.224	42.09698
518.701	22.04973
519.178	41.10143
519.654	36.08541
520.131	42.10358
520.607	33.08125
521.083	47.10829
521.56	11.02605
522.036	88.19298
522.512	1.00245
522.987	15.03602
523.463	15.03603
523.939	34.08246
524.414	84.19358
524.89	36.08649
525.365	-5.0114
525.84	-31.07514
526.315	37.08959
526.79	4.00907
527.265	55.12693
527.74	-36.08843
528.215	111.26471
528.689	1.00225
529.164	51.11243
529.638	63.16064
530.112	0
530.587	65.14209
531.061	58.14067
531.534	48.11703
532.008	41.09957
532.482	-11.02537
532.956	-7.01787
533.429	17.04105
533.903	-8.01785
534.376	33.07461
534.849	-15.03492
535.322	29.06892
535.795	-19.04658
536.268	46.11111
536.741	3.0072
537.213	18.04178
537.686	26.06337
538.158	8.01836
538.631	-14.03383
539.103	52.11854
539.575	-23.04885
540.047	44.09824
540.519	5.01192
540.991	38.09175
541.463	19.04599
541.934	-32.07392
542.406	-3.00715
542.877	-32.07269
543.348	-27.06399
543.82	20.04873
544.291	39.08975
544.762	13.03107
545.233	26.06467
545.703	0
546.174	42.09779
546.645	23.05544
547.115	61.14697
547.585	39.08864
548.056	35.08385
548.526	97.22572
548.996	108.25375
549.466	87.20755
549.935	138.3217
550.405	112.24312
550.875	117.27172
551.344	102.23937
551.814	118.26726
552.283	107.22786
552.752	64.14637
553.221	151.3224
553.69	142.30535
554.159	182.43343
554.628	198.43273
555.096	183.44558
555.565	209.45861
556.033	215.48507
556.502	219.51181
556.97	178.37914
557.438	191.43444
557.906	241.54616
558.374	204.45319
558.842	236.54189
559.31	222.48149
559.777	210.49068
560.245	235.52086
560.712	242.53336
561.18	320.6718
561.647	285.60162
562.114	310.68207
562.581	271.62486
563.048	369.79498
563.514	352.81014
563.981	366.78429
564.448	329.69115
564.914	363.77803
565.381	424.88029
565.847	447.95059
566.313	496.0554
566.779	510.05038
567.245	489.02219
567.711	564.21075
568.176	535.0676
568.642	580.28627
569.108	600.30086
569.573	642.30614
570.038	614.12945
570.504	653.27939
570.969	695.47409
571.434	661.24261
571.899	781.57095
572.363	747.4294
572.828	809.51245
573.293	791.53489
573.757	800.52619
574.222	834.55351
574.686	820.53569
575.15	832.65486
575.614	854.62073
576.078	813.5739
576.542	885.62874
577.006	854.56883
577.469	812.62177
577.933	867.59794
578.396	886.71013
578.86	824.6032
579.323	876.72795
579.786	826.45352
580.249	834.5658
580.712	768.5593
581.175	748.56144
581.637	740.41564
582.1	765.36385
582.563	744.32872
583.025	744.52288
583.487	728.25062
583.95	695.28038
584.412	693.21611
584.874	640.34638
585.336	662.35055
585.797	563.0622
586.259	621.26249
586.721	528.10167
587.182	588.18199
587.643	483.96408
588.105	452.94219
588.566	487.89318
589.027	465.99961
589.488	413.84158
589.949	429.93215
590.41	406.7249
590.87	347.70484
591.331	391.76232
591.791	327.69391
592.252	323.67376
592.712	296.64443
593.172	339.69708
593.632	263.52202
594.092	298.60766
594.552	286.55826
595.011	244.52355
595.471	315.6451
595.931	255.52435
596.39	305.6774
596.849	246.53194
597.308	245.48107
597.768	272.64599
598.227	221.49188
598.685	218.46272
599.144	231.50752
599.603	223.49241
600.062	194.39109
600.52	181.38259
600.978	236.52297
601.437	170.36603
601.895	153.30425
602.353	219.4483
602.811	215.45107
603.269	221.48841
603.727	221.49392
604.184	212.45097
604.642	207.46893
605.099	266.57838
605.557	252.56679
606.014	267.53318
606.471	242.56323
606.928	261.52047
607.385	236.53798
607.842	290.61822
608.299	275.59248
608.755	264.58331
609.212	304.62779
609.668	249.51456
610.125	288.63181
610.581	324.6847
611.037	290.60076
611.493	234.51032
611.949	210.46982
612.405	248.47765
612.861	267.57253
613.316	297.65936
613.772	252.52975
614.227	229.49529
614.683	293.57614
615.138	268.58348
615.593	284.61699
616.048	330.6934
616.503	285.63062
616.958	221.51162
617.412	293.63912
617.867	258.54021
618.321	332.64098
618.776	210.43543
619.23	251.54612
619.684	362.75125
620.138	252.53185
620.592	252.56377
621.046	237.51193
621.5	276.62331
621.954	217.45688
622.407	270.55733
622.861	279.63201
623.314	232.49286
623.768	229.50058
624.221	242.44905
624.674	171.37301
625.127	194.4256
625.58	228.47803
626.033	136.28313
626.485	202.46123
626.938	205.45589
627.39	183.40612
627.843	164.35858
628.295	126.27759
628.747	175.3966
629.199	198.42632
629.651	149.32902
630.103	178.39067
630.555	193.39758
631.006	135.30409
631.458	196.44428
631.909	142.31074
632.361	164.36918
632.812	118.26596
633.263	97.20369
633.714	146.30746
634.165	85.19834
634.616	91.20984
635.067	57.1226
635.518	103.23798
635.968	99.19494
636.419	42.09016
636.869	49.11267
637.319	134.30905
637.769	38.08403
638.219	99.23047
638.669	28.06586
639.119	54.12727
639.569	78.18469
640.019	46.10398
640.468	44.09763
640.918	13.0306
641.367	50.112
641.816	2.0044
642.265	8.01825
642.714	70.15861
643.163	33.07491
643.612	28.0672
644.061	-9.01917
644.51	51.11554
644.958	63.13877
645.406	7.01669
645.855	84.20427
646.303	43.09979
646.751	1.00229
647.199	28.06295
647.647	-32.07404
648.095	-13.03
648.543	67.13902
648.99	18.04315
649.438	32.07348
649.885	-16.03913
650.333	17.03376
650.78	13.03148
651.227	17.04147
651.674	68.15533
652.121	22.05364
652.568	61.14781
653.015	56.14029
653.461	-29.0695
653.908	10.02324
654.354	23.05504
654.801	30.07191
655.247	14.03064
655.693	-12.03107
656.139	75.18119
656.585	27.06533
657.031	31.07393
657.477	19.04215
657.922	35.08186
658.368	15.03746
658.813	60.13943
659.259	-15.03652
659.704	30.07068
660.149	33.07794
660.594	40.09567
661.039	-18.0417
661.484	23.05512
661.929	26.06102
662.373	37.09428
662.818	-4.01003
663.262	27.06567
663.707	6.01527
664.151	0
664.595	33.08131
665.039	31.0772
665.483	48.12375
665.927	-26.0618
666.371	16.03837
666.814	41.09894
667.258	-5.01213
667.701	45.0985
668.145	37.09258
668.588	0
669.031	6.01451
669.474	15.03665
669.917	14.03148
670.36	9.02262
670.803	33.08065
671.245	39.08554
671.688	-31.07661
672.13	48.1115
672.573	15.0383
673.015	31.07534
673.457	25.05636
673.899	5.0123
674.341	8.01959
674.783	11.027
675.225	26.06525
675.666	30.07402
676.108	-9.01992
676.549	-3.00722
676.991	45.10207
677.432	72.15269
677.873	11.02609
678.314	-4.00977
678.755	39.09702
679.196	33.07852
679.637	27.06709
680.078	17.04077
680.518	22.05211
680.959	-23.05588
681.399	24.06034
681.839	6.01493
682.28	15.03796
682.72	42.09945
683.16	44.11142
683.6	11.0256
684.039	-2.00431
684.479	7.01756
684.919	5.01208
685.358	23.05879
685.798	37.09912
686.237	-3.00741
686.676	-33.07776
687.115	3.00724
687.554	49.119
687.993	-3.00687
688.432	-4.00944
688.871	14.03289
689.309	-12.02966
689.748	40.08668
690.186	19.04644
690.625	-2.00486
691.063	48.11816
691.501	56.14095
691.939	90.22839
692.377	31.07779
692.815	26.06391
693.253	18.04398
693.69	-9.0206
694.128	41.10229
694.565	4.0098
695.003	9.02322
695.44	36.08741
695.877	11.02662
696.314	35.07764
696.751	-3.00699
697.188	-28.06627
697.625	11.02563
698.061	-12.02992
698.498	66.16188
698.934	42.10301
699.371	-9.02193
699.807	22.05346
700.243	18.0441
700.679	16.03727
701.115	-33.07906
701.551	40.09559
701.987	40.09244
702.422	62.15049
702.858	39.09535
703.294	-15.03464
703.729	22.05474
704.164	3.00736
704.599	-9.02071
705.035	1.00232
705.47	-6.01488
705.904	28.06755
706.339	39.09226
706.774	38.09161
707.209	13.03118
707.643	29.07106
708.078	14.03468
708.512	-18.04634
708.946	9.02195
709.38	35.085
709.814	15.03572
710.248	31.07745
710.682	26.06368
711.116	28.06967
711.549	22.05817
711.983	21.0501
712.416	47.1132
712.85	47.11934
713.283	-12.02912
713.716	11.02784
714.149	2.00485
714.582	65.15006
715.015	33.08337
715.448	29.07436
715.881	-29.06457
716.313	-12.02855
716.746	2.00486
717.178	-19.04725
717.61	-5.01288
718.043	16.04052
718.475	14.03452
718.907	25.06339
719.339	16.03778
719.77	-12.02939
720.202	5.01293
720.634	36.08986
721.065	38.09268
721.497	75.1867
721.928	17.04292
722.359	26.06502
722.79	15.03712
723.221	14.03568
723.652	19.04932
724.083	34.07954
724.514	16.03752
724.945	-14.03399
725.375	13.03152
725.806	-15.03772
726.236	-9.0233
726.666	49.11904
727.096	26.06565
727.526	52.13425
727.956	38.0897
728.386	27.06814
728.816	78.20318
729.246	-20.05016
729.675	-26.06572
730.105	-1.00253
730.534	-1.00241
730.964	3.00771
731.393	29.0724
731.822	-18.04649
732.251	27.06998
732.68	15.0358
733.109	46.11669
733.537	12.0298
733.966	12.0304
734.395	20.04749
734.823	57.13107
735.251	18.04439
735.68	63.15871
736.108	73.18712
736.536	59.14318
736.964	-1.0024
737.392	-16.04106
737.82	-32.0779
738.247	33.08116
738.675	12.02889
739.102	35.09012
739.53	-18.04686
739.957	-7.01831
740.384	4.00999
740.811	-11.02842
741.238	-19.04744
741.665	14.03335
742.092	14.03413
742.519	24.06123
742.945	-5.01232
743.372	1.00254
743.798	40.10434
744.225	-16.03952
744.651	-9.02311
745.077	-2.0051
745.503	46.11487
745.929	20.0492
746.355	-59.14698
746.781	-10.0254
747.207	-24.05832
747.632	21.0527
748.058	-2.00506
748.483	27.06429
748.908	29.07335
749.334	33.0831
749.759	24.05856
750.184	-20.04913
750.609	19.04716
751.033	8.01896
751.458	-9.02069
751.883	-45.1132
752.307	33.08026
752.732	29.07496
753.156	15.03806
753.58	14.03385
754.005	-14.03613
754.429	7.01696
754.853	30.07635
755.277	-38.09216
755.7	35.08792
756.124	-21.05358
756.548	13.03188
756.971	21.05241
757.394	25.06522
757.818	2.00525
758.241	5.01296
758.664	26.06757
759.087	-20.04672
759.51	-8.02027
759.933	-11.02701
760.356	11.02842
760.778	63.15979
761.201	16.03981
761.623	41.10106
762.046	10.02396
762.468	11.02684
762.89	-25.06237
763.312	31.0763
763.734	-1.00247
764.156	6.01519
764.578	-32.07565
765	49.1222
765.421	65.17045
765.843	26.06893
766.264	-14.03421
766.686	21.05317
767.107	60.14841
767.528	-41.10748
767.949	-27.06969
768.37	30.07543
768.791	25.0616
769.212	16.04152
769.632	15.03607
770.053	-26.07001
770.473	32.07918
770.894	10.02513
771.314	14.03366
771.734	42.10045
772.154	2.00523
772.575	30.07051
772.994	12.02807
773.414	11.02685
773.834	-31.07838
774.254	51.1277
774.673	-23.05721
775.093	-16.04029
775.512	9.02288
775.931	36.09284
776.351	7.01773
776.77	21.053
777.189	9.02195
777.607	-42.10907
778.026	0
778.445	-35.08943
778.864	-9.02326
779.282	16.03958
779.701	13.03331
780.119	-23.05968
780.537	-1.00256
780.955	5.01289
781.373	-17.04281
781.791	-12.02774
782.209	-5.01163
782.627	-33.08826
783.045	-24.05698
783.462	-19.04925
783.88	0
784.297	-31.08049
784.715	6.01573
785.132	-10.02471
785.549	-9.02315
785.966	-6.01532
786.383	-19.04783
786.8	19.04439
787.217	-2.00484
787.633	38.09718
788.05	-10.0238
788.466	55.13086
788.883	4.01035
789.299	-2.0049
789.715	25.06228
790.131	-11.02804
790.547	-67.1703
790.963	23.05803
791.379	-13.03337
791.795	-47.10954
792.21	0
792.626	8.01922
793.041	-9.02271
793.457	10.02502
793.872	-47.1132
794.287	34.08419
794.702	-52.13046
795.117	54.13699
795.532	-15.03842
795.947	24.05832
796.362	-14.0336
796.776	23.05367
797.191	31.07762
797.605	25.06051
798.02	-21.05268
798.434	13.02943
798.848	14.03521
799.262	2.00509
799.676	30.07339
800.09	-50.12467
800.504	11.02721
800.918	41.09688
801.331	5.01312
801.745	-45.1053
802.158	9.02291
802.572	-19.04632
802.985	4.00983
803.398	16.03885
803.811	11.02822
804.224	2.00502
804.637	28.06773
805.05	48.113
805.462	78.19393
805.875	1.00265
806.288	-5.01223
806.7	-22.05638
807.112	1.00237
807.525	-11.02749
807.937	12.03021
808.349	-10.02521
808.761	-11.02723
809.173	20.04922
809.584	-14.03462
809.996	-19.04793
810.408	-16.04228
810.819	15.03639
811.231	19.05067
811.642	79.19516
812.053	59.14404
812.464	79.1902
812.875	87.22355
813.286	21.05426
813.697	-19.04407
814.108	-9.02217
814.519	-64.14608
814.929	-34.08711
815.34	7.01717
815.75	7.01802
816.16	1.00252
816.571	56.14647
816.981	-68.16288
817.391	-9.0222
817.801	7.01764
818.211	1.0024
818.62	59.14414
819.03	12.02986
819.44	1.00262
819.849	43.10941
820.259	-31.07988
820.668	38.09455
821.077	10.02542
821.486	45.10982
821.895	11.0272
822.304	18.04786
822.713	-17.04098
823.122	-36.09113
823.531	-43.10361
823.939	9.02226
824.348	0
824.756	23.05803
825.164	-19.04812
825.573	-2.00511
825.981	-16.03972
826.389	52.1313
826.797	30.07662
827.205	32.0753
827.612	-9.0224
828.02	4.00965
828.428	11.02818
828.835	7.01854
829.243	20.04798
829.65	-10.02525
830.057	4.00975
830.464	-17.04198
830.871	1.0024
831.278	26.06337
831.685	15.03412
832.092	2.00498
832.499	18.04016
832.905	-14.03582
833.312	5.01158
833.718	11.02749
834.124	11.02529
834.531	14.03555
834.937	25.06435
835.343	-6.01472
835.749	11.02589
836.155	-9.02393
836.561	-28.06961
836.966	9.02214
837.372	24.06179
837.777	-50.1272
838.183	7.0159
838.588	24.06034
838.993	24.05817
839.399	41.1024
839.804	3.00747
840.209	29.07467
840.613	9.02042
841.018	4.01024
841.423	-8.02074
841.828	-14.0358
842.232	-8.01989
842.637	8.01913
843.041	-23.06005
843.445	16.0406
843.849	-1.00251
844.253	4.00959
844.657	15.03838
845.061	-6.0138
845.465	10.02475
845.869	17.04007
846.272	22.0546
846.676	-43.10376
847.079	12.03104
847.483	-22.05521
847.886	32.07796
848.289	-18.04875
848.692	-8.02037
849.095	3.0073
849.498	3.00757
849.901	-11.02568
850.304	0
850.707	2.00513
851.109	-11.02781
851.512	-33.08349
851.914	22.05719
852.316	25.06375
852.718	53.14063
853.121	23.0574
853.523	36.08708
853.925	-26.0693
854.326	-2.0051
854.728	20.05192
855.13	18.04681
855.531	25.06121
855.933	18.04369
856.334	-33.08376
856.736	24.05577
857.137	-8.01907
857.538	3.00772
857.939	14.03544
858.34	-1.00247
858.741	-9.02379
859.142	-28.06819
859.542	-10.02669
859.943	27.06838
860.343	10.0254
860.744	17.04172
861.144	-15.03714
861.544	47.11581
861.945	47.12064
862.345	13.03203
862.745	-59.14917
863.145	-8.01918
863.544	14.03573
863.944	71.16984
864.344	-38.09527
864.743	29.07175
865.143	51.13219
865.542	12.02845
865.941	18.04474
866.34	-16.03857
866.74	17.04577
867.139	8.01941
867.537	16.04108
867.936	-19.04652
868.335	-14.03596
868.734	19.04904
869.132	-8.0189
869.531	-36.08695
869.929	8.01883
870.327	52.12659
870.726	-4.00999
871.124	-2.00469
871.522	18.04592
871.92	53.13141
872.318	-6.01475
872.715	-33.08182
873.113	4.00989
873.511	5.01235
873.908	-47.12111
874.306	25.06314
874.703	-13.03284
875.1	11.02804
875.497	-9.02191
875.894	-7.01762
876.291	-15.03682
876.688	-6.01566
877.085	8.01933
877.482	9.02278
877.878	11.027
878.275	-20.05142
878.671	-53.11845
879.068	-14.03424
879.464	18.04421
879.86	21.05066
880.256	3.00744
880.652	26.06715
881.048	17.04232
881.444	4.00955
881.84	30.07699
882.236	15.03788
882.631	26.06401
883.027	-43.1049
883.422	26.06738
883.817	50.12796
884.213	-7.01823
884.608	24.06034
885.003	52.12759
885.398	4.01017
885.793	25.06339
886.188	-8.0204
886.582	18.04634
886.977	-4.00967
887.371	-52.13191
887.766	-25.06348
888.16	15.03783
888.554	-43.10638
888.949	-8.02018
889.343	44.10772
889.737	-18.04888
890.131	22.05573
890.525	58.14948
890.918	12.03058
891.312	16.03838
891.706	0
892.099	-27.06938
892.492	-6.01309
892.886	37.09231
893.279	29.07506
893.672	-14.03626
894.065	5.01261
894.458	-20.05063
894.851	-8.01956
895.244	2.00519
895.637	-54.13274
896.029	4.00998
896.422	-37.09204
896.814	33.0834
897.206	9.02181
897.599	14.03455
897.991	-15.03704
898.383	-12.02863
898.775	-3.00689
899.167	-6.0144
899.559	3.00759
899.951	-1.0024
900.342	27.06914
900.734	-8.02038
901.125	36.09547
901.517	-30.07451
901.908	-25.0604
902.299	-1.00252
902.69	-16.03849
903.082	-2.00483
903.473	4.00981
903.863	-14.03588
904.254	-19.04472
904.645	-31.07714
905.036	-12.02972
905.426	23.05314
905.817	-7.01749
906.207	47.11384
906.597	8.01902
906.987	-44.11415
907.378	0
907.768	-17.04553
908.158	33.08092
908.547	63.16487
908.937	-15.03848
909.327	18.0439
909.717	-1.00254
910.106	17.04175
910.495	14.03497
910.885	13.03326
911.274	6.01518
911.663	13.03298
912.052	-20.04962
912.441	50.12828
912.83	40.09343
913.219	5.01308
913.608	-33.08098
913.997	-16.04105
914.385	20.04845
914.774	22.05396
915.162	52.12565
915.55	-12.02915
915.939	-8.02048
916.327	-26.06478
916.715	46.11933
917.103	9.02226
917.491	31.077
917.878	44.10923
918.266	9.02335
918.654	20.05131
919.041	-30.07935
919.429	-54.12959
919.816	35.08902
920.203	11.02695
920.591	-22.05498
920.978	32.07854
921.365	3.00794
921.752	-29.07016
922.139	10.02193
922.525	46.11353
922.912	19.04649
923.299	47.11883
923.685	-5.0131
924.072	10.02326
924.458	-1.00251
924.844	12.03033
925.231	13.03078
925.617	41.10631
926.003	11.02825
926.389	-28.07138
926.774	3.00768
927.16	53.13184
927.546	-3.00776
927.931	40.10075
928.317	23.0535
928.702	-21.05008
929.088	17.04136
929.473	39.09972
929.858	29.07198
930.243	30.07268
930.628	18.0447
931.013	-7.01759
931.398	-24.05522
931.783	-25.06569
932.167	-5.01228
932.552	-42.10567
932.937	6.01496
933.321	1.00256
933.705	-15.03823
934.09	-8.01998
934.474	53.12639
934.858	-36.09384
935.242	-24.05656
935.626	16.04138
936.009	6.01612
936.393	0
936.777	-29.07462
937.16	1.00263
937.544	1.00236
937.927	8.02044
938.311	55.13372
938.694	14.03681
939.077	48.11624
939.46	-7.01718
939.843	27.0567
940.226	30.07767
940.609	21.04943
940.991	34.08741
941.374	-17.04212
941.757	37.09211
942.139	-22.05025
942.522	14.03305
942.904	-10.02422
943.286	10.02548
943.668	11.02885
944.05	43.10704
944.432	18.04529
944.814	8.0201
945.196	24.06004
945.578	20.04893
945.959	7.01663
946.341	24.05832
946.722	-17.04018
947.104	17.04073
947.485	74.17441
947.866	32.08164
948.247	-17.04361
948.628	27.06621
949.009	7.01816
949.39	-14.03504
949.771	15.03526
950.152	39.09649
950.532	3.00755
950.913	49.11998
951.293	9.02465
951.674	19.04628
952.054	-80.20323
952.434	18.0448
952.814	-41.09748
953.194	4.01038
953.574	17.04173
953.954	12.02892
954.334	54.1345
954.714	14.03462
955.093	-24.05891
955.473	-43.10957
955.853	2.00518
956.232	17.04629
956.611	-7.01681
956.99	-12.03011
957.37	9.02303
957.749	-36.08735
958.128	-16.04062
958.506	18.04711
958.885	-25.06397
959.264	18.04501
959.643	29.06719
960.021	-45.11308
960.4	-22.05074
960.778	1.00245
961.156	10.02542
961.535	-19.04495
961.913	16.03786
962.291	29.07543
962.669	-36.09116
963.047	5.01289
963.424	-13.03352
963.802	6.01486
964.18	32.08066
964.557	11.02574
964.935	-21.05014
965.312	-2.0053
965.69	22.05535
966.067	40.09767
966.444	0
966.821	3.00771
967.198	23.05535
967.575	-33.08164
967.952	1.00234
968.329	1.00246
968.705	43.09408
969.082	77.19882
969.458	-40.09825
969.835	-31.07574
970.211	4.01039
970.587	58.14383
970.963	22.05656
971.339	11.02892
971.715	8.02014
972.091	0
972.467	-14.0352
972.843	42.10567
973.219	18.04307
973.594	42.11042
973.97	15.03595
974.345	-2.00487
974.721	1.00244
975.096	-17.04195
975.471	-62.1472
975.846	40.09694
976.221	30.0775
976.596	9.02195
976.971	-11.02717
977.346	18.04209
977.72	-42.10741
978.095	-11.02847
978.469	-3.00721
978.844	24.05995
979.218	6.01474
979.593	-33.07933
979.967	44.10808
980.341	54.12554
980.715	20.05038
981.089	11.02788
981.463	7.01635
981.837	2.00497
982.21	4.00915
982.584	11.02697
982.957	-13.03296
983.331	0
983.704	47.11653
984.078	0
984.451	-36.08918
984.824	24.05976
985.197	-8.01966
985.57	24.06036
985.943	-1.00246
986.316	12.02956
986.688	28.06771
987.061	2.00477
987.434	-7.0183
987.806	-16.03895
988.179	24.05792
988.551	-13.03337
988.923	-39.09656
989.295	17.0428
989.667	29.07127
990.039	17.04252
990.411	12.02795
990.783	-39.09015
991.155	-16.03971
991.527	1.00243
991.898	-10.02517
992.27	33.08272
992.641	2.00504
993.012	34.08044
993.384	28.06745
993.755	16.04109
994.126	-18.04384
994.497	19.04749
994.868	34.07832
995.239	28.06829
995.61	6.01536
995.98	8.01979
996.351	30.07546
996.722	-13.03092
997.092	-29.06993
997.462	6.01446
997.833	-53.12693
998.203	3.00731
998.573	-30.07575
998.943	7.01673
999.313	-50.12113
999.683	-25.0609
1000.053	9.02086
1000.423	17.04132
1000.792	52.13592
1001.162	43.10623
1001.531	8.01991
1001.901	-5.01255
1002.27	22.05001
1002.639	8.02059
1003.009	21.05048
1003.378	-37.09554
1003.747	4.00958
1004.116	-31.07585
1004.485	-30.07221
1004.853	-34.08705
1005.222	26.06603
1005.591	4.0096
1005.959	44.10261
1006.328	-4.00922
1006.696	-21.05121
1007.064	20.0509
1007.433	-10.02501
1007.801	-28.0687
1008.169	23.05877
1008.537	-19.04238
1008.905	2.00475
1009.273	5.01246
1009.64	46.11123
1010.008	15.03616
1010.375	-20.04772
1010.743	59.13605
1011.11	26.06235
1011.478	-14.03479
1011.845	15.03546
1012.212	33.0761
1012.579	9.02224
1012.946	26.06235
1013.313	-5.01188
1013.68	-5.01133
1014.047	10.02452
1014.414	-29.07003
1014.78	-17.04264
1015.147	-4.00969
1015.513	-10.02445
1015.88	-9.0231
1016.246	49.12056
1016.612	11.02548
1016.978	19.04709
1017.344	14.03479
1017.71	-1.00241
1018.076	4.00947
1018.442	6.01547
1018.808	3.00759
1019.174	34.08607
1019.539	-8.01837
1019.905	-30.07183
1020.27	-27.06792
1020.636	29.0694
1021.001	44.10644
1021.366	-42.10213
1021.731	-1.00259
1022.096	-5.01267
1022.461	-26.06168
1022.826	15.0362
1023.191	-30.07951
1023.556	41.09657
1023.92	26.06365
1024.285	-18.04425
1024.649	-14.0345
1025.014	0
1025.378	-20.05122
1025.742	15.03754
1026.107	-1.00229
1026.471	-14.03279
1026.835	-27.06729
1027.199	-2.00491
1027.562	41.09646
1027.926	27.06577
1028.29	31.07974
1028.654	-10.02347
1029.017	-28.06931
1029.381	28.06865
1029.744	23.05929
1030.107	-10.02363
1030.471	10.0241
1030.834	34.07757
1031.197	8.01918
1031.56	6.01422
1031.923	-24.06269
1032.286	-6.01403
1032.648	41.09867
1033.011	15.03536
1033.374	-3.00705
1033.736	-31.0833
1034.099	31.07658
1034.461	23.05933
1034.823	-15.03791
1035.185	8.02034
1035.548	-2.00493
1035.91	7.01706
1036.272	-7.01623
1036.634	8.01951
1036.995	-7.01651
1037.357	9.02209
1037.719	-8.01953
1038.08	-24.05705
1038.442	-35.08452
1038.803	29.07046
1039.165	-13.03301
1039.526	-19.04633
1039.887	12.02904
1040.248	15.03784
1040.609	17.04192
1040.97	52.12891
1041.331	-31.07905
1041.692	-15.03585
1042.053	36.08204
1042.413	-7.01642
1042.774	-16.03926
1043.134	-40.0957
1043.495	10.02521
1043.855	-13.03181
1044.215	-11.02733
1044.576	-9.02205
1044.936	-42.09656
1045.296	5.01251
1045.656	34.08364
1046.016	18.04371
1046.375	5.01239
1046.735	13.03024
1047.095	13.03085
1047.454	13.02754
1047.814	-54.13072
1048.173	-6.01428
1048.533	53.12207
1048.892	17.04173
1049.251	-15.03784
1049.61	-3.00749
1049.969	-12.02841
1050.328	2.0044
1050.687	18.04425
1051.046	0
1051.405	27.06743
1051.763	-49.11569
1052.122	46.11636
1052.48	-26.06422
1052.839	-40.09614
1053.197	-26.06159
1053.555	-58.13185
1053.914	19.0468
1054.272	-22.05342
1054.63	15.03735
1054.988	-28.0675
1055.345	6.0132
1055.703	-20.04822
1056.061	-26.0677
1056.419	-12.03139
1056.776	-16.03889
1057.134	-13.0307
1057.491	-9.0227
1057.848	25.06246
1058.206	26.06171
1058.563	-8.01806
1058.92	-2.00465
1059.277	-7.01726
1059.634	5.01195
1059.991	-54.12974
1060.348	34.07885
1060.704	-47.11474
1061.061	-48.11031
1061.418	15.03695
1061.774	38.0943
1062.131	-16.0427
1062.487	4.00942
1062.843	5.01257
1063.199	14.03483
1063.555	-25.05886
1063.911	-2.00512
1064.267	35.07311
1064.623	-21.05205
1064.979	-26.06118
1065.335	-65.15548
1065.691	-46.11073
1066.046	9.01984
1066.402	40.09222
1066.757	-20.05054
1067.112	-22.05372
1067.468	-10.0241
1067.823	8.01942
1068.178	-3.00729
1068.533	-48.11764
1068.888	43.10329
1069.243	-11.02746
1069.598	26.06384
1069.952	13.03011
1070.307	-16.04047
1070.662	34.08191
1071.016	-24.05555
1071.371	-24.0556
1071.725	3.0072
1072.079	-30.07249
1072.434	5.0123
1072.788	46.1114
1073.142	43.10541
1073.496	53.1291
1073.85	9.02097
1074.203	-66.16128
1074.557	-16.04304
1074.911	12.0286
1075.265	1.00234
1075.618	19.04663
1075.971	-4.00965
1076.325	-13.03358
1076.678	58.13601
1077.031	7.0162
1077.385	24.05378
1077.738	21.04875
1078.091	46.10732
1078.444	45.10513
1078.796	-40.09978
1079.149	26.06455
1079.502	12.02893
1079.855	26.06159
1080.207	12.02953
1080.56	33.08615
1080.912	10.02458
1081.264	10.02432
1081.617	50.12368
1081.969	9.02312
1082.321	31.07672
1082.673	18.04236
1083.025	-17.0406
1083.377	-10.02169
1083.728	-10.02363
1084.08	11.02786
1084.432	54.13146
1084.783	2.00468
1085.135	11.02785
1085.486	-5.01177
1085.838	3.00746
1086.189	-22.05434
1086.54	-1.00239
1086.891	15.03856
1087.242	7.01715
1087.593	-24.05825
1087.944	55.12657
1088.295	-5.01139
1088.646	-7.01716
1088.996	-27.0668
1089.347	0
1089.698	34.08228
1090.048	22.05703
1090.398	-22.05175
1090.749	-2.00481
1091.099	-25.06408
1091.449	-15.03756
1091.799	31.07854
1092.149	10.02517
1092.499	-47.11547
1092.849	16.04089
1093.199	-34.08539
1093.548	3.00726
1093.898	39.09867
1094.248	8.0205
1094.597	-6.01566
1094.947	25.06676
1095.296	0
1095.645	14.03638
1095.994	58.14051
1096.343	-27.06872
1096.692	-5.0134
1097.041	-44.12152
1097.39	-8.02021
1097.739	-1.00259
1098.088	28.07493
1098.437	-44.11782
1098.785	21.05702
1099.134	7.01863
1099.482	-19.05245
1099.83	-20.05242
1100.179	-1.00263
1100.527	30.08028
1100.875	-6.01602
1101.223	-24.06395
1101.571	7.01953
1101.919	-5.01331
1102.267	-24.06808
1102.615	-4.01288
1102.962	-7.02254
1103.31	-3.00967
1103.658	-6.01933
