Data from N2 R3 sample 3_Subt2__2__17-28-34-631.txt Node

Date: Wed Aug 27 17:28:34 PDT 2025
User: uwsun
Spectrometer: HDX01956
Trigger mode: 0
Integration Time (sec): 5.000000E-1
Scans to average: 1
Nonlinearity correction enabled: true
Boxcar width: 0
Storing dark spectrum: false
XAxis mode: Wavelengths
Number of Pixels in Spectrum: 2068
>>>>>Begin Spectral Data<<<<<
194.03	231.65137
194.578	243.77047
195.127	242.75686
195.676	254.79537
196.225	215.57062
196.773	276.75444
197.321	364.9802
197.87	497.22016
198.418	565.38577
198.966	598.47353
199.513	558.33595
200.061	542.32219
200.609	509.27857
201.156	550.15273
201.704	523.27461
202.251	542.36228
202.798	590.46445
203.345	571.33772
203.892	558.32986
204.438	577.3069
204.985	509.16296
205.532	534.33736
206.078	578.35018
206.624	556.31192
207.17	598.31083
207.716	585.36414
208.262	506.95868
208.808	556.31344
209.354	514.21036
209.899	583.3834
210.445	540.28053
210.99	566.29778
211.535	585.30087
212.08	611.34695
212.625	585.37749
213.17	536.27591
213.715	524.13055
214.259	571.25184
214.804	577.34863
215.348	571.23711
215.892	533.21445
216.436	552.2053
216.98	605.25785
217.524	575.28072
218.068	546.28731
218.612	569.3574
219.155	547.22028
219.698	559.24966
220.242	525.22935
220.785	505.1246
221.328	524.24206
221.871	452.08062
222.414	536.26761
222.956	512.17803
223.499	466.01208
224.041	552.22917
224.583	479.98227
225.126	495.05395
225.668	483.13307
226.21	483.15991
226.751	510.07676
227.293	497.08205
227.835	478.11281
228.376	517.14185
228.918	510.21998
229.459	568.34234
230	414.94746
230.541	483.07508
231.082	540.247
231.622	557.23136
232.163	501.16438
232.704	515.22187
233.244	449.05564
233.784	456.06234
234.324	492.04051
234.864	472.02818
235.404	487.09474
235.944	491.1042
236.484	480.13062
237.023	511.15582
237.563	516.1375
238.102	453.01027
238.641	521.24087
239.18	504.13047
239.719	501.20092
240.258	485.04067
240.797	531.21622
241.335	534.23117
241.874	508.94368
242.412	479.09782
242.95	573.30256
243.488	511.12388
244.026	522.13969
244.564	485.95144
245.102	534.15413
245.64	538.22759
246.177	532.12428
246.715	512.15691
247.252	486.05918
247.789	473.83475
248.326	577.31907
248.863	516.08136
249.4	471.01145
249.936	531.05372
250.473	560.2331
251.009	572.24534
251.546	590.23888
252.082	546.1171
252.618	592.2491
253.154	501.14695
253.69	510.1017
254.226	504.12445
254.761	559.18839
255.297	531.11897
255.832	515.14785
256.367	572.27797
256.903	578.19817
257.438	566.2333
257.972	565.20221
258.507	593.29358
259.042	487.99913
259.576	583.18727
260.111	544.18379
260.645	495.01417
261.179	538.18063
261.713	612.27328
262.247	534.16643
262.781	524.03617
263.315	568.29821
263.849	568.33716
264.382	562.20541
264.915	606.34456
265.449	562.30455
265.982	585.24267
266.515	581.32769
267.048	505.00623
267.58	543.10769
268.113	555.13939
268.646	526.23434
269.178	609.29204
269.71	511.04229
270.243	595.26559
270.775	605.4395
271.307	570.27612
271.838	568.25179
272.37	593.35732
272.902	611.29629
273.433	565.16517
273.965	564.28647
274.496	548.27051
275.027	616.4289
275.558	619.39816
276.089	650.49653
276.62	576.36494
277.15	590.35882
277.681	592.20317
278.211	649.47015
278.741	567.18659
279.272	591.26743
279.802	621.4459
280.332	616.3645
280.861	616.37979
281.391	642.35237
281.921	576.28163
282.45	635.4762
282.98	649.56078
283.509	638.33687
284.038	670.40215
284.567	605.29861
285.096	617.37948
285.625	564.19097
286.153	616.34693
286.682	622.34002
287.21	631.4056
287.739	586.29744
288.267	647.45197
288.795	682.64543
289.323	645.39646
289.851	617.32895
290.378	713.47942
290.906	664.50447
291.433	706.60163
291.961	721.50469
292.488	639.45217
293.015	687.48116
293.542	722.67428
294.069	713.61262
294.596	706.5848
295.122	668.46629
295.649	642.29783
296.175	681.52333
296.702	715.57185
297.228	697.53866
297.754	666.37471
298.28	730.5144
298.806	659.44136
299.332	764.54553
299.857	685.41367
300.383	732.66199
300.908	745.6659
301.433	717.57889
301.958	817.70373
302.483	749.7078
303.008	747.63538
303.533	803.87934
304.058	669.42937
304.582	781.68184
305.107	733.74021
305.631	719.4806
306.155	776.63783
306.679	746.58821
307.203	728.53509
307.727	789.69617
308.251	774.69132
308.775	734.58157
309.298	847.81547
309.822	819.83293
310.345	842.75319
310.868	815.72584
311.391	742.6275
311.914	820.84832
312.437	750.51925
312.96	744.57983
313.482	810.70815
314.005	882.96545
314.527	840.94792
315.049	826.84216
315.571	885.72573
316.093	915.96212
316.615	884.8521
317.137	926.72863
317.659	879.83312
318.18	917.90059
318.702	972.96141
319.223	967.68859
319.744	938.82188
320.265	912.91919
320.786	983.09454
321.307	982.10007
321.828	937.80397
322.348	957.90688
322.869	961.96442
323.389	1155.54686
323.909	1038.00729
324.43	1020.04086
324.95	1030.98756
325.47	1075.21777
325.989	1022.0195
326.509	1088.00835
327.029	1096.05131
327.548	1078.00466
328.067	1166.31427
328.587	1121.25516
329.106	1183.21517
329.625	1157.46774
330.144	1156.14063
330.662	1185.22652
331.181	1185.20915
331.7	1188.21422
332.218	1260.13037
332.736	1272.3038
333.255	1276.3449
333.773	1244.30524
334.291	1266.45394
334.808	1362.2927
335.326	1351.32254
335.844	1364.44247
336.361	1375.68769
336.879	1331.42626
337.396	1415.57352
337.913	1454.54749
338.43	1395.34542
338.947	1494.6383
339.464	1469.33537
339.981	1506.62541
340.497	1538.7709
341.014	1495.70737
341.53	1474.43577
342.046	1552.75394
342.562	1541.77142
343.078	1552.63296
343.594	1664.79882
344.11	1606.68459
344.626	1636.92011
345.141	1592.52199
345.657	1595.46176
346.172	1728.87622
346.687	1663.64828
347.202	1749.67113
347.717	1709.78055
348.232	1814.08501
348.747	1785.74431
349.261	1784.56481
349.776	1799.83832
350.29	1899.11093
350.805	1906.11656
351.319	1857.81363
351.833	1865.7747
352.347	1983.93927
352.861	1966.92665
353.374	1921.77127
353.888	1842.84543
354.401	2014.89306
354.915	2050.89201
355.428	2086.2074
355.941	2002.8825
356.454	2057.70984
356.967	2028.92426
357.48	2056.81459
357.993	2082.12396
358.505	2111.15624
359.018	2237.22731
359.53	2161.01705
360.042	2170.75031
360.554	2162.0326
361.066	2241.20196
361.578	2205.68062
362.09	2224.05432
362.602	2219.68513
363.113	2247.93125
363.625	2304.79128
364.136	2381.74362
364.647	2285.93944
365.158	2396.00072
365.669	2471.16695
366.18	2321.98545
366.691	2401.72576
367.201	2449.06688
367.712	2445.93186
368.222	2448.84635
368.733	2556.65026
369.243	2584.75521
369.753	2554.864
370.263	2729.16911
370.773	2756.3548
371.282	2724.04942
371.792	2763.90793
372.301	2860.17798
372.811	2892.52599
373.32	2948.55059
373.829	2989.89079
374.338	3124.59816
374.847	3194.71928
375.356	3232.81354
375.865	3400.20424
376.373	3555.39049
376.882	3684.96634
377.39	3732.64464
377.898	3781.78525
378.407	4078.11915
378.915	4120.66305
379.423	4371.97504
379.93	4401.68413
380.438	4633.94064
380.946	4802.52243
381.453	5131.51134
381.96	5184.25975
382.468	5599.97696
382.975	5949.96685
383.482	6246.62983
383.989	6244.155
384.495	6495.62016
385.002	6957.41166
385.509	7242.78426
386.015	7673.01304
386.521	7995.50541
387.028	8243.93476
387.534	8551.67215
388.04	8954.5084
388.546	9170.31459
389.051	9642.16235
389.557	10525.7491
390.063	11209.0922
390.568	11657.99091
391.073	11950.25732
391.578	12449.55162
392.084	12965.94773
392.589	13389.41278
393.093	14041.89145
393.598	15651.27913
394.103	16963.98263
394.607	18673.08671
395.112	19986.95513
395.616	21258.88593
396.12	23114.08549
396.624	25834.33238
397.128	28052.85907
397.632	31480.42899
398.136	34032.42056
398.639	35558.92206
399.143	39218.51876
399.646	44350.14438
400.15	49258.72914
400.653	53447.94175
401.156	56156.13848
401.659	55962.15792
402.162	53821.55638
402.664	47275.14456
403.167	32260.27245
403.67	3851.94142
404.172	0
404.674	0
405.176	0
405.678	0
406.18	0
406.682	0
407.184	0
407.686	12367.42319
408.187	34596.90747
408.688	44563.94194
409.19	48906.19284
409.691	51236.67962
410.192	52883.26968
410.693	53713.23343
411.194	54189.54801
411.694	54767.79104
412.195	55625.98899
412.696	55971.27715
413.196	55815.15953
413.696	55802.1488
414.196	55740.09561
414.696	56340.4775
415.196	57067.59327
415.696	58258.21704
416.196	55419.37991
416.695	43145.12721
417.195	36353.10912
417.694	34277.48977
418.194	32216.46865
418.693	30009.7267
419.192	29065.8288
419.691	28408.63143
420.19	28026.52026
420.688	27134.98042
421.187	26332.67995
421.685	24364.26826
422.184	22312.39621
422.682	19614.79204
423.18	16560.36989
423.678	14947.74333
424.176	13695.32256
424.674	12979.41613
425.172	12426.74719
425.669	11560.91834
426.167	10892.35185
426.664	9840.51924
427.161	9139.99899
427.659	8385.16911
428.156	7844.26833
428.652	7376.15803
429.149	7009.81806
429.646	6768.49921
430.143	6522.76284
430.639	6109.77451
431.135	5839.19924
431.632	5477.00667
432.128	4955.36877
432.624	4778.04083
433.12	4657.39552
433.616	4481.35685
434.111	4335.0198
434.607	4175.1207
435.103	4092.52948
435.598	3865.48927
436.093	3748.23857
436.588	3545.10148
437.083	3390.33653
437.578	3113.31974
438.073	3049.99882
438.568	2945.85991
439.062	2825.25176
439.557	2789.67782
440.051	2717.60645
440.546	2639.64987
441.04	2581.86312
441.534	2436.04266
442.028	2439.78952
442.522	2373.82553
443.015	2316.48685
443.509	2347.9661
444.002	2251.90574
444.496	2124.38929
444.989	2184.8624
445.482	2163.93963
445.975	2141.59449
446.468	2159.45301
446.961	2060.27982
447.454	2013.58427
447.947	1949.63843
448.439	1973.76294
448.931	1910.41479
449.424	1933.87584
449.916	1933.73287
450.408	1876.4274
450.9	1789.59976
451.392	1771.77306
451.884	1796.46552
452.375	1714.66824
452.867	1720.31111
453.358	1638.333
453.849	1700.19483
454.341	1635.26306
454.832	1570.13928
455.323	1600.55778
455.814	1625.35233
456.304	1614.36698
456.795	1595.37067
457.285	1519.1781
457.776	1521.21746
458.266	1569.46761
458.756	1500.45061
459.247	1457.37524
459.737	1440.40265
460.226	1374.13803
460.716	1353.26825
461.206	1399.34458
461.695	1343.41268
462.185	1298.20323
462.674	1270.08974
463.163	1313.0678
463.653	1311.93726
464.142	1207.1487
464.63	1274.24348
465.119	1148.9821
465.608	1234.09966
466.096	1243.9859
466.585	1174.02489
467.073	1137.04962
467.561	1111.0321
468.05	1114.96699
468.538	1111.08507
469.026	1035.91017
469.513	996.62347
470.001	1077.95327
470.489	1055.99756
470.976	978.7585
471.463	1013.99433
471.951	904.81241
472.438	909.73324
472.925	965.84197
473.412	900.78779
473.899	840.58637
474.385	841.71583
474.872	939.76461
475.359	859.75575
475.845	853.4687
476.331	807.46784
476.817	784.59689
477.303	809.57286
477.789	777.58154
478.275	768.6188
478.761	758.56695
479.247	719.36379
479.732	729.56777
480.218	672.50719
480.703	722.5364
481.188	673.23232
481.673	679.34734
482.158	676.28115
482.643	636.42054
483.128	653.32222
483.612	606.25126
484.097	612.32465
484.581	568.15956
485.066	613.32541
485.55	548.07966
486.034	553.08008
486.518	538.12108
487.002	577.2873
487.486	549.21162
487.969	517.14185
488.453	517.16941
488.936	496.02012
489.42	511.03143
489.903	489.10867
490.386	444.67969
490.869	481.95295
491.352	458.00859
491.835	441.84102
492.318	440.9294
492.8	453.88615
493.283	403.94836
493.765	385.88801
494.247	431.92933
494.73	399.81638
495.212	331.74186
495.694	386.84783
496.175	349.7838
496.657	366.81033
497.139	388.6378
497.62	360.81132
498.102	389.91435
498.583	383.90131
499.064	324.67869
499.545	359.77277
500.026	340.72575
500.507	335.73939
500.988	378.87933
501.469	304.72614
501.949	298.69217
502.43	326.74071
502.91	301.60247
503.39	288.68346
503.87	295.66445
504.35	297.66238
504.83	279.59051
505.31	239.55701
505.79	301.69098
506.269	274.61071
506.749	180.4027
507.228	275.61991
507.707	226.48326
508.187	263.59819
508.666	163.38722
509.145	227.51402
509.623	271.61664
510.102	230.5372
510.581	177.41009
511.059	279.67293
511.538	223.55025
512.016	268.62152
512.494	289.6775
512.972	170.39145
513.45	228.51618
513.928	196.46516
514.406	215.51113
514.884	244.60305
515.361	163.37705
515.839	236.52254
516.316	220.51485
516.793	235.57303
517.27	186.43649
517.747	250.62105
518.224	162.36512
518.701	214.46473
519.178	131.31873
519.654	170.39286
520.131	146.35317
520.607	136.32848
521.083	190.42525
521.56	136.31429
522.036	186.39945
522.512	184.43567
522.987	164.38261
523.463	175.40754
523.939	182.4291
524.414	197.44373
524.89	194.45206
525.365	150.33116
525.84	155.36253
526.315	206.48285
526.79	160.35131
527.265	163.36805
527.74	129.30716
528.215	191.44848
528.689	179.38765
529.164	168.36126
529.638	168.42041
530.112	154.35744
530.587	174.37159
531.061	160.3806
531.534	207.48965
532.008	180.4257
532.482	133.29786
532.956	111.27752
533.429	140.33021
533.903	111.24152
534.376	141.31174
534.849	145.32688
535.322	175.40417
535.795	90.21615
536.268	148.35057
536.741	97.22848
537.213	118.26846
537.686	121.28966
538.158	124.27788
538.631	99.2341
539.103	147.32867
539.575	104.21477
540.047	163.35496
540.519	147.34086
540.991	129.3061
541.463	135.31959
541.934	44.1001
542.406	90.21063
542.877	136.29836
543.348	93.2153
543.82	118.28221
544.291	106.24067
544.762	143.33329
545.233	170.41168
545.703	135.29474
546.174	156.35505
546.645	171.40058
547.115	200.46915
547.585	211.4628
548.056	187.43497
548.526	231.52329
548.996	177.41025
549.466	233.54025
549.935	229.52424
550.405	236.49874
550.875	250.56529
551.344	202.46476
551.814	284.62146
552.283	214.44511
552.752	235.51891
553.221	254.53019
553.69	273.57048
554.159	277.64759
554.628	388.81382
555.096	316.75018
555.565	353.75104
556.033	275.61281
556.502	316.72439
556.97	251.52613
557.438	250.56183
557.906	272.61252
558.374	276.60395
558.842	232.53314
559.31	255.54916
559.777	223.51973
560.245	233.51665
560.712	218.48289
561.18	257.54704
561.647	238.50759
562.114	288.63659
562.581	236.54796
563.048	318.69262
563.514	287.66913
563.981	330.71265
564.448	343.71833
564.914	293.63749
565.381	408.8501
565.847	340.7399
566.313	388.84649
566.779	440.92207
567.245	414.88138
567.711	436.96326
568.176	426.873
568.642	433.99113
569.108	523.15224
569.573	517.08131
570.038	557.03904
570.504	600.19007
570.969	537.17769
571.434	560.07851
571.899	686.40972
572.363	668.30235
572.828	624.21931
573.293	707.39907
573.757	750.44795
574.222	746.41957
574.686	737.40819
575.15	781.57167
575.614	787.51768
576.078	764.49617
576.542	783.47746
577.006	733.38701
577.469	789.58415
577.933	826.53782
578.396	816.60117
578.86	809.57957
579.323	851.68838
579.786	797.41298
580.249	789.49753
580.712	758.54247
581.175	759.58057
581.637	728.39667
582.1	683.24312
582.563	722.29665
583.025	676.40474
583.487	720.23949
583.95	665.2342
584.412	683.20166
584.874	662.386
585.336	634.30155
585.797	577.08494
586.259	542.12142
586.721	603.23754
587.182	574.15751
587.643	494.98351
588.105	481.99617
588.566	459.84775
589.027	467.00155
589.488	458.92372
589.949	490.04894
590.41	474.83149
590.87	377.76053
591.331	456.87533
591.791	401.83719
592.252	372.76752
592.712	380.81252
593.172	438.88055
593.632	343.6681
594.092	380.76042
594.552	279.5455
595.011	353.7396
595.471	344.69986
595.931	310.62954
596.39	341.75168
596.849	294.6292
597.308	309.59757
597.768	367.8556
598.227	287.63001
598.685	297.61952
599.144	346.74175
599.603	364.78
600.062	336.65524
600.52	346.70489
600.978	356.76912
601.437	312.65125
601.895	292.56185
602.353	303.60844
602.811	344.70114
603.269	294.6398
603.727	367.79542
604.184	348.71832
604.642	306.6792
605.099	348.74346
605.557	355.78155
606.014	351.68726
606.471	376.85187
606.928	346.67635
607.385	363.8062
607.842	503.02083
608.299	495.01417
608.755	449.9536
609.212	503.99235
609.668	412.82026
610.125	461.97439
610.581	400.83121
611.037	413.83201
611.493	417.87406
611.949	360.78042
612.405	425.78376
612.861	430.88956
613.316	433.93404
613.772	391.79675
614.227	339.71592
614.683	437.83016
615.138	420.88482
615.593	430.90509
616.048	450.92051
616.503	324.71107
616.958	381.8539
617.412	420.89143
617.867	416.84056
618.321	453.84924
618.776	395.78513
619.23	386.81571
619.684	427.87327
620.138	334.69221
620.592	365.7975
621.046	328.69467
621.5	391.86224
621.954	381.77319
622.407	314.64174
622.861	378.83898
623.314	363.74912
623.768	311.66802
624.221	300.54864
624.674	255.54633
625.127	279.6011
625.58	250.52161
626.033	258.52251
626.485	263.59311
626.938	245.54031
627.39	307.66369
627.843	210.45468
628.295	234.50383
628.747	239.53458
629.199	214.45918
629.651	197.43064
630.103	216.47027
630.555	204.4192
631.006	177.39526
631.458	221.4984
631.909	198.42815
632.361	220.48955
632.812	176.39197
633.263	143.29723
633.714	212.43997
634.165	114.2645
634.616	152.34623
635.067	139.29369
635.518	181.4117
635.968	175.33843
636.419	104.22027
636.869	105.23874
637.319	184.42013
637.769	89.19472
638.219	144.33225
638.669	71.16561
639.119	86.20143
639.569	91.21493
640.019	70.15745
640.468	111.24285
640.918	75.17439
641.367	98.21735
641.816	34.07437
642.265	23.0523
642.714	67.15191
643.163	55.12429
643.612	82.19476
644.061	20.04232
644.51	43.09757
644.958	87.19067
645.406	53.12528
645.855	114.27566
646.303	92.21142
646.751	39.08871
647.199	3.00678
647.647	25.05719
648.095	69.15663
648.543	120.24603
648.99	70.16613
649.438	18.04145
649.885	19.04616
650.333	88.17185
650.78	66.15821
651.227	24.05847
651.674	101.22918
652.121	94.2261
652.568	53.12862
653.015	96.23876
653.461	47.11101
653.908	32.07404
654.354	76.18003
654.801	95.2249
655.247	59.12788
655.693	22.05662
656.139	65.15732
656.585	90.21516
657.031	73.17269
657.477	98.21382
657.922	41.09579
658.368	76.18771
658.813	84.19428
659.259	28.06763
659.704	70.16363
660.149	76.17801
660.594	85.20154
661.039	47.10747
661.484	58.13808
661.929	59.13757
662.373	51.12963
662.818	50.12413
663.262	66.15935
663.707	78.19597
664.151	25.06092
664.595	78.1906
665.039	38.09451
665.483	77.19751
665.927	99.22965
666.371	85.20115
666.814	97.23159
667.258	22.0531
667.701	75.16312
668.145	86.21327
668.588	50.12359
669.031	44.10567
669.474	61.14775
669.917	60.13363
670.36	73.1814
670.803	99.23898
671.245	111.23977
671.688	45.10965
672.13	77.17784
672.573	94.23668
673.015	61.14742
673.457	71.15855
673.899	85.20596
674.341	40.09738
674.783	35.08554
675.225	104.25734
675.666	122.29589
676.108	12.02645
676.549	56.13321
676.991	65.14683
677.432	115.24159
677.873	40.09435
678.314	57.1376
678.755	77.19022
679.196	90.21179
679.637	117.28595
680.078	84.1989
680.518	64.15037
680.959	51.12218
681.399	67.16715
681.839	117.2852
682.28	83.20752
682.72	82.19266
683.16	91.22851
683.6	90.20617
684.039	41.08754
684.479	100.24663
684.919	76.18121
685.358	53.13476
685.798	117.3093
686.237	51.12479
686.676	39.09061
687.115	91.21593
687.554	117.28051
687.993	104.23306
688.432	30.07035
688.871	81.18782
689.309	101.24445
689.748	75.16131
690.186	138.32979
690.625	124.29429
691.063	107.26054
691.501	95.23744
691.939	176.43979
692.377	105.25996
692.815	95.23054
693.253	88.21223
693.69	98.21953
694.128	136.33343
694.565	118.28285
695.003	103.26143
695.44	165.39091
695.877	135.3191
696.314	135.29324
696.751	138.31281
697.188	98.22629
697.625	104.23785
698.061	138.3347
698.498	144.34807
698.934	142.34181
699.371	123.29231
699.807	119.28389
700.243	102.24599
700.679	136.30928
701.115	109.25405
701.551	154.35998
701.987	200.44745
702.422	111.26694
702.858	135.32416
703.294	111.24993
703.729	157.38099
704.164	120.2882
704.599	126.28213
705.035	125.28294
705.47	67.16399
705.904	133.31449
706.339	178.40971
706.774	164.38591
707.209	165.38426
707.643	168.40101
708.078	139.33642
708.512	106.26699
708.946	149.35382
709.38	122.29144
709.814	146.33887
710.248	141.34524
710.682	175.41668
711.116	154.37434
711.549	152.39308
711.983	128.29909
712.416	107.25478
712.85	143.35688
713.283	117.27698
713.716	108.26861
714.149	116.27552
714.582	133.30289
715.015	153.37823
715.448	141.35444
715.881	141.30288
716.313	89.2076
716.746	124.2944
717.178	160.38484
717.61	128.32216
718.043	119.2958
718.475	129.31128
718.907	141.3501
719.339	118.27313
719.77	106.2539
720.202	126.31895
720.634	111.2733
721.065	131.31396
721.497	154.37784
721.928	113.28038
722.359	115.28294
722.79	153.36905
723.221	106.26574
723.652	133.3384
724.083	114.26251
724.514	130.29803
724.945	87.20724
725.375	123.29209
725.806	74.18311
726.236	97.24646
726.666	144.3436
727.096	170.41817
727.526	99.2535
727.956	126.29234
728.386	117.29051
728.816	127.32804
729.246	84.20671
729.675	80.19839
730.105	119.29451
730.534	87.2066
730.964	119.29946
731.393	112.27541
731.822	59.15033
732.251	84.21558
732.68	53.12557
733.109	149.37105
733.537	88.21551
733.966	61.15318
734.395	58.1367
734.823	95.21679
735.251	74.18062
735.68	102.25516
736.108	82.20986
736.536	115.27614
736.964	35.08328
737.392	71.17944
737.82	59.14119
738.247	88.21423
738.675	73.17369
739.102	95.24206
739.53	20.05172
739.957	56.14487
740.384	69.17027
740.811	45.11515
741.238	27.06685
741.665	18.04285
742.092	30.07293
742.519	86.217
742.945	69.1677
743.372	81.20281
743.798	64.16626
744.225	56.13648
744.651	74.18726
745.077	59.14879
745.503	37.09254
745.929	64.15616
746.355	15.03687
746.781	48.12064
747.207	5.01208
747.632	15.03768
748.058	24.06039
748.483	99.23247
748.908	41.10347
749.334	106.26344
749.759	36.08764
750.184	37.08992
750.609	29.07185
751.033	26.06142
751.458	36.082
751.883	14.03485
752.307	79.19049
752.732	38.09807
753.156	60.15102
753.58	20.04831
754.005	50.1276
754.429	63.15099
754.853	35.08899
755.277	15.03602
755.7	40.10039
756.124	47.11849
756.548	20.04898
756.971	31.07723
757.394	37.09633
757.818	26.06801
758.241	43.11069
758.664	51.13196
759.087	-1.00233
759.51	9.02273
759.933	-6.01472
760.356	33.08494
760.778	53.13466
761.201	-14.03502
761.623	73.17888
762.046	34.0811
762.468	49.11873
762.89	20.04949
763.312	7.01731
763.734	26.06393
764.156	-8.0203
764.578	-23.05428
765	42.10488
765.421	35.09225
765.843	11.02924
766.264	-1.00244
766.686	0
767.107	39.09684
767.528	-14.03653
767.949	-21.05415
768.37	1.00253
768.791	73.17828
769.212	42.10851
769.632	-39.09475
770.053	34.09065
770.473	41.10129
770.894	-12.03028
771.314	12.02886
771.734	15.03606
772.154	27.07032
772.575	-12.02844
772.994	18.04206
773.414	15.03659
773.834	-44.1115
774.254	65.16234
774.673	22.05428
775.093	-23.05798
775.512	23.05834
775.931	37.09541
776.351	30.07567
776.77	40.10061
777.189	22.05352
777.607	-10.02583
778.026	-3.00758
778.445	-42.10745
778.864	-48.12491
779.282	16.03958
779.701	22.05628
780.119	-18.04666
780.537	1.00256
780.955	31.07957
781.373	11.02756
781.791	15.03449
782.209	15.03474
782.627	-11.02931
783.045	11.02594
783.462	-15.03885
783.88	70.18303
784.297	0
784.715	42.10944
785.132	-8.01976
785.549	19.04863
785.966	5.01274
786.383	29.07238
786.8	-24.05654
787.217	14.03379
787.633	25.06408
788.05	4.00949
788.466	35.0836
788.883	0
789.299	9.02202
789.715	44.10923
790.131	28.07088
790.547	-53.13438
790.963	39.09811
791.379	-15.03852
791.795	-19.04404
792.21	41.09778
792.626	15.03599
793.041	-5.01261
793.457	-7.01757
793.872	-25.05996
794.287	43.1063
794.702	-5.01244
795.117	35.08909
795.532	-38.09773
795.947	23.0559
796.362	-59.1428
796.776	-8.01878
797.191	30.07513
797.605	-26.06353
798.02	24.05971
798.434	-9.02046
798.848	21.05275
799.262	13.03303
799.676	-12.02958
800.09	-60.14988
800.504	21.05186
800.918	0
801.331	-5.01314
801.745	-59.13843
802.158	-25.06402
802.572	-24.05856
802.985	18.0441
803.398	8.01945
803.811	-12.03091
804.224	-19.04788
804.637	-42.10294
805.05	-3.00713
805.462	7.01763
805.875	-1.00265
806.288	-60.1483
806.7	15.03819
807.112	30.07065
807.525	-2.00499
807.937	9.02267
808.349	15.03764
808.761	-27.06704
809.173	-2.00494
809.584	-38.09437
809.996	-8.02014
810.408	-8.02111
810.819	32.07738
811.231	43.11421
811.642	73.18054
812.053	109.26362
812.464	110.26328
812.875	176.44519
813.286	40.10302
813.697	-1.00231
814.108	7.01719
814.519	5.01125
814.929	-3.00764
815.34	4.00981
815.75	11.0283
816.16	-11.02774
816.571	52.1361
816.981	-34.08091
817.391	10.02458
817.801	-5.01263
818.211	-6.01444
818.62	4.00987
819.03	20.04969
819.44	24.06271
819.849	12.0307
820.259	-9.0231
820.668	21.05241
821.077	3.00764
821.486	24.0588
821.895	-14.03478
822.304	15.03991
822.713	-33.07978
823.122	28.07007
823.531	-38.09147
823.939	16.03952
824.348	25.06131
824.756	5.01265
825.164	-4.0101
825.573	18.04579
825.981	-38.09472
826.389	13.03305
826.797	48.1222
827.205	45.10563
827.612	-25.06242
828.02	-2.00483
828.428	3.0077
828.835	2.0053
829.243	23.05514
829.65	0
830.057	-9.02199
830.464	-2.00493
830.871	27.06451
831.278	29.07064
831.685	17.03865
832.092	56.13801
832.499	16.03571
832.905	22.05593
833.312	-4.00928
833.718	-14.03515
834.124	-36.08356
834.531	8.02034
834.937	-10.0259
835.343	-9.02209
835.749	8.01884
836.155	15.03972
836.561	-33.08212
836.966	28.06862
837.372	62.15856
837.777	-5.01262
838.183	-1.00227
838.588	17.0428
838.993	-33.08083
839.399	24.06013
839.804	-25.06255
840.209	31.0798
840.613	-17.03878
841.018	36.09165
841.423	-23.05978
841.828	11.02801
842.232	16.03961
842.637	3.00718
843.041	-3.00781
843.445	2.00509
843.849	-2.00503
844.253	-25.06026
844.657	5.01282
845.061	2.00459
845.465	24.05926
845.869	15.03537
846.272	12.02983
846.676	-32.07706
847.079	30.07737
847.483	22.05478
847.886	17.04153
848.289	-5.01351
848.692	-10.02548
849.095	0
849.498	22.05529
849.901	8.01861
850.304	-34.08215
850.707	6.01537
851.109	-5.01263
851.512	11.02761
851.914	54.1396
852.316	3.00768
852.718	30.07991
853.121	5.01252
853.523	71.17062
853.925	4.01061
854.326	1.00255
854.728	-3.00782
855.13	19.0494
855.531	7.0172
855.933	6.0146
856.334	-29.07355
856.736	28.06502
857.137	19.04507
857.538	23.05896
857.939	42.10579
858.34	27.06628
858.741	13.03424
859.142	-36.08781
859.542	16.04252
859.943	74.18585
860.343	3.00763
860.744	14.03438
861.144	17.04184
861.544	21.05199
861.945	7.01809
862.345	3.00741
862.745	-27.06787
863.145	-20.04805
863.544	9.02299
863.944	30.07232
864.344	-20.04998
864.743	-21.05243
865.143	12.03131
865.542	12.02845
865.941	26.06452
866.34	13.03117
866.74	-8.02163
867.139	-9.02191
867.537	6.01543
867.936	23.05588
868.335	2.00512
868.734	31.07985
869.132	5.01178
869.531	-24.05784
869.929	44.10281
870.327	20.04898
870.726	20.04972
871.124	-20.0471
871.522	-15.03849
871.92	10.02499
872.318	-1.00246
872.715	-20.04947
873.113	-14.03472
873.511	-57.14236
873.908	1.00256
874.306	10.02532
874.703	-10.02525
875.1	20.0509
875.497	18.04361
875.894	4.01005
876.291	-59.14602
876.688	6.01562
877.085	14.03379
877.482	25.06309
877.878	-21.05186
878.275	-9.02309
878.671	-6.01328
879.068	23.05586
879.464	32.0784
879.86	16.03863
880.256	-15.03734
880.652	24.062
881.048	-16.04007
881.444	-35.08417
881.84	30.07699
882.236	25.06303
882.631	-8.01982
883.027	-23.0559
883.422	27.06996
883.817	34.08726
884.213	23.05959
884.608	23.05784
885.003	18.04444
885.398	-24.06131
885.793	-27.06909
886.188	-31.07935
886.582	-7.0181
886.977	73.17389
887.371	-23.05805
887.766	-15.03802
888.16	63.15752
888.554	-34.08398
888.949	-25.06325
889.343	37.0907
889.737	-25.06797
890.131	24.06078
890.525	28.07254
890.918	7.01786
891.312	9.02162
891.706	-13.03434
892.099	27.06872
892.492	-70.1548
892.886	41.10221
893.279	36.09307
893.672	1.00258
894.065	5.01261
894.458	-6.01515
894.851	18.04379
895.244	23.05949
895.637	29.07019
896.029	23.05719
896.422	37.0908
896.814	-11.02802
897.206	-8.01945
897.599	9.02223
897.991	7.01722
898.383	-4.00953
898.775	-4.00919
899.167	-26.06266
899.559	26.06551
899.951	45.10715
900.342	51.13004
900.734	-12.03059
901.125	68.17937
901.517	-3.00741
901.908	-18.04343
902.299	68.16906
902.69	22.05254
903.082	-36.08741
903.473	41.09987
903.863	13.03316
904.254	-18.04236
904.645	21.05176
905.036	2.00494
905.426	28.06463
905.817	59.14564
906.207	20.04869
906.597	7.01665
906.987	-50.12984
907.378	-32.0819
907.768	11.02932
908.158	-3.00741
908.547	16.04221
908.937	-33.08492
909.327	18.0439
909.717	-24.06112
910.106	58.14136
910.495	2.00501
910.885	39.09934
911.274	-2.00507
911.663	-4.01018
912.052	-2.00495
912.441	22.05672
912.83	49.11425
913.219	18.04697
913.608	-21.05142
913.997	-17.04362
914.385	4.00972
914.774	13.03194
915.162	32.07761
915.55	-7.01699
915.939	45.11414
916.327	-23.05728
916.715	17.04432
917.103	36.08859
917.491	19.0473
917.878	30.07467
918.266	-31.08099
918.654	-14.03613
919.041	5.01315
919.429	-45.10781
919.816	-5.01281
920.203	-17.04187
920.591	-13.03243
920.978	32.07854
921.365	4.01058
921.752	21.05033
922.139	-14.03086
922.525	15.03723
922.912	-56.13892
923.299	42.10628
923.685	-13.03411
924.072	-16.0374
924.458	-1.00251
924.844	2.00506
925.231	19.04493
925.617	10.02607
926.003	-6.01545
926.389	-16.0407
926.774	-11.02822
927.16	7.01756
927.546	0
927.931	37.09324
928.317	15.03495
928.702	-23.05487
929.088	57.13765
929.473	-7.01804
929.858	-12.03001
930.243	-19.04645
930.628	11.02735
931.013	-10.02514
931.398	-6.01376
931.783	-2.00523
932.167	-33.08146
932.552	-20.05012
932.937	11.0274
933.321	1.00256
933.705	-12.03057
934.09	-22.05508
934.474	24.05755
934.858	-46.12011
935.242	-12.02822
935.626	-27.07035
936.009	-2.00538
936.393	-37.09494
936.777	-12.03079
937.16	0
937.544	-12.02834
937.927	-16.04105
938.311	18.04407
938.694	-18.04758
939.077	12.02926
939.46	-20.04922
939.843	6.01266
940.226	29.07509
940.609	10.02359
940.991	-1.00259
941.374	-39.09702
941.757	31.07726
942.139	-41.09401
942.522	-9.02134
942.904	16.03856
943.286	-6.01533
943.668	33.08621
944.05	35.08726
944.432	-1.00252
944.814	27.0676
945.196	20.05007
945.578	21.05136
945.959	14.03321
946.341	5.01219
946.722	-30.07109
947.104	-3.00721
947.485	37.08783
947.866	21.05368
948.247	22.05605
948.628	-17.04203
949.009	23.05949
949.39	-3.00749
949.771	-4.00944
950.152	44.10876
950.532	-9.0227
950.913	37.0908
951.293	62.16836
951.674	-15.03677
952.054	-5.01253
952.434	-18.04509
952.814	-68.16251
953.194	-46.1204
953.574	-10.02467
953.954	13.03132
954.334	-18.04542
954.714	-14.03479
955.093	15.03655
955.473	-21.0533
955.853	-16.04154
956.232	13.03542
956.611	-34.08209
956.99	-53.13395
957.37	0
957.749	-1.00241
958.128	-9.02282
958.506	-24.06327
958.885	4.01018
959.264	-14.03521
959.643	32.0741
960.021	-35.08779
960.4	-3.00689
960.778	43.1047
961.156	-44.11292
961.535	39.09122
961.913	4.00949
962.291	-21.05509
962.669	-65.16545
963.047	11.02832
963.424	-22.05682
963.802	-11.02732
964.18	27.06812
964.557	26.06066
964.935	-4.00952
965.312	13.03433
965.69	-3.00758
966.067	16.03924
966.444	21.05186
966.821	8.02055
967.198	1.00242
967.575	0
967.952	-24.05654
968.329	15.03676
968.705	27.05927
969.082	19.04955
969.458	-28.06862
969.835	-44.10776
970.211	-14.03648
970.587	43.10693
970.963	0
971.339	22.05774
971.715	7.01763
972.091	-9.02248
972.467	6.01503
972.843	26.06561
973.219	33.07873
973.594	-13.03449
973.97	38.09067
974.345	29.07024
974.721	-2.00488
975.096	11.027
975.471	-36.08504
975.846	7.01707
976.221	-11.02862
976.596	-9.02202
976.971	-32.07936
977.346	11.02576
977.72	-45.11515
978.095	-11.02847
978.469	-26.06275
978.844	-8.0201
979.218	17.04169
979.593	-41.09871
979.967	39.09588
980.341	8.01877
980.715	5.01263
981.089	16.04052
981.463	-15.03518
981.837	15.03718
982.21	-49.11331
982.584	22.05384
982.957	-15.03805
983.331	-8.01911
983.704	-23.05776
984.078	-47.11768
984.451	-25.0618
984.824	49.12145
985.197	18.04402
985.57	36.09035
985.943	-21.05186
986.316	30.07366
986.688	-17.04146
987.061	41.09703
987.434	-9.02354
987.806	-38.09289
988.179	48.11532
988.551	31.07896
988.923	-34.0841
989.295	47.11768
989.667	21.05169
990.039	-1.00251
990.411	5.01166
990.783	-9.02068
991.155	39.09581
991.527	-20.04884
991.898	3.00753
992.27	35.0877
992.641	38.0952
993.012	26.06161
993.384	-5.01212
993.755	41.10484
994.126	12.02906
994.497	-8.02009
994.868	-8.01858
995.239	20.04885
995.61	47.11942
995.98	30.07391
996.351	6.01516
996.722	-4.0095
997.092	-20.04814
997.462	7.01687
997.833	14.0331
998.203	8.01948
998.573	-17.04283
998.943	23.05479
999.313	-28.06755
999.683	-30.07314
1000.053	-4.0093
1000.423	-17.04158
1000.792	4.01054
1001.162	8.01989
1001.531	3.00747
1001.901	-37.09341
1002.27	54.12196
1002.639	21.05392
1003.009	4.00965
1003.378	-12.03085
1003.747	33.07858
1004.116	-7.01705
1004.485	-77.187
1004.853	8.02033
1005.222	14.03563
1005.591	13.03114
1005.959	49.11416
1006.328	-17.03929
1006.696	-19.04632
1007.064	-1.00255
1007.433	-54.13611
1007.801	-5.01222
1008.169	33.08417
1008.537	-46.10317
1008.905	10.02371
1009.273	20.04971
1009.64	5.01218
1010.008	7.0169
1010.375	-58.1394
1010.743	19.04416
1011.11	49.11699
1011.478	-6.01489
1011.845	-28.06674
1012.212	18.04163
1012.579	12.02964
1012.946	37.08854
1013.313	-13.03093
1013.68	0
1014.047	17.04163
1014.414	-12.02889
1014.78	-11.02756
1015.147	-13.03156
1015.513	4.00975
1015.88	13.03324
1016.246	0
1016.612	20.04624
1016.978	39.09631
1017.344	-4.00997
1017.71	-42.10206
1018.076	36.08472
1018.442	25.06426
1018.808	19.04792
1019.174	25.06339
1019.539	7.01603
1019.905	-34.08147
1020.27	-18.04521
1020.636	36.08603
1021.001	32.07758
1021.366	-16.03872
1021.731	-21.05458
1022.096	-58.14839
1022.461	-18.04264
1022.826	4.00967
1023.191	14.03683
1023.556	10.0237
1023.92	-22.05434
1024.285	11.02689
1024.649	-13.03203
1025.014	5.01239
1025.378	20.05086
1025.742	-8.02011
1026.107	5.01142
1026.471	-16.03749
1026.835	-10.02484
1027.199	-12.0295
1027.562	46.10812
1027.926	-18.04421
1028.29	17.04384
1028.654	39.09065
1029.017	-6.01479
1029.381	25.06133
1029.744	-10.02592
1030.107	-29.06879
1030.471	5.01206
1030.834	-5.0115
1031.197	-15.03611
1031.56	-2.00475
1031.923	-18.04697
1032.286	-11.02574
1032.648	30.07235
1033.011	36.08452
1033.374	-8.01882
1033.736	-7.01873
1034.099	17.0421
1034.461	42.10798
1034.823	1.00252
1035.185	28.07095
1035.548	-4.00987
1035.91	26.06315
1036.272	1.00232
1036.634	-32.0786
1036.995	-33.07824
1037.357	-23.05678
1037.719	-18.04402
1038.08	-28.06661
1038.442	-8.01922
1038.803	50.121
1039.165	-14.03555
1039.526	22.05324
1039.887	4.00969
1040.248	4.01011
1040.609	14.03454
1040.97	41.10184
1041.331	-31.07905
1041.692	-29.0695
1042.053	-3.00689
1042.413	1.00234
1042.774	7.0171
1043.134	-13.03094
1043.495	-12.03038
1043.855	23.0559
1044.215	-23.05728
1044.576	-4.00979
1044.936	-61.14077
1045.296	12.03
1045.656	5.01237
1046.016	-1.00244
1046.375	-3.00744
1046.735	18.04183
1047.095	14.03321
1047.454	-35.07492
1047.814	-34.082
1048.173	-35.08379
1048.533	10.02323
1048.892	-20.04943
1049.251	-53.13462
1049.61	-4.00999
1049.969	-51.12167
1050.328	2.0044
1050.687	0
1051.046	-37.09127
1051.405	24.05997
1051.763	-1.00234
1052.122	20.05083
1052.48	-35.08659
1052.839	-1.00239
1053.197	-40.09501
1053.555	-51.11577
1053.914	-9.02228
1054.272	5.01208
1054.63	8.01995
1054.988	-22.05298
1055.345	54.11757
1055.703	-50.12122
1056.061	-2.00519
1056.419	-26.06817
1056.776	-25.06087
1057.134	16.03758
1057.491	5.01258
1057.848	-15.03775
1058.206	-11.02629
1058.563	-5.01128
1058.92	20.04627
1059.277	-17.042
1059.634	22.05239
1059.991	-53.12731
1060.348	51.11788
1060.704	1.00242
1061.061	-75.17329
1061.418	63.1538
1061.774	-20.05016
1062.131	-7.01865
1062.487	-24.05685
1062.843	29.07261
1063.199	-12.03
1063.555	-51.12069
1063.911	12.03065
1064.267	3.00631
1064.623	-18.04459
1064.979	-4.00937
1065.335	-67.16033
1065.691	-53.12775
1066.046	-29.06444
1066.402	-21.049
1066.757	-11.02775
1067.112	-71.17495
1067.468	-40.09694
1067.823	9.02185
1068.178	0
1068.533	-33.08065
1068.888	44.10567
1069.243	-9.02246
1069.598	26.06384
1069.952	-11.0256
1070.307	4.01008
1070.662	1.00242
1071.016	-2.00461
1071.371	-34.07892
1071.725	8.01919
1072.079	-43.10415
1072.434	-7.01726
1072.788	37.08976
1073.142	39.09567
1073.496	31.07582
1073.85	12.02794
1074.203	-4.00966
1074.557	18.04815
1074.911	14.03335
1075.265	-30.07073
1075.618	16.03929
1075.971	29.06953
1076.325	9.02316
1076.678	36.08478
1077.031	27.06224
1077.385	31.06937
1077.738	50.11541
1078.091	46.10732
1078.444	1.00236
1078.796	1.00248
1079.149	-14.03501
1079.502	9.02171
1079.855	6.01427
1080.207	9.02216
1080.56	-2.00525
1080.912	5.0123
1081.264	16.03886
1081.617	45.11141
1081.969	21.05383
1082.321	-34.08515
1082.673	-4.00945
1083.025	1.00238
1083.377	-254.57948
1083.728	-10.02363
1084.08	22.05561
1084.432	12.02944
1084.783	-28.06584
1085.135	6.0152
1085.486	-9.02121
1085.838	8.01988
1086.189	1.00246
1086.54	-6.01436
1086.891	17.04368
1087.242	-11.02703
1087.593	-23.05582
1087.944	47.10834
1088.295	-20.04569
1088.646	-36.08872
1088.996	-26.06431
1089.347	-32.07968
1089.698	25.0606
1090.048	-4.01042
1090.398	-17.03995
1090.749	9.02159
1091.099	-18.04608
1091.449	-5.0125
1091.799	9.02289
1092.149	-3.00757
1092.499	-41.10062
1092.849	-4.01026
1093.199	15.03734
1093.548	-40.09756
1093.898	33.08358
1094.248	-21.05409
1094.597	-40.10498
1094.947	4.01072
1095.296	10.025
1095.645	-28.07329
1095.994	-12.02945
1096.343	-6.01522
1096.692	0
1097.041	-2.00549
1097.39	-10.02527
1097.739	-33.08604
1098.088	-9.02423
1098.437	-18.04799
1098.785	47.12707
1099.134	14.03722
1099.482	-27.07463
1099.83	-30.07876
1100.179	14.03679
1100.527	29.07762
1100.875	4.01066
1101.223	-40.10686
1101.571	12.03345
1101.919	7.01859
1102.267	-7.01981
1102.615	-11.03546
1102.962	3.00965
1103.31	16.05144
1103.658	-12.03868
