Data from N2 R8 sample 3_Subt2__4__17-44-30-891.txt Node

Date: Fri Aug 29 17:44:30 PDT 2025
User: uwsun
Spectrometer: HDX01956
Trigger mode: 0
Integration Time (sec): 5.000000E-1
Scans to average: 1
Nonlinearity correction enabled: true
Boxcar width: 0
Storing dark spectrum: false
XAxis mode: Wavelengths
Number of Pixels in Spectrum: 2068
>>>>>Begin Spectral Data<<<<<
194.03	52.14479
194.578	36.11334
195.127	42.13019
195.676	44.13677
196.225	41.10802
196.773	67.18173
197.321	85.22493
197.87	130.31399
198.418	153.36304
198.966	62.1506
199.513	58.13425
200.061	71.16672
200.609	115.28346
201.156	33.06712
201.704	67.15653
202.251	52.12848
202.798	97.23309
203.345	116.2654
203.892	111.25769
204.438	98.21699
204.985	43.09432
205.532	87.21192
206.078	148.33234
206.624	57.12992
207.17	109.23333
207.716	79.17715
208.262	125.22587
208.808	32.07307
209.354	81.18193
209.899	134.31299
210.445	104.23709
210.99	52.1162
211.535	139.29974
212.08	91.19598
212.625	107.24762
213.17	85.20014
213.715	27.05567
214.259	120.25749
214.804	117.26731
215.348	135.28349
215.892	97.21536
216.436	158.33566
216.98	183.36866
217.524	101.22041
218.068	162.37392
218.612	107.24997
219.155	83.18136
219.698	126.27666
220.242	125.28904
220.785	76.16575
221.328	106.24535
221.871	87.20652
222.414	126.29118
222.956	35.07897
223.499	58.12225
224.041	112.24302
224.583	133.26658
225.126	102.20866
225.668	103.2321
226.21	95.22194
226.751	20.0411
227.293	79.16882
227.835	100.22631
228.376	146.31139
228.918	149.34754
229.459	63.1462
230	38.08498
230.541	83.17844
231.082	64.1449
231.622	56.1211
232.163	49.11101
232.704	60.13877
233.244	90.20724
233.784	148.3348
234.324	47.09582
234.864	43.09133
235.404	83.18412
235.944	78.17256
236.484	120.27731
237.023	90.19687
237.563	18.03906
238.102	122.26551
238.641	110.25724
239.18	47.10218
239.719	79.18442
240.258	64.13419
240.797	88.19452
241.335	80.18215
241.874	78.13846
242.412	110.24316
242.95	66.14577
243.488	125.26179
244.026	40.08587
244.564	117.22073
245.102	72.14949
245.64	103.22973
246.177	57.11885
246.715	87.19364
247.252	93.19753
247.789	150.2581
248.326	77.16996
248.863	64.12961
249.4	121.25196
249.936	55.10483
250.473	63.13574
251.009	72.15183
251.546	78.15826
252.082	76.15357
252.618	63.12937
253.154	77.1701
253.69	119.24448
254.226	77.16918
254.761	44.0916
255.297	41.08305
255.832	79.17175
256.367	134.28691
256.903	140.27795
257.438	146.31152
257.972	56.11513
258.507	51.10728
259.042	70.13969
259.576	57.11213
260.111	109.2303
260.645	115.22666
261.179	75.16013
261.713	76.15462
262.247	121.25364
262.781	90.17133
263.315	114.25326
263.849	155.34913
264.382	135.28123
264.915	89.18945
265.449	35.0779
265.982	125.25785
266.515	133.29283
267.048	81.15582
267.58	111.22084
268.113	83.16267
268.646	72.16215
269.178	46.09389
269.71	95.18847
270.243	74.15447
270.775	115.26486
271.307	122.26652
271.838	104.22547
272.37	126.27957
272.902	104.21439
273.433	91.18003
273.965	133.29123
274.496	83.18841
275.027	89.20023
275.558	112.24478
276.089	55.12232
276.62	130.29899
277.15	81.18215
277.681	117.22887
278.211	120.2657
278.741	89.17591
279.272	98.20084
279.802	78.17688
280.332	111.23432
280.861	91.19766
281.391	101.20506
281.921	101.21967
282.45	114.25663
282.98	162.3766
283.509	143.28516
284.038	135.27322
284.567	120.25138
285.096	158.33844
285.625	116.23417
286.153	71.14936
286.682	102.20771
287.21	100.21467
287.739	120.25171
288.267	88.19005
288.795	139.32613
289.323	82.17025
289.851	145.29937
290.378	131.25905
290.906	104.2222
291.433	132.29093
291.961	111.22114
292.488	126.27724
293.015	112.23161
293.542	100.22364
294.069	121.26126
294.596	130.284
295.122	140.2921
295.649	102.19815
296.175	139.29588
296.702	122.26054
297.228	106.22774
297.754	114.22358
298.28	143.28079
298.806	127.26574
299.332	77.14869
299.857	81.15995
300.383	105.23428
300.908	88.18557
301.433	100.21133
301.958	147.29437
302.483	127.27374
303.008	121.2607
303.533	132.29994
304.058	127.25986
304.582	111.22547
305.107	76.1727
305.631	154.30146
306.155	92.18436
306.679	106.21202
307.203	117.23201
307.727	114.23204
308.251	151.31834
308.775	111.22331
309.298	87.17761
309.822	132.28446
310.345	122.24549
310.868	130.26268
311.391	137.28654
311.914	101.21508
312.437	120.23201
312.96	174.33996
313.482	145.28673
314.005	97.2063
314.527	91.20254
315.049	141.3
315.571	112.20481
316.093	224.4522
316.615	108.21642
317.137	110.19709
317.659	238.46942
318.18	174.3448
318.702	125.23825
319.223	156.25653
319.744	132.23944
320.265	103.20349
320.786	140.27899
321.307	124.25055
321.828	169.30366
322.348	144.27053
322.869	135.25231
323.389	188.22908
323.909	184.33087
324.43	234.44309
324.95	145.25906
325.47	115.22271
325.989	136.24908
326.509	103.17415
327.029	154.263
327.548	107.18357
328.067	156.28513
328.587	175.33356
329.106	173.29362
329.625	236.47598
330.144	83.14523
330.662	155.26507
331.181	179.30826
331.7	205.34926
332.218	142.2226
332.736	187.31704
333.255	187.31189
333.773	211.3556
334.291	215.3889
334.808	191.29621
335.326	179.28249
335.844	151.24312
336.361	178.31466
336.879	239.37284
337.396	161.26675
337.913	218.33283
338.43	170.25445
338.947	216.34099
339.464	163.22511
339.981	129.20358
340.497	229.37271
341.014	140.22637
341.53	140.20233
342.046	200.31554
342.562	289.45744
343.078	239.34986
343.594	249.36923
344.11	247.3618
344.626	262.40861
345.141	226.30819
345.657	310.41258
346.172	232.33783
346.687	225.30332
347.202	215.27875
347.717	296.40687
348.232	239.35548
348.747	241.31397
349.261	211.248
349.776	247.32639
350.29	188.26394
350.805	319.44321
351.319	235.3022
351.833	231.27696
352.347	202.26002
352.861	268.32849
353.374	342.40791
353.888	249.32462
354.401	246.29312
354.915	175.19854
355.428	266.34526
355.941	277.31913
356.454	329.36065
356.967	281.33375
357.48	327.36323
357.993	318.39122
358.505	302.36121
359.018	325.38521
359.53	326.36788
360.042	280.28411
360.554	292.33832
361.066	253.29344
361.578	255.24511
362.09	267.29538
362.602	239.22852
363.113	300.3029
363.625	333.3088
364.136	323.2891
364.647	326.29677
365.158	280.27186
365.669	329.32792
366.18	341.32503
366.691	334.27833
367.201	229.22798
367.712	262.22787
368.222	331.27731
368.733	332.2379
369.243	355.25484
369.753	320.25862
370.263	453.35859
370.773	323.28511
371.282	338.26016
371.792	286.18393
372.301	377.26445
372.811	448.35912
373.32	243.11554
373.829	302.17217
374.338	449.17964
374.847	335.14614
375.356	362.15398
375.865	417.0755
376.373	378.08883
376.882	512.18031
377.39	439.11157
377.898	302.06068
378.407	359.00809
378.915	511.95355
379.423	542.96066
379.93	491.92624
380.438	433.92431
380.946	534.84956
381.453	506.83463
381.96	530.78289
382.468	390.81181
382.975	529.73817
383.482	744.59169
383.989	676.64239
384.495	595.66493
385.002	584.68562
385.509	584.68592
386.015	759.71773
386.521	801.70682
387.028	656.81429
387.534	716.90037
388.04	914.88082
388.546	658.07823
389.051	569.23444
389.557	641.45981
390.063	1328.49408
390.568	1171.64581
391.073	912.68144
391.578	1126.41055
392.084	983.71218
392.589	661.29992
393.093	378.62342
393.598	615.4043
394.103	960.65662
394.607	1121.64007
395.112	1398.64923
395.616	1289.02235
396.12	1232.58745
396.624	1423.83923
397.128	1694.43505
397.632	2275.74285
398.136	2336.67062
398.639	848.3958
399.143	-77.77235
399.646	548.43869
400.15	140.17256
400.653	-792.01904
401.156	-1694.14288
401.659	-2656.22736
402.162	-347.44566
402.664	-9.23109
403.167	0
403.67	0
404.172	0
404.674	0
405.176	0
405.678	0
406.18	0
406.682	0
407.184	0
407.686	0
408.187	0
408.688	0
409.19	0
409.691	0
410.192	0
410.693	0
411.194	435.30976
411.694	4082.94878
412.195	8864.71461
412.696	12089.80453
413.196	11891.44876
413.696	10129.93267
414.196	11837.03212
414.696	14287.70387
415.196	16236.64339
415.696	18701.36318
416.196	15747.39407
416.695	10110.13548
417.195	6302.13333
417.694	5683.63717
418.194	6039.0927
418.693	4892.98166
419.192	4633.47646
419.691	4647.24936
420.19	4592.02409
420.688	5039.26854
421.187	4808.07937
421.685	4920.86922
422.184	4880.26505
422.682	4259.51488
423.18	3048.21056
423.678	2333.92982
424.176	2134.49022
424.674	2112.22253
425.172	2194.8812
425.669	2168.54128
426.167	2200.84429
426.664	1818.02142
427.161	1534.59449
427.659	1656.31361
428.156	1252.42403
428.652	1139.37104
429.149	1068.40913
429.646	1044.4235
430.143	1045.46869
430.639	965.54094
431.135	948.6242
431.632	835.68399
432.128	758.79714
432.624	552.92954
433.12	448.89992
433.616	601.85913
434.111	357.96645
434.607	294.00391
435.103	476.96735
435.598	485.97855
436.093	561.08304
436.588	484.09451
437.083	406.1175
437.578	402.14845
438.073	180.1001
438.568	341.20362
439.062	279.12004
439.557	299.19104
440.051	214.13133
440.546	165.10802
441.04	164.12666
441.534	178.16166
442.028	222.18527
442.522	135.11765
443.015	148.10946
443.509	165.15704
444.002	152.14613
444.496	128.10254
444.989	137.13775
445.482	126.13176
445.975	25.02271
446.468	90.07435
446.961	47.04011
447.454	112.10514
447.947	-36.03838
448.439	55.06177
448.931	-21.02099
449.424	94.11346
449.916	134.14988
450.408	5.00514
450.9	13.01518
451.392	30.03768
451.884	49.05423
452.375	-44.05574
452.867	13.01477
453.358	-68.07735
453.849	-6.00616
454.341	-38.04362
454.832	-76.08311
455.323	-84.11124
455.814	30.0359
456.304	0
456.795	0
457.285	83.09768
457.776	45.05655
458.266	-46.06133
458.756	14.01909
459.247	-54.07315
459.737	-98.13573
460.226	-45.05722
460.716	-74.10475
461.206	-90.13096
461.695	-65.10103
462.185	9.01264
462.674	-64.0903
463.163	-7.00926
463.653	-98.12509
464.142	-84.12778
464.63	-57.08948
465.119	-88.12884
465.608	-100.14759
466.096	-111.15677
466.585	-108.16596
467.073	-84.13498
467.561	-60.09668
468.05	-99.15587
468.538	-68.11444
469.026	-75.12288
469.513	-89.1253
470.001	-117.1825
470.489	-86.14047
470.976	-15.02367
471.463	-107.19176
471.951	-111.20242
472.438	-184.3156
472.925	-168.28552
473.412	-79.1429
473.899	-92.15449
474.385	-77.13999
474.872	-110.18907
475.359	-95.17298
475.845	-111.1688
476.331	-109.17869
476.817	-118.22114
477.303	-119.21129
477.789	-125.23304
478.275	-162.31486
478.761	-125.23594
479.247	-95.16535
479.732	-173.34178
480.218	-111.22979
480.703	-149.29685
481.188	-119.20055
481.673	-117.21271
482.158	-195.32953
482.643	-95.19641
483.128	-198.36759
483.612	-152.28979
484.097	-122.24561
484.581	-99.18787
485.066	-195.39483
485.55	-122.21724
486.034	-168.29977
486.518	-167.32466
487.002	-165.33592
487.486	-160.32701
487.969	-164.33609
488.453	-131.27933
488.936	-177.33721
489.42	-152.28458
489.903	-164.35494
490.386	-116.15786
490.869	-122.2257
491.352	-136.28741
491.835	-127.22374
492.318	-187.36406
492.8	-131.23115
493.283	-170.37421
493.765	-199.42746
494.247	-129.26239
494.73	-184.3554
495.212	-111.23381
495.694	-167.33922
496.175	-219.4548
496.657	-108.22263
497.139	-155.23826
497.62	-200.41599
498.102	-178.38886
498.583	-172.38227
499.064	-223.44139
499.545	-197.39998
500.026	-230.46132
500.507	-189.39092
500.988	-150.33046
501.469	-205.45816
501.949	-160.35309
502.43	-235.50065
502.91	-267.50101
503.39	-161.36146
503.87	-207.43602
504.35	-168.35675
504.83	-215.42436
505.31	-190.41314
505.79	-187.40082
506.269	-202.42801
506.749	-216.44546
507.228	-208.44034
507.707	-179.35662
508.187	-184.39907
508.666	-252.56447
509.145	-275.58994
509.623	-188.39904
510.102	-191.41999
510.581	-149.32558
511.059	-228.52038
511.538	-176.41415
512.016	-179.38848
512.494	-178.39346
512.972	-246.54104
513.45	-282.60065
513.928	-224.497
514.406	-240.52629
514.884	-229.54022
515.361	-243.53657
515.839	-244.51271
516.316	-216.47686
516.793	-179.41489
517.27	-166.36832
517.747	-259.61524
518.224	-218.46635
518.701	-232.47889
519.178	-245.55974
519.654	-194.42632
520.131	-244.55981
520.607	-221.50877
521.083	-212.44724
521.56	-238.52235
522.036	-175.35368
522.512	-192.4384
522.987	-284.62959
523.463	-247.54723
523.939	-212.48289
524.414	-187.40013
524.89	-238.52718
525.365	-269.57258
525.84	-293.65184
526.315	-239.53634
526.79	-229.48235
527.265	-286.61658
527.74	-227.51507
528.215	-204.4466
528.689	-246.51075
529.164	-227.46278
529.638	-183.43606
530.112	-254.56074
530.587	-241.48104
531.061	-264.59719
531.534	-206.46638
532.008	-230.51626
532.482	-190.40663
532.956	-280.67087
533.429	-204.4611
533.903	-214.44491
534.376	-245.51106
534.849	-189.40843
535.322	-223.49386
535.795	-209.47788
536.268	-198.44352
536.741	-170.37971
537.213	-236.5149
537.686	-230.52452
538.158	-250.52693
538.631	-253.58313
539.103	-248.52364
539.575	-171.33339
540.047	-204.42109
540.519	-193.43223
540.991	-223.51461
541.463	-226.51519
541.934	-214.46017
542.406	-275.62143
542.877	-235.50087
543.348	-215.48863
543.82	-186.42692
544.291	-145.31469
544.762	-259.58003
545.233	-231.54282
545.703	-279.58637
546.174	-212.46215
546.645	-258.57743
547.115	-195.43671
547.585	-206.44278
548.056	-247.55475
548.526	-221.48208
548.996	-184.40962
549.466	-149.33521
549.935	-232.50832
550.405	-192.38724
550.875	-178.38622
551.344	-191.42211
551.814	-166.34958
552.283	-180.36137
552.752	-207.44139
553.221	-200.39725
553.69	-154.3106
554.159	-199.44493
554.628	-197.40107
555.096	-159.36459
555.565	-187.38175
556.033	-125.26816
556.502	-214.48153
556.97	-229.47641
557.438	-165.36252
557.906	-135.29686
558.374	-169.36255
558.842	-190.42595
559.31	-244.52197
559.777	-235.53711
560.245	-207.46244
560.712	-212.46764
561.18	-226.47614
561.647	-246.52784
562.114	-226.491
562.581	-210.49222
563.048	-214.47244
563.514	-245.57391
563.981	-234.51551
564.448	-232.50081
564.914	-213.47564
565.381	-223.48912
565.847	-204.45771
566.313	-199.44347
566.779	-204.4415
567.245	-259.58671
567.711	-178.40512
568.176	-236.51032
568.642	-243.58345
569.108	-222.52157
569.573	-187.42138
570.038	-247.50607
570.504	-266.57715
570.969	-229.54922
571.434	-255.54019
571.899	-216.4912
572.363	-225.49226
572.828	-212.46627
573.293	-228.50251
573.757	-217.47756
574.222	-258.55502
574.686	-303.66009
575.15	-247.56272
575.614	-228.50103
576.078	-245.55139
576.542	-204.44396
577.006	-247.5365
577.469	-153.35786
577.933	-223.47715
578.396	-208.47225
578.86	-240.54379
579.323	-236.53798
579.786	-192.3965
580.249	-258.56671
580.712	-234.54869
581.175	-226.53241
581.637	-199.44016
582.1	-242.5168
582.563	-189.39145
583.025	-246.57276
583.487	-216.42202
583.95	-258.53782
584.412	-186.37635
584.874	-210.48702
585.336	-207.46931
585.797	-223.46641
586.259	-179.40385
586.721	-254.57621
587.182	-147.328
587.643	-190.41455
588.105	-226.51561
588.566	-205.41888
589.027	-232.53612
589.488	-174.3798
589.949	-188.43549
590.41	-241.45869
590.87	-172.37702
591.331	-178.37089
591.791	-206.4565
592.252	-246.54377
592.712	-197.45389
593.172	-205.44471
593.632	-156.32823
594.092	-185.3967
594.552	-185.38385
595.011	-246.54626
595.471	-202.43605
595.931	-223.48149
596.39	-194.44386
596.849	-206.46125
597.308	-192.40309
597.768	-222.54002
598.227	-177.40732
598.685	-151.3319
599.144	-202.45397
599.603	-169.38223
600.062	-219.44586
600.52	-201.43101
600.978	-182.41288
601.437	-181.39801
601.895	-226.46609
602.353	-176.37553
602.811	-192.4102
603.269	-208.47799
603.727	-192.43963
604.184	-231.50261
604.642	-162.37645
605.099	-195.43401
605.557	-162.37526
606.014	-207.42949
606.471	-184.43449
606.928	-223.46
607.385	-213.49192
607.842	-122.26291
608.299	-82.17891
608.755	-121.27389
609.212	-118.24686
609.668	-174.36562
610.125	-91.2059
610.581	-89.19998
611.037	-76.16427
611.493	-32.07071
611.949	-124.28222
612.405	-148.28559
612.861	-85.18989
613.316	-166.37949
613.772	-94.20475
614.227	-173.39223
614.683	-69.1408
615.138	-144.32243
615.593	-134.29794
616.048	-85.18542
616.503	-91.21268
616.958	-126.30065
617.412	-105.237
617.867	-152.32432
618.321	-66.13103
618.776	-52.1096
619.23	-79.17686
619.684	-46.09913
620.138	-60.13346
620.592	-119.27844
621.046	-71.16006
621.5	-64.14849
621.954	-31.06691
622.407	-53.1137
622.861	-79.18449
623.314	-12.02612
623.768	-43.0961
624.221	-58.11138
624.674	-101.22666
625.127	-35.07874
625.58	6.01314
626.033	3.00639
626.485	-57.13175
626.938	4.00913
627.39	16.03566
627.843	0
628.295	7.01559
628.747	18.04108
629.199	-8.01763
629.651	11.02413
630.103	7.01551
630.555	16.03294
631.006	27.06117
631.458	56.12684
631.909	121.26529
632.361	79.17693
632.812	36.08051
633.263	80.16655
633.714	86.17808
634.165	132.30517
634.616	106.24184
635.067	210.4401
635.518	197.4441
635.968	152.29317
636.419	214.43975
636.869	229.51285
637.319	201.43975
637.769	236.49611
638.219	288.64244
638.669	245.5489
639.119	322.72866
639.569	320.71559
640.019	357.7612
640.468	347.71578
640.918	405.89273
641.367	381.78449
641.816	448.90646
642.265	448.93883
642.714	461.96415
643.163	514.05436
643.612	457.99087
644.061	499.94103
644.51	599.19334
644.958	586.1276
645.406	553.17358
645.855	646.38285
646.303	649.3213
646.751	617.2247
647.199	688.34585
647.647	717.41028
648.095	645.28514
648.543	739.27871
648.99	768.55788
649.438	745.49845
649.885	755.60217
650.333	737.19976
650.78	805.64305
651.227	815.674
651.674	791.51957
652.121	806.66182
652.568	836.70754
653.015	794.71825
653.461	787.58885
653.908	851.65777
654.354	786.59952
654.801	753.5097
655.247	760.41963
655.693	807.80385
656.139	732.51517
656.585	814.65656
657.031	731.46418
657.477	735.35489
657.922	697.39148
658.368	719.54558
658.813	744.49403
659.259	661.39397
659.704	646.32443
660.149	675.37618
660.594	686.42492
661.039	676.34607
661.484	726.51011
661.929	646.33517
662.373	690.53049
662.818	665.45817
663.262	705.48296
663.707	655.47414
664.151	686.47616
664.595	626.34403
665.039	683.50208
665.483	654.48179
665.927	642.34348
666.371	580.20232
666.814	678.43017
667.258	562.19867
667.701	698.31713
668.145	641.42672
668.588	702.51838
669.031	661.37323
669.474	637.36914
669.917	678.3225
670.36	660.45782
670.803	712.51313
671.245	649.20863
671.688	730.5642
672.13	634.26348
672.573	703.58419
673.015	724.52665
673.457	657.2654
673.899	640.38886
674.341	675.44718
674.783	660.40799
675.225	697.5175
675.666	666.42142
676.108	632.22387
676.549	653.3819
676.991	657.28542
677.432	649.13932
677.873	686.40528
678.314	713.50178
678.755	669.45094
679.196	662.3475
679.637	628.38303
680.078	670.39721
680.518	677.40464
680.959	628.35296
681.399	663.47085
681.839	634.38809
682.28	606.35236
682.72	615.26561
683.16	617.38798
683.6	631.29276
684.039	605.13156
684.479	585.30463
684.919	529.11573
685.358	626.43722
685.798	585.39933
686.237	631.37599
686.676	627.31119
687.115	626.3244
687.554	620.3277
687.993	612.219
688.432	583.20882
688.871	552.14266
689.309	599.2962
689.748	597.12538
690.186	612.32352
690.625	575.22617
691.063	643.38502
691.501	659.46258
691.939	606.37072
692.377	618.36269
692.815	627.35051
693.253	596.3026
693.69	612.21052
694.128	595.30781
694.565	650.39142
695.003	630.44642
695.44	659.38488
695.877	659.37454
696.314	669.27805
696.751	700.41526
697.188	601.24842
697.625	698.42281
698.061	634.36941
698.498	730.56219
698.934	717.52939
699.371	631.33587
699.807	724.51196
700.243	676.45213
700.679	757.49746
701.115	730.51776
701.551	732.5199
701.987	739.45771
702.422	719.50847
702.858	770.60386
703.294	740.47028
703.729	772.6564
704.164	777.63457
704.599	761.47589
705.035	781.5133
705.47	798.68871
705.904	762.55062
706.339	842.68487
706.774	799.62268
707.209	836.65357
707.643	850.75576
708.078	921.90126
708.512	829.7967
708.946	901.83753
709.38	914.83332
709.814	868.69054
710.248	943.94062
710.682	949.89442
711.116	926.86083
711.549	920.02893
711.983	962.85262
712.416	988.9446
712.85	1061.18106
713.283	990.94763
713.716	1106.27419
714.149	1036.03484
714.582	1094.97365
715.015	1079.22306
715.448	1153.3535
715.881	1131.9635
716.313	1125.11658
716.746	1176.19609
717.178	1179.25738
717.61	1219.46939
718.043	1286.51164
718.475	1264.3968
718.907	1332.62725
719.339	1301.24562
719.77	1289.35885
720.202	1371.67108
720.634	1368.53705
721.065	1407.50379
721.497	1361.55573
721.928	1415.62515
722.359	1499.65739
722.79	1532.67099
723.221	1506.82682
723.652	1626.06495
724.083	1567.50384
724.514	1635.63115
724.945	1693.7634
725.375	1616.64172
725.806	1685.99507
726.236	1788.20651
726.666	1764.85431
727.096	1854.07709
727.526	1905.27115
727.956	1830.74209
728.386	1936.15927
728.816	1929.27291
729.246	1905.0698
729.675	1979.18353
730.105	2086.26646
730.534	2113.04431
730.964	2189.4702
731.393	2263.42616
731.822	2272.573
732.251	2321.56477
732.68	2364.19959
733.109	2347.41676
733.537	2410.33457
733.966	2473.51323
734.395	2538.14171
734.823	2622.0427
735.251	2624.3887
735.68	2753.65782
736.108	2706.70423
736.536	2758.29764
736.964	2753.20108
737.392	2834.66193
737.82	2982.41478
738.247	2993.40269
738.675	3065.3918
739.102	3103.66759
739.53	3134.79844
739.957	3232.87375
740.384	3304.58345
740.811	3358.76397
741.238	3463.4719
741.665	3389.14315
742.092	3486.32391
742.519	3493.558
742.945	3608.32134
743.372	3761.49563
743.798	3804.77602
744.225	3828.17816
744.651	3973.52559
745.077	3891.50624
745.503	4036.28655
745.929	4071.14346
746.355	4142.39711
746.781	4267.30122
747.207	4272.87297
747.632	4306.14182
748.058	4487.24683
748.483	4595.57807
748.908	4619.14047
749.334	4748.9773
749.759	4718.67717
750.184	4783.71226
750.609	4959.86478
751.033	5038.52577
751.458	5020.1613
751.883	5199.79651
752.307	5149.41848
752.732	5163.86652
753.156	5386.65803
753.58	5477.31351
754.005	5577.78629
754.429	5488.22248
754.853	5481.62761
755.277	5584.22586
755.7	5831.46319
756.124	5834.45874
756.548	5918.07513
756.971	6019.25708
757.394	6091.6532
757.818	6117.62967
758.241	6147.49923
758.664	6189.44363
759.087	6227.56695
759.51	6401.2591
759.933	6425.00247
760.356	6534.44939
760.778	6529.13231
761.201	6587.04916
761.623	6639.02355
762.046	6695.87001
762.468	6735.94468
762.89	6818.11487
763.312	6933.03282
763.734	6901.93862
764.156	6915.10473
764.578	7065.68744
765	7112.03008
765.421	6903.29451
765.843	7027.53298
766.264	7019.96658
766.686	7036.21915
767.107	7018.9787
767.528	7092.24237
767.949	7076.30141
768.37	7145.06664
768.791	7212.99002
769.212	7039.20631
769.632	7082.74551
770.053	7103.5583
770.473	7178.01307
770.894	7177.20118
771.314	7182.91179
771.734	7045.74541
772.154	7061.36968
772.575	7086.72374
772.994	7157.62453
773.414	7175.93826
773.834	7157.18239
774.254	7039.03814
774.673	7015.00793
775.093	6973.1052
775.512	6902.0772
775.931	7024.27371
776.351	6912.13066
776.77	6952.0224
777.189	6870.85309
777.607	6831.34093
778.026	6869.15458
778.445	6634.21614
778.864	6722.39545
779.282	6618.94793
779.701	6570.29173
780.119	6553.31005
780.537	6434.24647
780.955	6574.36415
781.373	6316.21772
781.791	6311.56661
782.209	6343.72283
782.627	6238.76257
783.045	6135.76365
783.462	6116.54822
783.88	6000.70354
784.297	6008.46566
784.715	5852.70639
785.132	5739.28713
785.549	5645.59266
785.966	5676.62258
786.383	5755.40102
786.8	5509.09567
787.217	5498.24656
787.633	5376.71281
788.05	5325.36253
788.466	5325.30636
788.883	5217.98622
789.299	5152.55435
789.715	5128.64048
790.131	4958.92085
790.547	4855.01666
790.963	4802.99328
791.379	4701.20119
791.795	4708.40717
792.21	4646.61404
792.626	4543.78003
793.041	4547.08428
793.457	4481.13117
793.872	4294.84147
794.287	4213.98661
794.702	4238.22827
795.117	4117.34276
795.532	3980.46714
795.947	4018.14938
796.362	3853.16013
796.776	3853.0256
797.191	3725.38
797.605	3567.12708
798.02	3610.37024
798.434	3520.80838
798.848	3428.49774
799.262	3343.56254
799.676	3310.45638
800.09	3217.52183
800.504	3158.43438
800.918	3022.14875
801.331	3059.97627
801.745	2908.10328
802.158	2897.62293
802.572	2818.42548
802.985	2801.40238
803.398	2676.30123
803.811	2685.76502
804.224	2612.53921
804.637	2514.25542
805.05	2452.09471
805.462	2440.4048
805.875	2276.62158
806.288	2168.17568
806.7	2226.42282
807.112	2154.98222
807.525	2145.27988
807.937	2089.24997
808.349	2042.28536
808.761	1959.13697
809.173	1847.98264
809.584	1937.14276
809.996	1790.97713
810.408	1747.16495
810.819	1698.73428
811.231	1637.05082
811.642	1608.70102
812.053	1648.73009
812.464	1594.67877
812.875	1602.96826
813.286	1473.84197
813.697	1521.55043
814.108	1434.60626
814.519	1378.24991
814.929	1330.62209
815.34	1304.42275
815.75	1285.54558
816.16	1282.48032
816.571	1234.54448
816.981	1202.21287
817.391	1085.11185
817.801	1084.18409
818.211	1124.13377
818.62	1033.02656
819.03	968.97205
819.44	1035.24342
819.849	956.01719
820.259	919.9935
820.668	869.81625
821.077	876.84904
821.486	922.85873
821.895	820.74285
822.304	788.82807
822.713	759.55256
823.122	738.61397
823.531	751.5438
823.939	680.46449
824.348	703.50338
824.756	698.54568
825.164	651.46334
825.573	674.5024
825.981	658.45279
826.389	661.47977
826.797	596.34698
827.205	555.14811
827.612	595.32313
828.02	520.11135
828.428	513.20028
828.835	497.20892
829.243	492.07545
829.65	458.05486
830.057	459.03001
830.464	491.09924
830.871	457.01122
831.278	471.04962
831.685	435.89809
832.092	395.90817
832.499	368.75483
832.905	393.93669
833.312	398.84806
833.718	386.90571
834.124	373.80049
834.531	356.85064
834.937	341.83267
835.343	283.65513
835.749	342.75625
836.155	328.81981
836.561	298.70146
836.966	303.70837
837.372	292.71318
837.777	281.67237
838.183	240.51497
838.588	278.66329
838.993	243.57212
839.399	199.47437
839.804	209.49553
840.209	207.5134
840.613	223.48025
841.018	253.61898
841.423	230.57262
841.828	229.56194
842.232	235.56403
842.637	216.49478
843.041	204.50975
843.445	201.49159
843.849	166.4032
844.253	173.40273
844.657	128.31846
845.061	200.44154
845.465	155.36793
845.869	123.28261
846.272	110.26549
846.676	184.43499
847.079	127.31913
847.483	206.50054
847.886	185.43998
848.289	148.38907
848.692	127.31787
849.095	130.30829
849.498	191.47303
849.901	141.31851
850.304	148.34799
850.707	139.34954
851.109	158.39296
851.512	115.2798
851.914	94.2354
852.316	97.24375
852.718	49.1267
853.121	84.20495
853.523	87.20237
853.925	93.24113
854.326	92.22865
854.728	91.23269
855.13	61.15724
855.531	50.11972
855.933	133.31498
856.334	46.11495
856.736	57.12782
857.137	58.13494
857.538	79.19788
857.939	65.1604
858.34	94.22764
858.741	89.2314
859.142	76.18204
859.542	63.16604
859.943	82.2029
860.343	59.14607
860.744	63.15363
861.144	67.1632
861.544	5.01214
861.945	58.14781
862.345	80.1949
862.745	51.12691
863.145	52.12451
863.544	58.14656
863.944	73.17202
864.344	76.1882
864.743	68.16845
865.143	61.15658
865.542	9.02108
865.941	42.10427
866.34	78.18619
866.74	55.14764
867.139	18.04343
867.537	61.15532
867.936	31.075
868.335	46.11727
868.734	47.12031
869.132	39.09097
869.531	60.14509
869.929	16.03678
870.327	46.11052
870.726	84.20846
871.124	66.15404
871.522	56.14267
871.92	26.0645
872.318	46.1127
872.715	81.19966
873.113	36.08807
873.511	19.04766
873.908	-10.02554
874.306	11.02758
874.703	29.07293
875.1	36.09242
875.497	24.0579
875.894	-7.01735
876.291	49.12043
876.688	31.0803
877.085	1.00242
877.482	45.11288
877.878	17.04122
878.275	48.12211
878.671	23.0516
879.068	-24.05882
879.464	29.07046
879.86	13.031
880.256	22.05464
880.652	12.03075
881.048	31.07717
881.444	14.0336
881.84	6.01538
882.236	26.06572
882.631	41.10091
883.027	52.12602
883.422	31.0796
883.817	10.02533
884.213	31.07988
884.608	-23.05721
885.003	-11.02685
885.398	-12.0304
885.793	1.00253
886.188	7.01755
886.582	66.16897
886.977	31.07393
887.371	40.10144
887.766	-45.11393
888.16	23.05773
888.554	60.14825
888.949	39.09821
889.343	39.09557
889.737	-18.04853
890.131	63.1578
890.525	5.0129
890.918	-11.02801
891.312	-11.02665
891.706	45.11824
892.099	24.0614
892.492	35.07586
892.886	9.02221
893.279	24.06147
893.672	22.05632
894.065	56.14019
894.458	11.02788
894.851	51.12506
895.244	22.0565
895.637	6.01459
896.029	16.0394
896.422	39.09557
896.814	6.01505
897.206	-21.05073
897.599	62.15313
897.991	-5.01222
898.383	-1.00239
898.775	-36.08277
899.167	-61.14547
899.559	21.05347
899.951	24.05692
900.342	38.09691
900.734	-19.04776
901.125	15.03961
901.517	-4.00992
901.908	24.05788
902.299	1.00247
902.69	-2.00477
903.082	40.09712
903.473	-60.14678
903.863	5.01287
904.254	-12.02822
904.645	34.08487
905.036	-28.06883
905.426	52.11912
905.817	-29.07225
906.207	-24.05803
906.597	19.04474
906.987	4.01046
907.378	16.04073
907.768	21.05581
908.158	-15.03704
908.547	1.00261
908.937	18.04647
909.327	22.05374
909.717	66.16719
910.106	-9.02187
910.495	32.0802
910.885	23.05856
911.274	25.0628
911.663	32.08152
912.052	24.05954
912.441	-15.0386
912.83	-15.03491
913.219	54.14129
913.608	2.00495
913.997	-42.10707
914.385	10.02409
914.774	2.00492
915.162	1.00241
915.55	32.07773
915.939	22.05583
916.327	32.08017
916.715	-34.08796
917.103	71.17417
917.491	53.13112
917.878	23.05686
918.266	35.09103
918.654	21.05394
919.041	-8.0211
919.429	1.00238
919.816	2.00511
920.203	-1.00245
920.591	17.04243
920.978	32.07866
921.365	-9.02386
921.752	9.02164
922.139	-2.00439
922.525	-18.0438
922.912	28.0686
923.299	3.00752
923.685	26.06812
924.072	-16.0374
924.458	-2.005
924.844	7.01746
925.231	23.05384
925.617	-32.08259
926.003	41.10499
926.389	-23.05879
926.774	54.13679
927.16	8.02003
927.546	-32.08287
927.931	10.02514
928.317	8.01859
928.702	-10.02394
929.088	-11.02633
929.473	-3.00771
929.858	-18.04408
930.243	-41.10013
930.628	-11.02707
931.013	-3.00751
931.398	50.11504
931.783	14.03709
932.167	3.0074
932.552	25.06294
932.937	8.02001
933.321	-15.03809
933.705	-6.01528
934.09	66.16636
934.474	9.02155
934.858	8.0209
935.242	-54.12776
935.626	-26.06745
936.009	16.0428
936.393	-21.05411
936.777	9.02322
937.16	-17.04475
937.544	-33.07903
937.927	-1.00256
938.311	49.11967
938.694	58.1532
939.077	1.00242
939.46	50.12282
939.843	30.0629
940.226	-4.01036
940.609	28.06458
940.991	-19.04896
941.374	14.03445
941.757	41.10136
942.139	-32.0731
942.522	23.05466
942.904	18.04354
943.286	11.02815
943.668	-15.03929
944.05	13.03224
944.432	11.02734
944.814	27.0668
945.196	-36.08915
945.578	-33.07969
945.959	-21.04991
946.341	36.08862
946.722	16.03781
947.104	41.09819
947.485	17.03983
947.866	8.02031
948.247	-29.07421
948.628	23.0564
949.009	4.01033
949.39	5.01255
949.771	32.07472
950.152	2.00495
950.532	-46.11516
950.913	24.05819
951.293	7.01904
951.674	34.08249
952.054	-8.02003
952.434	-20.05029
952.814	-5.01202
953.194	45.11788
953.574	19.04708
953.954	-30.07235
954.334	-21.05302
954.714	-23.05682
955.093	13.03219
955.473	-8.02022
955.853	30.07793
956.232	17.04684
956.611	-5.01212
956.99	19.04802
957.37	-18.04642
957.749	23.05517
958.128	10.02538
958.506	6.01568
958.885	6.01526
959.264	-11.02726
959.643	29.06628
960.021	-29.0729
960.4	-26.05985
960.778	34.08401
961.156	-21.05332
961.535	10.0235
961.913	15.03535
962.291	-35.09113
962.669	-9.02304
963.047	19.04875
963.424	38.09718
963.802	-2.00497
964.18	36.09132
964.557	47.10834
964.935	11.02626
965.312	7.01836
965.69	0
966.067	23.0563
966.444	17.04215
966.821	14.03632
967.198	79.19063
967.575	43.10588
967.952	28.06627
968.329	-5.01229
968.705	-21.04573
969.082	14.03613
969.458	-11.02669
969.835	-39.09652
970.211	-6.01555
970.587	61.15158
970.963	38.0977
971.339	-8.0211
971.715	3.00755
972.091	2.00497
972.467	28.07012
972.843	3.00751
973.219	45.10818
973.594	19.04996
973.97	15.03595
974.345	-15.03635
974.721	58.14025
975.096	-14.03429
975.471	-14.03362
975.846	18.04351
976.221	-24.06175
976.596	-14.03397
976.971	-7.01746
977.346	10.02347
977.72	14.03589
978.095	16.04159
978.469	13.03125
978.844	35.08824
979.218	-55.13447
979.593	0
979.967	17.04167
980.341	26.06016
980.715	11.02791
981.089	37.09284
981.463	-26.06061
981.837	-54.1345
982.21	20.04683
982.584	-10.02443
982.957	-29.07345
983.331	6.01431
983.704	12.02969
984.078	15.03721
984.451	31.0777
984.824	13.03188
985.197	-12.02949
985.57	28.0705
985.943	53.13083
986.316	79.19308
986.688	21.05092
987.061	23.0542
987.434	5.01313
987.806	22.05364
988.179	-20.04783
988.551	44.11174
988.923	-17.04238
989.295	22.05525
989.667	-5.01207
990.039	-23.05759
990.411	31.07163
990.783	28.06476
991.155	-7.017
991.527	62.15235
991.898	-2.00503
992.27	-47.11832
992.641	35.08805
993.012	2.00475
993.384	0
993.755	-1.00257
994.126	9.02182
994.497	-1.00248
994.868	-16.03724
995.239	-20.04911
995.61	-4.01016
995.98	3.00735
996.351	-22.05519
996.722	-22.05175
997.092	12.02862
997.462	-71.16977
997.833	7.01673
998.203	22.05362
998.573	-29.07324
998.943	16.03777
999.313	17.04099
999.683	-12.02914
1000.053	2.00465
1000.423	-7.01719
1000.792	-12.03143
1001.162	22.05442
1001.531	21.05205
1001.901	24.0601
1002.27	-9.02036
1002.639	0
1003.009	11.02635
1003.378	9.02317
1003.747	1.00238
1004.116	-2.00483
1004.485	3.00723
1004.853	16.04078
1005.222	14.03553
1005.591	16.03824
1005.959	-30.06869
1006.328	-10.02278
1006.696	-15.03662
1007.064	2.00507
1007.433	19.04775
1007.801	44.10812
1008.169	10.02543
1008.537	18.04012
1008.905	-11.02593
1009.273	38.09406
1009.64	-53.12891
1010.008	9.02162
1010.375	100.24053
1010.743	57.13144
1011.11	-3.00717
1011.478	22.05472
1011.845	38.08956
1012.212	-40.09218
1012.579	4.0099
1012.946	13.03116
1013.313	-4.00962
1013.68	23.05198
1014.047	-36.08718
1014.414	-14.03347
1014.78	-3.00753
1015.147	9.02193
1015.513	-29.0709
1015.88	16.04115
1016.246	-9.02245
1016.612	49.11218
1016.978	30.07377
1017.344	15.0373
1017.71	78.18918
1018.076	48.11322
1018.442	41.10561
1018.808	3.00756
1019.174	9.02274
1019.539	90.2055
1019.905	-15.03581
1020.27	-22.055
1020.636	67.16009
1021.001	31.07447
1021.366	15.03625
1021.731	12.03106
1022.096	-3.00764
1022.461	-22.05278
1022.826	-9.02163
1023.191	15.03957
1023.556	43.10089
1023.92	22.05436
1024.285	25.06128
1024.649	0
1025.014	29.07209
1025.378	12.03037
1025.742	20.04992
1026.107	-23.05278
1026.471	17.03993
1026.835	23.05728
1027.199	-3.00729
1027.562	-17.04003
1027.926	-1.00247
1028.29	-19.04865
1028.654	10.02318
1029.017	12.02969
1029.381	-37.08982
1029.744	-25.06458
1030.107	-4.00956
1030.471	-16.03878
1030.834	-6.0138
1031.197	-2.00486
1031.56	25.05925
1031.923	8.02083
1032.286	75.17522
1032.648	7.01687
1033.011	-14.03253
1033.374	31.07311
1033.736	-24.06386
1034.099	-9.02217
1034.461	11.02797
1034.823	-7.0176
1035.185	35.0883
1035.548	-18.04434
1035.91	-7.01694
1036.272	-7.01611
1036.634	31.07608
1036.995	2.00474
1037.357	19.04647
1037.719	9.02205
1038.08	52.12337
1038.442	-4.00959
1038.803	7.01694
1039.165	-3.00764
1039.526	16.03889
1039.887	5.01206
1040.248	-16.03988
1040.609	27.06697
1040.97	9.02215
1041.331	14.03565
1041.692	10.02351
1042.053	5.01148
1042.413	39.09104
1042.774	58.14078
1043.134	25.05978
1043.495	20.05052
1043.855	24.05847
1044.215	12.02998
1044.576	-39.09479
1044.936	19.04381
1045.296	40.09996
1045.656	17.04195
1046.016	48.11585
1046.375	-24.059
1046.735	-35.08068
1047.095	-53.12649
1047.454	6.01283
1047.814	11.02662
1048.173	70.16652
1048.533	13.02999
1048.892	-36.08777
1049.251	-8.02028
1049.61	4.00993
1049.969	21.04975
1050.328	-19.04178
1050.687	1.00245
1051.046	1.00246
1051.405	31.07734
1051.763	-32.07474
1052.122	-27.06824
1052.48	27.06646
1052.839	9.02133
1053.197	-27.06446
1053.555	35.08
1053.914	21.05161
1054.272	18.04376
1054.63	-9.02223
1054.988	-14.03365
1055.345	-16.03492
1055.703	12.02907
1056.061	-14.03639
1056.419	-5.01306
1056.776	19.04632
1057.134	-14.0328
1057.491	33.08284
1057.848	25.06248
1058.206	7.01659
1058.563	2.00445
1058.92	-9.02098
1059.277	13.03227
1059.634	10.0237
1059.991	-1.00242
1060.348	-58.13388
1060.704	-5.01203
1061.061	62.14362
1061.418	12.02929
1061.774	-18.04496
1062.131	-8.02134
1062.487	-19.045
1062.843	26.06507
1063.199	16.04001
1063.555	-20.04695
1063.911	18.04569
1064.267	-22.0466
1064.623	-33.08134
1064.979	18.04288
1065.335	42.10049
1065.691	-12.02908
1066.046	-19.04236
1066.402	-21.04837
1066.757	14.03554
1067.112	32.07875
1067.468	-48.11541
1067.823	-2.00485
1068.178	12.02921
1068.533	49.11873
1068.888	22.05282
1069.243	-16.03994
1069.598	4.0098
1069.952	-28.06401
1070.307	-17.04257
1070.662	-4.00959
1071.016	-32.07286
1071.371	6.01376
1071.725	33.07915
1072.079	18.04353
1072.434	-21.05167
1072.788	-6.01443
1073.142	45.11072
1073.496	0
1073.85	-7.01641
1074.203	33.08026
1074.557	6.01606
1074.911	5.01203
1075.265	41.09541
1075.618	15.03684
1075.971	25.05971
1076.325	27.06885
1076.678	-36.08369
1077.031	2.00457
1077.385	-29.0649
1077.738	-43.09884
1078.091	-35.0809
1078.444	-20.04705
1078.796	12.02963
1079.149	21.05247
1079.502	-13.03106
1079.855	-17.04014
1080.207	19.04704
1080.56	1.0026
1080.912	-27.06663
1081.264	3.00728
1081.617	-1.00246
1081.969	1.00254
1082.321	-1.00246
1082.673	-16.03698
1083.025	8.01912
1083.377	17.03672
1083.728	15.03521
1084.08	-32.081
1084.432	-23.05619
1084.783	32.07519
1085.135	22.05537
1085.486	-61.14257
1085.838	13.03221
1086.189	-38.09368
1086.54	21.05039
1086.891	-2.0051
1087.242	-10.0246
1087.593	48.11681
1087.944	37.08389
1088.295	40.09104
1088.646	9.02196
1088.996	-57.13998
1089.347	-4.00991
1089.698	-43.10337
1090.048	27.07035
1090.398	22.05127
1090.749	-24.05819
1091.099	-26.06621
1091.449	9.02257
1091.799	43.10771
1092.149	-64.15923
1092.499	9.0221
1092.849	-2.00513
1093.199	19.04785
1093.548	-9.02185
1093.898	18.04526
1094.248	15.03875
1094.597	-24.062
1094.947	24.06424
1095.296	-50.12562
1095.645	8.02094
1095.994	2.00484
1096.343	31.07821
1096.692	17.04487
1097.041	-5.01365
1097.39	13.0328
1097.739	35.09113
1098.088	39.10459
1098.437	-38.10122
1098.785	47.12666
1099.134	28.07456
1099.482	19.05247
1099.83	28.07379
1100.179	-4.01052
1100.527	33.08785
1100.875	-10.02668
1101.223	14.03736
1101.571	-7.0195
1101.919	-23.06078
1102.267	8.02265
1102.615	-4.01287
1102.962	8.02576
1103.31	-6.0193
1103.658	8.02578
