Data from N2 R8 sample 12_Subt2__3__17-10-16-938.txt Node

Date: Fri Aug 29 17:10:16 PDT 2025
User: uwsun
Spectrometer: HDX01956
Trigger mode: 0
Integration Time (sec): 5.000000E-1
Scans to average: 1
Nonlinearity correction enabled: true
Boxcar width: 0
Storing dark spectrum: false
XAxis mode: Wavelengths
Number of Pixels in Spectrum: 2068
>>>>>Begin Spectral Data<<<<<
194.03	214.58069
194.578	224.68851
195.127	213.64552
195.676	232.70356
196.225	246.62554
196.773	296.77279
197.321	327.82983
197.87	506.13264
198.418	525.15375
198.966	507.12579
199.513	480.01553
200.061	470.01515
200.609	503.14831
201.156	429.79392
201.704	470.00864
202.251	458.04436
202.798	538.18162
203.345	538.12406
203.892	481.03252
204.438	545.09213
204.985	465.92901
205.532	483.08662
206.078	535.1037
206.624	500.03529
207.17	501.98144
207.716	509.03821
208.262	527.85512
208.808	458.95554
209.354	505.0333
209.899	529.13721
210.445	462.97671
210.99	550.10039
211.535	592.15065
212.08	519.01307
212.625	505.07388
213.17	565.20325
213.715	412.77598
214.259	551.07056
214.804	549.14277
215.348	567.07552
215.892	532.07218
216.436	580.11711
216.98	591.07753
217.524	545.07551
218.068	514.10088
218.612	536.14412
219.155	458.92118
219.698	502.013
220.242	469.00801
220.785	489.97288
221.328	471.00884
221.871	475.04063
222.414	476.02111
222.956	359.75616
223.499	436.84259
224.041	444.89508
224.583	508.93006
225.126	435.82273
225.668	444.93045
226.21	428.93413
226.751	385.72601
227.293	458.89826
227.835	408.86521
228.376	480.94942
228.918	459.00298
229.459	458.97928
230	411.84817
230.541	439.87137
231.082	473.98136
231.622	529.02627
232.163	479.98981
232.704	439.93845
233.244	455.97097
233.784	484.01775
234.324	406.76017
234.864	418.81516
235.404	420.86615
235.944	456.92898
236.484	520.10367
237.023	444.89837
237.563	437.86335
238.102	488.97925
238.641	441.96392
239.18	437.87104
239.719	430.93413
240.258	486.92393
240.797	457.93208
241.335	481.0041
241.874	513.80851
242.412	506.02389
242.95	473.95551
243.488	478.92288
244.026	442.86647
244.564	495.84763
245.102	448.85209
245.64	536.0862
246.177	473.89505
246.715	498.01182
247.252	479.93169
247.789	577.88065
248.326	467.94642
248.863	451.83255
249.4	520.98665
249.936	458.78782
250.473	477.93619
251.009	457.88212
251.546	509.93119
252.082	528.95645
252.618	493.91421
253.154	418.85738
253.69	506.94885
254.226	501.00055
254.761	482.90562
255.297	414.76711
255.832	483.9596
256.367	560.08679
256.903	506.91892
257.438	564.09248
257.972	486.90235
258.507	478.91093
259.042	508.91083
259.576	433.77652
260.111	522.00133
260.645	519.92602
261.179	457.89482
261.713	493.90783
262.247	462.89541
262.781	505.86476
263.315	488.9996
263.849	498.04081
264.382	537.01702
264.915	535.02657
265.449	459.93148
265.982	520.97751
266.515	531.06942
267.048	533.9142
267.58	546.97648
268.113	463.82606
268.646	536.09016
269.178	462.85393
269.71	553.98008
270.243	521.97963
270.775	516.09088
271.307	518.03481
271.838	562.09743
272.37	498.01734
272.902	565.04252
273.433	522.92872
273.965	507.02053
274.496	524.08072
275.027	567.14835
275.558	532.05743
276.089	481.97479
276.62	560.17476
277.15	573.15628
277.681	527.93107
278.211	570.14153
278.741	540.95479
279.272	523.96889
279.802	561.14499
280.332	540.03094
280.861	569.10823
281.391	559.01494
281.921	600.16457
282.45	536.10007
282.98	564.2045
283.509	568.01954
284.038	561.02323
284.567	577.08494
285.096	579.12561
285.625	515.94455
286.153	567.06087
286.682	587.06211
287.21	558.07775
287.739	548.03916
288.267	547.06328
288.795	615.30592
289.323	576.0626
289.851	643.17787
290.378	594.0461
290.906	573.09804
291.433	605.19917
291.961	585.03586
292.488	544.08987
293.015	591.08951
293.542	560.1313
294.069	602.16401
294.596	616.20535
295.122	591.10805
295.649	625.0621
296.175	631.19775
296.702	645.21962
297.228	682.28185
297.754	588.02308
298.28	670.15136
298.806	656.2105
299.332	567.96683
299.857	666.13409
300.383	645.2762
300.908	617.14836
301.433	609.14186
301.958	711.23733
302.483	606.17008
303.008	673.27639
303.533	746.48153
304.058	687.22639
304.582	598.07847
305.107	627.26312
305.631	688.17607
306.155	709.21758
306.679	651.13686
307.203	679.16905
307.727	654.16645
308.251	699.29485
308.775	669.17205
309.298	716.25229
309.822	729.368
310.345	720.24873
310.868	727.26724
311.391	748.3517
311.914	741.3571
312.437	713.1827
312.96	726.23255
313.482	734.25087
314.005	712.31012
314.527	760.45466
315.049	763.4024
315.571	721.11661
316.093	802.40382
316.615	786.32822
317.137	842.22766
317.659	829.40829
318.18	892.47206
318.702	788.26116
319.223	849.13155
319.744	860.27412
320.265	805.32916
320.786	848.41237
321.307	901.49723
321.828	921.3397
322.348	870.34474
322.869	861.32259
323.389	914.83553
323.909	923.34924
324.43	984.5253
324.95	903.30205
325.47	934.45761
325.989	929.36557
326.509	919.21649
327.029	930.26284
327.548	960.27834
328.067	1042.48552
328.587	977.50337
329.106	963.29215
329.625	1033.70423
330.144	1053.38315
330.662	991.3221
331.181	1112.45007
331.7	1064.40287
332.218	1074.24302
332.736	1143.45028
333.255	1080.37101
333.773	1112.42663
334.291	1175.6165
334.808	1096.26405
335.326	1232.37664
335.844	1190.37182
336.361	1218.58542
336.879	1197.36511
337.396	1247.46796
337.913	1232.33785
338.43	1321.32347
338.947	1227.39351
339.464	1279.16323
339.981	1227.34745
340.497	1406.56506
341.014	1300.44168
341.53	1283.22815
342.046	1314.43515
342.562	1340.50623
343.078	1341.33055
343.594	1393.38336
344.11	1438.37739
344.626	1443.51382
345.141	1400.22105
345.657	1489.25387
346.172	1439.35764
346.687	1398.20004
347.202	1471.14801
347.717	1563.32485
348.232	1580.45292
348.747	1521.18265
349.261	1461.98653
349.776	1499.20636
350.29	1528.28977
350.805	1724.39546
351.319	1663.17795
351.833	1555.04131
352.347	1594.15045
352.861	1638.10957
353.374	1714.11357
353.888	1673.21388
354.401	1816.04942
354.915	1672.9238
355.428	1731.22242
355.941	1738.01203
356.454	1821.95751
356.967	1834.06619
357.48	1843.97696
357.993	1824.15754
358.505	1792.09406
359.018	1876.09018
359.53	1849.00335
360.042	1942.78179
360.554	1953.01814
361.066	1969.99071
361.578	1981.67253
362.09	1883.92612
362.602	1886.67628
363.113	1997.77572
363.625	1958.6755
364.136	2093.57998
364.647	1990.6361
365.158	2105.67156
365.669	2144.73734
366.18	2157.6686
366.691	2132.47376
367.201	2156.6619
367.712	2105.49497
368.222	2104.48873
368.733	2131.28502
369.243	2237.25751
369.753	2250.3784
370.263	2309.41579
370.773	2289.49068
371.282	2307.30224
371.792	2362.03476
372.301	2428.15736
372.811	2530.33305
373.32	2529.65536
373.829	2497.85634
374.338	2727.53963
374.847	2736.5289
375.356	2714.53912
375.865	2856.12433
376.373	2980.11428
376.882	3175.24577
377.39	3148.07881
377.898	3206.92171
378.407	3376.67966
378.915	3565.5727
379.423	3650.56811
379.93	3829.51966
380.438	3878.52416
380.946	4142.63393
381.453	4240.75585
381.96	4393.07664
382.468	4574.75557
382.975	5126.61863
383.482	5204.49633
383.989	5374.47458
384.495	5295.53501
385.002	5560.31551
385.509	6012.11895
386.015	6408.43269
386.521	6579.37546
387.028	6766.53521
387.534	7008.27857
388.04	7614.18081
388.546	7417.46973
389.051	7716.42616
389.557	8382.6188
390.063	9555.16958
390.568	9718.53857
391.073	9705.9096
391.578	10173.00911
392.084	10292.81716
392.589	10117.88439
393.093	10859.81379
393.598	12121.05181
394.103	13254.96362
394.607	14877.24385
395.112	16005.00441
395.616	16728.57335
396.12	17795.2594
396.624	19223.69974
397.128	21043.36031
397.632	23280.05662
398.136	25366.54091
398.639	25422.64279
399.143	27258.73655
399.646	27761.91328
400.15	24771.30978
400.653	20124.16724
401.156	13866.23708
401.659	5169.95759
402.162	1054.15589
402.664	0
403.167	0
403.67	0
404.172	0
404.674	0
405.176	0
405.678	0
406.18	0
406.682	0
407.184	0
407.686	0
408.187	0
408.688	0
409.19	0
409.691	0
410.192	0
410.693	0
411.194	435.30976
411.694	4082.94878
412.195	8864.71461
412.696	12089.80453
413.196	12760.96929
413.696	12863.67595
414.196	13703.56671
414.696	17261.84252
415.196	21764.24417
415.696	29583.19008
416.196	36460.31858
416.695	40057.39798
417.195	33969.36119
417.694	31999.54129
418.194	30404.67155
418.693	27880.35043
419.192	26828.28046
419.691	26215.52926
420.19	26043.93179
420.688	25364.35117
421.187	24397.79326
421.685	23278.40645
422.184	21801.9951
422.682	18508.91551
423.18	15275.17184
423.678	13563.66538
424.176	12301.94382
424.674	11627.91945
425.172	11222.10252
425.669	10738.45395
426.167	10005.47801
426.664	9277.80343
427.161	8290.12258
427.659	7653.472
428.156	7003.07179
428.652	6678.69526
429.149	6344.05256
429.646	6238.50633
430.143	6011.2896
430.639	5465.64645
431.135	5149.57554
431.632	4812.17847
432.128	4564.74251
432.624	4134.52763
433.12	3951.54983
433.616	3889.53231
434.111	3576.55205
434.607	3438.63725
435.103	3492.59869
435.598	3515.60995
436.093	3272.92335
436.588	3159.0114
437.083	3066.15755
437.578	2937.34665
438.073	2567.72384
438.568	2623.85705
439.062	2533.60342
439.557	2551.93898
440.051	2271.98894
440.546	2121.09369
441.04	2171.25236
441.534	2187.47269
442.028	2106.41257
442.522	2001.45112
443.015	1982.26762
443.509	2007.5923
444.002	1914.62304
444.496	1863.38611
444.989	1850.69364
445.482	1791.75604
445.975	1784.50034
446.468	1820.41258
446.961	1699.45695
447.454	1777.59567
447.947	1643.70579
448.439	1616.83742
448.931	1542.63604
449.424	1531.96979
449.916	1557.87678
450.408	1527.68765
450.9	1569.87245
451.392	1467.98965
451.884	1447.80992
452.375	1329.93784
452.867	1385.82167
453.358	1385.78145
453.849	1369.68073
454.341	1315.80089
454.832	1285.71751
455.323	1255.96451
455.814	1289.88566
456.304	1244.89085
456.795	1275.89346
457.285	1264.88402
457.776	1242.94883
458.266	1156.95891
458.756	1191.03295
459.247	1108.9577
459.737	1034.93403
460.226	1063.86105
460.716	1076.99469
461.206	1024.99854
461.695	1004.08982
462.185	980.96738
462.674	1009.95981
463.163	974.88387
463.653	1065.84396
464.142	939.00776
464.63	967.08185
465.119	926.94849
465.608	898.93547
466.096	904.88176
466.585	861.95637
467.073	897.05071
467.561	920.08225
468.05	836.97051
468.538	870.09801
469.026	850.04139
469.513	741.77617
470.001	721.85667
470.489	784.97601
470.976	750.92825
471.463	732.03188
471.951	706.02355
472.438	656.87631
472.925	653.86795
473.412	698.01442
473.899	592.81118
474.385	605.9114
474.872	650.89373
475.359	588.88708
475.845	593.71649
476.331	670.86423
476.817	580.9013
477.303	526.77916
477.789	494.78057
478.275	415.69609
478.761	494.79183
479.247	512.74962
479.732	446.75364
480.218	445.80667
480.703	458.78403
481.188	471.6677
481.673	420.66012
482.158	356.51239
482.643	446.81034
483.128	362.57882
483.612	386.64017
484.097	378.6735
484.581	381.63869
485.066	365.64444
485.55	330.5192
486.034	296.46515
486.518	312.53748
487.002	321.58126
487.486	311.56775
487.969	286.52647
488.453	326.62607
488.936	261.44444
489.42	240.40592
489.903	280.54837
490.386	218.26451
490.869	247.41492
491.352	280.53772
491.835	264.41774
492.318	239.4182
492.8	259.41066
493.283	194.39433
493.765	195.38325
494.247	254.47156
494.73	195.34246
495.212	247.47927
495.694	149.28082
496.175	111.21353
496.657	222.42366
497.139	198.27283
497.62	112.21675
498.102	106.21762
498.583	145.30099
499.064	67.12361
499.545	132.24787
500.026	65.12148
500.507	142.27191
500.988	164.33746
501.469	100.20939
501.949	156.32143
502.43	78.15486
502.91	72.12382
503.39	139.29279
503.87	81.1598
504.35	129.25617
504.83	100.18278
505.31	52.10724
505.79	82.16554
506.269	155.30277
506.749	11.02153
507.228	65.12938
507.707	119.22064
508.187	109.22161
508.666	51.10709
509.145	45.08986
509.623	54.10856
510.102	36.07538
510.581	113.2332
511.059	46.09917
511.538	118.26171
512.016	23.04776
512.494	82.17139
512.972	44.09087
513.45	7.01397
513.928	-4.00847
514.406	-32.06709
514.884	23.0516
515.361	52.10772
515.839	46.09047
516.316	37.07735
516.793	70.15422
517.27	61.12894
517.747	30.06729
518.224	50.10075
518.701	29.05635
519.178	6.01301
519.654	26.05449
520.131	7.01525
520.607	42.0916
521.083	29.05794
521.56	-27.05662
522.036	26.05012
522.512	50.10858
522.987	-39.08204
523.463	-8.01684
523.939	55.1185
524.414	6.0123
524.89	9.01891
525.365	-2.00401
525.84	-33.06945
526.315	-9.01924
526.79	11.02195
527.265	-46.09406
527.74	27.0581
528.215	-16.03364
528.689	4.00784
529.164	-26.05058
529.638	-3.0069
530.112	-37.07797
530.587	-54.1031
531.061	-41.08853
531.534	1.00217
532.008	-13.02788
532.482	51.10345
532.956	-39.08914
533.429	-17.03696
533.903	9.01778
534.376	-58.11596
534.849	-5.01038
535.322	2.00422
535.795	13.02839
536.268	-8.01722
536.741	-20.04329
537.213	14.02892
537.686	-50.10988
538.158	-62.12528
538.631	-15.03293
539.103	-51.10303
539.575	1.00187
540.047	-60.11984
540.519	-45.0977
540.991	-12.02653
541.463	-9.01962
541.934	4.0082
542.406	-58.12526
542.877	-24.04881
543.348	-5.01088
543.82	-8.01771
544.291	8.0168
544.762	-50.10715
545.233	-10.02248
545.703	-47.09373
546.174	35.0723
546.645	-23.04898
547.115	55.11682
547.585	39.0794
548.056	2.00426
548.526	35.0722
548.996	67.14138
549.466	134.28393
549.935	102.20771
550.405	87.16421
550.875	92.18811
551.344	91.18923
551.814	69.13779
552.283	85.1602
552.752	79.15798
553.221	78.14488
553.69	155.29041
554.159	89.18714
554.628	83.1582
555.096	99.21522
555.565	62.11941
556.033	110.224
556.502	87.18366
556.97	90.17392
557.438	14.0296
557.906	42.08892
558.374	22.04525
558.842	39.08331
559.31	-65.13366
559.777	-27.05912
560.245	-21.04511
560.712	-9.01901
561.18	-46.09308
561.647	-24.04903
562.114	1.00207
562.581	9.02019
563.048	25.05243
563.514	-38.0854
563.981	-3.00629
564.448	-8.01644
564.914	52.10975
565.381	60.12374
565.847	40.08524
566.313	26.05524
566.779	61.12453
567.245	51.10823
567.711	28.06107
568.176	26.05307
568.642	8.01829
569.108	38.08474
569.573	99.21
570.038	95.17958
570.504	30.06098
570.969	66.14937
571.434	62.12223
571.899	109.23151
572.363	142.28653
572.828	183.369
573.293	128.26101
573.757	139.28299
574.222	139.27345
574.686	181.35372
575.15	142.29799
575.614	160.32285
576.078	164.33807
576.542	228.45054
577.006	163.32308
577.469	273.58489
577.933	154.3026
578.396	209.43422
578.86	275.55757
579.323	212.43938
579.786	234.43702
580.249	173.34547
580.712	203.43511
581.175	203.43812
581.637	198.40155
582.1	225.43178
582.563	252.47041
583.025	204.43263
583.487	191.3372
583.95	152.28796
584.412	191.35309
584.874	197.41988
585.336	197.40984
585.797	164.31358
586.259	216.44787
586.721	147.30623
587.182	259.52922
587.643	172.34642
588.105	181.3789
588.566	207.38343
589.027	119.25573
589.488	163.33034
589.949	168.36157
590.41	149.25673
590.87	192.38849
591.331	223.42319
591.791	149.3057
592.252	108.22103
592.712	198.42009
593.172	140.28132
593.632	267.50942
594.092	153.30411
594.552	173.33023
595.011	144.29377
595.471	160.31854
595.931	221.43169
596.39	189.39898
596.849	165.34113
597.308	150.29112
597.768	136.30853
598.227	174.37223
598.685	246.49547
599.144	186.38463
599.603	213.44411
600.062	161.29941
600.52	192.37673
600.978	260.53668
601.437	286.56701
601.895	221.40998
602.353	305.58277
602.811	281.53873
603.269	301.62089
603.727	287.59361
604.184	289.55916
604.642	376.7803
605.099	369.7249
605.557	365.75662
606.014	366.66225
606.471	411.85768
606.928	422.74452
607.385	497.98465
607.842	539.99655
608.299	704.27851
608.755	681.28719
609.212	645.12043
609.668	590.02982
610.125	746.39755
610.581	828.50802
611.037	847.46843
611.493	743.37378
611.949	745.39465
612.405	731.11494
612.861	811.47438
613.316	815.49217
613.772	798.40779
614.227	822.48422
614.683	854.37881
615.138	836.49188
615.593	892.55932
616.048	876.52084
616.503	954.76784
616.958	933.76877
617.412	969.7054
617.867	968.56534
618.321	971.46606
618.776	997.61921
619.23	921.63507
619.684	1001.67313
620.138	988.71858
620.592	908.69246
621.046	968.7165
621.5	941.745
621.954	973.64837
622.407	956.60507
622.861	919.72103
623.314	989.69454
623.768	932.66191
624.221	869.29964
624.674	865.55369
625.127	897.63025
625.58	923.62931
626.033	923.57268
626.485	885.65888
626.938	919.70666
627.39	915.65799
627.843	975.73297
628.295	955.70697
628.747	912.70328
629.199	939.65677
629.651	985.7165
630.103	976.72446
630.555	1003.60895
631.006	1057.89074
631.458	1022.85751
631.909	1183.013
632.361	1103.94801
632.812	1083.89772
633.263	1172.85224
633.714	1220.8922
634.165	1252.24571
634.616	1265.20853
635.067	1343.11661
635.518	1428.40966
635.968	1495.98052
636.419	1507.21021
636.869	1626.60119
637.319	1588.46719
637.769	1727.46404
638.219	1766.74859
638.669	1794.75274
639.119	1963.97852
639.569	1992.94495
640.019	2104.83814
640.468	2113.69657
640.918	2268.10475
641.367	2385.80841
641.816	2453.81253
642.265	2538.99063
642.714	2696.01592
643.163	2765.99116
643.612	2822.20888
644.061	2893.55636
644.51	2934.93789
644.958	3088.72924
645.406	3150.20339
645.855	3216.3625
646.303	3395.04029
646.751	3374.86311
647.199	3543.82153
647.647	3492.906
648.095	3589.85304
648.543	3588.24128
648.99	3667.09491
649.438	3694.00378
649.885	3704.34474
650.333	3693.91329
650.78	3659.18502
651.227	3782.19522
651.674	3727.7882
652.121	3722.22747
652.568	3617.24475
653.015	3720.52248
653.461	3594.11607
653.908	3547.01033
654.354	3620.1539
654.801	3392.08775
655.247	3513.67625
655.693	3404.82372
656.139	3425.23714
656.585	3374.25628
657.031	3290.07721
657.477	3228.66477
657.922	3279.01854
658.368	3270.47478
658.813	3217.12112
659.259	3193.29645
659.704	3074.13238
660.149	3088.1359
660.594	2974.25709
661.039	2972.0226
661.484	2960.31265
661.929	2931.1834
662.373	2872.6246
662.818	2823.52262
663.262	2763.33504
663.707	2855.66534
664.151	2796.43908
664.595	2769.35425
665.039	2753.54843
665.483	2757.68443
665.927	2771.23715
666.371	2743.1162
666.814	2741.31603
667.258	2742.24315
667.701	2797.79565
668.145	2775.57123
668.588	2691.46685
669.031	2669.20835
669.474	2675.35725
669.917	2666.9232
670.36	2652.52332
670.803	2739.39361
671.245	2666.68459
671.688	2666.44324
672.13	2648.97402
672.573	2719.70074
673.015	2665.35303
673.457	2564.83355
673.899	2661.40835
674.341	2569.36141
674.783	2598.32717
675.225	2596.47233
675.666	2468.29879
676.108	2525.82639
676.549	2590.27701
676.991	2532.89875
677.432	2462.4361
677.873	2436.11505
678.314	2404.26179
678.755	2384.34896
679.196	2352.03553
679.637	2357.37021
680.078	2283.12492
680.518	2255.09716
680.959	2174.17705
681.399	2175.34388
681.839	2172.25409
682.28	2110.27666
682.72	2124.94332
683.16	2040.27484
683.6	1990.86663
684.039	1912.4735
684.479	1926.12383
684.919	1888.82701
685.358	1907.26605
685.798	1905.40998
686.237	1857.01643
686.676	1916.89506
687.115	1789.84314
687.554	1787.88151
687.993	1768.60397
688.432	1712.6758
688.871	1717.65073
689.309	1731.85557
689.748	1621.31346
690.186	1704.839
690.625	1595.66103
691.063	1585.73306
691.501	1551.80923
691.939	1510.79032
692.377	1568.77678
692.815	1546.68152
693.253	1486.64301
693.69	1481.34661
694.128	1374.52939
694.565	1420.53931
695.003	1375.68643
695.44	1417.48685
695.877	1347.38551
696.314	1378.1902
696.751	1372.35322
697.188	1322.31032
697.625	1333.33025
698.061	1233.32375
698.498	1325.4734
698.934	1252.36252
699.371	1190.21359
699.807	1216.26433
700.243	1169.24569
700.679	1235.17282
701.115	1180.20899
701.551	1120.12513
701.987	1129.02482
702.422	1077.08141
702.858	973.9361
703.294	1039.92234
703.729	1048.11433
704.164	991.98747
704.599	990.81649
705.035	948.76454
705.47	921.89701
705.904	894.76514
706.339	964.87512
706.774	896.77983
707.209	885.73063
707.643	823.71018
708.078	836.7584
708.512	806.75535
708.946	828.71638
709.38	833.70179
709.814	770.53423
710.248	748.60625
710.682	758.57954
711.116	717.50956
711.549	759.7313
711.983	760.53392
712.416	705.47906
712.85	674.50611
713.283	692.45591
713.716	714.59753
714.149	664.41837
714.582	683.36034
715.015	629.42654
715.448	694.56358
715.881	650.2708
716.313	611.29403
716.746	619.31443
717.178	576.26255
717.61	613.41268
718.043	641.44202
718.475	540.20341
718.907	581.34631
719.339	493.03284
719.77	543.17936
720.202	512.1991
720.634	515.15637
721.065	479.05558
721.497	474.08265
721.928	481.09801
722.359	416.94515
722.79	438.98423
723.221	467.09846
723.652	495.18922
724.083	424.89914
724.514	425.91914
724.945	427.94437
725.375	398.87271
725.806	372.8858
726.236	449.07936
726.666	425.94778
727.096	404.93868
727.526	396.95377
727.956	391.84129
728.386	377.88374
728.816	349.84458
729.246	364.84276
729.675	356.83632
730.105	413.96091
730.534	344.77051
730.964	337.818
731.393	398.9386
731.822	379.92164
732.251	344.8364
732.68	362.81449
733.109	366.8598
733.537	366.84201
733.966	336.8001
734.395	380.83325
734.823	388.83034
735.251	327.75636
735.68	376.89738
736.108	332.80662
736.536	355.79989
736.964	353.78204
737.392	338.81104
737.82	327.75396
738.247	351.8038
738.675	388.88048
739.102	305.73451
739.53	340.82915
739.957	383.93658
740.384	370.87055
740.811	358.86717
741.238	341.79687
741.665	341.75609
742.092	375.8522
742.519	297.70929
742.945	347.79656
743.372	348.8239
743.798	379.92715
744.225	353.80124
744.651	347.8331
745.077	363.86322
745.503	386.89404
745.929	347.79592
746.355	448.04449
746.781	394.92556
747.207	321.72241
747.632	371.85947
748.058	377.89478
748.483	387.84413
748.908	404.94941
749.334	371.8673
749.759	387.86449
750.184	361.81873
750.609	435.00278
751.033	459.01228
751.458	433.91081
751.883	410.96013
752.307	394.87703
752.732	434.01575
753.156	397.92806
753.58	488.07433
754.005	470.11303
754.429	434.95644
754.853	478.10056
755.277	434.96365
755.7	505.1589
756.124	463.07084
756.548	470.03463
756.971	489.10733
757.394	528.2554
757.818	506.20625
758.241	521.21997
758.664	508.18647
759.087	500.02559
759.51	531.21622
759.933	474.05872
760.356	521.23375
760.778	508.15345
761.201	542.20936
761.623	534.19051
762.046	564.22062
762.468	544.19782
762.89	558.26049
763.312	590.30847
763.734	544.19882
764.156	545.23384
764.578	546.14686
765	541.21036
765.421	510.19627
765.843	549.32411
766.264	562.23958
766.686	598.36467
767.107	545.2088
767.528	565.30247
767.949	564.31229
768.37	533.20125
768.791	523.16378
769.212	503.16719
769.632	510.09136
770.053	545.32088
770.473	557.23699
770.894	566.29519
771.314	579.2566
771.734	467.0093
772.154	541.27723
772.575	547.15628
772.994	521.08247
773.414	543.19337
773.834	529.21599
774.254	537.20485
774.673	531.18698
775.093	498.13847
775.512	476.08766
775.931	522.21922
776.351	454.05061
776.77	472.07028
777.189	494.08392
777.607	506.19427
778.026	468.0835
778.445	430.00677
778.864	494.17446
779.282	487.08266
779.701	439.03489
780.119	434.02605
780.537	433.01044
780.955	442.05185
781.373	456.04982
781.791	475.98507
782.209	438.94179
782.627	426.05387
783.045	442.94671
783.462	424.01588
783.88	447.08023
784.297	385.91622
784.715	394.95577
785.132	397.90546
785.549	344.82009
785.966	364.86942
786.383	386.89687
786.8	361.79443
787.217	370.82976
787.633	378.89248
788.05	461.01585
788.466	398.88337
788.883	356.8633
789.299	370.84339
789.715	313.72858
790.131	336.79703
790.547	348.8274
790.963	362.85273
791.379	342.82406
791.795	339.73537
792.21	334.7435
792.626	321.72743
793.041	288.68398
793.457	317.7498
793.872	307.69091
794.287	266.61248
794.702	330.77616
795.117	308.73316
795.532	311.74641
795.947	326.74911
796.362	308.70464
796.776	344.76607
797.191	291.68458
797.605	220.50253
798.02	272.63827
798.434	297.63328
798.848	272.64599
799.262	248.59602
799.676	310.7243
800.09	252.60034
800.504	253.59427
800.918	218.49173
801.331	258.65535
801.745	197.44246
802.158	253.6123
802.572	281.65617
802.985	253.59196
803.398	260.59891
803.811	294.72714
804.224	244.58908
804.637	175.40931
805.05	200.45298
805.462	272.6445
805.875	157.40087
806.288	100.24016
806.7	189.46534
807.112	196.44428
807.525	162.39364
807.937	127.31096
808.349	160.39474
808.761	189.45536
809.173	131.31431
809.584	185.44826
809.996	106.25805
810.408	148.37677
810.819	154.35687
811.231	137.34981
811.642	159.37291
812.053	260.59628
812.464	330.74616
812.875	256.63294
813.286	210.52739
813.697	216.4918
814.108	176.42204
814.519	135.29761
814.929	149.37495
815.34	133.31911
815.75	117.29485
816.16	151.3711
816.571	147.37679
816.981	153.35603
817.391	102.24506
817.801	112.27612
818.211	119.28139
818.62	113.26999
819.03	107.26063
819.44	136.35122
819.849	133.33144
820.259	126.3194
820.668	74.1819
821.077	73.1812
821.486	82.19724
821.895	143.34884
822.304	103.27128
822.713	111.26054
823.122	75.18704
823.531	90.21269
823.939	54.132
824.348	42.10271
824.756	124.30761
825.164	124.30907
825.573	66.1657
825.981	114.28053
826.389	89.22284
826.797	72.18025
827.205	44.10156
827.612	91.22373
828.02	50.11789
828.428	86.21832
828.835	99.25908
829.243	90.21376
829.65	32.08008
830.057	108.26026
830.464	81.19693
830.871	59.14162
831.278	36.08758
831.685	67.14974
832.092	65.15928
832.499	81.17692
832.905	79.19959
833.312	77.1755
833.718	57.14231
834.124	18.04158
834.531	83.20864
834.937	26.06719
835.343	27.06567
835.749	79.18427
836.155	58.15202
836.561	21.05209
836.966	60.14694
837.372	55.14024
837.777	51.12737
838.183	93.20588
838.588	57.14174
838.993	65.15833
839.399	57.13957
839.804	-3.0074
840.209	29.07426
840.613	46.10283
841.018	70.17707
841.423	32.08253
841.828	27.06872
842.232	63.15615
842.637	60.14174
843.041	24.06192
843.445	37.09324
843.849	16.03995
844.253	105.24771
844.657	8.02034
845.061	7.01608
845.465	13.0317
845.869	27.06323
846.272	23.05642
846.676	17.04149
847.079	26.06652
847.483	57.14236
847.886	68.16536
848.289	22.05906
848.692	24.06119
849.095	56.1347
849.498	82.20713
849.901	9.02088
850.304	4.00967
850.707	41.10491
851.109	59.14938
851.512	36.08888
851.914	-12.03063
852.316	27.0687
852.718	-14.03659
853.121	-3.00744
853.523	24.05652
853.925	26.06819
854.326	38.09537
854.728	16.04145
855.13	-5.01304
855.531	-22.0534
855.933	50.12031
856.334	-9.02271
856.736	-20.04556
857.137	20.04688
857.538	13.03295
857.939	16.03984
858.34	41.10028
858.741	35.09184
859.142	29.07009
859.542	19.05045
859.943	56.13923
860.343	21.05235
860.744	14.03445
861.144	10.02462
861.544	-3.00729
861.945	37.09464
862.345	34.08355
862.745	37.09231
863.145	46.11027
863.544	50.12652
863.944	16.03812
864.344	58.1441
864.743	46.11441
865.143	46.11839
865.542	-18.04239
865.941	42.10427
866.34	63.15082
866.74	46.12366
867.139	-21.05104
867.537	26.06661
867.936	31.075
868.335	65.16515
868.734	9.02319
869.132	14.03282
869.531	16.03901
869.929	6.01382
870.327	15.03625
870.726	90.22311
871.124	43.10081
871.522	12.03081
871.92	34.08422
872.318	39.09567
872.715	47.11658
873.113	8.01967
873.511	31.07759
873.908	-14.03578
874.306	-9.02265
874.703	14.0353
875.1	33.08477
875.497	-1.00242
875.894	-37.09221
876.291	12.02969
876.688	9.0234
877.085	9.02179
877.482	40.10043
877.878	-48.11782
878.275	-10.0257
878.671	4.00901
879.068	-8.01955
879.464	11.02681
879.86	-22.05282
880.256	18.04474
880.652	16.04098
881.048	27.06726
881.444	32.07653
881.84	1.00257
882.236	58.14577
882.631	33.08134
883.027	80.19286
883.422	6.01547
883.817	1.00254
884.213	-1.00259
884.608	-9.02233
885.003	29.07027
885.398	16.04033
885.793	16.04044
886.188	-39.0986
886.582	42.10798
886.977	44.10467
887.371	48.12155
887.766	-24.06054
888.16	59.14714
888.554	23.05721
888.949	31.07818
889.343	47.115
889.737	-7.01884
890.131	24.06054
890.525	52.13304
890.918	12.03043
891.312	36.08646
891.706	22.05803
892.099	49.12481
892.492	31.06725
892.886	-4.00989
893.279	-3.00772
893.672	20.05122
894.065	19.04788
894.458	8.02029
894.851	52.12749
895.244	4.01031
895.637	2.00487
896.029	10.02465
896.422	69.16814
896.814	-5.01256
897.206	-24.05801
897.599	17.04234
897.991	1.00244
898.383	54.12762
898.775	-24.05504
899.167	10.02352
899.559	49.12415
899.951	8.01903
900.342	54.13733
900.734	-25.06291
901.125	37.09735
901.517	18.04448
901.908	31.07466
902.299	-8.01978
902.69	30.07112
903.082	29.07056
903.473	-6.01453
903.863	43.10991
904.254	5.01172
904.645	47.11704
905.036	-13.03187
905.426	10.0231
905.817	3.00743
906.207	2.00481
906.597	12.02829
906.987	29.07548
907.378	4.0102
907.768	2.00533
908.158	6.01476
908.547	3.00782
908.937	12.03101
909.327	2.0049
909.717	80.20215
910.106	-15.0365
910.495	52.12985
910.885	42.10658
911.274	2.00504
911.663	16.04088
912.052	51.1259
912.441	4.01026
912.83	-19.04425
913.219	28.07359
913.608	9.02223
913.997	-16.0406
914.385	37.08868
914.774	12.02944
915.162	14.03361
915.55	42.10183
915.939	-39.10004
916.327	38.0951
916.715	-27.06977
917.103	34.08398
917.491	6.01497
917.878	15.03714
918.266	46.11942
918.654	29.07439
919.041	-13.03431
919.429	9.02142
919.816	15.03827
920.203	-11.02699
920.591	29.07222
920.978	22.05418
921.365	28.07376
921.752	9.02164
922.139	30.06546
922.525	7.01696
922.912	27.06616
923.299	30.07486
923.685	22.05768
924.072	7.01629
924.458	-29.0729
924.844	-16.04008
925.231	-12.02828
925.617	-4.01027
926.003	45.11515
926.389	9.02288
926.774	63.15934
927.16	53.1316
927.546	19.04877
927.931	58.14457
928.317	3.00698
928.702	26.06183
929.088	-6.01435
929.473	5.01283
929.858	-40.09836
930.243	-13.03158
930.628	35.08541
931.013	-13.0326
931.398	53.12187
931.783	6.01592
932.167	-5.01235
932.552	49.12282
932.937	37.09207
933.321	-4.01014
933.705	2.00509
934.09	72.18129
934.474	34.08104
934.858	-19.04987
935.242	-30.07065
935.626	-15.03884
936.009	-4.01074
936.393	23.05881
936.777	1.00258
937.16	18.0471
937.544	27.06392
937.927	-11.02822
938.311	-2.00493
938.694	44.1165
939.077	-38.09251
939.46	24.05923
939.843	-15.03176
940.226	26.06698
940.609	-9.02091
940.991	8.02052
941.374	-10.02472
941.757	17.04221
942.139	-6.01363
942.522	53.12523
942.904	40.09636
943.286	62.15723
943.668	48.12439
944.05	23.05694
944.432	41.10136
944.814	3.00745
945.196	-64.15929
945.578	-33.07969
945.959	2.00473
946.341	60.14705
946.722	-23.05477
947.104	0
947.485	-8.01883
947.866	-4.01018
948.247	21.05326
948.628	27.06616
949.009	-3.00775
949.39	22.05506
949.771	-5.01176
950.152	-7.01736
950.532	-40.10003
950.913	44.10628
951.293	11.0299
951.674	23.05592
952.054	0
952.434	3.00751
952.814	18.0431
953.194	27.07095
953.574	32.0791
953.954	13.0311
954.334	18.04513
954.714	-15.037
955.093	8.01982
955.473	-23.05827
955.853	34.08826
956.232	23.06331
956.611	61.14603
956.99	33.08319
957.37	0
957.749	31.07424
958.128	16.04056
958.506	4.01046
958.885	-4.01019
959.264	-15.03721
959.643	27.06174
960.021	-4.01001
960.4	-8.01835
960.778	42.10362
961.156	-23.05842
961.535	33.07719
961.913	43.10077
962.291	-19.04933
962.669	1.00256
963.047	-3.00773
963.424	21.05387
963.802	-18.04482
964.18	36.09132
964.557	26.06018
964.935	27.06427
965.312	3.00787
965.69	42.10533
966.067	-28.06918
966.444	19.04709
966.821	23.05957
967.198	5.01223
967.575	19.04699
967.952	1.00238
968.329	1.00246
968.705	26.05605
969.082	2.00517
969.458	1.00242
969.835	26.06358
970.211	20.0516
970.587	24.06004
970.963	26.06698
971.339	17.04464
971.715	0
972.091	43.10603
972.467	24.06015
972.843	-41.10344
973.219	33.07951
973.594	-10.02642
973.97	4.00961
974.345	30.07208
974.721	12.02927
975.096	16.03897
975.471	53.12567
975.846	31.07475
976.221	14.03578
976.596	4.00967
976.971	46.11366
977.346	6.01409
977.72	-16.04124
978.095	-2.00522
978.469	23.05519
978.844	47.11823
979.218	-34.0828
979.593	-18.04369
979.967	10.02454
980.341	-13.03031
980.715	39.09846
981.089	11.02773
981.463	-20.04657
981.837	5.01232
982.21	48.11176
982.584	-22.05386
982.957	-23.05819
983.331	29.06884
983.704	47.11555
984.078	-13.03241
984.451	67.16685
984.824	11.02698
985.197	33.08041
985.57	18.0454
985.943	44.1088
986.316	21.05188
986.688	30.07262
987.061	23.0542
987.434	35.09144
987.806	30.07303
988.179	-3.00715
988.551	22.05609
988.923	5.01242
989.295	62.1546
989.667	-27.06545
990.039	7.01743
990.411	-17.03965
990.783	18.04171
991.155	-38.09282
991.527	70.17175
991.898	-11.02771
992.27	-28.07025
992.641	19.04793
993.012	9.02135
993.384	5.01203
993.755	18.04615
994.126	19.04597
994.497	0
994.868	23.05312
995.239	11.02685
995.61	0
995.98	18.04398
996.351	38.0943
996.722	-33.07779
997.092	2.00478
997.462	-75.17947
997.833	33.07849
998.203	28.06817
998.573	9.02258
998.943	-8.01897
999.313	39.09365
999.683	37.08901
1000.053	1.00232
1000.423	7.01715
1000.792	11.0287
1001.162	14.03468
1001.531	34.08407
1001.901	24.0601
1002.27	26.05841
1002.639	-12.03099
1003.009	5.01199
1003.378	40.10244
1003.747	55.1298
1004.116	-5.01209
1004.485	-23.05573
1004.853	23.05854
1005.222	19.04817
1005.591	32.07624
1005.959	-11.02509
1006.328	-14.03192
1006.696	0
1007.064	5.01268
1007.433	37.09268
1007.801	21.05182
1008.169	-3.00765
1008.537	8.01787
1008.905	-28.06622
1009.273	51.12594
1009.64	-1.00241
1010.008	12.02881
1010.375	36.08764
1010.743	62.14282
1011.11	-7.01674
1011.478	-24.06019
1011.845	10.0237
1012.212	-40.09218
1012.579	1.00248
1012.946	33.07879
1013.313	21.05025
1013.68	53.11904
1014.047	-44.10672
1014.414	13.03092
1014.78	-3.00753
1015.147	44.10652
1015.513	5.01215
1015.88	-5.01291
1016.246	31.07678
1016.612	35.08035
1016.978	10.02468
1017.344	6.01494
1017.71	43.10498
1018.076	25.05923
1018.442	37.09537
1018.808	-21.05315
1019.174	27.06799
1019.539	70.16048
1019.905	-39.09354
1020.27	-25.06253
1020.636	58.13882
1021.001	53.12678
1021.366	-17.04133
1021.731	30.0774
1022.096	-7.01783
1022.461	13.03098
1022.826	15.03588
1023.191	9.02377
1023.556	15.03539
1023.92	39.09606
1024.285	27.06616
1024.649	11.02714
1025.014	61.15075
1025.378	20.05054
1025.742	21.05241
1026.107	43.09737
1026.471	21.04929
1026.835	-16.04013
1027.199	-40.09789
1027.562	29.06767
1027.926	-17.04207
1028.29	6.0153
1028.654	6.01392
1029.017	25.06171
1029.381	-10.02415
1029.744	-2.00515
1030.107	21.04995
1030.471	4.00966
1030.834	32.07304
1031.197	45.10847
1031.56	42.09922
1031.923	-4.01043
1032.286	41.09642
1032.648	35.08391
1033.011	-33.07697
1033.374	20.04727
1033.736	-25.06653
1034.099	10.02454
1034.461	-25.06397
1034.823	12.03007
1035.185	-6.01525
1035.548	22.0538
1035.91	10.02413
1036.272	-16.03689
1036.634	26.06386
1036.995	-44.10527
1037.357	12.02939
1037.719	15.0367
1038.08	14.03346
1038.442	-4.00959
1038.803	-9.02184
1039.165	-36.0922
1039.526	21.051
1039.887	-1.00241
1040.248	-16.03988
1040.609	21.05214
1040.97	-24.05943
1041.331	3.00765
1041.692	-29.06871
1042.053	39.08896
1042.413	-10.02357
1042.774	12.02938
1043.134	12.02877
1043.495	27.06812
1043.855	-6.0147
1044.215	11.02748
1044.576	-22.0533
1044.936	36.08273
1045.296	22.05515
1045.656	-21.05218
1046.016	21.05094
1046.375	9.02199
1046.735	-59.13665
1047.095	40.09376
1047.454	26.05536
1047.814	20.04833
1048.173	46.10993
1048.533	-25.05811
1048.892	-48.11729
1049.251	55.13786
1049.61	28.06918
1049.969	-19.04536
1050.328	-18.03957
1050.687	6.01471
1051.046	7.01717
1051.405	12.03004
1051.763	-21.04895
1052.122	-19.04795
1052.48	16.03946
1052.839	-4.0095
1053.197	-11.02618
1053.555	55.12521
1053.914	42.10282
1054.272	32.07758
1054.63	-4.00987
1054.988	-3.0072
1055.345	-36.07891
1055.703	54.12979
1056.061	5.01296
1056.419	-16.04186
1056.776	15.03659
1057.134	4.00934
1057.491	35.08783
1057.848	2.00502
1058.206	2.00474
1058.563	-38.08526
1058.92	11.02554
1059.277	-27.06751
1059.634	1.00237
1059.991	42.10072
1060.348	-19.04352
1060.704	1.0024
1061.061	31.07225
1061.418	19.04632
1061.774	13.03229
1062.131	13.03456
1062.487	5.01179
1062.843	43.10728
1063.199	-5.01255
1063.555	-17.03989
1063.911	17.04316
1064.267	32.06697
1064.623	-24.05906
1064.979	42.0996
1065.335	39.09336
1065.691	0
1066.046	-41.09182
1066.402	-29.0669
1066.757	40.10108
1067.112	18.04441
1067.468	-18.04303
1067.823	-7.017
1068.178	-3.00732
1068.533	6.01466
1068.888	1.00241
1069.243	0
1069.598	-28.06898
1069.952	-21.04794
1070.307	-36.09045
1070.662	-44.10628
1071.016	-14.03176
1071.371	8.01834
1071.725	42.10056
1072.079	1.00243
1072.434	-2.0049
1072.788	-36.08708
1073.142	56.1375
1073.496	-23.05529
1073.85	35.08135
1074.203	-1.00245
1074.557	38.10118
1074.911	48.11453
1075.265	24.05604
1075.618	36.08807
1075.971	38.09053
1076.325	-1.00256
1076.678	-37.08603
1077.031	-3.00686
1077.385	21.04651
1077.738	5.01138
1078.091	-64.14878
1078.444	25.05829
1078.796	-9.02231
1079.149	26.0649
1079.502	8.01904
1079.855	-24.05674
1080.207	-19.04737
1080.56	-29.07592
1080.912	5.01227
1081.264	-16.03898
1081.617	-6.01477
1081.969	-7.01782
1082.321	-14.03457
1082.673	-35.08119
1083.025	0
1083.377	-200.45206
1083.728	59.1373
1084.08	-4.01008
1084.432	0
1084.783	-1.00236
1085.135	9.02271
1085.486	-30.06969
1085.838	38.09372
1086.189	-33.08128
1086.54	25.05994
1086.891	-25.06402
1087.242	-6.01475
1087.593	16.03917
1087.944	8.01825
1088.295	14.03203
1088.646	31.07534
1088.996	0
1089.347	-8.01982
1089.698	-56.13495
1090.048	-4.01048
1090.398	4.00935
1090.749	-6.0145
1091.099	-40.10212
1091.449	27.06748
1091.799	33.08281
1092.149	-54.13411
1092.499	2.00492
1092.849	9.02302
1093.199	6.01515
1093.548	7.01694
1093.898	-15.03794
1094.248	38.09776
1094.597	-33.08539
1094.947	6.01611
1095.296	10.02485
1095.645	52.13508
1095.994	-28.06819
1096.343	18.04552
1096.692	-25.06645
1097.041	-44.12083
1097.39	17.04286
1097.739	11.02876
1098.088	38.10192
1098.437	-32.08515
1098.785	-20.05449
1099.134	29.07721
1099.482	11.03041
1099.83	31.08165
1100.179	-42.11116
1100.527	34.0905
1100.875	4.01065
1101.223	27.0719
1101.571	13.0361
1101.919	-29.07672
1102.267	-10.02839
1102.615	-2.00643
1102.962	7.02255
1103.31	-3.00965
1103.658	13.04186
