Data from N2 R8 sample 7_Subt2__1__17-34-47-389.txt Node

Date: Fri Aug 29 17:34:47 PDT 2025
User: uwsun
Spectrometer: HDX01956
Trigger mode: 0
Integration Time (sec): 5.000000E-1
Scans to average: 1
Nonlinearity correction enabled: true
Boxcar width: 0
Storing dark spectrum: false
XAxis mode: Wavelengths
Number of Pixels in Spectrum: 2068
>>>>>Begin Spectral Data<<<<<
194.03	256.68991
194.578	267.81602
195.127	247.74511
195.676	271.81748
196.225	280.7077
196.773	318.82708
197.321	466.1509
197.87	619.35379
198.418	616.32821
198.966	562.23389
199.513	501.05519
200.061	529.12842
200.609	628.39804
201.156	519.93895
201.704	516.0966
202.251	556.2432
202.798	608.31598
203.345	622.27573
203.892	552.16712
204.438	616.21446
204.985	575.11782
205.532	589.29677
206.078	610.23756
206.624	565.15317
207.17	597.14137
207.716	584.17123
208.262	607.96291
208.808	576.16847
209.354	558.12828
209.899	640.34343
210.445	625.27237
210.99	550.10039
211.535	699.3245
212.08	664.25224
212.625	650.33924
213.17	656.36979
213.715	566.02429
214.259	656.24318
214.804	657.33518
215.348	597.12428
215.892	598.1872
216.436	642.21838
216.98	622.12529
217.524	598.16565
218.068	644.34114
218.612	588.24119
219.155	538.06042
219.698	530.06275
220.242	564.18785
220.785	547.07188
221.328	585.22269
221.871	586.25426
222.414	586.22776
222.956	524.06184
223.499	523.98969
224.041	592.1512
224.583	555.00255
225.126	539.99356
225.668	539.104
226.21	524.11846
226.751	492.90349
227.293	516.99817
227.835	510.05557
228.376	559.08356
228.918	606.28371
229.459	493.04422
230	532.06628
230.541	564.08519
231.082	588.18688
231.622	532.03137
232.163	544.10596
232.704	506.0641
233.244	508.06972
233.784	556.15095
234.324	495.90648
234.864	474.91208
235.404	505.01976
235.944	540.07735
236.484	560.17838
237.023	495.98986
237.563	501.97495
238.102	538.0654
238.641	560.1913
239.18	506.99241
239.719	593.24163
240.258	560.04387
240.797	586.15846
241.335	587.19706
241.874	539.84315
242.412	591.17301
242.95	514.02681
243.488	580.09086
244.026	628.17553
244.564	585.97769
245.102	524.97825
245.64	536.0862
246.177	557.03081
246.715	547.09918
247.252	584.10595
247.789	625.94044
248.326	534.06388
248.863	599.06347
249.4	626.15561
249.936	569.94989
250.473	649.22061
251.009	609.13119
251.546	607.08161
252.082	584.04134
252.618	596.07541
253.154	567.12215
253.69	586.07568
254.226	602.17458
254.761	578.05884
255.297	536.96304
255.832	539.05517
256.367	566.09689
256.903	557.99847
257.438	629.19976
257.972	603.08557
258.507	545.02013
259.042	564.99673
259.576	597.02426
260.111	563.06948
260.645	604.05265
261.179	601.13516
261.713	615.09646
262.247	630.17057
262.781	524.89274
263.315	555.11785
263.849	570.17261
264.382	648.19452
264.915	636.19112
265.449	610.19359
265.982	668.20869
266.515	603.19464
267.048	616.03182
267.58	650.13003
268.113	563.97864
268.646	647.28315
269.178	560.00825
269.71	705.19906
270.243	601.10632
270.775	646.32741
271.307	634.23302
271.838	693.31183
272.37	605.20643
272.902	636.15301
273.433	604.05043
273.965	648.26269
274.496	647.2981
275.027	643.27996
275.558	642.24387
276.089	587.15909
276.62	682.39267
277.15	662.30897
277.681	666.13287
278.211	634.25118
278.741	602.04584
279.272	615.11175
279.802	676.34419
280.332	613.14994
280.861	706.33095
281.391	622.11155
281.921	693.31567
282.45	687.36261
282.98	652.36624
283.509	697.21035
284.038	663.17858
284.567	685.25434
285.096	709.33629
285.625	646.14443
286.153	624.15134
286.682	693.22056
287.21	681.27714
287.739	697.27444
288.267	646.22658
288.795	729.50997
289.323	658.18935
289.851	717.2893
290.378	662.14548
290.906	695.29319
291.433	720.38927
291.961	621.08948
292.488	748.4289
293.015	707.26608
293.542	678.33315
294.069	712.34097
294.596	700.34287
295.122	685.25497
295.649	744.22442
296.175	750.38294
296.702	713.32609
297.228	776.42527
297.754	753.25406
298.28	767.28445
298.806	768.37803
299.332	793.26955
299.857	756.25665
300.383	767.47481
300.908	720.3063
301.433	727.32405
301.958	822.38922
302.483	781.44561
303.008	824.50602
303.533	822.60386
304.058	771.34696
304.582	771.32998
305.107	759.48321
305.631	783.30488
306.155	840.39287
306.679	747.27205
307.203	849.39661
307.727	834.41948
308.251	847.51195
308.775	778.32463
309.298	770.3279
309.822	840.53378
310.345	918.51009
310.868	886.48072
311.391	836.47729
311.914	867.53818
312.437	864.37459
312.96	883.43664
313.482	891.45538
314.005	930.61912
314.527	918.69087
315.049	950.66535
315.571	865.28428
316.093	916.55612
316.615	918.49671
317.137	938.32804
317.659	1045.67378
318.18	1036.64286
318.702	921.41932
319.223	1002.26942
319.744	983.4031
320.265	978.53897
320.786	960.5506
321.307	1058.68366
321.828	1032.45092
322.348	1046.53525
322.869	1077.55163
323.389	735.72522
323.909	1139.55747
324.43	1141.68942
324.95	1172.55278
325.47	1082.61755
325.989	1142.57224
326.509	1105.37457
327.029	1162.46194
327.548	1183.46236
328.067	1163.59675
328.587	1243.7672
329.106	1170.46599
329.625	1276.967
330.144	1267.54879
330.662	1186.48315
331.181	1238.54787
331.7	1250.54891
332.218	1357.41256
332.736	1394.62169
333.255	1358.56513
333.773	1304.56699
334.291	1423.8067
334.808	1343.41237
335.326	1455.49378
335.844	1443.51382
336.361	1438.73813
336.879	1450.5037
337.396	1426.57323
337.913	1496.46542
338.43	1496.39521
338.947	1499.53635
339.464	1534.24481
339.981	1522.49036
340.497	1590.65151
341.014	1549.5619
341.53	1558.32483
342.046	1596.56244
342.562	1621.63806
343.078	1683.44584
343.594	1695.48385
344.11	1705.45739
344.626	1743.62233
345.141	1682.28825
345.657	1818.3097
346.172	1792.44922
346.687	1701.26707
347.202	1751.18785
347.717	1852.37165
348.232	1806.50554
348.747	1878.2187
349.261	1893.99542
349.776	1869.25262
350.29	1928.34454
350.805	2013.41881
351.319	2013.18057
351.833	1949.04108
352.347	1949.16352
352.861	1958.10974
353.374	2077.09432
353.888	2031.21921
354.401	2083.02075
354.915	1977.8947
355.428	2141.21002
355.941	2140.96509
356.454	2220.88751
356.967	2151.02746
357.48	2167.92477
357.993	2160.12807
358.505	2211.04552
359.018	2278.02839
359.53	2354.90466
360.042	2269.69453
360.554	2381.92491
361.066	2212.94396
361.578	2317.56687
362.09	2270.84482
362.602	2289.55722
363.113	2333.67847
363.625	2387.53681
364.136	2430.45478
364.647	2291.53937
365.158	2546.50904
365.669	2483.62002
366.18	2524.53235
366.691	2586.28174
367.201	2515.52859
367.712	2522.3252
368.222	2624.26905
368.733	2604.06542
369.243	2678.04469
369.753	2818.10767
370.263	2843.16139
370.773	2708.30349
371.282	2755.08445
371.792	2756.82673
372.301	2999.85441
372.811	3031.07468
373.32	2882.45616
373.829	3008.57183
374.338	3241.25136
374.847	3384.16992
375.356	3355.18291
375.865	3527.79758
376.373	3591.81998
376.882	3843.92224
377.39	3873.76078
377.898	3800.68485
378.407	4154.5319
378.915	4302.54551
379.423	4366.55113
379.93	4667.71558
380.438	4565.70734
380.946	4996.20997
381.453	5164.58445
381.96	5195.03124
382.468	5657.77099
382.975	6019.72777
383.482	6400.0496
383.989	6374.35203
384.495	6454.47367
385.002	6863.19907
385.509	7197.10264
386.015	7776.41141
386.521	8099.85955
387.028	8499.89482
387.534	8739.84919
388.04	9214.59523
388.546	9096.49706
389.051	9346.4746
389.557	10327.43563
390.063	11783.08615
390.568	11712.03355
391.073	11962.83431
391.578	12461.08702
392.084	12658.6259
392.589	12630.13317
393.093	13663.28439
393.598	15025.14569
394.103	16573.72539
394.607	18118.92759
395.112	19633.97483
395.616	20579.30962
396.12	22371.51349
396.624	24578.65222
397.128	26840.13597
397.632	29970.97893
398.136	32402.56725
398.639	32544.63649
399.143	31561.6985
399.646	28685.50039
400.15	25083.82847
400.653	20124.16724
401.156	13866.23708
401.659	5169.95759
402.162	1054.15589
402.664	0
403.167	0
403.67	0
404.172	0
404.674	0
405.176	0
405.678	0
406.18	0
406.682	0
407.184	0
407.686	0
408.187	0
408.688	0
409.19	0
409.691	0
410.192	0
410.693	0
411.194	435.30976
411.694	4082.94878
412.195	8864.71461
412.696	12089.80453
413.196	12760.96929
413.696	12863.67595
414.196	13703.56671
414.696	17261.84252
415.196	21764.24417
415.696	29583.19008
416.196	36460.31858
416.695	40057.39798
417.195	39698.05576
417.694	37464.29027
418.194	36019.80268
418.693	32878.43094
419.192	31406.7989
419.691	31241.19639
420.19	30499.1637
420.688	29888.63055
421.187	28946.45791
421.685	27192.95774
422.184	25074.26513
422.682	21984.07694
423.18	18271.02843
423.678	16074.48746
424.176	14976.70612
424.674	14141.94007
425.172	13633.62725
425.669	12856.26005
426.167	12164.74512
426.664	10885.08465
427.161	9887.5654
427.659	9117.31402
428.156	8491.95342
428.652	7974.31621
429.149	7626.89707
429.646	7290.93493
430.143	7148.18181
430.639	6603.59151
431.135	6130.35514
431.632	5759.54397
432.128	5441.554
432.624	5043.91025
433.12	4680.84378
433.616	4526.71829
434.111	4272.55329
434.607	4234.5319
435.103	4368.55455
435.598	4168.52734
436.093	4019.65192
436.588	3721.76309
437.083	3544.91863
437.578	3506.04429
438.073	3215.35915
438.568	3201.53252
439.062	3059.30645
439.557	2899.74814
440.051	2765.72686
440.546	2638.83369
441.04	2561.06987
441.534	2646.27292
442.028	2598.19815
442.522	2470.26289
443.015	2504.03385
443.509	2481.41803
444.002	2451.43848
444.496	2332.20502
444.989	2260.57921
445.482	2158.6725
445.975	2201.36611
446.468	2186.2841
446.961	2097.33461
447.454	2122.50108
447.947	1962.64978
448.439	1939.80236
448.931	1851.58691
449.424	2029.946
449.916	1929.84969
450.408	1825.65008
450.9	1837.85785
451.392	1749.00671
451.884	1761.80087
452.375	1676.97558
452.867	1722.82444
453.358	1613.78518
453.849	1679.66476
454.341	1630.81586
454.832	1628.72093
455.323	1569.02492
455.814	1653.92277
456.304	1604.94137
456.795	1493.92862
457.285	1511.92227
457.776	1583.01181
458.266	1484.0478
458.756	1454.11531
459.247	1380.04885
459.737	1260.02677
460.226	1306.93778
460.716	1295.0857
461.206	1289.12112
461.695	1265.23886
462.185	1230.09106
462.674	1280.08051
463.163	1213.98734
463.653	1192.88705
464.142	1112.11477
464.63	1204.22976
465.119	1133.06508
465.608	1103.05647
466.096	1078.97618
466.585	1147.13845
467.073	1150.22605
467.561	1141.23712
468.05	1019.10412
468.538	1055.24855
469.026	1038.1893
469.513	993.93781
470.001	935.02572
470.489	960.12225
470.976	937.08421
471.463	960.258
471.951	903.23117
472.438	838.05223
472.925	714.93
473.412	893.22142
473.899	825.04557
474.385	814.14946
474.872	806.05221
475.359	793.12286
475.845	676.79272
476.331	718.91117
476.817	735.08989
477.303	663.9416
477.789	672.00675
478.275	647.01575
478.761	695.0498
479.247	609.8653
479.732	569.92957
480.218	600.04346
480.703	628.025
481.188	548.75812
481.673	559.84352
482.158	448.62642
482.643	563.99263
483.128	529.80587
483.612	563.88842
484.097	543.92638
484.581	469.76737
485.066	489.83555
485.55	455.69015
486.034	431.65098
486.518	420.70275
487.002	417.73666
487.486	415.73772
487.969	368.66349
488.453	387.73229
488.936	399.65424
489.42	352.57731
489.903	384.73355
490.386	408.4616
490.869	350.57146
491.352	398.74261
491.835	375.57451
492.318	323.55271
492.8	330.51259
493.283	332.65359
493.765	295.56612
494.247	366.66056
494.73	303.51709
495.212	361.68142
495.694	278.50737
496.175	206.38721
496.657	317.59102
497.139	306.40698
497.62	148.28395
498.102	253.50217
498.583	236.47992
499.064	246.43351
499.545	200.36926
500.026	207.37328
500.507	218.40976
500.988	235.47582
501.469	165.34051
501.949	254.51182
502.43	153.29843
502.91	170.2847
503.39	216.44726
503.87	145.28175
504.35	188.36819
504.83	136.24631
505.31	156.3142
505.79	173.34194
506.269	177.34393
506.749	103.19718
507.228	103.2032
507.707	145.26711
508.187	171.34274
508.666	121.25016
509.145	132.25827
509.623	117.2318
510.102	113.23257
510.581	201.4066
511.059	136.28754
511.538	108.24003
512.016	151.30462
512.494	131.27083
512.972	114.23172
513.45	81.1589
513.928	76.15808
514.406	66.13538
514.884	123.27024
515.361	121.24679
515.839	92.17898
516.316	113.23226
516.793	105.22963
517.27	182.3745
517.747	91.20153
518.224	103.20502
518.701	107.20404
519.178	84.17915
519.654	128.2622
520.131	78.16737
520.607	85.18369
521.083	86.16954
521.56	108.21973
522.036	91.17269
522.512	77.16626
522.987	31.06421
523.463	59.12236
523.939	100.21337
524.414	106.21241
524.89	124.25389
525.365	74.14575
525.84	17.03538
526.315	50.10553
526.79	68.13387
527.265	90.17835
527.74	29.06237
528.215	100.20484
528.689	76.14644
529.164	88.16655
529.638	80.18098
530.112	32.06641
530.587	2.00377
531.061	85.17857
531.534	86.1831
532.008	35.07428
532.482	71.14336
532.956	-1.00227
533.429	56.11985
533.903	55.10748
534.376	30.05875
534.849	47.09643
535.322	78.16188
535.795	35.07609
536.268	38.08098
536.741	73.15485
537.213	70.14281
537.686	28.06052
538.158	74.14486
538.631	84.18056
539.103	-3.00599
539.575	51.09418
540.047	48.09347
540.519	67.142
540.991	73.1585
541.463	49.10548
541.934	36.07324
542.406	19.04036
542.877	44.08809
543.348	76.16251
543.82	109.23535
544.291	108.22173
544.762	64.13377
545.233	78.1722
545.703	58.11284
546.174	60.12324
546.645	31.06524
547.115	79.16692
547.585	102.20468
548.056	82.1717
548.526	109.2211
548.996	152.31474
549.466	175.36748
549.935	91.18577
550.405	149.27696
550.875	201.40082
551.344	129.26598
551.814	170.33152
552.283	180.33133
552.752	159.31205
553.221	150.27361
553.69	261.47622
554.159	199.40828
554.628	190.35273
555.096	172.36811
555.565	217.40236
556.033	203.40462
556.502	144.30018
556.97	104.2003
557.438	92.19119
557.906	96.20083
558.374	69.14041
558.842	55.11707
559.31	25.05036
559.777	9.01956
560.245	99.20716
560.712	21.04406
561.18	54.10676
561.647	-30.06137
562.114	-23.04781
562.581	25.0559
563.048	30.06284
563.514	6.01336
563.981	-14.02942
564.448	-5.01027
564.914	11.02343
565.381	52.10743
565.847	21.04493
566.313	49.10358
566.779	80.16261
567.245	37.07876
567.711	11.02408
568.176	-26.05369
568.642	-27.06216
569.108	-16.03608
569.573	19.04101
570.038	30.05761
570.504	9.01838
570.969	22.05023
571.434	-25.05029
571.899	45.09691
572.363	42.0867
572.828	88.18132
573.293	27.05632
573.757	29.06052
574.222	23.04648
574.686	-12.02453
575.15	-30.06534
575.614	-10.02097
576.078	13.02771
576.542	48.09886
577.006	90.18144
577.469	90.20044
577.933	24.04861
578.396	14.03035
578.86	61.12973
579.323	-34.07434
579.786	21.04129
580.249	-57.11991
580.712	14.03123
581.175	-82.18777
581.637	25.05271
582.1	68.13544
582.563	90.17476
583.025	8.01769
583.487	-21.03913
583.95	-40.07934
584.412	21.04047
584.874	33.07284
585.336	-20.04362
585.797	9.01786
586.259	48.10326
586.721	19.04071
587.182	119.25088
587.643	25.05206
588.105	44.0949
588.566	54.10385
589.027	26.05699
589.488	0
589.949	64.14082
590.41	4.00716
590.87	46.09619
591.331	-2.004
591.791	-21.04474
592.252	-11.02312
592.712	50.10951
593.172	18.03719
593.632	60.12023
594.092	31.06337
594.552	51.10023
595.011	24.0503
595.471	6.01237
595.931	23.04704
596.39	13.0285
596.849	63.13323
597.308	55.10917
597.768	29.06722
598.227	115.24916
598.685	85.17755
599.144	-1.00215
599.603	69.14847
600.062	18.03467
600.52	13.02659
600.978	24.05216
601.437	20.04212
601.895	17.03314
602.353	61.12345
602.811	72.14502
603.269	66.14333
603.727	57.12397
604.184	6.0124
604.642	22.04926
605.099	85.17818
605.557	27.0602
606.014	18.03547
606.471	26.05889
606.928	-5.00981
607.385	83.18036
607.842	199.39924
608.299	214.43757
608.755	165.35168
609.212	125.24741
609.668	124.24342
610.125	255.53617
610.581	271.56379
611.037	179.36575
611.493	119.25463
611.949	58.12714
612.405	49.09008
612.861	130.2775
613.316	66.14382
613.772	117.24341
614.227	70.15085
614.683	112.21914
615.138	57.12233
615.593	61.13013
616.048	120.25037
616.503	78.17624
616.958	81.18559
617.412	75.16305
617.867	37.07571
618.321	82.15717
618.776	100.20373
619.23	67.14547
619.684	80.16773
620.138	111.23813
620.592	33.07491
621.046	127.27469
621.5	55.1246
621.954	70.1478
622.407	92.19119
622.861	66.14973
623.314	109.23111
623.768	53.1161
624.221	69.12845
624.674	108.23194
625.127	63.13888
625.58	65.14059
626.033	53.11164
626.485	74.16658
626.938	113.25213
627.39	67.14776
627.843	35.07745
628.295	72.15816
628.747	80.18031
629.199	41.0894
629.651	9.01975
630.103	18.03979
630.555	1.00207
631.006	22.04989
631.458	24.05471
631.909	146.31841
632.361	38.08582
632.812	13.02921
633.263	30.06315
633.714	32.06706
634.165	48.11282
634.616	-3.00699
635.067	43.09344
635.518	24.05601
635.968	16.03187
636.419	-7.0151
636.869	19.04439
637.319	34.07701
637.769	9.01987
638.219	47.11006
638.669	9.02114
639.119	52.12413
639.569	30.07109
640.019	61.13842
640.468	19.04208
640.918	49.11605
641.367	-7.01567
641.816	-4.00893
642.265	28.06412
642.714	-8.01847
643.163	21.04794
643.612	-30.07178
644.061	16.03375
644.51	-12.02733
644.958	-18.03972
645.406	-3.00715
645.855	28.06799
646.303	35.08129
646.751	-11.02506
647.199	31.07014
647.647	-1.0023
648.095	-7.01608
648.543	33.06792
648.99	23.05462
649.438	33.07731
649.885	37.09083
650.333	57.11071
650.78	40.09585
651.227	61.14664
651.674	48.10881
652.121	39.09429
652.568	26.06287
653.015	94.23387
653.461	12.02855
653.908	85.19585
654.354	47.11178
654.801	13.03054
655.247	40.08813
655.693	26.06745
656.139	53.12644
656.585	74.17603
657.031	-27.0636
657.477	3.00655
657.922	55.12627
658.368	38.09368
658.813	72.16712
659.259	63.15041
659.704	15.03517
660.149	44.10265
660.594	40.09512
661.039	54.1232
661.484	79.18811
661.929	18.04247
662.373	41.10325
662.818	39.09684
663.262	27.0653
663.707	38.09636
664.151	91.221
664.595	17.04132
665.039	37.09244
665.483	43.10957
665.927	68.16052
666.371	1.00234
666.814	64.1533
667.258	3.00718
667.701	69.15045
668.145	102.25258
668.588	52.12815
669.031	29.06879
669.474	42.1019
669.917	78.174
670.36	79.1958
670.803	56.13608
671.245	6.01297
671.688	72.17626
672.13	16.0365
672.573	101.25571
673.015	45.10908
673.457	75.16485
673.899	65.15845
674.341	80.19366
674.783	38.09206
675.225	104.25508
675.666	17.04141
676.108	24.0533
676.549	76.18128
676.991	55.12308
677.432	36.07348
677.873	36.08465
678.314	61.14697
678.755	72.17613
679.196	32.07454
679.637	110.26879
680.078	90.21203
680.518	119.2779
680.959	82.19753
681.399	88.21871
681.839	98.23902
682.28	90.22245
682.72	59.13675
683.16	92.2294
683.6	111.25442
684.039	150.31255
684.479	80.19723
684.919	23.05397
685.358	95.24146
685.798	106.27697
686.237	157.37712
686.676	151.34944
687.115	123.28916
687.554	110.26177
687.993	141.31201
688.432	73.1688
688.871	86.19685
689.309	127.30286
689.748	103.21801
690.186	146.34757
690.625	101.23781
691.063	139.33211
691.501	132.3253
691.939	115.28638
692.377	126.30674
692.815	164.38877
693.253	173.41239
693.69	181.39466
694.128	107.25956
694.565	196.46121
695.003	175.43879
695.44	172.40064
695.877	153.35533
696.314	164.35205
696.751	176.39895
697.188	181.4117
697.625	223.50414
698.061	187.44303
698.498	185.44286
698.934	206.48851
699.371	161.37627
699.807	189.44188
700.243	214.50591
700.679	235.52217
701.115	217.50315
701.551	229.52929
701.987	217.48097
702.422	205.47928
702.858	232.54144
703.294	228.50756
703.729	284.67397
704.164	263.61631
704.599	284.6141
705.035	212.46705
705.47	227.54069
705.904	300.67529
706.339	322.72243
706.774	260.59341
707.209	312.69338
707.643	309.71616
708.078	310.728
708.512	239.58343
708.946	332.76503
709.38	300.68744
709.814	341.7479
710.248	320.75118
710.682	326.74521
711.116	347.79081
711.549	343.84875
711.983	342.7572
712.416	397.89048
712.85	415.9781
713.283	391.87811
713.716	457.07573
714.149	436.97854
714.582	392.83455
715.015	450.05697
715.448	498.16627
715.881	480.97743
716.313	435.95804
716.746	479.04764
717.178	429.97093
717.61	519.21812
718.043	549.258
718.475	544.21133
718.907	570.32366
719.339	491.0291
719.77	472.04035
720.202	618.41771
720.634	578.2813
721.065	581.25345
721.497	615.3654
721.928	610.35681
722.359	580.27186
722.79	584.27096
723.221	683.53972
723.652	723.66239
724.083	707.40495
724.514	717.45199
724.945	739.52593
725.375	712.45599
725.806	810.76332
726.236	844.87767
726.666	833.69872
727.096	860.81525
727.526	847.86219
727.956	871.67913
728.386	951.97548
728.816	925.99122
729.246	934.91478
729.675	940.95305
730.105	1008.065
730.534	1068.03209
730.964	1054.20682
731.393	1129.27854
731.822	1191.44754
732.251	1089.27068
732.68	1200.23335
733.109	1201.35577
733.537	1255.36992
733.966	1249.44553
734.395	1302.30013
734.823	1358.29948
735.251	1403.54778
735.68	1469.76453
736.108	1415.72982
736.536	1475.56237
736.964	1475.50618
737.392	1615.92567
737.82	1601.75358
738.247	1651.79541
738.675	1779.90515
739.102	1677.98077
739.53	1711.09318
739.957	1746.17498
740.384	1937.17044
740.811	1976.32425
741.238	1950.12498
741.665	2008.93721
742.092	2066.11043
742.519	2045.2548
742.945	2136.17278
743.372	2195.35781
743.798	2302.62309
744.225	2303.20893
744.651	2387.53269
745.077	2448.52432
745.503	2503.42568
745.929	2576.35235
746.355	2696.60042
746.781	2703.57231
747.207	2749.25081
747.632	2727.46955
748.058	2852.64332
748.483	2911.16219
748.908	2993.62897
749.334	3036.55616
749.759	3053.2959
750.184	3166.34751
750.609	3274.55005
751.033	3375.27968
751.458	3376.94694
751.883	3478.57741
752.307	3518.20562
752.732	3526.61143
753.156	3631.51129
753.58	3706.21626
754.005	3828.66689
754.429	3818.09518
754.853	4023.39723
755.277	4056.04635
755.7	4136.36406
756.124	4188.33786
756.548	4259.9552
756.971	4385.12324
757.394	4456.52489
757.818	4524.47841
758.241	4565.33585
758.664	4640.25585
759.087	4599.34524
759.51	4781.06108
759.933	4845.74948
760.356	4981.19971
760.778	4947.86543
761.201	5112.69214
761.623	5065.70051
762.046	5152.48233
762.468	5205.54566
762.89	5323.68986
763.312	5373.57352
763.734	5400.44402
764.156	5430.62775
764.578	5489.07141
765	5680.40232
765.421	5513.80531
765.843	5568.06739
766.264	5624.35901
766.686	5650.65145
767.107	5653.35922
767.528	5658.67503
767.949	5733.70739
768.37	5681.4438
768.791	5742.30633
769.212	5681.62
769.632	5725.02742
770.053	5804.97592
770.473	5854.28875
770.894	5774.56067
771.314	5717.2244
771.734	5715.03777
772.154	5808.75006
772.575	5817.95714
772.994	5835.8052
773.414	5785.22707
773.834	5792.53048
774.254	5746.38453
774.673	5620.4118
775.093	5564.55876
775.512	5668.46845
775.931	5736.67183
776.351	5598.5683
776.77	5539.47194
777.189	5520.27627
777.607	5424.89824
778.026	5397.7012
778.445	5403.72879
778.864	5448.92593
779.282	5323.46506
779.701	5343.8305
780.119	5199.92728
780.537	5192.82525
780.955	5159.01655
781.373	5007.85909
781.791	4893.20151
782.209	5042.30212
782.627	4933.45056
783.045	4951.33317
783.462	4852.21823
783.88	4786.36205
784.297	4658.19037
784.715	4639.37182
785.132	4538.94363
785.549	4479.23567
785.966	4457.29279
786.383	4394.1427
786.8	4376.72049
787.217	4244.93351
787.633	4162.36445
788.05	4130.01231
788.466	4099.97164
788.883	3978.61511
789.299	4029.15037
789.715	3886.27785
790.131	3869.45627
790.547	3752.52975
790.963	3740.48521
791.379	3664.64569
791.795	3605.94044
792.21	3548.11669
792.626	3455.24059
793.041	3393.52548
793.457	3413.53274
793.872	3279.21484
794.287	3222.31573
794.702	3167.54087
795.117	3085.59413
795.532	3052.65155
795.947	3065.3918
796.362	2899.34227
796.776	2941.22861
797.191	2772.47513
797.605	2684.21063
798.02	2706.42665
798.434	2692.93166
798.848	2487.43508
799.262	2477.47202
799.676	2521.39718
800.09	2410.40121
800.504	2380.31435
800.918	2236.01713
801.331	2233.66569
801.745	2134.93156
802.158	2135.33975
802.572	2071.15191
802.985	1974.07092
803.398	1946.98941
803.811	1933.33007
804.224	1891.14
804.637	1837.90228
805.05	1825.78229
805.462	1764.97317
805.875	1632.05999
806.288	1633.77208
806.7	1618.92012
807.112	1580.57811
807.525	1561.78771
807.937	1425.63597
808.349	1480.75088
808.761	1437.63465
809.173	1345.47276
809.584	1299.47821
809.996	1239.36686
810.408	1258.55828
810.819	1255.26889
811.231	1218.50253
811.642	1222.26435
812.053	1251.2948
812.464	1294.34853
812.875	1200.4424
813.286	1176.42801
813.697	1083.02939
814.108	1024.0517
814.519	975.76965
814.929	908.96672
815.34	925.8797
815.75	862.87578
816.16	876.85872
816.571	823.8532
816.981	787.59901
817.391	798.65929
817.801	789.69762
818.211	726.51145
818.62	719.5151
819.03	711.5323
819.44	727.67957
819.849	733.6229
820.259	663.51587
820.668	592.31237
821.077	576.29486
821.486	612.3207
821.895	622.37838
822.304	586.41317
822.713	524.12813
823.122	536.22155
823.531	481.04804
823.939	538.1935
824.348	486.08735
824.756	456.05984
825.164	459.07165
825.573	480.1122
825.981	444.02337
826.389	436.02044
826.797	416.97608
827.205	400.8575
827.612	412.95235
828.02	335.74588
828.428	379.91163
828.835	319.80322
829.243	369.82905
829.65	325.76991
830.057	307.7118
830.464	294.68612
830.871	335.76162
831.278	319.73464
831.685	304.64609
832.092	304.71168
832.499	306.63645
832.905	311.75293
833.312	261.5727
833.718	299.71352
834.124	292.63761
834.531	244.59552
834.937	219.54693
835.343	265.61565
835.749	222.50321
836.155	200.51146
836.561	218.52115
836.966	225.53407
837.372	211.52313
837.777	175.42721
838.183	205.44319
838.588	184.44692
838.993	182.4336
839.399	154.37027
839.804	98.23733
840.209	166.4148
840.613	183.3975
841.018	165.41029
841.423	200.50066
841.828	149.37105
842.232	162.39423
842.637	142.33011
843.041	121.30689
843.445	138.34147
843.849	119.29159
844.253	179.4162
844.657	102.25498
845.061	120.26936
845.465	109.26103
845.869	125.28709
846.272	140.33597
846.676	112.26847
847.079	102.25746
847.483	96.23807
847.886	144.34518
848.289	76.20223
848.692	120.30073
849.095	70.16792
849.498	150.37428
849.901	78.17846
850.304	77.18356
850.707	98.24825
851.109	133.33229
851.512	98.2392
851.914	20.05075
852.316	117.29295
852.718	42.10873
853.121	103.25042
853.523	82.19093
853.925	32.08384
854.326	70.17467
854.728	62.15934
855.13	57.14703
855.531	24.05775
855.933	84.20082
856.334	42.10503
856.736	56.1256
857.137	33.07716
857.538	26.06575
857.939	47.11636
858.34	74.17988
858.741	65.1697
859.142	51.12274
859.542	38.10058
859.943	49.12198
860.343	-11.02758
860.744	52.12707
861.144	73.17762
861.544	-9.02191
861.945	40.10226
862.345	89.21647
862.745	48.11951
863.145	64.15289
863.544	59.14906
863.944	28.06656
864.344	64.15883
864.743	77.19043
865.143	73.18699
865.542	15.0351
865.941	41.10181
866.34	89.212
866.74	103.2743
867.139	15.03621
867.537	74.18799
867.936	15.0364
868.335	75.19023
868.734	44.11269
869.132	26.0608
869.531	38.09227
869.929	5.01152
870.327	53.12717
870.726	81.20113
871.124	34.07985
871.522	48.12246
871.92	41.10143
872.318	23.05659
872.715	56.13867
873.113	61.14853
873.511	45.11235
873.908	-12.03066
874.306	22.05506
874.703	37.09291
875.1	61.15592
875.497	14.03384
875.894	-35.08719
876.291	14.03463
876.688	25.06482
877.085	8.01937
877.482	29.07295
877.878	-19.04639
878.275	28.07148
878.671	92.20345
879.068	67.16143
879.464	20.04867
879.86	0
880.256	60.14798
880.652	17.04353
881.048	37.09201
881.444	55.13096
881.84	54.13728
882.236	38.09585
882.631	19.04695
883.027	65.15715
883.422	11.02834
883.817	-18.04582
884.213	42.10802
884.608	-24.05971
885.003	1.00244
885.398	15.03782
885.793	0
886.188	-11.02767
886.582	47.12073
886.977	13.03111
887.371	42.10647
887.766	-25.06307
888.16	37.09264
888.554	93.22839
888.949	0
889.343	34.08339
889.737	18.04825
890.131	11.02781
890.525	26.06682
890.918	27.06829
891.312	28.06735
891.706	39.10258
892.099	23.05885
892.492	15.03265
892.886	13.03206
893.279	3.00771
893.672	4.01027
894.065	32.08046
894.458	21.05313
894.851	23.05669
895.244	17.0437
895.637	9.02187
896.029	40.09807
896.422	9.02218
896.814	5.01254
897.206	10.02402
897.599	18.04482
897.991	20.04867
898.383	-7.01674
898.775	21.04773
899.167	-27.06397
899.559	39.09899
899.951	20.04747
900.342	34.08677
900.734	-20.05029
901.125	52.13648
901.517	7.01733
901.908	21.05067
902.299	31.0761
902.69	-3.00716
903.082	41.09953
903.473	-8.01938
903.863	27.06921
904.254	1.00235
904.645	70.17359
905.036	-3.00734
905.426	73.16652
905.817	9.02227
906.207	-31.07506
906.597	-10.02368
906.987	51.13224
907.378	20.05088
907.768	11.02928
908.158	26.06372
908.547	-21.05494
908.937	27.0696
909.327	42.10221
909.717	63.15968
910.106	5.01212
910.495	36.09016
910.885	26.06617
911.274	13.03273
911.663	47.11942
912.052	35.08665
912.441	-1.00257
912.83	-9.02092
913.219	65.16975
913.608	4.00989
913.997	4.01011
914.385	11.02649
914.774	66.16032
915.162	-20.04833
915.55	24.05838
915.939	13.03304
916.327	15.03769
916.715	-24.06198
917.103	54.13289
917.491	54.13357
917.878	28.06916
918.266	18.04695
918.654	25.06417
919.041	-25.06611
919.429	21.04987
919.816	41.10414
920.203	23.05609
920.591	21.05237
920.978	13.03207
921.365	36.09471
921.752	10.02404
922.139	7.01535
922.525	-35.08545
922.912	-1.00246
923.299	28.06989
923.685	23.06029
924.072	26.06028
924.458	6.01499
924.844	-27.06778
925.231	-16.03774
925.617	3.0077
926.003	42.10753
926.389	-16.04085
926.774	43.10914
927.16	45.1119
927.546	-16.04132
927.931	54.1347
928.317	9.02091
928.702	27.06419
929.088	-1.00239
929.473	30.07662
929.858	-14.03426
930.243	28.0675
930.628	-5.01229
931.013	-25.06282
931.398	44.10136
931.783	73.19149
932.167	-22.05452
932.552	29.07295
932.937	75.18535
933.321	-9.02283
933.705	15.03806
934.09	55.1389
934.474	15.03588
934.858	16.04175
935.242	-9.02111
935.626	6.01548
936.009	-4.01074
936.393	0
936.777	2.00517
937.16	18.0471
937.544	18.04269
937.927	30.0764
938.311	27.06621
938.694	30.07961
939.077	2.00483
939.46	33.08131
939.843	3.00633
940.226	20.05158
940.609	-8.01858
940.991	9.02308
941.374	-22.0545
941.757	24.05952
942.139	-48.11
942.522	23.05466
942.904	26.0628
943.286	30.07651
943.668	-9.02355
944.05	29.07172
944.432	-15.03746
944.814	47.11585
945.196	-18.04443
945.578	-36.08699
945.959	16.03775
946.341	79.19293
946.722	28.06602
947.104	15.0361
947.485	3.00705
947.866	-5.01272
948.247	0
948.628	42.10263
949.009	7.01806
949.39	2.00502
949.771	13.03047
950.152	10.02473
950.532	-56.14044
950.913	12.02916
951.293	6.01632
951.674	26.06318
952.054	-6.01502
952.434	10.02501
952.814	34.08116
953.194	35.09184
953.574	25.06187
953.954	4.00958
954.334	7.01758
954.714	-54.13416
955.093	59.14484
955.473	-1.00252
955.853	8.02086
956.232	19.05233
956.611	52.1247
956.99	0
957.37	17.04358
957.749	22.05278
958.128	22.05571
958.506	0
958.885	27.06843
959.264	-9.0223
959.643	-13.02997
960.021	40.0993
960.4	11.02513
960.778	19.04708
961.156	8.02021
961.535	26.0609
961.913	6.01416
962.291	0
962.669	-22.05644
963.047	26.06663
963.424	24.06153
963.802	67.16424
964.18	49.12402
964.557	21.04866
964.935	41.09733
965.312	1.00263
965.69	51.1277
966.067	2.00491
966.444	46.11345
966.821	72.18491
967.198	26.06337
967.575	18.04452
967.952	29.06863
968.329	21.05138
968.705	-4.00868
969.082	47.1206
969.458	-46.11236
969.835	50.12172
970.211	23.05931
970.587	15.03759
970.963	53.1359
971.339	18.04726
971.715	27.0677
972.091	-1.00249
972.467	54.1346
972.843	-14.03515
973.219	92.21919
973.594	4.01054
973.97	45.10723
974.345	15.03614
974.721	46.11148
975.096	30.07287
975.471	-15.03603
975.846	38.09151
976.221	-4.01026
976.596	-24.05834
976.971	35.08665
977.346	55.12794
977.72	17.04356
978.095	14.03641
978.469	7.01685
978.844	27.06817
979.218	-8.01939
979.593	42.10079
979.967	19.04656
980.341	-13.03031
980.715	29.07335
981.089	38.09534
981.463	5.01158
981.837	-29.0719
982.21	20.04683
982.584	-10.02443
982.957	-5.01261
983.331	15.0357
983.704	-14.03481
984.078	-19.04742
984.451	56.13974
984.824	-35.08659
985.197	14.03424
985.57	12.0303
985.943	26.0645
986.316	52.12773
986.688	52.12536
987.061	14.03305
987.434	28.07324
987.806	17.04149
988.179	-28.06707
988.551	30.07637
988.923	23.05692
989.295	8.02014
989.667	-58.14141
990.039	-17.04252
990.411	-8.01863
990.783	36.08313
991.155	-32.07808
991.527	80.19592
991.898	8.02009
992.27	-30.07529
992.641	17.0429
993.012	38.08963
993.384	-5.01205
993.755	24.06147
994.126	-3.00729
994.497	-27.06721
994.868	15.0347
995.239	0
995.61	19.04807
995.98	-14.03441
996.351	-15.03759
996.722	6.01404
997.092	-2.00478
997.462	-49.11667
997.833	14.03342
998.203	62.14998
998.573	34.0849
998.943	-5.01185
999.313	-29.07053
999.683	-9.02184
1000.053	9.02088
1000.423	19.04644
1000.792	7.01828
1001.162	8.01984
1001.531	25.06192
1001.901	-1.00252
1002.27	-26.05903
1002.639	5.01287
1003.009	-4.00961
1003.378	17.04371
1003.747	2.00477
1004.116	-37.08999
1004.485	-26.06304
1004.853	40.10151
1005.222	2.00509
1005.591	26.06202
1005.959	-30.06869
1006.328	-55.12642
1006.696	-21.05132
1007.064	27.06819
1007.433	40.10014
1007.801	44.10812
1008.169	22.05583
1008.537	12.02678
1008.905	-17.04012
1009.273	36.08915
1009.64	-27.06535
1010.008	16.03838
1010.375	47.11419
1010.743	42.09714
1011.11	8.01908
1011.478	13.03239
1011.845	32.07551
1012.212	-9.02061
1012.579	11.02719
1012.946	42.1001
1013.313	37.08827
1013.68	34.07666
1014.047	-20.04829
1014.414	26.06168
1014.78	2.00501
1015.147	44.10652
1015.513	3.00729
1015.88	59.1506
1016.246	29.07185
1016.612	41.09401
1016.978	35.08599
1017.344	-27.06765
1017.71	58.1412
1018.076	-10.02385
1018.442	55.14133
1018.808	30.07524
1019.174	-35.08912
1019.539	66.15143
1019.905	27.06394
1020.27	-8.01995
1020.636	36.08653
1021.001	-3.00725
1021.366	-24.05843
1021.731	15.0388
1022.096	-35.08959
1022.461	11.02622
1022.826	18.04303
1023.191	6.01585
1023.556	27.06355
1023.92	50.12291
1024.285	33.08077
1024.649	17.0419
1025.014	42.10416
1025.378	-1.00254
1025.742	29.07227
1026.107	13.02962
1026.471	43.1005
1026.835	15.03741
1027.199	-10.02434
1027.562	-3.00704
1027.926	35.0858
1028.29	34.08625
1028.654	20.04627
1029.017	1.00248
1029.381	-32.07761
1029.744	22.05636
1030.107	43.10184
1030.471	15.03614
1030.834	34.07757
1031.197	31.07492
1031.56	-21.05021
1031.923	-27.07071
1032.286	23.05428
1032.648	48.1148
1033.011	-25.05822
1033.374	14.03312
1033.736	6.01589
1034.099	60.14591
1034.461	-15.03832
1034.823	-36.091
1035.185	0
1035.548	-10.0246
1035.91	-3.00726
1036.272	-7.01611
1036.634	58.14162
1036.995	2.00474
1037.357	-5.01228
1037.719	-11.02704
1038.08	9.02153
1038.442	1.00239
1038.803	7.01694
1039.165	7.01779
1039.526	26.06308
1039.887	-11.02661
1040.248	-16.03988
1040.609	32.0793
1040.97	22.05402
1041.331	-13.03326
1041.692	-18.04256
1042.053	15.03438
1042.413	9.02113
1042.774	31.07562
1043.134	50.11899
1043.495	7.01772
1043.855	52.12602
1044.215	37.09201
1044.576	-28.06791
1044.936	1.00231
1045.296	48.11977
1045.656	22.05424
1046.016	17.04127
1046.375	6.01467
1046.735	-44.1016
1047.095	20.04706
1047.454	59.12471
1047.814	24.05795
1048.173	55.13121
1048.533	-11.0255
1048.892	-41.10006
1049.251	31.07804
1049.61	-9.02239
1049.969	23.05447
1050.328	-22.04841
1050.687	14.03427
1051.046	-10.02461
1051.405	12.03004
1051.763	18.04163
1052.122	15.03763
1052.48	-10.02478
1052.839	-4.0095
1053.197	19.04496
1053.555	3.0069
1053.914	32.07849
1054.272	49.11842
1054.63	23.05648
1054.988	-16.03847
1055.345	22.04763
1055.703	35.08443
1056.061	-2.00519
1056.419	2.00522
1056.776	24.05845
1057.134	-15.03515
1057.491	41.10277
1057.848	53.13179
1058.206	-18.04287
1058.563	19.04213
1058.92	60.13794
1059.277	14.03474
1059.634	23.05437
1059.991	55.13156
1060.348	-41.09432
1060.704	-20.04827
1061.061	52.1207
1061.418	-19.04664
1061.774	-7.01745
1062.131	-18.0481
1062.487	-25.05928
1062.843	37.09241
1063.199	24.05993
1063.555	-2.00468
1063.911	37.09361
1064.267	50.10423
1064.623	-28.06895
1064.979	42.0996
1065.335	42.10049
1065.691	2.00483
1066.046	21.04643
1066.402	-15.03451
1066.757	31.07846
1067.112	-2.00495
1067.468	-28.06707
1067.823	-6.01457
1068.178	52.12565
1068.533	1.00244
1068.888	10.02406
1069.243	12.0298
1069.598	9.02202
1069.952	-17.03878
1070.307	11.0274
1070.662	3.00718
1071.016	-44.10043
1071.371	-9.0207
1071.725	61.14553
1072.079	-4.00971
1072.434	4.0098
1072.788	8.01919
1073.142	31.07647
1073.496	1.00239
1073.85	1.00234
1074.203	4.00978
1074.557	31.08264
1074.911	46.1098
1075.265	7.0164
1075.618	21.05152
1075.971	40.09526
1076.325	-4.01026
1076.678	-22.051
1077.031	-20.04587
1077.385	8.01777
1077.738	8.0182
1078.091	-29.06695
1078.444	1.00234
1078.796	20.04931
1079.149	3.00752
1079.502	11.02616
1079.855	12.02817
1080.207	31.07658
1080.56	32.0829
1080.912	19.04649
1081.264	17.04116
1081.617	13.03188
1081.969	33.08343
1082.321	45.1099
1082.673	-40.09288
1083.025	23.05481
1083.377	-228.51828
1083.728	4.00941
1084.08	-16.04039
1084.432	8.01943
1084.783	33.07752
1085.135	-9.02278
1085.486	-2.00462
1085.838	10.02479
1086.189	5.01223
1086.54	38.09088
1086.891	-45.11563
1087.242	5.01227
1087.593	1.00245
1087.944	-10.02289
1088.295	18.04115
1088.646	-5.01223
1088.996	-40.09793
1089.347	14.03455
1089.698	-46.11064
1090.048	8.02091
1090.398	-1.00234
1090.749	41.09819
1091.099	32.08066
1091.449	0
1091.799	-8.02022
1092.149	-54.13411
1092.499	23.05634
1092.849	43.10933
1093.199	37.09288
1093.548	7.01694
1093.898	-8.02021
1094.248	22.05676
1094.597	-36.0932
1094.947	-6.01614
1095.296	-9.02245
1095.645	15.03921
1095.994	1.00242
1096.343	31.07821
1096.692	-54.14421
1097.041	-6.01638
1097.39	21.0529
1097.739	25.0652
1098.088	66.1762
1098.437	-10.02651
1098.785	55.14802
1099.134	32.08515
1099.482	21.05797
1099.83	26.06854
1100.179	-8.02105
1100.527	9.02406
1100.875	-9.02401
1101.223	16.04269
1101.571	2.00556
1101.919	-13.0343
1102.267	16.04524
1102.615	0
1102.962	18.0579
1103.31	0
1103.658	11.03543
