Data from N2 R8 sample 6_Subt2__4__17-45-30-889.txt Node

Date: Fri Aug 29 17:45:30 PDT 2025
User: uwsun
Spectrometer: HDX01956
Trigger mode: 0
Integration Time (sec): 5.000000E-1
Scans to average: 1
Nonlinearity correction enabled: true
Boxcar width: 0
Storing dark spectrum: false
XAxis mode: Wavelengths
Number of Pixels in Spectrum: 2068
>>>>>Begin Spectral Data<<<<<
194.03	116.31976
194.578	111.3462
195.127	107.32888
195.676	117.36027
196.225	131.33989
196.773	149.39876
197.321	209.5415
197.87	327.76027
198.418	245.57099
198.966	238.55894
199.513	227.50774
200.061	214.48843
200.609	284.67812
201.156	268.51592
201.704	189.43094
202.251	255.60644
202.798	237.55431
203.345	253.56286
203.892	246.55579
204.438	280.59639
204.985	228.48057
205.532	249.58807
206.078	313.67898
206.624	247.5413
207.17	284.58491
207.716	290.62198
208.262	282.48916
208.808	180.39872
209.354	256.55427
209.899	313.70527
210.445	238.52784
210.99	235.50522
211.535	271.5678
212.08	304.62469
212.625	293.65292
213.17	322.72303
213.715	194.38498
214.259	279.5781
214.804	279.61657
215.348	270.55007
215.892	278.59393
216.436	308.63291
216.98	348.67445
217.524	299.62508
218.068	275.62042
218.612	291.65517
219.155	272.57053
219.698	273.58085
220.242	292.65271
220.785	242.50918
221.328	243.54711
221.871	301.68489
222.414	289.64614
222.956	213.46305
223.499	228.4626
224.041	271.56806
224.583	259.504
225.126	244.48307
225.668	243.53186
226.21	197.45099
226.751	215.42236
227.293	242.49886
227.835	249.54637
228.376	270.56033
228.918	286.64905
229.459	176.39927
230	184.39907
230.541	233.48473
231.082	222.48641
231.622	251.52009
232.163	220.48101
232.704	230.51392
233.244	236.52755
233.784	237.52639
234.324	195.38416
234.864	269.54316
235.404	266.56755
235.944	252.53722
236.484	278.62219
237.023	245.51832
237.563	232.48039
238.102	232.49308
238.641	264.59865
239.18	236.4924
239.719	249.56177
240.258	229.46261
240.797	235.50348
241.335	312.67695
241.874	253.42872
242.412	229.49359
242.95	246.52283
243.488	228.46662
244.026	226.46567
244.564	245.4477
245.102	268.53207
245.64	265.57118
246.177	243.48571
246.715	288.61422
247.252	260.5321
247.789	267.44509
248.326	235.50152
248.863	208.40736
249.4	301.60164
249.936	261.4726
250.473	245.5072
251.009	288.57846
251.546	204.40198
252.082	280.53928
252.618	229.45263
253.154	247.52622
253.69	260.51715
254.226	273.57503
254.761	281.5541
255.297	218.42371
255.832	268.55916
256.367	276.57278
256.903	312.59456
257.438	271.56253
257.972	276.53925
258.507	220.44555
259.042	267.50843
259.576	220.41617
260.111	270.55032
260.645	295.55683
261.179	243.4999
261.713	223.43849
262.247	333.66529
262.781	205.37935
263.315	266.57223
263.849	289.63307
264.382	278.56069
264.915	258.52897
265.449	215.46063
265.982	288.57231
266.515	264.56524
267.048	297.54164
267.58	309.58641
268.113	275.51449
268.646	252.54655
269.178	246.47927
269.71	325.61015
270.243	297.58923
270.775	320.70673
271.307	322.67361
271.838	332.68468
272.37	323.68722
272.902	339.66188
273.433	265.5029
273.965	287.60797
274.496	293.63668
275.027	264.57257
275.558	304.63737
276.089	230.49288
276.62	315.69758
277.15	295.6342
277.681	278.52306
278.211	282.60326
278.741	276.5216
279.272	293.57396
279.802	359.76746
280.332	297.60135
280.861	282.58758
281.391	246.48292
281.921	342.70562
282.45	338.72586
282.98	327.73531
283.509	283.54598
284.038	275.5387
284.567	333.66467
285.096	287.5976
285.625	222.43725
286.153	286.57311
286.682	326.63
287.21	309.63338
287.739	305.61359
288.267	277.57396
288.795	333.75156
289.323	279.55378
289.851	318.63105
290.378	303.57502
290.906	295.60414
291.433	294.62593
291.961	323.61178
292.488	289.61408
293.015	287.57019
293.542	305.65316
294.069	327.67483
294.596	375.77666
295.122	266.53945
295.649	366.66631
296.175	358.72569
296.702	374.755
297.228	360.73108
297.754	319.59534
298.28	337.63143
298.806	309.62049
299.332	300.54836
299.857	301.5637
300.383	358.75687
300.908	283.57117
301.433	312.62869
301.958	348.66445
302.483	324.66879
303.008	367.74887
303.533	386.83178
304.058	369.71361
304.582	309.59929
305.107	317.68502
305.631	354.66018
306.155	366.68696
306.679	367.68969
307.203	371.69206
307.727	342.65997
308.251	392.78262
308.775	333.63566
309.298	299.581
309.822	384.78266
310.345	435.81227
310.868	408.77185
311.391	419.82157
311.914	415.82335
312.437	431.77134
312.96	391.72467
313.482	399.74208
314.005	385.76739
314.527	403.83875
315.049	457.9054
315.571	338.5829
316.093	446.85448
316.615	434.80418
317.137	413.68251
317.659	477.88806
318.18	441.81939
318.702	423.74804
319.223	447.67598
319.744	426.71514
320.265	472.85193
320.786	399.74725
321.307	458.85459
321.828	536.87292
322.348	464.80326
322.869	486.82975
323.389	284.33423
323.909	496.82089
324.43	568.98812
324.95	428.70907
325.47	494.87024
325.989	555.90973
326.509	476.72397
327.029	529.81307
327.548	500.76822
328.067	496.82907
328.587	591.01177
329.106	505.78073
329.625	571.06152
330.144	529.81787
330.662	503.78038
331.181	548.85151
331.7	557.85969
332.218	623.84237
332.736	576.87469
333.255	594.88111
333.773	617.92615
334.291	636.0265
334.808	612.83373
335.326	662.90142
335.844	640.88967
336.361	629.98241
336.879	608.84781
337.396	653.93674
337.913	638.85447
338.43	600.78325
338.947	677.92884
339.464	613.72578
339.981	642.86555
340.497	741.03436
341.014	665.91827
341.53	704.84282
342.046	655.89975
342.562	748.02917
343.078	712.89352
343.594	742.93848
344.11	782.96119
344.626	726.98172
345.141	794.88727
345.657	799.8946
346.172	681.85657
346.687	807.88494
347.202	759.80674
347.717	774.90283
348.232	823.01132
348.747	844.88162
349.261	739.70451
349.776	817.87924
350.29	779.89287
350.805	885.01135
351.319	846.86728
351.833	789.76043
352.347	836.8499
352.861	896.86119
353.374	974.90474
353.888	897.92116
354.401	891.82125
354.915	853.72857
355.428	918.93635
355.941	922.81569
356.454	979.81313
356.967	934.85481
357.48	977.82486
357.993	955.91893
358.505	893.84677
359.018	1006.90754
359.53	1042.87013
360.042	1005.72872
360.554	1066.8957
361.066	957.83105
361.578	994.66605
362.09	996.80544
362.602	1008.65935
363.113	1058.74938
363.625	1055.68157
364.136	1054.64599
364.647	990.64502
365.158	1177.73147
365.669	1031.73989
366.18	1095.72072
366.691	1120.60149
367.201	1038.70104
367.712	1134.61097
368.222	1028.58861
368.733	1134.48323
369.243	1170.49528
369.753	1190.57727
370.263	1245.62112
370.773	1200.65956
371.282	1240.54601
371.792	1255.38497
372.301	1271.48709
372.811	1355.63532
373.32	1114.21215
373.829	1257.31207
374.338	1415.14673
374.847	1368.15507
375.356	1479.12233
375.865	1508.84165
376.373	1527.88299
376.882	1693.02022
377.39	1659.87452
377.898	1545.80693
378.407	1811.48245
378.915	1874.36065
379.423	1956.34567
379.93	2015.20684
380.438	2011.16813
380.946	2139.01287
381.453	2085.99824
381.96	2140.92062
382.468	2294.8605
382.975	2599.78907
383.482	2692.89764
383.989	2777.82449
384.495	2778.09385
385.002	2804.64231
385.509	2974.77505
386.015	3086.94191
386.521	3474.58758
387.028	3488.37768
387.534	3623.53283
388.04	3873.96267
388.546	3724.47333
389.051	3779.48299
389.557	4181.90033
390.063	4984.13468
390.568	4956.19368
391.073	4945.58089
391.578	5180.50561
392.084	4998.99625
392.589	4971.69712
393.093	5194.15145
393.598	5860.57089
394.103	6630.74718
394.607	7464.52633
395.112	7992.939
395.616	8340.9533
396.12	8810.59923
396.624	9770.05232
397.128	10972.67696
397.632	12424.77436
398.136	13299.48161
398.639	12452.00523
399.143	12743.83456
399.646	15000.86601
400.15	16216.06715
400.653	16874.23471
401.156	12969.1641
401.659	5077.67264
402.162	1054.15589
402.664	0
403.167	0
403.67	0
404.172	0
404.674	0
405.176	0
405.678	0
406.18	0
406.682	0
407.184	0
407.686	0
408.187	0
408.688	0
409.19	0
409.691	0
410.192	0
410.693	0
411.194	435.30976
411.694	4082.94878
412.195	8864.71461
412.696	12089.80453
413.196	12760.96929
413.696	12863.67595
414.196	13703.56671
414.696	17261.84252
415.196	21764.24417
415.696	29583.19008
416.196	34301.12748
416.695	24178.08609
417.195	18722.452
417.694	17205.06806
418.194	16493.09054
418.693	14746.50117
419.192	14272.50695
419.691	14033.34051
420.19	13918.34772
420.688	14029.91317
421.187	13357.81032
421.685	12747.90432
422.184	12039.6428
422.682	10430.18962
423.18	8552.77457
423.678	7378.75502
424.176	6664.89788
424.674	6373.00922
425.172	6273.59894
425.669	6108.6139
426.167	5724.40169
426.664	5090.36148
427.161	4547.75637
427.659	4266.45992
428.156	3852.88105
428.652	3602.35812
429.149	3369.12315
429.646	3341.06827
430.143	3294.72925
430.639	2922.67567
431.135	2813.68312
431.632	2714.71719
432.128	2471.89396
432.624	2122.18837
433.12	1931.1667
433.616	1963.17012
434.111	1789.36156
434.607	1765.47594
435.103	1886.36995
435.598	1820.43856
436.093	1844.69777
436.588	1668.81369
437.083	1612.92539
437.578	1525.05606
438.073	1246.25046
438.568	1363.34372
439.062	1275.1494
439.557	1307.38081
440.051	1121.33535
440.546	1092.35794
441.04	1098.47101
441.534	1088.60785
442.028	1124.55766
442.522	990.53897
443.015	974.42463
443.509	961.61429
444.002	921.60586
444.496	934.4651
444.989	897.62941
445.482	866.64642
445.975	876.50611
446.468	762.43282
446.961	894.47349
447.454	823.54159
447.947	793.57841
448.439	780.64253
448.931	748.51679
449.424	871.76827
449.916	776.66184
450.408	754.54696
450.9	714.62424
451.392	670.65875
451.884	680.5749
452.375	538.54702
452.867	679.58317
453.358	587.50705
453.849	604.46936
454.341	533.48383
454.832	628.50425
455.323	529.56004
455.814	529.52069
456.304	577.56425
456.795	574.55962
457.285	599.57434
457.776	604.61439
458.266	555.59523
458.756	548.61943
459.247	449.50942
459.737	404.47035
460.226	482.50339
460.716	382.46368
461.206	343.433
461.695	475.62337
462.185	454.54842
462.674	526.60586
463.163	481.5342
463.653	414.43681
464.142	324.43353
464.63	384.52655
465.119	339.43183
465.608	354.4508
466.096	392.46659
466.585	288.39124
467.073	362.50867
467.561	366.51922
468.05	349.47899
468.538	370.54891
469.026	424.59891
469.513	280.34837
470.001	331.44954
470.489	311.45193
470.976	308.44105
471.463	297.47716
471.951	324.52603
472.438	263.39738
472.925	163.25233
473.412	354.5699
473.899	263.39905
474.385	237.3966
474.872	150.23994
475.359	201.33856
475.845	264.35697
476.331	223.33188
476.817	218.37472
477.303	191.3119
477.789	164.28386
478.275	128.23159
478.761	158.27755
479.247	198.31799
479.732	129.2368
480.218	160.31112
480.703	146.27091
481.188	171.2655
481.673	122.20835
482.158	49.07733
482.643	146.28553
483.128	115.19687
483.612	128.22745
484.097	157.29576
484.581	64.11662
485.066	78.14806
485.55	36.06148
486.034	82.13687
486.518	30.05558
487.002	11.0215
487.486	84.16217
487.969	14.02753
488.453	82.16675
488.936	38.06861
489.42	34.06073
489.903	105.21416
490.386	62.07947
490.869	98.17134
491.352	48.09734
491.835	19.03219
492.318	-11.02052
492.8	11.01869
493.283	30.06326
493.765	-3.00617
494.247	42.0821
494.73	-11.02036
495.212	39.07944
495.694	-42.08288
496.175	-37.07371
496.657	22.04402
497.139	-1.00147
497.62	-91.18468
498.102	-26.05497
498.583	-66.14345
499.064	-101.19419
499.545	-83.16413
500.026	-65.1254
500.507	-68.13683
500.988	-38.08175
501.469	-79.17196
501.949	0
502.43	-56.11466
502.91	-91.16334
503.39	-46.10083
503.87	-30.06073
504.35	6.01226
504.83	-76.1451
505.31	-70.14832
505.79	-97.20387
506.269	-56.11487
506.749	-84.16809
507.228	-120.24915
507.707	-85.16564
508.187	-39.08197
508.666	-98.21255
509.145	-60.12274
509.623	-48.09877
510.102	-87.18712
510.581	-40.08539
511.059	-101.22461
511.538	-80.18473
512.016	-53.11193
512.494	-39.0837
512.972	-104.22191
513.45	-208.43591
513.928	-93.20072
514.406	-168.36282
514.884	-70.16003
515.361	-105.22516
515.839	-85.17234
516.316	-125.27071
516.793	-93.21188
517.27	-119.26146
517.747	-92.21151
518.224	-80.16603
518.701	-125.25182
519.178	-142.31769
519.654	-98.21101
520.131	-82.18202
520.607	-47.10444
521.083	-115.23744
521.56	-128.27442
522.036	-106.21084
522.512	-65.14461
522.987	-147.31658
523.463	-85.18196
523.939	-68.15038
524.414	-71.14811
524.89	-130.28147
525.365	-149.30888
525.84	-161.34837
526.315	-125.27394
526.79	-115.23616
527.265	-128.26659
527.74	-139.30976
528.215	-124.26688
528.689	-138.27961
529.164	-123.24482
529.638	-86.20111
530.112	-172.37321
530.587	-125.24278
531.061	-138.30416
531.534	-95.21022
532.008	-147.32433
532.482	-122.25726
532.956	-167.39152
533.429	-71.15613
533.903	-102.20676
534.376	-119.24128
534.849	-153.32809
535.322	-157.34291
535.795	-113.25339
536.268	-153.33955
536.741	-114.25168
537.213	-105.22273
537.686	-151.33887
538.158	-171.35417
538.631	-122.27385
539.103	-148.30564
539.575	-121.2331
540.047	-137.27854
540.519	-95.20846
540.991	-75.16797
541.463	-112.24944
541.934	-114.23986
542.406	-164.36222
542.877	-121.25151
543.348	-123.27433
543.82	-89.20031
544.291	-110.23695
544.762	-123.26774
545.233	-114.26177
545.703	-145.29574
546.174	-76.1609
546.645	-143.31247
547.115	-130.28724
547.585	-98.20574
548.056	-173.38265
548.526	-101.21471
548.996	-56.12136
549.466	-42.09241
549.935	-111.237
550.405	-115.22783
550.875	-97.20684
551.344	-66.14205
551.814	-64.13175
552.283	-13.02509
552.752	-98.20402
553.221	-144.28228
553.69	-20.03909
554.159	-112.24592
554.628	-114.2277
555.096	-55.12348
555.565	-46.0909
556.033	-108.23084
556.502	-84.18397
556.97	-108.21862
557.438	-73.15728
557.906	-101.22051
558.374	-102.21565
558.842	-111.2448
559.31	-141.29491
559.777	-137.30695
560.245	-124.27227
560.712	-132.28629
561.18	-151.31288
561.647	-140.29353
562.114	-171.36716
562.581	-138.31891
563.048	-97.2089
563.514	-153.35196
563.981	-189.41245
564.448	-190.40646
564.914	-139.30565
565.381	-130.27955
565.847	-100.21957
566.313	-109.23838
566.779	-139.29665
567.245	-125.27545
567.711	-128.28838
568.176	-144.30525
568.642	-164.38787
569.108	-170.39535
569.573	-117.25987
570.038	-125.24904
570.504	-146.30868
570.969	-107.25066
571.434	-182.37939
571.899	-117.26074
572.363	-144.30965
572.828	-78.16672
573.293	-126.27176
573.757	-106.22784
574.222	-160.33695
574.686	-161.34017
575.15	-180.40453
575.614	-164.35554
576.078	-161.35611
576.542	-118.25211
577.006	-105.22117
577.469	-50.11458
577.933	-175.37056
578.396	-114.25389
578.86	-146.32448
579.323	-152.34062
579.786	-135.27522
580.249	-149.31979
580.712	-120.27511
581.175	-177.41301
581.637	-118.25658
582.1	-105.21757
582.563	-105.21338
583.025	-159.36386
583.487	-120.22911
583.95	-156.31782
584.412	-135.26996
584.874	-145.33195
585.336	-151.33845
585.797	-134.27474
586.259	-81.17909
586.721	-173.38601
587.182	-55.12038
587.643	-71.151
588.105	-154.34624
588.566	-110.21992
589.027	-174.39746
589.488	-124.2678
589.949	-131.30002
590.41	-172.32186
590.87	-77.1654
591.331	-97.19847
591.791	-87.18801
592.252	-120.25827
592.712	-80.18002
593.172	-118.25123
593.632	-58.1194
594.092	-76.15913
594.552	-98.19938
595.011	-144.31299
595.471	-67.14044
595.931	-122.25771
596.39	-109.24512
596.849	-94.20562
597.308	-53.10785
597.768	-131.31324
598.227	-60.13485
598.685	-61.13154
599.144	-87.19091
599.603	-59.13045
600.062	-84.16576
600.52	-112.23555
600.978	-88.19583
601.437	-47.10044
601.895	-45.08903
602.353	-57.11848
602.811	-90.18803
603.269	-44.09779
603.727	-53.11797
604.184	-110.23318
604.642	-86.19685
605.099	-44.09486
605.557	-74.16842
606.014	-80.16128
606.471	-78.1804
606.928	-79.15768
607.385	-14.03105
607.842	74.15275
608.299	96.20155
608.755	98.21192
609.212	24.04863
609.668	-22.04468
610.125	113.24503
610.581	125.26851
611.037	94.19578
611.493	105.22535
611.949	21.04639
612.405	39.07188
612.861	79.1705
613.316	49.10716
613.772	43.09093
614.227	84.18048
614.683	63.1247
615.138	23.04973
615.593	98.20738
616.048	105.21981
616.503	73.16511
616.958	58.1335
617.412	61.13301
617.867	33.06758
618.321	66.12699
618.776	121.24533
619.23	63.1369
619.684	171.35131
620.138	112.24022
620.592	91.20414
621.046	83.18121
621.5	63.14249
621.954	120.2506
622.407	108.22363
622.861	49.11155
623.314	82.17489
623.768	46.10092
624.221	20.03768
624.674	61.13233
625.127	73.16059
625.58	62.13419
626.033	112.23285
626.485	45.1019
626.938	84.18855
627.39	49.10847
627.843	82.17967
628.295	25.05546
628.747	60.13579
629.199	68.14742
629.651	26.05685
630.103	52.11413
630.555	72.14635
631.006	68.15276
631.458	24.05471
631.909	58.12885
632.361	52.11711
632.812	49.10929
633.263	73.15221
633.714	87.18011
634.165	20.04727
634.616	58.13361
635.067	59.12777
635.518	94.21637
635.968	78.15312
636.419	38.08119
636.869	107.24565
637.319	100.22345
637.769	55.12023
638.219	118.27248
638.669	65.15102
639.119	118.27811
639.569	90.2108
640.019	133.29737
640.468	112.24323
640.918	140.32572
641.367	91.1996
641.816	139.30115
642.265	133.29811
642.714	133.29835
643.163	107.24003
643.612	71.16659
644.061	120.24737
644.51	138.30479
644.958	162.34401
645.406	92.21514
645.855	176.41544
646.303	217.48578
646.751	127.28126
647.199	205.44737
647.647	177.39281
648.095	199.43814
648.543	206.40745
648.99	159.36766
649.438	256.57343
649.885	251.59165
650.333	213.39829
650.78	162.37913
651.227	202.47255
651.674	241.52481
652.121	224.52257
652.568	196.45869
653.015	229.55569
653.461	203.4651
653.908	268.59487
654.354	239.54735
654.801	178.40463
655.247	234.49451
655.693	177.44716
656.139	234.53881
656.585	179.41719
657.031	159.36093
657.477	224.46632
657.922	221.49045
658.368	176.42284
658.813	252.56401
659.259	204.47386
659.704	195.44103
660.149	156.35591
660.594	164.38065
661.039	140.31386
661.484	181.42251
661.929	202.45955
662.373	186.45618
662.818	184.44474
663.262	190.44535
663.707	175.43293
664.151	168.40209
664.595	143.33932
665.039	201.4872
665.483	180.4475
665.927	200.45997
666.371	119.27243
666.814	175.41027
667.258	114.26711
667.701	219.46231
668.145	175.42753
668.588	178.42846
669.031	152.35196
669.474	181.42765
669.917	176.38465
670.36	137.33595
670.803	213.50228
671.245	180.37472
671.688	181.43411
672.13	149.33081
672.573	243.59959
673.015	185.4366
673.457	156.33705
673.899	185.44083
674.341	160.38148
674.783	117.27923
675.225	136.33158
675.666	179.42277
676.108	210.44827
676.549	202.47014
676.991	196.42582
677.432	180.35536
677.873	160.3671
678.314	182.42843
678.755	153.36863
679.196	160.36327
679.637	164.3967
680.078	163.37855
680.518	173.39971
680.959	195.45966
681.399	160.39242
681.839	201.48079
682.28	160.39038
682.72	154.35022
683.16	211.5147
683.6	192.43291
684.039	201.41406
684.479	149.36266
684.919	103.23789
685.358	199.49644
685.798	158.40916
686.237	191.45582
686.676	199.45612
687.115	174.40498
687.554	162.38165
687.993	153.33771
688.432	180.40735
688.871	182.40852
689.309	148.35152
689.748	198.41036
690.186	184.43483
690.625	202.46624
691.063	154.36689
691.501	160.39227
691.939	131.32527
692.377	169.4081
692.815	133.31717
693.253	186.44228
693.69	146.32071
694.128	159.38193
694.565	168.39748
695.003	200.49921
695.44	187.43429
695.877	148.34406
696.314	189.40353
696.751	191.43163
697.188	177.40293
697.625	214.48468
698.061	169.40178
698.498	245.57975
698.934	176.41979
699.371	157.36721
699.807	190.44413
700.243	187.4444
700.679	212.47331
701.115	210.4876
701.551	241.5557
701.987	200.44486
702.422	216.50391
702.858	213.49896
703.294	162.36557
703.729	203.48928
704.164	205.48586
704.599	165.36587
705.035	189.41839
705.47	217.51786
705.904	155.35926
706.339	248.56488
706.774	195.45089
707.209	191.43515
707.643	241.56609
708.078	243.57813
708.512	191.47043
708.946	246.57659
709.38	222.51668
709.814	244.5461
710.248	250.59489
710.682	215.50246
711.116	201.47159
711.549	224.56638
711.983	218.49515
712.416	233.54025
712.85	289.69783
713.283	231.53582
713.716	317.76803
714.149	254.59138
714.582	300.65147
715.015	301.729
715.448	301.73338
715.881	330.69493
716.313	261.59581
716.746	292.66509
717.178	262.61313
717.61	275.67729
718.043	310.74556
718.475	293.68741
718.907	348.84485
719.339	299.65442
719.77	292.66912
720.202	333.8086
720.634	301.70673
721.065	350.79362
721.497	372.86878
721.928	345.81064
722.359	301.69983
722.79	363.82827
723.221	395.94398
723.652	433.05223
724.083	323.70007
724.514	418.90536
724.945	380.84868
725.375	367.81
725.806	413.97566
726.236	470.12544
726.666	462.02039
727.096	481.09845
727.526	425.01577
727.956	414.88636
728.386	480.10034
728.816	502.17748
729.246	475.07339
729.675	475.08777
730.105	565.27295
730.534	556.18893
730.964	571.32259
731.393	582.32118
731.822	606.40845
732.251	599.38422
732.68	645.36495
733.109	645.43029
733.537	624.35928
733.966	662.47502
734.395	633.31206
734.823	693.38349
735.251	682.46377
735.68	790.73284
736.108	802.77317
736.536	765.57685
736.964	762.54218
737.392	861.85658
737.82	811.68672
738.247	896.82443
738.675	894.81788
739.102	930.96992
739.53	900.96096
739.957	941.05589
740.384	993.04746
740.811	1014.14624
741.238	1006.0387
741.665	1006.9199
742.092	1099.12705
742.519	1011.07813
742.945	1068.09292
743.372	1131.26597
743.798	1144.3923
744.225	1159.19667
744.651	1237.45941
745.077	1235.43731
745.503	1310.47347
745.929	1309.41951
746.355	1421.68042
746.781	1381.61359
747.207	1377.42759
747.632	1418.59904
748.058	1544.83371
748.483	1504.50881
748.908	1569.84483
749.334	1593.82779
749.759	1577.66069
750.184	1593.71091
750.609	1746.98349
751.033	1740.82601
751.458	1736.62398
751.883	1832.09614
752.307	1772.8293
752.732	1786.08041
753.156	1942.16918
753.58	2012.04723
754.005	2028.36919
754.429	2054.02148
754.853	2088.28815
755.277	2086.07318
755.7	2170.35041
756.124	2137.32781
756.548	2205.14154
756.971	2260.32152
757.394	2301.63061
757.818	2375.66408
758.241	2333.56107
758.664	2392.56428
759.087	2389.92002
759.51	2542.54543
759.933	2512.34053
760.356	2624.75195
760.778	2623.49766
761.201	2620.43887
761.623	2640.43045
762.046	2748.32386
762.468	2839.4066
762.89	2826.56798
763.312	2862.50376
763.734	2766.40235
764.156	2790.55985
764.578	2914.15272
765	2938.50309
765.421	2898.74917
765.843	2903.97512
766.264	2914.44361
766.686	2977.69461
767.107	2959.45799
767.528	2985.71759
767.949	3015.77744
768.37	2975.5393
768.791	3008.45185
769.212	2984.68281
769.632	2958.21167
770.053	3087.03025
770.473	3135.47898
770.894	3126.67777
771.314	3102.37012
771.734	2994.21551
772.154	2961.83656
772.575	3036.18426
772.994	3051.05672
773.414	3066.4017
773.834	3088.65986
774.254	3009.5184
774.673	3053.48902
775.093	2929.58013
775.512	2964.55341
775.931	2923.74046
776.351	3003.60722
776.77	2918.4993
777.189	2904.33295
777.607	2825.77007
778.026	2779.60006
778.445	2749.61733
778.864	2946.82219
779.282	2811.39189
779.701	2757.6704
780.119	2826.69627
780.537	2703.59066
780.955	2701.7167
781.373	2680.53258
781.791	2583.97668
782.209	2677.12936
782.627	2540.87475
783.045	2501.08213
783.462	2488.66132
783.88	2509.74434
784.297	2392.52673
784.715	2484.6855
785.132	2362.30282
785.549	2423.50727
785.966	2360.50925
786.383	2355.38364
786.8	2290.06268
787.217	2217.12818
787.633	2213.38394
788.05	2209.13968
788.466	2163.08023
788.883	2072.40253
789.299	2129.15749
789.715	2053.15488
790.131	1995.22205
790.547	2023.26428
790.963	1998.21539
791.379	1876.20153
791.795	1911.7852
792.21	1857.84662
792.626	1744.81693
793.041	1797.02433
793.457	1724.96429
793.872	1757.79015
794.287	1688.78629
794.702	1657.88651
795.117	1641.90008
795.532	1600.89039
795.947	1578.71735
796.362	1596.70667
796.776	1609.64974
797.191	1510.70375
797.605	1436.47535
798.02	1433.59464
798.434	1424.29984
798.848	1358.54326
799.262	1357.56557
799.676	1366.52459
800.09	1288.45068
800.504	1228.32948
800.918	1188.1457
801.331	1235.57991
801.745	1147.07086
802.158	1108.24169
802.572	1140.20711
802.985	1037.04777
803.398	1004.96597
803.811	1024.18529
804.224	1049.13997
804.637	951.88177
805.05	988.8764
805.462	956.96167
805.875	859.91537
806.288	852.7489
806.7	886.89544
807.112	792.5752
807.525	794.69633
807.937	766.64846
808.349	792.72194
808.761	767.64178
809.173	707.50673
809.584	741.60383
809.996	698.50715
810.408	657.51777
810.819	645.3465
811.231	674.55368
811.642	610.30176
812.053	704.4682
812.464	706.47172
812.875	702.58998
813.286	633.46518
813.697	574.21
814.108	599.31771
814.519	533.07494
814.929	510.19721
815.34	490.09317
815.75	518.20844
816.16	479.10309
816.571	467.12694
816.981	449.98348
817.391	414.93527
817.801	421.97836
818.211	384.86115
818.62	422.94829
819.03	403.92692
819.44	417.02158
819.849	362.86431
820.259	380.9194
820.668	332.77691
821.077	318.75376
821.486	340.77752
821.895	351.82281
822.304	294.74915
822.713	306.69077
823.122	319.76007
823.531	300.67999
823.939	258.60661
824.348	272.63653
824.756	308.73823
825.164	296.7146
825.573	237.57661
825.981	278.66329
826.389	236.57514
826.797	223.54296
827.205	206.46011
827.612	229.54859
828.02	201.45996
828.428	224.55465
828.835	212.54405
829.243	187.43583
829.65	152.37211
830.057	199.47127
830.464	142.34129
830.871	194.45366
831.278	173.41002
831.685	174.38028
832.092	170.40843
832.499	144.31032
832.905	151.37657
833.312	134.3019
833.718	161.39436
834.124	165.36998
834.531	131.32646
834.937	132.33485
835.343	182.42977
835.749	148.34052
836.155	134.34666
836.561	83.20353
836.966	125.30243
837.372	133.33445
837.777	116.2863
838.183	75.16665
838.588	112.27571
838.993	97.23486
839.399	93.22619
839.804	81.19679
840.209	76.193
840.613	94.20805
841.018	77.19453
841.423	95.24232
841.828	74.18679
842.232	129.31586
842.637	78.18362
843.041	56.14367
843.445	95.23692
843.849	57.14128
844.253	91.21526
844.657	52.13116
845.061	108.24302
845.465	34.08259
845.869	68.15796
846.272	34.08324
846.676	58.14046
847.079	75.19023
847.483	124.30593
847.886	127.30541
848.289	58.15479
848.692	70.17701
849.095	75.17975
849.498	115.28877
849.901	59.13551
850.304	55.13166
850.707	83.21081
851.109	84.21173
851.512	26.06431
851.914	33.08355
852.316	40.10154
852.718	28.07266
853.121	44.10816
853.523	49.11483
853.925	27.0708
854.326	2.00505
854.728	53.13643
855.13	-28.07329
855.531	5.01207
855.933	61.14647
856.334	26.06521
856.736	0
857.137	51.11882
857.538	22.05567
857.939	47.11636
858.34	59.14382
858.741	25.06571
859.142	28.06768
859.542	-2.00533
859.943	45.1121
860.343	10.02498
860.744	24.05895
861.144	17.0418
861.544	-2.00486
861.945	54.13772
862.345	29.07133
862.745	9.02257
863.145	73.17409
863.544	28.07113
863.944	22.05235
864.344	43.10712
864.743	82.20261
865.143	44.11328
865.542	15.0351
865.941	53.13131
866.34	30.07227
866.74	45.12099
867.139	3.00726
867.537	43.10984
867.936	-1.00243
868.335	0
868.734	10.02576
869.132	17.03983
869.531	66.15941
869.929	2.00461
870.327	37.08905
870.726	33.08266
871.124	53.12401
871.522	21.05383
871.92	67.16497
872.318	39.09567
872.715	51.12641
873.113	8.01967
873.511	8.02011
873.908	-17.04347
874.306	19.04757
874.703	42.10537
875.1	81.20632
875.497	4.00969
875.894	-7.01735
876.291	8.01981
876.688	37.09574
877.085	22.05314
877.482	34.08545
877.878	-2.00487
878.275	26.0664
878.671	6.01351
879.068	8.01949
879.464	30.07287
879.86	-11.02635
880.256	2.00499
880.652	-16.04121
881.048	28.06974
881.444	24.05749
881.84	26.06642
882.236	16.04052
882.631	-23.05728
883.027	62.14998
883.422	-5.01292
883.817	-39.09965
884.213	24.06192
884.608	-16.03975
885.003	2.00487
885.398	-50.12751
885.793	-3.00761
886.188	1.00251
886.582	57.14616
886.977	37.08814
887.371	15.03821
887.766	-25.06307
888.16	25.06273
888.554	19.0473
888.949	13.03289
889.343	33.08095
889.737	-13.03502
890.131	12.03033
890.525	14.03606
890.918	15.03802
891.312	43.10313
891.706	40.10519
892.099	40.10205
892.492	7.01526
892.886	29.0713
893.279	25.06402
893.672	9.02309
894.065	24.06043
894.458	29.07327
894.851	57.13962
895.244	-14.03618
895.637	22.05332
896.029	26.06391
896.422	36.08826
896.814	-1.00251
897.206	-34.08234
897.599	40.0992
897.991	22.05352
898.383	13.03097
898.775	15.03413
899.167	-29.06873
899.559	44.11158
899.951	21.04983
900.342	48.1222
900.734	-19.04776
901.125	22.05803
901.517	26.06415
901.908	31.07466
902.299	-24.05952
902.69	-18.04307
903.082	27.06572
903.473	-12.02909
903.863	16.04109
904.254	0
904.645	49.12198
905.036	-20.04909
905.426	19.04381
905.817	18.04446
906.207	5.01202
906.597	-14.03318
906.987	37.09617
907.378	-14.03583
907.768	-2.00534
908.158	34.08321
908.547	-20.05231
908.937	8.02069
909.327	39.09496
909.717	55.1396
910.106	-22.0536
910.495	67.16685
910.885	45.11414
911.274	2.00504
911.663	24.06123
912.052	41.1014
912.441	40.10194
912.83	-18.04191
913.219	77.20068
913.608	35.08602
913.997	-17.04315
914.385	32.07677
914.774	16.03923
915.162	41.09793
915.55	-7.01713
915.939	-6.0153
916.327	13.03268
916.715	20.05126
917.103	44.10848
917.491	41.10166
917.878	20.04947
918.266	25.06513
918.654	51.13032
919.041	-34.09005
919.429	4.00953
919.816	20.05099
920.203	-30.07388
920.591	7.0175
920.978	-10.02477
921.365	-8.0212
921.752	-32.07752
922.139	-12.02642
922.525	14.03387
922.912	36.08807
923.299	5.01253
923.685	4.01052
924.072	46.10622
924.458	6.01499
924.844	10.02493
925.231	-7.01648
925.617	-7.01799
926.003	14.03602
926.389	5.01272
926.774	-6.01536
927.16	40.09956
927.546	-18.0465
927.931	23.05769
928.317	31.07171
928.702	4.00955
929.088	-36.08659
929.473	-5.01285
929.858	-6.01466
930.243	9.02178
930.628	-14.03448
931.013	1.0025
931.398	64.14684
931.783	58.15253
932.167	9.02218
932.552	35.08795
932.937	28.06979
933.321	8.02023
933.705	5.01271
934.09	54.1364
934.474	31.07393
934.858	11.02873
935.242	-34.08013
935.626	12.03093
936.009	-3.00805
936.393	46.11715
936.777	25.06431
937.16	-5.01313
937.544	25.05921
937.927	-2.00512
938.311	43.10513
938.694	30.07961
939.077	-32.07782
939.46	59.14468
939.843	8.01685
940.226	4.01034
940.609	0
940.991	8.02052
941.374	-12.02967
941.757	24.05952
942.139	-21.04786
942.522	26.06175
942.904	38.09158
943.286	29.07397
943.668	22.05727
944.05	-39.09765
944.432	31.07678
944.814	39.09627
945.196	-37.09164
945.578	3.0072
945.959	51.11952
946.341	51.1252
946.722	33.07773
947.104	12.0289
947.485	-1.00235
947.866	8.02031
948.247	6.01526
948.628	59.14371
949.009	-20.05185
949.39	13.03259
949.771	73.16907
950.152	-1.00248
950.532	-59.14805
950.913	4.00973
951.293	-47.12897
951.674	-12.02937
952.054	9.02247
952.434	12.03
952.814	5.012
953.194	49.12827
953.574	21.05201
953.954	22.05254
954.334	6.01507
954.714	-42.10412
955.093	40.09854
955.473	-6.01516
955.853	32.0831
956.232	55.15063
956.611	51.12232
956.99	-14.03559
957.37	21.05379
957.749	48.11458
958.128	3.00762
958.506	3.00785
958.885	9.02288
959.264	1.00247
959.643	13.02981
960.021	-1.0025
960.4	-9.02065
960.778	4.00994
961.156	2.00506
961.535	19.04456
961.913	35.08215
962.291	-7.01814
962.669	5.01277
963.047	43.10988
963.424	13.03339
963.802	-15.03733
964.18	48.12151
964.557	10.02322
964.935	28.06663
965.312	8.02098
965.69	31.0779
966.067	42.10244
966.444	-21.05243
966.821	34.0879
967.198	66.15965
967.575	57.13998
967.952	-3.00714
968.329	5.01227
968.705	-32.06985
969.082	-24.06235
969.458	-66.16182
969.835	-4.00984
970.211	28.07214
970.587	30.07497
970.963	23.05929
971.339	26.06817
971.715	-3.00756
972.091	4.00993
972.467	14.03515
972.843	-29.07301
973.219	55.13197
973.594	-48.12764
973.97	40.09541
974.345	-19.04607
974.721	38.09223
975.096	-9.02202
975.471	10.02391
975.846	-26.06337
976.221	7.01791
976.596	22.05302
976.971	27.06695
977.346	55.12794
977.72	14.03589
978.095	21.05454
978.469	15.03605
978.844	35.08824
979.218	-20.04858
979.593	52.12455
979.967	-23.0568
980.341	-1.00233
980.715	13.03297
981.089	17.04281
981.463	-1.00232
981.837	-19.04702
982.21	40.09328
982.584	17.04132
982.957	-9.02271
983.331	15.0357
983.704	14.03463
984.078	0
984.451	52.12985
984.824	1.00246
985.197	2.0049
985.57	-3.0076
985.943	26.0645
986.316	28.06908
986.688	18.04367
987.061	57.13343
987.434	14.03671
987.806	51.12367
988.179	-45.10814
988.551	27.06877
988.923	29.07169
989.295	33.08272
989.667	-18.04356
990.039	-2.00499
990.411	-13.0303
990.783	20.04633
991.155	-26.06337
991.527	64.1572
991.898	13.03261
992.27	-7.0175
992.641	24.06049
993.012	47.11066
993.384	4.00962
993.755	-2.00515
994.126	-22.05364
994.497	34.0837
994.868	-20.04659
995.239	23.05602
995.61	-20.05095
995.98	-23.05663
996.351	-18.04513
996.722	-30.07068
997.092	-19.04559
997.462	-42.09987
997.833	45.10678
998.203	9.02199
998.573	2.00502
998.943	-4.00948
999.313	47.11269
999.683	1.00242
1000.053	6.01393
1000.423	11.02692
1000.792	32.08319
1001.162	-16.03985
1001.531	18.04464
1001.901	13.03262
1002.27	-32.07274
1002.639	10.02573
1003.009	-26.06273
1003.378	27.06931
1003.747	19.04515
1004.116	-10.0242
1004.485	23.05525
1004.853	2.00511
1005.222	9.02286
1005.591	45.10694
1005.959	-38.08715
1006.328	-1.00227
1006.696	-10.02439
1007.064	-5.0127
1007.433	30.07524
1007.801	47.11543
1008.169	23.05836
1008.537	19.04234
1008.905	-22.05197
1009.273	24.05956
1009.64	-25.06049
1010.008	41.09789
1010.375	39.09489
1010.743	44.10172
1011.11	10.02384
1011.478	26.06462
1011.845	18.04259
1012.212	-52.12012
1012.579	4.0099
1012.946	49.11663
1013.313	24.0574
1013.68	48.10792
1014.047	-16.0386
1014.414	0
1014.78	10.02503
1015.147	49.11851
1015.513	-13.03169
1015.88	67.17078
1016.246	48.11851
1016.612	69.15733
1016.978	12.02961
1017.344	6.01494
1017.71	39.09528
1018.076	12.0285
1018.442	52.13369
1018.808	39.09765
1019.174	9.02274
1019.539	92.20999
1019.905	8.01902
1020.27	-1.00249
1020.636	27.06501
1021.001	25.06012
1021.366	-15.03646
1021.731	40.10302
1022.096	-14.0357
1022.461	-18.04315
1022.826	-9.02163
1023.191	23.0606
1023.556	44.10322
1023.92	9.02229
1024.285	29.07104
1024.649	32.07866
1025.014	59.14586
1025.378	17.04298
1025.742	-1.00251
1026.107	-11.02518
1026.471	24.0563
1026.835	5.01249
1027.199	-30.07328
1027.562	-3.00704
1027.926	23.05651
1028.29	-5.01277
1028.654	18.04166
1029.017	5.01239
1029.381	-4.00965
1029.744	1.00257
1030.107	9.02145
1030.471	19.04574
1030.834	10.02293
1031.197	38.09171
1031.56	-10.02386
1031.923	-19.04969
1032.286	11.02602
1032.648	40.09581
1033.011	5.01158
1033.374	15.03548
1033.736	1.00265
1034.099	-29.07169
1034.461	-5.01275
1034.823	-2.00502
1035.185	7.01775
1035.548	-15.03693
1035.91	29.06971
1036.272	19.0435
1036.634	38.09313
1036.995	-36.086
1037.357	-18.04433
1037.719	21.05132
1038.08	14.03346
1038.442	-13.03122
1038.803	7.01694
1039.165	27.06838
1039.526	20.04858
1039.887	-11.02661
1040.248	-16.03988
1040.609	45.11125
1040.97	-20.04949
1041.331	19.04834
1041.692	-5.01179
1042.053	44.10027
1042.413	11.02582
1042.774	44.10708
1043.134	1.0024
1043.495	43.10817
1043.855	9.02199
1044.215	-21.05277
1044.576	-2.00483
1044.936	18.04151
1045.296	47.1173
1045.656	30.07385
1046.016	44.10628
1046.375	11.02686
1046.735	-24.0552
1047.095	3.00708
1047.454	3.00642
1047.814	49.11775
1048.173	43.10282
1048.533	-15.0348
1048.892	-25.06083
1049.251	31.07804
1049.61	16.03962
1049.969	4.00951
1050.328	9.01967
1050.687	-12.02952
1051.046	1.00246
1051.405	30.07486
1051.763	-5.01162
1052.122	-30.07586
1052.48	-23.05713
1052.839	9.02133
1053.197	-8.01903
1053.555	14.03213
1053.914	-14.03463
1054.272	1.00244
1054.63	-21.05199
1054.988	-20.04812
1055.345	33.07128
1055.703	46.11073
1056.061	11.02847
1056.419	-15.03924
1056.776	37.08989
1057.134	-24.05634
1057.491	-13.0329
1057.848	53.13179
1058.206	-4.0095
1058.563	18.03992
1058.92	9.0209
1059.277	-29.07253
1059.634	24.05672
1059.991	32.07688
1060.348	-31.07117
1060.704	-13.03133
1061.061	29.06762
1061.418	-33.08122
1061.774	7.01741
1062.131	-23.06152
1062.487	3.00707
1062.843	-2.00503
1063.199	16.04001
1063.555	-25.05875
1063.911	13.03303
1064.267	52.10835
1064.623	-27.06648
1064.979	57.13478
1065.335	25.06001
1065.691	34.08169
1066.046	-29.06479
1066.402	-22.05068
1066.757	46.11611
1067.112	-25.06217
1067.468	11.02615
1067.823	-6.01457
1068.178	32.07761
1068.533	28.06811
1068.888	43.10282
1069.243	0
1069.598	2.0049
1069.952	-44.10091
1070.307	-13.03253
1070.662	-46.11115
1071.016	-20.04543
1071.371	1.0023
1071.725	12.0289
1072.079	49.11779
1072.434	25.06099
1072.788	47.11191
1073.142	7.01734
1073.496	-3.00718
1073.85	6.01403
1074.203	20.04876
1074.557	23.06139
1074.911	42.10033
1075.265	14.03275
1075.618	38.09293
1075.971	-21.0506
1076.325	-21.054
1076.678	-8.0185
1077.031	-8.0183
1077.385	4.00889
1077.738	-3.00684
1078.091	-51.11826
1078.444	-15.03525
1078.796	23.05667
1079.149	47.11687
1079.502	-13.03106
1079.855	2.0047
1080.207	28.06921
1080.56	9.02341
1080.912	3.00736
1081.264	3.00728
1081.617	-32.07912
1081.969	-11.02803
1082.321	-2.00493
1082.673	4.00921
1083.025	-25.06012
1083.377	-231.52542
1083.728	16.03755
1084.08	17.04266
1084.432	-6.01461
1084.783	30.07051
1085.135	36.09038
1085.486	-32.07436
1085.838	6.01488
1086.189	-13.0319
1086.54	-10.02414
1086.891	-47.12081
1087.242	32.07811
1087.593	21.05136
1087.944	-9.0206
1088.295	-5.01148
1088.646	-20.04907
1088.996	-43.10533
1089.347	-28.06964
1089.698	-15.03587
1090.048	18.04697
1090.398	39.09058
1090.749	-22.05332
1091.099	-8.02031
1091.449	20.05005
1091.799	2.00505
1092.149	-56.13913
1092.499	-30.07421
1092.849	4.01024
1093.199	46.11528
1093.548	0
1093.898	-20.05063
1094.248	15.03875
1094.597	-37.0958
1094.947	6.01611
1095.296	-10.02494
1095.645	14.03661
1095.994	33.07945
1096.343	-8.02032
1096.692	-2.0053
1097.041	2.00545
1097.39	30.07546
1097.739	29.07558
1098.088	68.18148
1098.437	-11.02917
1098.785	40.10792
1099.134	53.14054
1099.482	48.13194
1099.83	21.0554
1100.179	19.04977
1100.527	49.1301
1100.875	7.01862
1101.223	57.15104
1101.571	34.09411
1101.919	-41.10868
1102.267	17.04806
1102.615	-6.01931
1102.962	15.04827
1103.31	4.01285
1103.658	18.05793
