Data from N2 R8 sample 9_Subt2__1__17-29-12-911.txt Node

Date: Fri Aug 29 17:29:12 PDT 2025
User: uwsun
Spectrometer: HDX01956
Trigger mode: 0
Integration Time (sec): 5.000000E-1
Scans to average: 1
Nonlinearity correction enabled: true
Boxcar width: 0
Storing dark spectrum: false
XAxis mode: Wavelengths
Number of Pixels in Spectrum: 2068
>>>>>Begin Spectral Data<<<<<
194.03	178.48583
194.578	210.64666
195.127	178.542
195.676	204.62098
196.225	230.58652
196.773	207.54866
197.321	294.75047
197.87	421.96057
198.418	411.92642
198.966	478.06767
199.513	395.85281
200.061	379.83613
200.609	470.07996
201.156	390.72877
201.704	430.93254
202.251	401.92674
202.798	389.88257
203.345	414.89019
203.892	399.87325
204.438	437.89898
204.985	431.86787
205.532	443.00461
206.078	450.9476
206.624	426.89825
207.17	426.84931
207.716	492.00733
208.262	447.74159
208.808	379.8046
209.354	418.87364
209.899	479.04058
210.445	381.81977
210.99	388.80664
211.535	464.93066
212.08	488.96117
212.625	441.95252
213.17	484.04857
213.715	369.70233
214.259	461.91632
214.804	478.01041
215.348	431.8459
215.892	476.97325
216.436	499.98122
216.98	486.91089
217.524	415.84527
218.068	445.96897
218.612	502.0793
219.155	382.78177
219.698	466.94979
220.242	443.95929
220.785	414.83805
221.328	422.91519
221.871	386.86314
222.414	424.92149
222.956	353.7445
223.499	352.69395
224.041	379.77546
224.583	395.74378
225.126	397.75784
225.668	375.79784
226.21	348.77241
226.751	366.6934
227.293	407.80785
227.835	347.74566
228.376	405.81514
228.918	385.85612
229.459	368.80218
230	392.81241
230.541	376.7573
231.082	382.80867
231.622	366.73885
232.163	329.70272
232.704	374.81076
233.244	412.88741
233.784	381.82083
234.324	321.61364
234.864	286.57523
235.404	395.81917
235.944	376.77995
236.484	451.97328
237.023	386.79139
237.563	372.74614
238.102	396.81153
238.641	377.8352
239.18	359.72855
239.719	388.85043
240.258	418.8078
240.797	393.81321
241.335	409.86904
241.874	374.61306
242.412	403.83614
242.95	377.77835
243.488	333.66529
244.026	368.73402
244.564	352.62586
245.102	387.74699
245.64	446.9239
246.177	406.78085
246.715	438.90368
247.252	421.83018
247.789	504.78583
248.326	328.68586
248.863	379.71224
249.4	369.72592
249.936	407.70961
250.473	385.77203
251.009	449.86834
251.546	399.7502
252.082	396.74145
252.618	379.72277
253.154	389.80313
253.69	410.78702
254.226	369.76081
254.761	406.77709
255.297	369.6914
255.832	403.8156
256.367	390.78875
256.903	372.69857
257.438	441.88065
257.972	390.7414
258.507	368.72003
259.042	428.78316
259.576	370.67428
260.111	418.82329
260.645	435.79296
261.179	387.7703
261.713	393.74183
262.247	465.90058
262.781	394.69475
263.315	404.84326
263.849	430.91385
264.382	427.83172
264.915	445.87379
265.449	445.90596
265.982	486.92123
266.515	469.95959
267.048	415.73427
267.58	461.8425
268.113	403.73015
268.646	437.91032
269.178	402.75417
269.71	466.84454
270.243	420.80933
270.775	424.916
271.307	461.93468
271.838	531.04439
272.37	456.94208
272.902	449.85379
273.433	446.8091
273.965	448.91559
274.496	401.8513
275.027	431.90141
275.558	410.83945
276.089	399.82377
276.62	499.06064
277.15	432.9013
277.681	484.86466
278.211	482.98641
278.741	423.77069
279.272	459.86388
279.802	486.0085
280.332	411.81046
280.861	462.92408
281.391	497.91795
281.921	499.99324
282.45	424.89364
282.98	494.07072
283.509	477.87748
284.038	498.92417
284.567	475.91687
285.096	486.96714
285.625	428.80216
286.153	491.9373
286.682	477.8885
287.21	449.89122
287.739	430.84016
288.267	475.94063
288.795	522.13056
289.323	446.85076
289.851	525.99153
290.378	504.9097
290.906	419.834
291.433	515.0419
291.961	462.84539
292.488	520.04747
293.015	476.90403
293.542	530.07794
294.069	482.96007
294.596	565.1187
295.122	549.03979
295.649	516.90378
296.175	520.01334
296.702	557.07555
297.228	585.1254
297.754	510.9069
298.28	500.89925
298.806	496.95304
299.332	475.82997
299.857	501.89204
300.383	597.19432
300.908	541.02561
301.433	526.0061
301.958	610.08949
302.483	550.07599
303.008	596.15129
303.533	589.21203
304.058	575.05571
304.582	464.86664
305.107	519.07111
305.631	599.04805
306.155	552.98874
306.679	544.97792
307.203	551.98212
307.727	557.01797
308.251	608.15149
308.775	568.02111
309.298	505.9332
309.822	568.1076
310.345	644.1391
310.868	606.08958
311.391	585.10056
311.914	573.09328
312.437	596.02008
312.96	617.07791
313.482	640.1179
314.005	650.2144
314.527	609.20767
315.049	695.29895
315.571	593.95365
316.093	675.22045
316.615	686.19025
317.137	680.04029
317.659	703.23434
318.18	694.20735
318.702	669.10647
319.223	654.92849
319.744	723.11513
320.265	669.14565
320.786	689.19705
321.307	719.25392
321.828	685.06814
322.348	731.17531
322.869	754.19423
323.389	463.5094
323.909	750.15387
324.43	796.30082
324.95	795.18423
325.47	751.23357
325.989	766.18134
326.509	789.08901
327.029	777.10706
327.548	844.16644
328.067	814.24239
328.587	844.34879
329.106	761.08826
329.625	853.47651
330.144	867.20882
330.662	848.18408
331.181	919.27518
331.7	884.23462
332.218	978.17141
332.736	932.26723
333.255	936.24617
333.773	910.24683
334.291	1023.47518
334.808	945.15003
335.326	1001.21529
335.844	980.21647
336.361	1034.42799
336.879	967.19641
337.396	1039.31442
337.913	1077.23865
338.43	1023.14955
338.947	1095.30398
339.464	1040.04506
339.981	1053.23252
340.497	1102.36648
341.014	1066.28618
341.53	1056.10755
342.046	1130.32027
342.562	1186.40904
343.078	1147.22815
343.594	1161.26207
344.11	1197.26227
344.626	1216.38865
345.141	1160.12116
345.657	1289.18521
346.172	1144.21472
346.687	1184.1154
347.202	1257.08343
347.717	1325.24524
348.232	1335.35675
348.747	1273.10995
349.261	1211.92976
349.776	1333.15719
350.29	1311.21669
350.805	1463.32943
351.319	1354.11437
351.833	1273.98479
352.347	1295.07946
352.861	1316.04751
353.374	1418.07325
353.888	1364.14692
354.401	1422.01975
354.915	1393.90555
355.428	1521.19105
355.941	1532.00231
356.454	1586.96083
356.967	1489.04632
357.48	1476.9695
357.993	1544.13417
358.505	1457.0635
359.018	1660.08874
359.53	1558.00136
360.042	1632.8193
360.554	1636.02873
361.066	1588.00381
361.578	1683.72609
362.09	1611.93918
362.602	1541.72077
363.113	1650.82321
363.625	1598.73113
364.136	1739.66423
364.647	1599.70399
365.158	1792.741
365.669	1807.80782
366.18	1705.76297
366.691	1805.56835
367.201	1672.76016
367.712	1699.59957
368.222	1785.57743
368.733	1746.4135
369.243	1938.37167
369.753	1947.48528
370.263	1912.55085
370.773	1921.60868
371.282	1916.44692
371.792	1927.22491
372.301	2047.32124
372.811	2124.49907
373.32	2035.91252
373.829	2087.05948
374.338	2212.82085
374.847	2218.8124
375.356	2320.7569
375.865	2356.40559
376.373	2479.39473
376.882	2624.55559
377.39	2611.37578
377.898	2617.23574
378.407	2768.95076
378.915	2946.78723
379.423	2926.8223
379.93	3172.64623
380.438	3155.62989
380.946	3392.55848
381.453	3503.57123
381.96	3611.67592
382.468	3693.96274
382.975	4210.34062
383.482	4346.95779
383.989	4249.58355
384.495	4370.5432
385.002	4683.5912
385.509	4860.07744
386.015	5187.58467
386.521	5588.253
387.028	5617.95311
387.534	5912.15872
388.04	6240.54359
388.546	6033.03769
389.051	6061.52838
389.557	6879.88368
390.063	8041.0956
390.568	7877.0665
391.073	7925.14902
391.578	8444.90902
392.084	8431.09602
392.589	8359.84383
393.093	8683.82783
393.598	9996.24162
394.103	10837.89434
394.607	12195.07524
395.112	13120.79124
395.616	13876.19835
396.12	14188.36079
396.624	15804.26232
397.128	17301.40078
397.632	19605.34831
398.136	21281.10972
398.639	20433.25127
399.143	22244.9777
399.646	25295.92581
400.15	24150.02452
400.653	19936.58046
401.156	13866.23708
401.659	5169.95759
402.162	1054.15589
402.664	0
403.167	0
403.67	0
404.172	0
404.674	0
405.176	0
405.678	0
406.18	0
406.682	0
407.184	0
407.686	0
408.187	0
408.688	0
409.19	0
409.691	0
410.192	0
410.693	0
411.194	435.30976
411.694	4082.94878
412.195	8864.71461
412.696	12089.80453
413.196	12760.96929
413.696	12863.67595
414.196	13703.56671
414.696	17261.84252
415.196	21764.24417
415.696	29583.19008
416.196	36460.31858
416.695	35557.06241
417.195	27778.64645
417.694	26365.75719
418.194	25264.06564
418.693	23081.07305
419.192	22075.67539
419.691	21960.70315
420.19	21654.80798
420.688	21128.49961
421.187	20400.4505
421.685	19756.02047
422.184	18106.22741
422.682	15792.44101
423.18	12712.63967
423.678	11121.4005
424.176	10451.03605
424.674	9567.59208
425.172	9327.50869
425.669	8840.94723
426.167	8484.94409
426.664	7592.09197
427.161	7048.24896
427.659	6376.41936
428.156	5867.57857
428.652	5594.86202
429.149	5366.02518
429.646	5081.25269
430.143	4851.89982
430.639	4593.35043
431.135	4215.74838
431.632	4001.65466
432.128	3724.52751
432.624	3426.59214
433.12	3152.6111
433.616	3177.61217
434.111	2901.76981
434.607	2767.92124
435.103	2933.80632
435.598	2895.85144
436.093	2684.23482
436.588	2546.34743
437.083	2483.48468
437.578	2399.6497
438.073	2132.94983
438.568	2183.07978
439.062	2079.84475
439.557	2031.18554
440.051	1889.15761
440.546	1806.21909
441.04	1670.41804
441.534	1691.60662
442.028	1749.51761
442.522	1620.54443
443.015	1637.37416
443.509	1577.67233
444.002	1464.68344
444.496	1492.47006
444.989	1534.7298
445.482	1519.77618
445.975	1453.55419
446.468	1370.49479
446.961	1523.48976
447.454	1440.63561
447.947	1362.71217
448.439	1270.81128
448.931	1275.63874
449.424	1340.94122
449.916	1351.85856
450.408	1205.67448
450.9	1224.83053
451.392	1148.91074
451.884	1242.78516
452.375	1155.89026
452.867	1196.79068
453.358	1111.73582
453.849	1033.6355
454.341	1062.74483
454.832	1016.66548
455.323	1000.86691
455.814	1055.81739
456.304	994.80618
456.795	1029.81653
457.285	1050.81887
457.776	1005.85947
458.266	905.84028
458.756	975.92949
459.247	886.84411
459.737	851.83137
460.226	795.72802
460.716	814.83904
461.206	777.83658
461.695	831.96287
462.185	719.7873
462.674	845.86019
463.163	772.76361
463.653	747.68556
464.142	738.85488
464.63	780.93491
465.119	709.79028
465.608	697.78463
466.096	707.74696
466.585	737.85723
467.073	748.92445
467.561	660.85071
468.05	677.83194
468.538	653.88652
469.026	623.82521
469.513	664.71687
470.001	558.70221
470.489	549.73968
470.976	645.82762
471.463	587.8662
471.951	529.80971
472.438	530.73744
472.925	469.66149
473.412	503.77581
473.899	482.68396
474.385	493.76754
474.872	470.68382
475.359	505.78073
475.845	453.57484
476.331	495.67651
476.817	439.71023
477.303	491.73502
477.789	424.68343
478.275	401.67517
478.761	387.63917
479.247	405.61242
479.732	298.52379
480.218	359.66502
480.703	388.67665
481.188	279.41954
481.673	331.53362
482.158	219.3287
482.643	357.66329
483.128	325.52513
483.612	271.46372
484.097	273.49963
484.581	231.40313
485.066	270.48853
485.55	197.32188
486.034	204.32912
486.518	242.42468
487.002	236.43661
487.486	197.37002
487.969	191.35998
488.453	200.39577
488.936	174.30325
489.42	224.3805
489.903	204.40671
490.386	196.23969
490.869	217.36751
491.352	186.3653
491.835	157.25609
492.318	138.2479
492.8	140.22958
493.283	151.30994
493.765	111.22248
494.247	181.34214
494.73	142.25285
495.212	180.35486
495.694	91.17396
496.175	59.11492
496.657	143.27813
497.139	165.22979
497.62	76.14835
498.102	57.11832
498.583	88.18499
499.064	56.1036
499.545	81.15401
500.026	65.12148
500.507	58.11332
500.988	110.2291
501.469	34.07223
501.949	74.15529
502.43	14.02821
502.91	68.11707
503.39	7.01517
503.87	26.05196
504.35	75.15081
504.83	-18.03388
505.31	53.10928
505.79	-29.06004
506.269	11.02222
506.749	19.03711
507.228	13.02619
507.707	65.12214
508.187	50.10302
508.666	-7.01489
509.145	-42.08557
509.623	2.00407
510.102	-14.02964
510.581	54.11292
511.059	-34.07456
511.538	27.06102
512.016	30.0622
512.494	59.12395
512.972	1.00209
513.45	-70.14222
513.928	-23.04889
514.406	-52.10951
514.884	18.04042
515.361	-26.0548
515.839	5.00993
516.316	-2.00422
516.793	-15.03364
517.27	-10.02147
517.747	-8.01808
518.224	12.02439
518.701	-15.02945
519.178	-14.03049
519.654	-26.05512
520.131	-13.02844
520.607	5.01099
521.083	-19.03838
521.56	-15.03137
522.036	1.00194
522.512	19.04153
522.987	-52.1097
523.463	-56.11913
523.939	16.03476
524.414	-15.0309
524.89	-9.01898
525.365	-35.0707
525.84	-62.13131
526.315	-42.09043
526.79	-41.08279
527.265	-56.11476
527.74	-41.08951
528.215	-18.03786
528.689	-47.09325
529.164	-44.08597
529.638	-20.04616
530.112	-22.04621
530.587	-72.13807
531.061	-53.11473
531.534	-43.09412
532.008	-64.13875
532.482	-63.13113
532.956	-77.17734
533.429	-1.00217
533.903	-6.0119
534.376	-61.12204
534.849	-28.05842
535.322	0
535.795	-21.0462
536.268	-61.13278
536.741	-69.1509
537.213	31.0638
537.686	-99.2198
538.158	-68.13759
538.631	-42.09273
539.103	-74.15028
539.575	-39.07365
540.047	-96.19335
540.519	-59.12848
540.991	-24.05319
541.463	-52.11437
541.934	-57.11843
542.406	-56.12089
542.877	-74.1522
543.348	-69.15217
543.82	-15.03325
544.291	-22.04649
544.762	-43.09201
545.233	-85.19405
545.703	-147.29996
546.174	-27.05655
546.645	-90.19445
547.115	-46.09985
547.585	-9.01852
548.056	-66.14272
548.526	-8.01666
548.996	-2.00428
549.466	63.13556
549.935	-31.06504
550.405	-2.00386
550.875	6.01251
551.344	51.107
551.814	24.04843
552.283	93.17493
552.752	16.03246
553.221	5.00946
553.69	88.16761
554.159	5.01071
554.628	40.07704
555.096	35.07713
555.565	48.09276
556.033	70.14384
556.502	34.07261
556.97	10.0197
557.438	-5.01062
557.906	5.01067
558.374	-66.13844
558.842	-63.13754
559.31	-11.02234
559.777	-96.21327
560.245	-33.07107
560.712	-114.2463
561.18	-76.15483
561.647	-73.15079
562.114	-80.1684
562.581	-40.09064
563.048	-33.07009
563.514	-93.21137
563.981	-70.14891
564.448	-36.07444
564.914	11.02343
565.381	-23.04832
565.847	-9.01938
566.313	-36.07751
566.779	8.01653
567.245	-92.20133
567.711	-75.16714
568.176	-90.18853
568.642	-58.13436
569.108	-12.02704
569.573	35.07528
570.038	-30.05845
570.504	-14.02874
570.969	-2.00459
571.434	-13.02608
571.899	-15.03272
572.363	27.05592
572.828	42.08744
573.293	38.07907
573.757	8.01677
574.222	24.04849
574.686	-25.05125
575.15	0
575.614	50.10344
576.078	79.16597
576.542	65.13336
577.006	42.08561
577.469	136.3
577.933	30.06067
578.396	93.19822
578.86	82.1736
579.323	80.1707
579.786	83.16082
580.249	29.05985
580.712	46.10194
581.175	27.06047
581.637	66.13789
582.1	94.1861
582.563	77.14998
583.025	60.13124
583.487	40.07341
583.95	6.01177
584.412	95.17984
584.874	21.04647
585.336	28.06044
585.797	10.01983
586.259	46.099
586.721	-11.02372
587.182	80.1701
587.643	48.09944
588.105	62.13321
588.566	19.03685
589.027	-13.02873
589.488	19.03977
589.949	64.14082
590.41	-14.02517
590.87	16.03368
591.331	39.07734
591.791	23.04853
592.252	15.03135
592.712	29.0638
593.172	54.11067
593.632	68.13601
594.092	23.0471
594.552	49.09635
595.011	-13.02747
595.471	22.04521
595.931	-19.03923
596.39	37.08071
596.849	52.11023
597.308	100.1964
597.768	31.07183
598.227	36.07931
598.685	110.22849
599.144	52.11076
599.603	75.16118
600.062	0
600.52	30.06112
600.978	27.05865
601.437	113.2331
601.895	51.09863
602.353	72.14535
602.811	81.1628
603.269	109.23454
603.727	105.22603
604.184	83.16852
604.642	135.29524
605.099	123.25566
605.557	139.3027
606.014	95.1838
606.471	155.34184
606.928	108.2062
607.385	174.37078
607.842	282.5549
608.299	326.64964
608.755	301.62257
609.212	281.53587
609.668	239.45644
610.125	340.7015
610.581	373.75834
611.037	404.78336
611.493	337.68703
611.949	239.50386
612.405	254.44293
612.861	338.68891
613.316	313.64623
613.772	281.56322
614.227	353.71441
614.683	376.68973
615.138	309.62708
615.593	303.61238
616.048	401.78442
616.503	401.8461
616.958	309.67544
617.412	303.6267
617.867	357.67751
618.321	397.70315
618.776	341.65662
619.23	335.68575
619.684	370.72601
620.138	426.85168
620.592	382.80548
621.046	382.78107
621.5	364.77259
621.954	351.69539
622.407	341.66926
622.861	294.636
623.314	320.64718
623.768	301.6248
624.221	234.41776
624.674	311.63864
625.127	333.69245
625.58	356.72197
626.033	315.62524
626.485	247.53627
626.938	295.63338
627.39	297.62338
627.843	264.5562
628.295	306.63901
628.747	282.60926
629.199	238.49723
629.651	262.54421
630.103	280.58497
630.555	248.48385
631.006	244.52829
631.458	240.52319
631.909	321.67405
632.361	244.52784
632.812	234.50188
633.263	256.51205
633.714	271.5379
634.165	309.68914
634.616	325.70861
635.067	315.64481
635.518	259.57644
635.968	284.53041
636.419	288.58193
636.869	351.76627
637.319	279.60033
637.769	324.66789
638.219	325.71942
638.669	317.69966
639.119	379.84767
639.569	329.73434
640.019	422.88708
640.468	359.73853
640.918	406.89475
641.367	372.76752
641.816	431.87546
642.265	406.85872
642.714	416.87871
643.163	473.98092
643.612	358.79262
644.061	391.75689
644.51	451.93071
644.958	454.90261
645.406	509.09039
645.855	501.10554
646.303	549.14277
646.751	498.0155
647.199	536.0857
647.647	549.12198
648.095	550.11971
648.543	571.03151
648.99	596.2559
649.438	621.28429
649.885	586.28881
650.333	622.04475
650.78	592.26603
651.227	661.40433
651.674	641.27538
652.121	618.3274
652.568	588.26776
653.015	662.47259
653.461	606.27364
653.908	662.34689
654.354	565.2069
654.801	573.19599
655.247	590.14785
655.693	541.27476
656.139	580.24086
656.585	590.2612
657.031	526.10283
657.477	500.97694
657.922	541.1186
658.368	615.35126
658.813	584.21548
659.259	542.17244
659.704	570.1884
660.149	564.17848
660.594	538.15386
661.039	540.10879
661.484	568.22249
661.929	563.18496
662.373	480.11045
662.818	505.14408
663.262	476.05093
663.707	563.29064
664.151	559.23527
664.595	541.18249
665.039	558.25895
665.483	504.1762
665.927	537.14948
666.371	505.06409
666.814	537.1673
667.258	524.12668
667.701	548.07156
668.145	598.34272
668.588	530.18791
669.031	492.06003
669.474	543.19037
669.917	569.13821
670.36	563.26844
670.803	608.32102
671.245	560.06558
671.688	581.28448
672.13	525.07236
672.573	573.32513
673.015	576.25353
673.457	520.03401
673.899	564.24348
674.341	607.32025
674.783	566.23174
675.225	596.32508
675.666	522.14835
676.108	522.03703
676.549	556.20124
676.991	590.17238
677.432	550.99175
677.873	610.2708
678.314	553.20519
678.755	535.19298
679.196	564.17327
679.637	543.21684
680.078	572.21845
680.518	566.20304
680.959	541.18697
681.399	575.29867
681.839	521.16747
682.28	530.20105
682.72	530.11124
683.16	576.30649
683.6	515.08235
684.039	536.01933
684.479	475.08298
684.919	485.03262
685.358	547.27544
685.798	503.22171
686.237	554.22752
686.676	553.17511
687.115	517.11947
687.554	517.13138
687.993	479.98493
688.432	485.02725
688.871	514.07288
689.309	491.08659
689.748	496.95947
690.186	552.20886
690.625	505.09298
691.063	480.06949
691.501	526.19921
691.939	537.23146
692.377	462.05138
692.815	482.06997
693.253	518.1505
693.69	519.04857
694.128	490.10037
694.565	515.13411
695.003	542.26599
695.44	488.06354
695.877	489.05784
696.314	507.006
696.751	557.16254
697.188	511.08242
697.625	520.10223
698.061	451.01161
698.498	543.20835
698.934	507.12999
699.371	464.01756
699.807	521.13631
700.243	485.084
700.679	509.06454
701.115	525.14069
701.551	508.10674
701.987	493.02783
702.422	473.04539
702.858	505.11298
703.294	529.10205
703.729	520.17549
704.164	491.09698
704.599	460.95716
705.035	461.96244
705.47	494.11391
705.904	508.09269
706.339	548.17028
706.774	539.15874
707.209	488.04285
707.643	486.08467
708.078	495.11821
708.512	456.06567
708.946	585.27772
709.38	558.21019
709.814	506.06924
710.248	545.22082
710.682	493.08694
711.116	496.09426
711.549	473.14016
711.983	513.09329
712.416	518.13095
712.85	539.23753
713.283	523.14068
713.716	585.34327
714.149	591.28214
714.582	533.09809
715.015	589.34653
715.448	540.25441
715.881	545.09163
716.313	488.06085
716.746	498.08492
717.178	523.15897
717.61	537.25601
718.043	562.28448
718.475	532.18751
718.907	583.35041
719.339	468.98766
719.77	504.10358
720.202	512.1991
720.634	487.09966
721.065	549.19241
721.497	562.26128
721.928	523.18396
722.359	504.1226
722.79	500.10724
723.221	572.31837
723.652	599.41103
724.083	535.10518
724.514	528.11483
724.945	528.14114
725.375	540.14669
725.806	546.25437
726.236	590.38093
726.666	609.3044
727.096	598.33393
727.526	575.33554
727.956	625.27525
728.386	577.29737
728.816	587.35432
729.246	625.3698
729.675	593.32631
730.105	696.52653
730.534	639.34221
730.964	673.52765
731.393	675.5037
731.822	690.57732
732.251	655.49696
732.68	728.51293
733.109	672.48188
733.537	686.47489
733.966	685.51907
734.395	721.46543
734.823	780.52611
735.251	716.5256
735.68	743.64574
736.108	735.64758
736.536	773.5905
736.964	682.40527
737.392	822.78719
737.82	797.66272
738.247	826.70842
738.675	826.70538
739.102	819.77652
739.53	789.75926
739.957	851.89597
740.384	886.87179
740.811	841.84822
741.238	853.78986
741.665	826.64443
742.092	874.78282
742.519	887.87513
742.945	857.76351
743.372	898.89633
743.798	940.05327
744.225	901.81511
744.651	944.00311
745.077	971.03327
745.503	945.943
745.929	1009.00257
746.355	1046.15162
746.781	990.04991
747.207	936.83869
747.632	1017.04934
748.058	1048.15959
748.483	1087.01696
748.908	1089.21169
749.334	1079.16657
749.759	1050.0209
750.184	1041.03081
750.609	1138.25651
751.033	1105.10927
751.458	1124.00399
751.883	1157.30753
752.307	1147.15177
752.732	1119.26757
753.156	1183.33342
753.58	1215.2697
754.005	1218.4668
754.429	1229.25543
754.853	1227.40349
755.277	1195.23113
755.7	1257.45086
756.124	1236.42059
756.548	1273.33413
756.971	1277.43028
757.394	1308.64211
757.818	1331.66974
758.241	1328.61814
758.664	1337.6145
759.087	1286.17691
759.51	1353.58891
759.933	1344.46661
760.356	1392.74071
760.778	1401.60805
761.201	1395.56755
761.623	1406.57312
762.046	1356.44293
762.468	1410.54576
762.89	1434.66379
763.312	1395.57901
763.734	1330.45177
764.156	1416.64058
764.578	1431.42838
765	1401.58247
765.421	1379.68543
765.843	1398.82794
766.264	1386.53385
766.686	1415.69879
767.107	1379.53171
767.528	1361.64035
767.949	1381.69565
768.37	1358.54698
768.791	1398.55077
769.212	1275.50705
769.632	1332.34972
770.053	1365.79545
770.473	1325.47582
770.894	1291.52438
771.314	1376.48412
771.734	1321.33926
772.154	1324.65023
772.575	1290.28825
772.994	1321.26229
773.414	1325.43707
773.834	1280.50107
774.254	1241.3832
774.673	1258.39231
775.093	1229.39728
775.512	1215.36435
775.931	1243.49186
776.351	1195.35932
776.77	1171.27962
777.189	1158.18786
777.607	1130.3433
778.026	1098.22445
778.445	1071.19279
778.864	1153.39263
779.282	1031.034
779.701	1138.31814
780.119	1073.22251
780.537	1050.15311
780.955	1050.20614
781.373	1058.14329
781.791	1027.86709
782.209	1032.93449
782.627	1019.24511
783.045	975.84673
783.462	989.1137
783.88	966.10481
784.297	945.00133
784.715	928.01937
785.132	907.85312
785.549	866.85422
785.966	891.90982
786.383	857.803
786.8	881.72523
787.217	801.63488
787.633	793.71864
788.05	896.79635
788.466	787.60337
788.883	773.72428
789.299	791.64727
789.715	830.73201
790.131	779.68685
790.547	766.67172
790.963	730.59377
791.379	734.63422
791.795	726.44309
792.21	692.42398
792.626	670.40834
793.041	645.42377
793.457	691.51333
793.872	635.33087
794.287	602.29077
794.702	589.31302
795.117	591.3278
795.532	573.30414
795.947	566.23591
796.362	612.31224
796.776	621.30149
797.191	539.20439
797.605	482.04067
798.02	513.1448
798.434	517.04787
798.848	488.10842
799.262	435.00597
799.676	536.19448
800.09	501.13408
800.504	442.99973
800.918	409.88644
801.331	444.08805
801.745	418.89608
802.158	391.92156
802.572	432.97871
802.985	451.01202
803.398	378.85014
803.811	450.0787
804.224	368.86753
804.637	319.72496
805.05	306.67807
805.462	339.79282
805.875	276.68987
806.288	282.65372
806.7	344.8226
807.112	292.64894
807.525	318.74998
807.937	265.63216
808.349	301.72324
808.761	276.65398
809.173	262.61289
809.584	273.65049
809.996	256.60566
810.408	227.56977
810.819	235.53581
811.231	250.62557
811.642	275.63029
812.053	275.62877
812.464	344.77559
812.875	340.8276
813.286	289.71543
813.697	295.66091
814.108	233.55264
814.519	202.43904
814.929	217.53938
815.34	162.38654
815.75	152.38065
816.16	175.42817
816.571	213.53963
816.981	162.3763
817.391	180.42603
817.801	124.30503
818.211	161.3776
818.62	148.35125
819.03	192.46022
819.44	216.55005
819.849	163.40399
820.259	151.38107
820.668	140.33993
821.077	112.27602
821.486	194.45668
821.895	175.42435
822.304	134.35108
822.713	115.26972
823.122	110.27259
823.531	78.18476
823.939	90.21853
824.348	101.24427
824.756	120.29791
825.164	113.28222
825.573	88.22006
825.981	114.28053
826.389	109.27193
826.797	95.23683
827.205	64.14714
827.612	136.33158
828.02	41.09684
828.428	120.30279
828.835	88.23072
829.243	88.20909
829.65	40.09996
830.057	116.27912
830.464	87.21128
830.871	104.24749
831.278	85.20488
831.685	91.20238
832.092	73.17861
832.499	103.22392
832.905	120.30095
833.312	53.12139
833.718	107.26471
834.124	81.18477
834.531	76.19129
834.937	62.15923
835.343	30.07293
835.749	77.17968
836.155	63.16498
836.561	69.16964
836.966	45.11051
837.372	55.14024
837.777	58.14467
838.183	59.13154
838.588	74.18344
838.993	72.17515
839.399	46.11286
839.804	14.03444
840.209	26.06661
840.613	45.10062
841.018	66.16707
841.423	45.11579
841.828	63.15934
842.232	71.17572
842.637	61.14408
843.041	23.05935
843.445	44.11075
843.849	18.04493
844.253	79.18731
844.657	36.09107
845.061	25.05721
845.465	38.09223
845.869	39.09111
846.272	26.06375
846.676	67.16198
847.079	2.00514
847.483	50.12504
847.886	61.14853
848.289	-4.01078
848.692	46.11682
849.095	49.11802
849.498	70.1772
849.901	-3.00698
850.304	49.11744
850.707	17.04368
851.109	41.10414
851.512	14.03471
851.914	-20.05111
852.316	8.02042
852.718	16.04161
853.121	-8.01985
853.523	-8.01896
853.925	7.01842
854.326	-10.02531
854.728	45.11599
855.13	-1.00261
855.531	-23.05584
855.933	19.04599
856.334	-35.08874
856.736	-13.02957
857.137	41.09571
857.538	-6.01526
857.939	2.00499
858.34	53.12934
858.741	35.09184
859.142	22.05324
859.542	64.16865
859.943	29.07246
860.343	-22.05527
860.744	6.01479
861.144	23.05648
861.544	-10.02434
861.945	11.02827
862.345	3.00741
862.745	37.09231
863.145	56.13398
863.544	14.03565
863.944	42.09957
864.344	34.08484
864.743	52.12919
865.143	20.05171
865.542	7.01641
865.941	10.02497
866.34	30.07227
866.74	24.06475
867.139	-8.0194
867.537	81.20552
867.936	-32.07834
868.335	29.07415
868.734	10.02576
869.132	11.0258
869.531	16.03901
869.929	-42.09768
870.327	15.03625
870.726	49.12238
871.124	28.06584
871.522	13.03337
871.92	55.13572
872.318	-9.02227
872.715	35.087
873.113	-4.00986
873.511	49.12225
873.908	-29.07431
874.306	-1.00251
874.703	39.0979
875.1	13.03351
875.497	14.03384
875.894	-70.17549
876.291	30.07399
876.688	-20.05226
877.085	54.12964
877.482	7.01768
877.878	25.06053
878.275	20.05113
878.671	53.11816
879.068	12.02921
879.464	-11.02692
879.86	-40.09636
880.256	37.09164
880.652	-18.04637
881.048	39.09695
881.444	51.12153
881.84	11.02818
882.236	56.1408
882.631	21.05188
883.027	70.16907
883.422	28.07194
883.817	0
884.213	20.05163
884.608	1.00248
885.003	16.03886
885.398	12.03027
885.793	0
886.188	-23.05798
886.582	20.05162
886.977	46.10938
887.371	13.03312
887.766	-25.06307
888.16	41.10258
888.554	43.10658
888.949	12.03037
889.343	-15.03712
889.737	-37.10007
890.131	16.04042
890.525	19.04889
890.918	8.0203
891.312	68.16232
891.706	3.00794
892.099	22.0563
892.492	5.01091
892.886	1.00247
893.279	37.09454
893.672	-1.00257
894.065	52.13027
894.458	37.09334
894.851	45.11047
895.244	5.01288
895.637	26.06297
896.029	6.0148
896.422	16.03937
896.814	22.05502
897.206	-12.02894
897.599	65.16046
897.991	10.02438
898.383	8.01907
898.775	16.0364
899.167	-9.02125
899.559	25.06361
899.951	24.05692
900.342	32.0817
900.734	-30.07556
901.125	28.07379
901.517	-25.06226
901.908	61.14608
902.299	3.0074
902.69	-25.05989
903.082	35.08506
903.473	-13.03152
903.863	28.07176
904.254	-22.05183
904.645	24.06002
905.036	-10.0245
905.426	36.08273
905.817	42.10328
906.207	6.01443
906.597	-12.02843
906.987	3.00784
907.378	12.03057
907.768	18.04786
908.158	-5.01232
908.547	0
908.937	7.01811
909.327	-12.0295
909.717	43.10937
910.106	37.08915
910.495	24.06023
910.885	12.03061
911.274	11.0277
911.663	43.10933
912.052	34.08419
912.441	20.05115
912.83	5.01159
913.219	34.08926
913.608	18.04438
913.997	-44.11221
914.385	6.01446
914.774	17.04167
915.162	-39.09457
915.55	-1.00244
915.939	-7.01786
916.327	44.10999
916.715	-13.03351
917.103	30.07415
917.491	31.077
917.878	23.05686
918.266	30.07809
918.654	11.02831
919.041	-12.03167
919.429	-21.05027
919.816	27.06875
920.203	-1.00245
920.591	44.10927
920.978	4.00988
921.365	22.05801
921.752	-7.01688
922.139	24.05243
922.525	-48.11747
922.912	27.06616
923.299	-16.04026
923.685	9.02365
924.072	-8.01867
924.458	28.06967
924.844	-7.01751
925.231	-21.04958
925.617	1.00257
926.003	40.10244
926.389	9.02288
926.774	2.00511
927.16	11.02752
927.546	-1.00258
927.931	30.07516
928.317	35.0809
928.702	24.05709
929.088	-17.04074
929.473	10.02563
929.858	-45.11076
930.243	-13.03158
930.628	-5.01229
931.013	-4.01001
931.398	52.1196
931.783	26.06875
932.167	3.0074
932.552	52.13027
932.937	23.05738
933.321	-32.08149
933.705	19.04817
934.09	30.0761
934.474	32.0763
934.858	13.03394
935.242	14.03269
935.626	2.00516
936.009	-3.00805
936.393	6.01539
936.777	-16.04145
937.16	-2.00525
937.544	44.10382
937.927	5.01279
938.311	45.10998
938.694	65.17149
939.077	-28.06804
939.46	47.11551
939.843	-5.01056
940.226	36.09259
940.609	15.03469
940.991	6.01539
941.374	-9.02224
941.757	10.02486
942.139	-14.03186
942.522	18.04282
942.904	-15.03651
943.286	26.06635
943.668	40.1038
944.05	-8.01992
944.432	-17.04247
944.814	26.06434
945.196	-38.09413
945.578	-26.0627
945.959	-23.05468
946.341	40.0984
946.722	26.06133
947.104	23.05527
947.485	-5.01176
947.866	-12.03057
948.247	-35.08965
948.628	6.01476
949.009	-7.01811
949.39	20.05007
949.771	36.08399
950.152	15.03706
950.532	-60.15058
950.913	65.15638
951.293	11.0299
951.674	-18.0441
952.054	10.02496
952.434	13.03249
952.814	-15.03614
953.194	26.06833
953.574	40.09872
953.954	-2.0048
954.334	-7.01763
954.714	-23.05682
955.093	-13.03234
955.473	-24.06082
955.853	9.02346
956.232	47.12888
956.611	44.10567
956.99	16.04046
957.37	-8.0206
957.749	8.01924
958.128	-13.03312
958.506	3.00785
958.885	20.05075
959.264	10.02469
959.643	-8.01842
960.021	-7.01753
960.4	-13.02985
960.778	39.09627
961.156	28.07048
961.535	10.0235
961.913	-1.00236
962.291	-20.05194
962.669	-3.00767
963.047	5.01286
963.424	5.01286
963.802	8.01982
964.18	34.08628
964.557	33.07628
964.935	5.01195
965.312	0
965.69	48.12025
966.067	9.02209
966.444	39.09631
966.821	46.11868
967.198	47.1141
967.575	22.05438
967.952	56.13183
968.329	1.00246
968.705	19.04102
969.082	28.07209
969.458	-27.06572
969.835	-18.04438
970.211	29.0747
970.587	19.04757
970.963	37.09514
971.339	13.03416
971.715	53.13227
972.091	2.00497
972.467	25.06264
972.843	-11.0276
973.219	20.04831
973.594	-13.03437
973.97	45.10723
974.345	-32.07779
974.721	37.08982
975.096	4.00976
975.471	32.07618
975.846	0
976.221	9.02302
976.596	7.01692
976.971	47.11611
977.346	11.02581
977.72	39.09955
978.095	-6.01566
978.469	5.01204
978.844	51.1282
979.218	22.05302
979.593	32.07694
979.967	0
980.341	2.00465
980.715	1.00254
981.089	46.11524
981.463	-8.01858
981.837	0
982.21	29.06778
982.584	-12.02932
982.957	-9.02271
983.331	39.0924
983.704	23.0568
984.078	25.0619
984.451	70.17423
984.824	-5.0123
985.197	-20.04922
985.57	37.09301
985.943	59.14548
986.316	46.11312
986.688	4.00973
987.061	13.03069
987.434	26.06803
987.806	19.04635
988.179	-6.01431
988.551	27.06877
988.923	16.03965
989.295	35.0877
989.667	-19.04599
990.039	-26.06514
990.411	-2.00465
990.783	25.05785
991.155	-18.0438
991.527	66.16206
991.898	14.03511
992.27	14.03486
992.641	43.10802
993.012	12.02845
993.384	-3.00723
993.755	7.01798
994.126	24.05801
994.497	-7.01736
994.868	45.10348
995.239	14.03416
995.61	22.05563
995.98	13.0318
996.351	-21.05268
996.722	-16.03759
997.092	16.03813
997.462	-21.04973
997.833	-4.00958
998.203	11.02686
998.573	7.01757
998.943	0
999.313	19.0458
999.683	14.03383
1000.053	22.0509
1000.423	19.04644
1000.792	28.07284
1001.162	-29.0724
1001.531	-4.00996
1001.901	48.11969
1002.27	8.01804
1002.639	-2.00516
1003.009	13.03113
1003.378	5.01288
1003.747	19.04515
1004.116	-26.06311
1004.485	-8.01933
1004.853	11.02806
1005.222	1.00254
1005.591	-8.01921
1005.959	-17.03883
1006.328	-49.11249
1006.696	-9.02195
1007.064	11.02786
1007.433	26.06525
1007.801	38.09348
1008.169	12.03051
1008.537	27.06007
1008.905	-5.01177
1009.273	4.00996
1009.64	-34.0824
1010.008	45.10736
1010.375	23.05613
1010.743	57.13144
1011.11	-16.03834
1011.478	31.07698
1011.845	6.01423
1012.212	-2.00457
1012.579	11.02719
1012.946	5.012
1013.313	42.1001
1013.68	31.06994
1014.047	-35.08474
1014.414	-9.0215
1014.78	-10.02512
1015.147	39.0945
1015.513	-3.0073
1015.88	51.13036
1016.246	32.07924
1016.612	9.02077
1016.978	18.04436
1017.344	1.00249
1017.71	39.09528
1018.076	-14.03342
1018.442	-9.02338
1018.808	10.02517
1019.174	4.01011
1019.539	57.13102
1019.905	-41.09838
1020.27	-52.13069
1020.636	29.06979
1021.001	-13.03149
1021.366	-21.0511
1021.731	-15.039
1022.096	-43.11022
1022.461	-4.00956
1022.826	-3.0072
1023.191	-17.04509
1023.556	33.07758
1023.92	21.0519
1024.285	38.09293
1024.649	31.07622
1025.014	53.13117
1025.378	-8.02032
1025.742	22.0549
1026.107	37.08389
1026.471	57.13285
1026.835	-2.005
1027.199	-27.06592
1027.562	39.09083
1027.926	2.00493
1028.29	16.04072
1028.654	4.00928
1029.017	21.05188
1029.381	-49.11922
1029.744	15.03848
1030.107	66.15561
1030.471	-3.00725
1030.834	23.05259
1031.197	55.13232
1031.56	7.01665
1031.923	26.06747
1032.286	49.11506
1032.648	-1.00241
1033.011	13.03005
1033.374	21.04962
1033.736	-23.06119
1034.099	8.01964
1034.461	-30.07683
1034.823	-54.13694
1035.185	6.01522
1035.548	10.02451
1035.91	-2.00484
1036.272	-15.03458
1036.634	31.07608
1036.995	4.00948
1037.357	-1.00245
1037.719	6.01471
1038.08	-4.00959
1038.442	-36.08682
1038.803	2.00484
1039.165	-11.02805
1039.526	15.03647
1039.887	-12.02904
1040.248	-46.11528
1040.609	11.02736
1040.97	-16.03956
1041.331	11.02803
1041.692	-46.10934
1042.053	18.04123
1042.413	5.01175
1042.774	1.00245
1043.134	61.14486
1043.495	57.14303
1043.855	24.05847
1044.215	38.09448
1044.576	-46.11194
1044.936	32.0736
1045.296	55.13707
1045.656	19.04687
1046.016	2.00487
1046.375	29.07059
1046.735	-30.06908
1047.095	18.04237
1047.454	21.04476
1047.814	-20.04869
1048.173	49.11703
1048.533	-41.0956
1048.892	-33.08041
1049.251	42.10552
1049.61	0
1049.969	0
1050.328	5.01094
1050.687	-3.00737
1051.046	14.0343
1051.405	-3.00753
1051.763	-11.02559
1052.122	-32.08095
1052.48	-11.02726
1052.839	-17.04049
1053.197	13.0308
1053.555	41.0936
1053.914	27.06628
1054.272	55.13277
1054.63	-9.02223
1054.988	-19.04571
1055.345	-15.03273
1055.703	43.10357
1056.061	7.01813
1056.419	2.00522
1056.776	41.09953
1057.134	25.05813
1057.491	63.15729
1057.848	9.02256
1058.206	-36.08603
1058.563	-21.04695
1058.92	43.09919
1059.277	42.1037
1059.634	2.00475
1059.991	-3.00726
1060.348	-12.02744
1060.704	-36.08715
1061.061	31.07225
1061.418	-41.10106
1061.774	2.00498
1062.131	-22.05883
1062.487	25.0587
1062.843	14.03511
1063.199	16.04001
1063.555	-45.10616
1063.911	-12.03063
1064.267	29.06074
1064.623	16.03908
1064.979	57.13478
1065.335	23.05523
1065.691	5.01208
1066.046	-4.00889
1066.402	-3.00688
1066.757	23.05829
1067.112	59.14447
1067.468	-31.0743
1067.823	55.13202
1068.178	0
1068.533	10.02441
1068.888	25.05998
1069.243	13.03228
1069.598	44.10696
1069.952	-39.08936
1070.307	1.0025
1070.662	7.01674
1071.016	-36.08204
1071.371	0
1071.725	51.1219
1072.079	4.0097
1072.434	-50.12368
1072.788	27.06454
1073.142	61.14964
1073.496	-6.01438
1073.85	-2.00468
1074.203	5.01222
1074.557	17.04542
1074.911	53.12634
1075.265	-4.00939
1075.618	31.07591
1075.971	20.04781
1076.325	8.02047
1076.678	-11.02545
1077.031	-29.06663
1077.385	5.01111
1077.738	-70.16177
1078.091	-55.12763
1078.444	-13.03054
1078.796	-29.07214
1079.149	53.13165
1079.502	-7.01671
1079.855	5.01175
1080.207	41.1011
1080.56	10.026
1080.912	22.0538
1081.264	-12.02921
1081.617	-4.00984
1081.969	14.03552
1082.321	0
1082.673	-67.1564
1083.025	16.03818
1083.377	38.08172
1083.728	1.00235
1084.08	31.07759
1084.432	4.00972
1084.783	0
1085.135	12.03026
1085.486	-39.09076
1085.838	-4.00994
1086.189	-38.09368
1086.54	-15.03624
1086.891	-15.03834
1087.242	7.01717
1087.593	19.04649
1087.944	-19.04357
1088.295	-12.0276
1088.646	-6.01468
1088.996	-21.05123
1089.347	0
1089.698	-31.07435
1090.048	17.04437
1090.398	-15.03521
1090.749	45.10768
1091.099	-28.07133
1091.449	25.06251
1091.799	9.02268
1092.149	-2.00492
1092.499	-5.01231
1092.849	-33.08503
1093.199	45.1128
1093.548	-15.03646
1093.898	6.01512
1094.248	4.01035
1094.597	-23.05941
1094.947	10.02683
1095.296	-22.055
1095.645	17.04443
1095.994	21.05067
1096.343	-10.02541
1096.692	4.01058
1097.041	-19.05197
1097.39	14.03531
1097.739	33.08595
1098.088	59.1577
1098.437	-38.10122
1098.785	40.10792
1099.134	34.09044
1099.482	23.06347
1099.83	55.14428
1100.179	-23.06068
1100.527	12.03206
1100.875	-20.05345
1101.223	12.03204
1101.571	19.05271
1101.919	-44.11669
1102.267	20.05651
1102.615	-4.01287
1102.962	12.03863
1103.31	-3.00965
1103.658	11.03543
