Data from N2 R8 sample 11_Subt2__4__17-09-43-438.txt Node

Date: Fri Aug 29 17:09:43 PDT 2025
User: uwsun
Spectrometer: HDX01956
Trigger mode: 0
Integration Time (sec): 5.000000E-1
Scans to average: 1
Nonlinearity correction enabled: true
Boxcar width: 0
Storing dark spectrum: false
XAxis mode: Wavelengths
Number of Pixels in Spectrum: 2068
>>>>>Begin Spectral Data<<<<<
194.03	139.38176
194.578	132.4106
195.127	131.40138
195.676	147.45087
196.225	180.46307
196.773	174.46374
197.321	257.66031
197.87	336.7798
198.418	289.66769
198.966	325.75025
199.513	268.59437
200.061	250.56644
200.609	355.83608
201.156	269.51772
201.704	235.53084
202.251	249.59286
202.798	299.69079
203.345	307.67533
203.892	331.73484
204.438	319.67369
204.985	293.60874
205.532	299.69929
206.078	340.7333
206.624	307.66426
207.17	336.6839
207.716	359.75849
208.262	317.54478
208.808	258.56218
209.354	292.62735
209.899	382.84857
210.445	315.68739
210.99	266.56805
211.535	352.7243
212.08	298.61319
212.625	361.7931
213.17	334.74812
213.715	229.45071
214.259	328.67218
214.804	374.81007
215.348	344.68902
215.892	330.69707
216.436	336.68608
216.98	357.6904
217.524	329.68322
218.068	373.82462
218.612	339.75572
219.155	295.61563
219.698	331.69535
220.242	316.70285
220.785	284.59201
221.328	314.69667
221.871	289.65919
222.414	340.75215
222.956	232.50231
223.499	248.50088
224.041	355.7303
224.583	360.6837
225.126	205.40956
225.668	309.66687
226.21	284.63876
226.751	263.5108
227.293	324.65557
227.835	291.63287
228.376	330.67566
228.918	297.67251
229.459	282.62594
230	269.57283
230.541	267.55126
231.082	268.58149
231.622	285.58604
232.163	255.55341
232.704	282.62333
233.244	276.61186
233.784	283.62254
234.324	278.53697
234.864	290.58274
235.404	342.71766
235.944	329.68962
236.484	323.71618
237.023	241.51031
237.563	272.55818
238.102	327.68058
238.641	289.652
239.18	256.53175
239.719	312.69482
240.258	339.66753
240.797	288.60996
241.335	300.65258
241.874	278.4679
242.412	293.62285
242.95	258.5469
243.488	309.62078
244.026	284.57753
244.564	297.5356
245.102	304.59847
245.64	293.62774
246.177	316.62092
246.715	337.71107
247.252	286.58187
247.789	370.59939
248.326	265.56186
248.863	289.55514
249.4	302.6035
249.936	328.58379
250.473	306.62482
251.009	298.59716
251.546	283.54729
252.082	332.63144
252.618	280.54681
253.154	261.55435
253.69	283.55988
254.226	329.68444
254.761	321.62703
255.297	255.49125
255.832	319.65802
256.367	302.6231
256.903	344.65044
257.438	356.72494
257.972	313.60618
258.507	285.5686
259.042	317.5963
259.576	299.55469
260.111	354.70774
260.645	298.56208
261.179	257.52704
261.713	279.54136
262.247	322.64495
262.781	277.50337
263.315	277.59448
263.849	285.62483
264.382	338.6723
264.915	341.68601
265.449	302.63485
265.982	324.63845
266.515	337.71014
267.048	267.49063
267.58	316.59867
268.113	262.49175
268.646	296.63594
269.178	275.53207
269.71	341.63767
270.243	369.71977
270.775	358.78436
271.307	320.66972
271.838	349.71699
272.37	319.6793
272.902	359.6976
273.433	327.61118
273.965	334.70026
274.496	350.7513
275.027	328.70165
275.558	334.69562
276.089	291.61537
276.62	367.8039
277.15	359.76115
277.681	318.59244
278.211	392.81858
278.741	285.53742
279.272	304.59396
279.802	342.73381
280.332	331.66498
280.861	289.60123
281.391	306.5922
281.921	371.76047
282.45	358.76549
282.98	410.90621
283.509	334.63648
284.038	339.65402
284.567	345.6867
285.096	312.64604
285.625	353.67384
286.153	338.66917
286.682	354.67952
287.21	345.70142
287.739	359.71324
288.267	356.72461
288.795	410.91075
289.323	323.63453
289.851	364.71457
290.378	379.70593
290.906	303.6194
291.433	349.73413
291.961	357.67056
292.488	366.76463
293.015	315.62173
293.542	358.75787
294.069	376.7674
294.596	403.82942
295.122	350.69617
295.649	377.68442
296.175	399.80122
296.702	384.77341
297.228	366.74225
297.754	391.71671
298.28	380.70445
298.806	360.71439
299.332	365.65623
299.857	403.73573
300.383	439.91164
300.908	352.69917
301.433	428.83942
301.958	413.77615
302.483	350.71823
303.008	444.89014
303.533	452.96018
304.058	382.73645
304.582	389.74004
305.107	331.71312
305.631	398.73414
306.155	370.69379
306.679	388.72539
307.203	390.72407
307.727	420.79533
308.251	450.88632
308.775	376.71026
309.298	385.73279
309.822	443.8908
310.345	456.84706
310.868	409.77355
311.391	477.92249
311.914	481.93959
312.437	462.82023
312.96	516.92661
313.482	446.81982
314.005	449.88165
314.527	477.9764
315.049	525.02189
315.571	438.73529
316.093	555.03376
316.615	520.94292
317.137	537.85714
317.659	585.05848
318.18	519.94565
318.702	515.88899
319.223	512.75932
319.744	498.81964
320.265	529.94094
320.786	559.00413
321.307	565.02482
321.828	528.86181
322.348	554.93626
322.869	514.87097
323.389	574.60467
323.909	615.98459
324.43	572.99403
324.95	513.83004
325.47	578.99596
325.989	562.91941
326.509	574.84777
327.029	624.93245
327.548	577.86654
328.067	617.99736
328.587	657.10519
329.106	670.9862
329.625	676.22444
330.144	641.95876
330.662	658.97503
331.181	656.98747
331.7	690.02261
332.218	695.91778
332.736	720.04586
333.255	676.97801
333.773	710.03511
334.291	762.18689
334.808	732.9587
335.326	718.96002
335.844	649.8996
336.361	751.13063
336.879	723.97155
337.396	722.01256
337.913	805.01866
338.43	850.01697
338.947	808.06125
339.464	767.85791
339.981	724.95011
340.497	848.14411
341.014	790.04656
341.53	805.92909
342.046	811.0577
342.562	891.17054
343.078	814.9858
343.594	844.02957
344.11	860.02753
344.626	879.12912
345.141	868.94305
345.657	924.9863
346.172	894.04214
346.687	910.95887
347.202	852.87276
347.717	989.06369
348.232	939.10763
348.747	1043.00418
349.261	893.79594
349.776	976.98629
350.29	972.03489
350.805	1054.13042
351.319	1044.98622
351.833	926.8413
352.347	1035.96861
352.861	1036.93756
353.374	1062.94928
353.888	1000.98485
354.401	1071.91081
354.915	989.79215
355.428	1105.04287
355.941	1126.90639
356.454	1181.88933
356.967	1114.94042
357.48	1144.89201
357.993	1158.02019
358.505	1104.95417
359.018	1183.98514
359.53	1202.9298
360.042	1293.80057
360.554	1205.94797
361.066	1158.91517
361.578	1142.70337
362.09	1193.87517
362.602	1173.69703
363.113	1184.7834
363.625	1194.71132
364.136	1257.67979
364.647	1161.68441
365.158	1280.7484
365.669	1335.80961
366.18	1383.76799
366.691	1304.61786
367.201	1277.75182
367.712	1275.62489
368.222	1385.62273
368.733	1322.48225
369.243	1321.4941
369.753	1438.57925
370.263	1474.62286
370.773	1478.67262
371.282	1458.53878
371.792	1386.3697
372.301	1450.47361
372.811	1598.6229
373.32	1480.13151
373.829	1503.26594
374.338	1750.03356
374.847	1606.08265
375.356	1696.04792
375.865	1707.75132
376.373	1869.72584
376.882	1960.90498
377.39	1949.73781
377.898	1923.62225
378.407	2035.35769
378.915	2233.15729
379.423	2207.2033
379.93	2243.0789
380.438	2372.96961
380.946	2538.815
381.453	2542.78306
381.96	2584.74653
382.468	2671.77951
382.975	3087.77246
383.482	3207.00145
383.989	3153.86821
384.495	3268.31105
385.002	3266.04533
385.509	3584.44406
386.015	3864.42942
386.521	4054.87812
387.028	4187.23577
387.534	4143.12225
388.04	4590.38687
388.546	4325.79611
389.051	4552.10163
389.557	4821.49682
390.063	6024.57806
390.568	5885.21075
391.073	5797.60423
391.578	6193.49514
392.084	6128.72117
392.589	5779.92871
393.093	6077.17036
393.598	6910.00449
394.103	7802.02038
394.607	8719.73075
395.112	9501.76847
395.616	9916.18299
396.12	10143.99398
396.624	11304.01158
397.128	12118.53959
397.632	14173.80632
398.136	15174.26311
398.639	14499.62141
399.143	15050.09408
399.646	17148.46067
400.15	18825.56358
400.653	18713.40212
401.156	13325.60159
401.659	5169.95759
402.162	1054.15589
402.664	0
403.167	0
403.67	0
404.172	0
404.674	0
405.176	0
405.678	0
406.18	0
406.682	0
407.184	0
407.686	0
408.187	0
408.688	0
409.19	0
409.691	0
410.192	0
410.693	0
411.194	435.30976
411.694	4082.94878
412.195	8864.71461
412.696	12089.80453
413.196	12760.96929
413.696	12863.67595
414.196	13703.56671
414.696	17261.84252
415.196	21764.24417
415.696	29583.19008
416.196	36460.31858
416.695	27987.93168
417.195	21602.54543
417.694	20488.23317
418.194	19526.87041
418.693	17633.95871
419.192	16782.8832
419.691	16896.14688
420.19	16591.70694
420.688	16371.44706
421.187	15936.50926
421.685	15334.72184
422.184	14560.52092
422.682	12745.73747
423.18	10071.56426
423.678	8724
424.176	7946.59334
424.674	7244.27784
425.172	7234.76007
425.669	7044.49156
426.167	6678.32422
426.664	5962.52284
427.161	5316.40822
427.659	4982.20545
428.156	4524.24614
428.652	4262.06724
429.149	4065.69645
429.646	4058.62404
430.143	3731.86158
430.639	3479.68497
431.135	3242.58711
431.632	3040.622
432.128	2887.70824
432.624	2640.90668
433.12	2308.96057
433.616	2279.99556
434.111	2124.17174
434.607	2095.29111
435.103	2207.18806
435.598	2134.26166
436.093	2026.60306
436.588	2002.64889
437.083	1811.8381
437.578	1770.96153
438.073	1591.1678
438.568	1646.28176
439.062	1581.05918
439.557	1483.35393
440.051	1410.29912
440.546	1209.35191
441.04	1246.4738
441.534	1274.62944
442.028	1268.5672
442.522	1149.56186
443.015	1194.43376
443.509	1263.67112
444.002	1104.65258
444.496	1042.48006
444.989	1139.69759
445.482	1102.72503
445.975	1004.53421
446.468	1092.49393
446.961	936.48187
447.454	1002.5936
447.947	918.6262
448.439	910.70358
448.931	838.55066
449.424	921.79413
449.916	924.73448
450.408	938.61547
450.9	850.69742
451.392	819.7556
451.884	865.66865
452.375	686.65566
452.867	789.64333
453.358	672.55773
453.849	707.52115
454.341	758.61995
454.832	764.573
455.323	653.65759
455.814	704.64262
456.304	730.66833
456.795	705.64965
457.285	741.66779
457.776	746.71527
458.266	592.62572
458.756	651.7075
459.247	595.63828
459.737	506.56704
460.226	578.58053
460.716	533.61232
461.206	540.6356
461.695	569.72335
462.185	530.62288
462.674	493.57481
463.163	538.58453
463.653	515.5216
464.142	482.61149
464.63	508.66878
465.119	459.5607
465.608	491.59599
466.096	449.52341
466.585	473.60401
467.073	462.62867
467.561	441.6109
468.05	536.69147
468.538	399.58673
469.026	435.61232
469.513	345.41947
470.001	358.48193
470.489	362.51777
470.976	408.56605
471.463	362.57089
471.951	363.58291
472.438	358.5256
472.925	256.38552
473.412	301.49185
473.899	307.45971
474.385	330.53819
474.872	258.40002
475.359	288.47364
475.845	253.34333
476.331	377.53501
476.817	287.48424
477.303	217.35179
477.789	220.37512
478.275	222.39203
478.761	181.31604
479.247	238.3779
479.732	199.35886
480.218	230.43978
480.703	208.37999
481.188	213.32665
481.673	200.3344
482.158	74.11593
482.643	227.43541
483.128	103.1769
483.612	168.29543
484.097	168.31562
484.581	169.29976
485.066	153.2851
485.55	83.13995
486.034	34.0575
486.518	64.11757
487.002	79.15189
487.486	99.19044
487.969	109.20958
488.453	140.28093
488.936	18.03267
489.42	131.22813
489.903	119.24194
490.386	102.12894
490.869	97.16963
491.352	124.2471
491.835	66.11041
492.318	42.07731
492.8	20.0339
493.283	71.14837
493.765	38.07745
494.247	92.1777
494.73	-14.02594
495.212	72.14555
495.694	11.02144
496.175	-21.04168
496.657	30.05992
497.139	40.05795
497.62	-66.13318
498.102	-50.10627
498.583	-12.02578
499.064	-36.06813
499.545	-20.03896
500.026	-19.03625
500.507	24.04727
500.988	29.06149
501.469	-91.19859
501.949	10.02128
502.43	-75.15422
502.91	-28.04944
503.39	-19.04141
503.87	-72.14715
504.35	-10.0205
504.83	-69.13152
505.31	-7.01463
505.79	-85.17818
506.269	7.01415
506.749	-87.17422
507.228	-50.10219
507.707	-40.07711
508.187	17.03529
508.666	-44.09433
509.145	-133.27657
509.623	-57.11753
510.102	-82.17618
510.581	-58.12429
511.059	-56.12337
511.538	-64.14731
512.016	-46.097
512.494	-24.05134
512.972	-63.13323
513.45	-122.25081
513.928	-71.15251
514.406	-147.31604
514.884	-49.11155
515.361	-100.21421
515.839	-60.12096
516.316	-91.19564
516.793	-72.16334
517.27	-37.07989
517.747	-101.23262
518.224	-76.15758
518.701	-93.18597
519.178	-120.26725
519.654	-68.14547
520.131	-94.20918
520.607	-83.18581
521.083	-116.23955
521.56	-81.17189
522.036	-72.14208
522.512	-80.17854
522.987	-81.17197
523.463	-80.17107
523.939	-74.16385
524.414	-88.18426
524.89	-96.20635
525.365	-102.20922
525.84	-138.29714
526.315	-97.21133
526.79	-81.16506
527.265	-130.27088
527.74	-140.31205
528.215	-101.2163
528.689	-76.1518
529.164	-76.14962
529.638	-52.12079
530.112	-121.25969
530.587	-157.30726
531.061	-137.30189
531.534	-64.1407
532.008	-109.23858
532.482	-98.20556
532.956	-159.37218
533.429	-146.3261
533.903	-75.15109
534.376	-120.24336
534.849	-105.22282
535.322	-97.20917
535.795	-144.32496
536.268	-136.30075
536.741	-116.2562
537.213	-65.13667
537.686	-140.31348
538.158	-166.34342
538.631	-60.13296
539.103	-157.32488
539.575	-112.21529
540.047	-80.16053
540.519	-40.08676
540.991	-91.20447
541.463	-111.24716
541.934	-166.35327
542.406	-106.23128
542.877	-106.21959
543.348	-75.16562
543.82	-95.21408
544.291	-100.21495
544.762	-134.29237
545.233	-106.24301
545.703	-124.2517
546.174	-77.16305
546.645	-150.32825
547.115	-53.11522
547.585	-96.20146
548.056	-112.24457
548.526	-84.17791
548.996	-41.08856
549.466	-49.10798
549.935	-84.1783
550.405	-56.10941
550.875	-59.12477
551.344	-25.05333
551.814	-36.07364
552.283	-40.07771
552.752	-56.11549
553.221	-51.09777
553.69	-38.0746
554.159	-44.09523
554.628	-65.12835
555.096	-42.09404
555.565	-18.03534
556.033	-35.07363
556.502	-92.20184
556.97	-82.165
557.438	-76.16385
557.906	-65.14083
558.374	-62.12994
558.842	-84.18421
559.31	-94.19456
559.777	-137.30695
560.245	-98.214
560.712	-87.18688
561.18	-128.26386
561.647	-142.29786
562.114	-102.21575
562.581	-111.25514
563.048	-96.2067
563.514	-141.32357
563.981	-114.24483
564.448	-106.22264
564.914	-66.1429
565.381	-83.17668
565.847	-103.2263
566.313	-113.24733
566.779	-75.15784
567.245	-129.2845
567.711	-148.3348
568.176	-109.22929
568.642	-149.35137
569.108	-110.25279
569.573	-71.15619
570.038	-59.11574
570.504	-151.3196
570.969	-28.06458
571.434	-98.20047
571.899	-111.24706
572.363	-84.1783
572.828	-10.02106
573.293	-86.1839
573.757	-13.02738
574.222	-66.13611
574.686	-87.18084
575.15	-103.22782
575.614	-76.16167
576.078	-62.1343
576.542	-73.15444
577.006	-54.11247
577.469	1.00227
577.933	-98.20402
578.396	-87.19268
578.86	-49.10671
579.323	-38.08316
579.786	-104.21053
580.249	-77.16269
580.712	-69.15657
581.175	-73.16685
581.637	-65.13975
582.1	-66.13556
582.563	-68.13702
583.025	-86.19391
583.487	-91.17252
583.95	-79.15812
584.412	-91.18012
584.874	-57.12818
585.336	-58.12751
585.797	-104.21178
586.259	-40.08768
586.721	-38.08242
587.182	-6.013
587.643	-26.05475
588.105	7.01522
588.566	-47.09259
589.027	-65.14521
589.488	-57.12133
589.949	-9.02011
590.41	-58.10547
590.87	24.05043
591.331	22.0438
591.791	-81.17482
592.252	-87.18592
592.712	-4.00886
593.172	-47.09852
593.632	-11.02241
594.092	2.00412
594.552	0
595.011	-34.07217
595.471	16.03292
595.931	4.00822
596.39	36.07855
596.849	21.04482
597.308	18.03604
597.768	-17.03976
598.227	73.15958
598.685	63.13224
599.144	93.19632
599.603	130.27606
600.062	69.13126
600.52	70.14131
600.978	112.23887
601.437	140.28704
601.895	92.17617
602.353	207.40492
602.811	190.37228
603.269	180.3814
603.727	241.50361
604.184	196.38767
604.642	245.52332
605.099	291.58219
605.557	315.66028
606.014	303.55707
606.471	349.73833
606.928	384.68419
607.385	446.89415
607.842	536.99174
608.299	596.11167
608.755	519.0193
609.212	583.0291
609.668	581.01648
610.125	711.34334
610.581	770.42273
611.037	731.30579
611.493	771.41571
611.949	673.28198
612.405	696.07241
612.861	799.45693
613.316	768.42257
613.772	862.49568
614.227	857.53377
614.683	896.42976
615.138	841.49889
615.593	904.57539
616.048	988.6653
616.503	987.81415
616.958	906.72876
617.412	950.68015
617.867	953.54749
618.321	982.47788
618.776	963.57868
619.23	936.65533
619.684	1010.68408
620.138	1046.79205
620.592	995.81517
621.046	975.72582
621.5	1022.85751
621.954	1040.7305
622.407	974.6274
622.861	980.80801
623.314	1020.73338
623.768	985.73274
624.221	953.38991
624.674	928.64029
625.127	962.71996
625.58	1019.75449
626.033	995.66306
626.485	894.67207
626.938	1011.83515
627.39	942.69535
627.843	988.75025
628.295	1017.78919
628.747	967.78175
629.199	971.69915
629.651	972.69957
630.103	1072.84751
630.555	1076.69101
631.006	1123.97522
631.458	1116.98074
631.909	1183.013
632.361	1136.98933
632.812	1176.01014
633.263	1248.93029
633.714	1196.8677
634.165	1300.30369
634.616	1320.27197
635.067	1424.19349
635.518	1466.44897
635.968	1497.9819
636.419	1541.23739
636.869	1620.59587
637.319	1688.549
637.769	1733.46815
638.219	1879.83247
638.669	1830.77945
639.119	2016.01245
639.569	2018.96099
640.019	2180.87202
640.468	2150.71123
640.918	2357.14015
641.367	2389.80934
641.816	2552.82788
642.265	2646.00648
642.714	2703.01651
643.163	2768.99127
643.612	2804.20771
644.061	2953.5475
644.51	2987.93355
644.958	3092.7285
645.406	3185.19895
645.855	3300.35084
646.303	3361.04865
646.751	3470.8349
647.199	3475.84369
647.647	3517.89814
648.095	3700.8122
648.543	3691.19598
648.99	3730.07275
649.438	3809.95967
649.885	3708.34346
650.333	3796.86251
650.78	3742.15673
651.227	3739.21051
651.674	3789.763
652.121	3790.2035
652.568	3805.18118
653.015	3816.49192
653.461	3796.0453
653.908	3663.97118
654.354	3695.12908
654.801	3625.01974
655.247	3591.64793
655.693	3603.79015
656.139	3567.19984
656.585	3621.19167
657.031	3564.00496
657.477	3413.61095
657.922	3397.99035
658.368	3345.46424
658.813	3459.06781
659.259	3355.27061
659.704	3257.10653
660.149	3275.10821
660.594	3266.22988
661.039	3110.0083
661.484	3293.28457
661.929	3140.16967
662.373	3143.63914
662.818	3145.53691
663.262	3124.34359
663.707	3119.68546
664.151	2966.45338
664.595	2981.36848
665.039	3003.57752
665.483	3121.72638
665.927	3025.24336
666.371	2961.12075
666.814	3056.33027
667.258	3049.25189
667.701	3064.76916
668.145	3092.59916
668.588	3113.50274
669.031	3006.22716
669.474	3098.38534
669.917	3093.90606
670.36	3078.57651
670.803	3200.40519
671.245	3120.63708
671.688	3114.48251
672.13	3031.97195
672.573	3114.75445
673.015	3116.38177
673.457	3087.81789
673.899	3178.44043
674.341	3076.41878
674.783	2957.37302
675.225	3121.53534
675.666	3060.38206
676.108	3030.82423
676.549	3059.31779
676.991	2909.91618
677.432	3008.39129
677.873	2934.18336
678.314	2956.36575
678.755	2860.47024
679.196	2877.12219
679.637	2873.50971
680.078	2839.25646
680.518	2804.23544
680.959	2733.36974
681.399	2680.55761
681.839	2699.45715
682.28	2628.51244
682.72	2594.09914
683.16	2565.54889
683.6	2547.08589
684.039	2483.64554
684.479	2459.43112
684.919	2457.09608
685.358	2485.63844
685.798	2455.80745
686.237	2392.33986
686.676	2372.12929
687.115	2381.18551
687.554	2323.21349
687.993	2293.87376
688.432	2257.0045
688.871	2269.9726
689.309	2250.20829
689.748	2228.61828
690.186	2230.2082
690.625	2164.07697
691.063	2115.15676
691.501	2212.36388
691.939	2139.35747
692.377	2124.2425
692.815	2110.13894
693.253	2175.2119
693.69	2098.76991
694.128	2037.15152
694.565	2051.09739
695.003	2059.39284
695.44	1994.99372
695.877	1978.95356
696.314	2030.65839
696.751	1995.87836
697.188	1924.85287
697.625	1961.88706
698.061	1850.97678
698.498	1890.05124
698.934	1867.00949
699.371	1822.87586
699.807	1828.90503
700.243	1803.95121
700.679	1725.66015
701.115	1760.83831
701.551	1790.85996
701.987	1772.67283
702.422	1685.7957
702.858	1737.85619
703.294	1651.60086
703.729	1668.89749
704.164	1621.78674
704.599	1616.51115
705.035	1550.46459
705.47	1569.76788
705.904	1511.55953
706.339	1574.62644
706.774	1545.61331
707.209	1505.51934
707.643	1401.5403
708.078	1403.58617
708.512	1421.6934
708.946	1443.58522
709.38	1438.54023
709.814	1421.41002
710.248	1318.485
710.682	1388.49196
711.116	1360.46257
711.549	1378.7509
711.983	1286.28582
712.416	1338.41892
712.85	1317.55361
713.283	1253.31338
713.716	1284.53595
714.149	1268.35682
714.582	1242.15631
715.015	1267.50174
715.448	1241.4833
715.881	1196.04013
716.313	1179.18929
716.746	1110.1061
717.178	1124.18019
717.61	1169.39478
718.043	1147.31282
718.475	1100.16789
718.907	1136.34221
719.339	1114.01669
719.77	1102.1101
720.202	1126.3195
720.634	1005.02974
721.065	1020.99546
721.497	1016.06741
721.928	1037.10211
722.359	1004.00509
722.79	985.96273
723.221	1001.10905
723.652	1026.21496
724.083	906.71791
724.514	1024.92982
724.945	938.85126
725.375	929.80737
725.806	926.96656
726.236	926.02351
726.666	923.84416
727.096	967.99361
727.526	891.94094
727.956	923.75743
728.386	990.03717
728.816	934.00502
729.246	894.84919
729.675	852.80463
730.105	908.90325
730.534	934.83561
730.964	877.90883
731.393	965.0198
731.822	941.04122
732.251	911.97531
732.68	908.81207
733.109	898.88724
733.537	898.8434
733.966	902.91059
734.395	892.7431
734.823	900.71149
735.251	860.77564
735.68	938.99378
736.108	902.95289
736.536	882.77069
736.964	875.72557
737.392	915.95034
737.82	901.8367
738.247	905.83902
738.675	941.89317
739.102	807.75494
739.53	840.85335
739.957	911.0028
740.384	979.02485
740.811	890.9359
741.238	924.90873
741.665	897.75661
742.092	953.90943
742.519	869.84426
742.945	915.85852
743.372	926.94355
743.798	931.03743
744.225	943.88156
744.651	908.94335
745.077	951.00007
745.503	924.90873
745.929	929.87927
746.355	1032.12942
746.781	946.97946
747.207	899.78124
747.632	937.92395
748.058	964.02346
748.483	1013.91511
748.908	1005.07963
749.334	984.01847
749.759	955.8809
750.184	984.94669
750.609	992.03308
751.033	1059.04362
751.458	1086.95619
751.883	1077.18728
752.307	1048.01319
752.732	1030.12907
753.156	1096.20529
753.58	1113.13071
754.005	1075.24738
754.429	1080.05498
754.853	1091.20474
755.277	1086.08139
755.7	1081.19443
756.124	1090.20722
756.548	1096.09758
756.971	1121.21296
757.394	1177.44788
757.818	1144.3923
758.241	1167.38639
758.664	1180.3919
759.087	1090.94245
759.51	1234.42798
759.933	1160.2257
760.356	1187.44802
760.778	1163.29069
761.201	1235.3626
761.623	1241.36387
762.046	1220.27292
762.468	1270.37333
762.89	1284.47244
763.312	1320.48516
763.734	1241.33773
764.156	1283.46993
764.578	1258.2324
765	1185.30041
765.421	1207.44505
765.843	1274.64918
766.264	1283.40533
766.686	1214.42641
767.107	1203.30454
767.528	1222.44802
767.949	1228.48257
768.37	1241.39344
768.791	1189.28202
769.212	1184.37721
769.632	1159.13505
770.053	1243.61483
770.473	1235.35807
770.894	1221.42642
771.314	1241.31614
771.734	1144.11729
772.154	1186.44867
772.575	1180.15171
772.994	1181.09684
773.414	1225.30863
773.834	1178.3565
774.254	1183.30303
774.673	1198.31087
775.093	1103.21484
775.512	1112.21609
775.931	1181.40098
776.351	1113.23904
776.77	1122.20927
777.189	1130.14933
777.607	1083.26909
778.026	1070.1814
778.445	1021.11372
778.864	1118.33788
779.282	1024.02346
779.701	1085.23644
780.119	988.0848
780.537	1040.13735
780.955	1035.18172
781.373	1052.13401
781.791	956.76891
782.209	999.88768
782.627	1031.2659
783.045	1033.92925
783.462	944.03691
783.88	959.09262
784.297	913.9486
784.715	922.00884
785.132	914.86448
785.549	901.91469
785.966	885.8994
786.383	891.86062
786.8	889.73764
787.217	831.68468
787.633	830.78475
788.05	888.78357
788.466	895.77908
788.883	823.81697
789.299	861.7654
789.715	834.73882
790.131	826.77082
790.547	802.73705
790.963	783.69047
791.379	733.63233
791.795	756.49234
792.21	735.49799
792.626	753.55417
793.041	754.62678
793.457	748.61864
793.872	728.49479
794.287	687.44633
794.702	758.63123
795.117	688.5153
795.532	683.52028
795.947	683.4549
796.362	685.4459
796.776	719.47463
797.191	604.33178
797.605	589.24303
798.02	620.35341
798.434	608.20709
798.848	612.35563
799.262	572.28743
799.676	613.3446
800.09	585.30194
800.504	602.31518
800.918	517.09276
801.331	535.28933
801.745	518.0846
802.158	519.1906
802.572	545.20429
802.985	525.16051
803.398	483.06086
803.811	567.32937
804.224	471.08593
804.637	436.96728
805.05	429.92621
805.462	424.97501
805.875	402.98174
806.288	392.88883
806.7	442.03492
807.112	390.84905
807.525	423.97718
807.937	386.89935
808.349	387.91461
808.761	378.87794
809.173	326.753
809.584	400.92975
809.996	292.686
810.408	349.85663
810.819	344.76702
811.231	325.80216
811.642	338.76486
812.053	361.81108
812.464	370.82976
812.875	435.03773
813.286	323.79459
813.697	371.81814
814.108	276.64918
814.519	284.60648
814.929	371.89611
815.34	251.58866
815.75	245.60319
816.16	287.68751
816.571	241.60751
816.981	269.61159
817.391	239.5592
817.801	224.5408
818.211	228.52772
818.62	229.53497
819.03	242.57453
819.44	245.62069
819.849	222.54426
820.259	217.54115
820.668	164.3964
821.077	157.3837
821.486	190.44761
821.895	197.47571
822.304	161.41988
822.713	161.3742
823.122	187.45685
823.531	141.32992
823.939	148.35544
824.348	194.46094
824.756	159.39191
825.164	156.38657
825.573	106.26421
825.981	137.3357
826.389	110.27438
826.797	120.2978
827.205	125.28387
827.612	122.29822
828.02	105.24492
828.428	152.38133
828.835	134.34857
829.243	126.29719
829.65	85.21067
830.057	107.2579
830.464	118.2849
830.871	143.33774
831.278	97.23327
831.685	96.21327
832.092	140.33827
832.499	37.08157
832.905	153.38142
833.312	92.20905
833.718	123.3034
834.124	106.24057
834.531	113.28252
834.937	67.17192
835.343	84.20212
835.749	106.24594
836.155	77.20116
836.561	71.17449
836.966	101.24547
837.372	111.28023
837.777	30.07521
838.183	47.10504
838.588	72.17855
838.993	66.16074
839.399	102.24766
839.804	39.09549
840.209	83.21052
840.613	62.13814
841.018	61.15455
841.423	63.1616
841.828	25.06366
842.232	125.30629
842.637	65.1534
843.041	15.03876
843.445	41.10325
843.849	30.07472
844.253	49.11685
844.657	41.10362
845.061	48.10934
845.465	22.05356
845.869	28.06556
846.272	8.01968
846.676	50.12127
847.079	33.08432
847.483	47.1176
847.886	62.15094
848.289	48.12832
848.692	36.09158
849.095	14.03394
849.498	75.18968
849.901	81.18521
850.304	80.1906
850.707	35.08965
851.109	65.16439
851.512	35.08643
851.914	-1.00255
852.316	74.18672
852.718	-6.01566
853.121	34.08373
853.523	15.03539
853.925	24.06297
854.326	-5.01265
854.728	18.04662
855.13	-3.00782
855.531	-9.02179
855.933	71.17016
856.334	20.05021
856.736	-10.02273
857.137	3.00706
857.538	16.04053
857.939	35.08684
858.34	52.12692
858.741	41.10748
859.142	44.10603
859.542	49.12945
859.943	34.08487
860.343	-28.07042
860.744	28.06873
861.144	34.08333
861.544	-40.09793
861.945	11.02827
862.345	46.11278
862.745	-6.01509
863.145	35.08407
863.544	21.05341
863.944	16.03812
864.344	36.0898
864.743	44.10947
865.143	25.06458
865.542	13.03043
865.941	24.05978
866.34	-8.01941
866.74	-6.01627
867.139	18.04343
867.537	18.04618
867.936	-20.04885
868.335	37.09448
868.734	15.03861
869.132	-7.01648
869.531	56.13552
869.929	-28.06494
870.327	-16.03889
870.726	48.1199
871.124	56.13096
871.522	22.05638
871.92	16.03977
872.318	25.06149
872.715	45.11166
873.113	21.05152
873.511	3.00755
873.908	-32.08204
874.306	1.00251
874.703	52.13022
875.1	52.13313
875.497	-6.01456
875.894	-21.05218
876.291	13.03216
876.688	22.05707
877.085	72.17226
877.482	16.04034
877.878	28.06776
878.275	26.0664
878.671	21.04713
879.068	58.13998
879.464	-7.01712
879.86	7.01671
880.256	13.03234
880.652	24.06138
881.048	34.08459
881.444	-12.02894
881.84	31.07913
882.236	26.06572
882.631	37.09114
883.027	58.14041
883.422	25.06426
883.817	-13.03307
884.213	-36.09384
884.608	-20.04972
885.003	-6.01463
885.398	28.07042
885.793	5.01266
886.188	-27.06812
886.582	66.16897
886.977	30.07156
887.371	7.01786
887.766	25.06251
888.16	39.09762
888.554	31.077
888.949	27.06814
889.343	57.13921
889.737	-21.05665
890.131	-8.02029
890.525	21.05402
890.918	-23.05869
891.312	46.11027
891.706	45.11824
892.099	27.06904
892.492	-8.0175
892.886	14.03452
893.279	-7.01802
893.672	18.04612
894.065	53.13275
894.458	29.07327
894.851	29.0714
895.244	3.00773
895.637	2.00487
896.029	26.06391
896.422	35.08583
896.814	23.05751
897.206	-19.04588
897.599	69.1702
897.991	23.05594
898.383	-14.03352
898.775	17.03867
899.167	-29.06873
899.559	76.19163
899.951	-15.03584
900.342	38.09691
900.734	-5.01254
901.125	27.07116
901.517	5.01238
901.908	63.15082
902.299	36.0883
902.69	6.01429
903.082	6.01466
903.473	-1.00242
903.863	23.059
904.254	27.063
904.645	54.13431
905.036	-28.06883
905.426	54.12365
905.817	48.1179
906.207	-30.07262
906.597	2.00472
906.987	58.1502
907.378	4.0102
907.768	16.04256
908.158	-1.00246
908.547	-9.0235
908.937	1.00259
909.327	37.09013
909.717	45.11442
910.106	0
910.495	13.03269
910.885	8.02042
911.274	-16.04049
911.663	41.10429
912.052	59.14543
912.441	-5.01284
912.83	12.02778
913.219	11.02899
913.608	46.11282
913.997	-11.02789
914.385	42.10056
914.774	-1.00246
915.162	8.01923
915.55	1.00244
915.939	0
916.327	48.1199
916.715	2.00514
917.103	47.11581
917.491	73.17994
917.878	14.03467
918.266	14.03654
918.654	35.08968
919.041	-17.0449
919.429	-19.04547
919.816	8.02044
920.203	32.0779
920.591	-3.00751
920.978	14.03453
921.365	24.06327
921.752	-36.08728
922.139	-1.0022
922.525	-20.04869
922.912	-9.0222
923.299	-19.04783
923.685	4.01052
924.072	31.0718
924.458	-1.0025
924.844	-8.02001
925.231	-13.03065
925.617	-23.05927
926.003	25.0642
926.389	27.06841
926.774	36.09149
927.16	32.07976
927.546	-20.05169
927.931	28.07017
928.317	-5.01165
928.702	-12.02874
929.088	-11.02633
929.473	17.04352
929.858	-66.16307
930.243	5.01211
930.628	25.06112
931.013	19.04737
931.398	70.16042
931.783	30.07927
932.167	8.01972
932.552	17.04286
932.937	43.10689
933.321	-11.02791
933.705	15.03806
934.09	64.16137
934.474	-10.02404
934.858	28.07291
935.242	-26.06118
935.626	12.03093
936.009	27.0721
936.393	23.05881
936.777	0
937.16	8.02097
937.544	10.02375
937.927	-12.03079
938.311	53.12934
938.694	40.10598
939.077	-30.07293
939.46	42.10332
939.843	43.0899
940.226	23.05929
940.609	-6.01393
940.991	13.03331
941.374	2.00493
941.757	51.12585
942.139	-17.03872
942.522	3.00716
942.904	8.01939
943.286	12.0307
943.668	25.06505
944.05	29.07172
944.432	5.01244
944.814	-2.00497
945.196	-29.07172
945.578	-19.04576
945.959	-23.05468
946.341	75.1833
946.722	-10.02375
947.104	6.01446
947.485	-31.0733
947.866	24.06075
948.247	24.06084
948.628	2.00492
949.009	6.01548
949.39	21.05256
949.771	3.00704
950.152	3.00743
950.532	-45.11263
950.913	-6.01463
951.293	-4.0109
951.674	-31.07613
952.054	15.03741
952.434	10.02501
952.814	-3.00721
953.194	33.08662
953.574	35.08646
953.954	-11.02643
954.334	-3.00755
954.714	27.06609
955.093	49.12051
955.473	-23.05827
955.853	14.03647
956.232	18.04959
956.611	31.07464
956.99	-14.03559
957.37	27.06909
957.749	-1.00241
958.128	10.02538
958.506	27.07032
958.885	0
959.264	-34.08462
959.643	-35.08103
960.021	4.01
960.4	-2.00458
960.778	16.03966
961.156	-10.02534
961.535	-6.01414
961.913	-7.01657
962.291	-25.06498
962.669	-6.01535
963.047	14.03596
963.424	-20.05167
963.802	1.00248
964.18	65.16404
964.557	21.04866
964.935	-5.01197
965.312	0
965.69	76.18943
966.067	33.08062
966.444	14.03473
966.821	11.02855
967.198	49.11891
967.575	7.01735
967.952	7.01664
968.329	-31.07658
968.705	9.01947
969.082	10.02583
969.458	-26.06327
969.835	36.08787
970.211	-2.00518
970.587	3.00753
970.963	28.07211
971.339	36.09423
971.715	42.10503
972.091	21.05199
972.467	53.13213
972.843	-19.04775
973.219	67.16039
973.594	-12.03172
973.97	42.10014
974.345	13.03133
974.721	41.09946
975.096	7.01708
975.471	0
975.846	24.05795
976.221	-11.02824
976.596	2.00484
976.971	-11.02746
977.346	44.10257
977.72	39.09955
978.095	18.04678
978.469	3.00723
978.844	66.16546
979.218	-15.0364
979.593	-4.00968
979.967	17.04167
980.341	19.04402
980.715	16.04056
981.089	-11.02784
981.463	-21.04891
981.837	29.07114
982.21	53.12329
982.584	-6.01465
982.957	1.00252
983.331	4.00954
983.704	-11.02733
984.078	30.07421
984.451	28.07022
984.824	-47.11653
985.197	51.12386
985.57	18.0454
985.943	47.11615
986.316	33.08134
986.688	31.07503
987.061	26.06123
987.434	45.11736
987.806	13.03175
988.179	-46.11056
988.551	33.08397
988.923	19.04706
989.295	30.07524
989.667	-21.05085
990.039	30.0744
990.411	16.03708
990.783	21.04864
991.155	-30.07317
991.527	28.06923
991.898	-8.02014
992.27	0
992.641	31.07804
993.012	37.08729
993.384	8.01924
993.755	-22.0568
994.126	29.07003
994.497	18.04444
994.868	37.08522
995.239	31.0754
995.61	11.02787
995.98	-23.05663
996.351	-28.07032
996.722	-17.03995
997.092	19.04526
997.462	-46.10947
997.833	31.07376
998.203	-4.0098
998.573	13.03259
998.943	3.0071
999.313	11.02655
999.683	-12.02914
1000.053	27.06241
1000.423	22.05374
1000.792	20.0521
1001.162	-17.04235
1001.531	0
1001.901	1.00251
1002.27	10.02254
1002.639	13.03343
1003.009	-17.04094
1003.378	19.04884
1003.747	12.02856
1004.116	0
1004.485	-8.01933
1004.853	27.06868
1005.222	11.02793
1005.591	-2.0048
1005.959	-8.01824
1006.328	-37.08474
1006.696	-15.03662
1007.064	6.01521
1007.433	23.05776
1007.801	36.08859
1008.169	12.03051
1008.537	37.08215
1008.905	-27.06385
1009.273	-6.01497
1009.64	-1.00241
1010.008	-15.0362
1010.375	72.1741
1010.743	28.06494
1011.11	27.06417
1011.478	-25.06271
1011.845	10.0237
1012.212	1.00229
1012.579	-8.01985
1012.946	21.05025
1013.313	36.0859
1013.68	3.00681
1014.047	-32.07744
1014.414	-8.0191
1014.78	5.01252
1015.147	43.10412
1015.513	-5.01217
1015.88	69.17581
1016.246	75.18426
1016.612	46.10537
1016.978	-1.00247
1017.344	39.09656
1017.71	49.11949
1018.076	-16.03821
1018.442	46.11839
1018.808	5.0126
1019.174	-3.0076
1019.539	89.20326
1019.905	-22.0526
1020.27	-38.09527
1020.636	54.12934
1021.001	53.12678
1021.366	-18.04377
1021.731	18.04653
1022.096	-55.14128
1022.461	-31.07449
1022.826	21.05018
1023.191	14.03694
1023.556	-12.02846
1023.92	38.09362
1024.285	-4.00986
1024.649	27.06643
1025.014	26.06467
1025.378	17.04298
1025.742	13.03249
1026.107	-31.07126
1026.471	34.0796
1026.835	40.0993
1027.199	7.01698
1027.562	24.05606
1027.926	19.04671
1028.29	-10.02557
1028.654	-16.03728
1029.017	22.05434
1029.381	-6.01448
1029.744	23.05892
1030.107	17.04046
1030.471	3.00724
1030.834	5.01147
1031.197	28.06771
1031.56	12.02851
1031.923	30.0778
1032.286	45.10575
1032.648	21.05048
1033.011	-27.0629
1033.374	32.07545
1033.736	-22.05852
1034.099	13.03189
1034.461	-14.03575
1034.823	-16.0403
1035.185	19.04807
1035.548	17.04161
1035.91	10.02413
1036.272	16.03665
1036.634	14.03446
1036.995	44.1035
1037.357	7.01716
1037.719	-3.00736
1038.08	6.01436
1038.442	12.02868
1038.803	61.14608
1039.165	-16.04083
1039.526	-1.00244
1039.887	1.00241
1040.248	-15.03738
1040.609	1.00249
1040.97	2.00493
1041.331	6.0153
1041.692	3.00706
1042.053	7.01607
1042.413	-49.11636
1042.774	34.0829
1043.134	4.0096
1043.495	17.04296
1043.855	51.12362
1044.215	-5.01253
1044.576	-27.06547
1044.936	20.04611
1045.296	53.13213
1045.656	-2.00495
1046.016	39.09429
1046.375	26.06332
1046.735	-29.06677
1047.095	30.07046
1047.454	0
1047.814	11.02662
1048.173	31.0743
1048.533	-53.12387
1048.892	-48.11729
1049.251	39.09804
1049.61	-6.01492
1049.969	27.06389
1050.328	-6.01316
1050.687	-15.03692
1051.046	17.04163
1051.405	36.08973
1051.763	-24.05597
1052.122	33.08251
1052.48	-7.01734
1052.839	-26.06204
1053.197	14.03316
1053.555	49.11168
1053.914	27.06628
1054.272	18.04376
1054.63	-22.05448
1054.988	-18.0433
1055.345	-16.03492
1055.703	-6.01459
1056.061	20.05169
1056.419	32.08304
1056.776	15.03659
1057.134	3.00701
1057.491	33.08284
1057.848	19.04754
1058.206	-11.02616
1058.563	-28.0627
1058.92	76.17417
1059.277	5.01243
1059.634	1.00237
1059.991	36.08643
1060.348	-27.06194
1060.704	-7.01685
1061.061	36.08382
1061.418	-10.02451
1061.774	-4.00997
1062.131	-28.07495
1062.487	-11.02601
1062.843	39.09737
1063.199	19.04749
1063.555	6.01401
1063.911	-9.02296
1064.267	11.02313
1064.623	-30.07391
1064.979	13.031
1065.335	46.10997
1065.691	0
1066.046	-14.03118
1066.402	-23.05299
1066.757	42.10609
1067.112	4.00989
1067.468	-41.09845
1067.823	23.05554
1068.178	11.02678
1068.533	0
1068.888	21.05043
1069.243	-5.01246
1069.598	-16.03933
1069.952	-82.1895
1070.307	-22.05514
1070.662	7.01674
1071.016	10.02258
1071.371	-22.05074
1071.725	43.10294
1072.079	20.04834
1072.434	-34.08385
1072.788	-39.09439
1073.142	67.16418
1073.496	-23.05529
1073.85	3.00702
1074.203	22.05362
1074.557	-16.04298
1074.911	44.10507
1075.265	-23.0542
1075.618	31.07591
1075.971	-21.0506
1076.325	6.01536
1076.678	-45.1048
1077.031	-15.03437
1077.385	-14.03123
1077.738	-61.14072
1078.091	-59.13703
1078.444	54.12519
1078.796	-22.05466
1079.149	38.09465
1079.502	-13.03106
1079.855	-28.06625
1080.207	17.0421
1080.56	0
1080.912	8.01961
1081.264	-23.05611
1081.617	-20.04934
1081.969	4.01017
1082.321	-8.01973
1082.673	-42.09756
1083.025	35.08321
1083.377	-228.51828
1083.728	42.09806
1084.08	26.06514
1084.432	-4.00974
1084.783	15.03536
1085.135	-4.01011
1085.486	-45.10484
1085.838	-5.01243
1086.189	8.01956
1086.54	47.11221
1086.891	-12.03066
1087.242	-21.05176
1087.593	43.10474
1087.944	-21.04817
1088.295	-9.02069
1088.646	-14.03431
1088.996	-20.04878
1089.347	-8.01982
1089.698	-44.10579
1090.048	52.1349
1090.398	-3.00703
1090.749	12.0289
1091.099	-8.02031
1091.449	-8.02012
1091.799	7.01765
1092.149	-51.12659
1092.499	4.00983
1092.849	-5.01282
1093.199	-2.00506
1093.548	10.02419
1093.898	4.01008
1094.248	3.00777
1094.597	-44.11407
1094.947	17.04556
1095.296	29.07183
1095.645	26.06784
1095.994	-10.02427
1096.343	-13.03305
1096.692	-26.06911
1097.041	-31.08495
1097.39	39.09793
1097.739	23.06001
1098.088	36.09659
1098.437	-9.02386
1098.785	36.09719
1099.134	-2.00535
1099.482	15.04145
1099.83	46.12085
1100.179	-16.04216
1100.527	17.04538
1100.875	-36.09646
1101.223	13.0347
1101.571	21.05824
1101.919	-16.04223
1102.267	20.05651
1102.615	-1.00322
1102.962	14.04506
1103.31	0
1103.658	9.02899
