Data from N2 R8 sample 12_Subt2__5__17-10-18-937.txt Node

Date: Fri Aug 29 17:10:18 PDT 2025
User: uwsun
Spectrometer: HDX01956
Trigger mode: 0
Integration Time (sec): 5.000000E-1
Scans to average: 1
Nonlinearity correction enabled: true
Boxcar width: 0
Storing dark spectrum: false
XAxis mode: Wavelengths
Number of Pixels in Spectrum: 2068
>>>>>Begin Spectral Data<<<<<
194.03	286.76696
194.578	314.95363
195.127	290.86967
195.676	305.91576
196.225	310.77931
196.773	362.93436
197.321	511.25181
197.87	742.58105
198.418	758.58513
198.966	743.56983
199.513	675.36807
200.061	706.44891
200.609	760.64603
201.156	656.1441
201.704	705.43742
202.251	671.46517
202.798	724.52865
203.345	791.56117
203.892	719.46534
204.438	770.46389
204.985	745.39053
205.532	727.55475
206.078	825.5926
206.624	825.58575
207.17	847.52284
207.716	744.43772
208.262	790.18708
208.808	715.40502
209.354	738.43156
209.899	804.62729
210.445	810.58041
210.99	770.46318
211.535	817.50411
212.08	804.46496
212.625	779.55902
213.17	808.63092
213.715	703.22853
214.259	848.53283
214.804	842.63983
215.348	859.51528
215.892	810.52962
216.436	837.51405
216.98	791.37037
217.524	805.49309
218.068	819.63992
218.612	741.51228
219.155	704.33431
219.698	719.37971
220.242	718.46164
220.785	706.33225
221.328	670.37432
221.871	731.51614
222.414	680.39549
222.956	615.22073
223.499	667.2164
224.041	702.32987
224.583	748.28575
225.126	659.17691
225.668	667.32719
226.21	626.30707
226.751	602.07351
227.293	668.24378
227.835	644.29355
228.376	690.29627
228.918	695.44395
229.459	631.29684
230	637.24622
230.541	744.37049
231.082	662.31387
231.622	711.32039
232.163	623.24411
232.704	689.3914
233.244	638.30565
233.784	675.36059
234.324	575.03029
234.864	682.24538
235.404	704.3577
235.944	668.29371
236.484	709.44362
237.023	633.22377
237.563	682.26864
238.102	754.41882
238.641	738.5099
239.18	713.32872
239.719	698.42797
240.258	719.28827
240.797	715.37136
241.335	697.38633
241.874	700.04316
242.412	719.38502
242.95	646.25163
243.488	714.29934
244.026	702.29039
244.564	704.13722
245.102	717.27348
245.64	686.3432
246.177	641.1618
246.715	744.42811
247.252	710.30381
247.789	756.09226
248.326	699.33998
248.863	750.28027
249.4	757.35234
249.936	741.17796
250.473	773.41014
251.009	708.28318
251.546	739.27262
252.082	736.2617
252.618	706.23865
253.154	718.37149
253.69	735.29944
254.226	696.32812
254.761	686.22303
255.297	655.13965
255.832	694.30956
256.367	807.47526
256.903	724.24108
257.438	767.41471
257.972	726.26649
258.507	692.24903
259.042	801.32765
259.576	690.15485
260.111	735.33865
260.645	783.3013
261.179	720.32089
261.713	688.20384
262.247	800.42455
262.781	754.20451
263.315	717.39109
263.849	762.50069
264.382	780.39101
264.915	747.36124
265.449	779.46416
265.982	815.42028
266.515	799.51139
267.048	758.22127
267.58	795.33002
268.113	826.33571
268.646	776.49321
269.178	742.27473
269.71	818.34957
270.243	792.38918
270.775	739.48705
271.307	785.47256
271.838	823.50912
272.37	798.5209
272.902	826.42625
273.433	755.26154
273.965	802.50636
274.496	788.53015
275.027	809.54898
275.558	835.54423
276.089	779.4699
276.62	812.60979
277.15	805.53909
277.681	819.33666
278.211	818.54551
278.741	737.23542
279.272	863.46306
279.802	809.55943
280.332	809.44545
280.861	843.53656
281.391	759.30923
281.921	911.63901
282.45	878.66473
282.98	878.74889
283.509	850.41727
284.038	815.39265
284.567	871.52132
285.096	831.51999
285.625	853.43124
286.153	831.45509
286.682	885.48187
287.21	832.50308
287.739	765.3751
288.267	880.57705
288.795	893.78251
289.323	847.45834
289.851	919.56837
290.378	914.4777
290.906	833.49761
291.433	883.63805
291.961	908.47539
292.488	890.64246
293.015	884.51211
293.542	897.67398
294.069	927.6551
294.596	963.73191
295.122	908.57156
295.649	941.46559
296.175	992.72011
296.702	957.6737
297.228	953.67368
297.754	969.51992
298.28	944.5058
298.806	941.61463
299.332	971.47744
299.857	949.4953
300.383	1033.86096
300.908	932.60128
301.433	1024.72712
301.958	944.54356
302.483	1010.76435
303.008	1066.8313
303.533	1056.94756
304.058	1045.69655
304.582	991.61123
305.107	953.77781
305.631	1099.67625
306.155	1008.59552
306.679	986.57307
307.203	1030.61092
307.727	1006.63435
308.251	1050.77783
308.775	1040.64829
309.298	1082.7142
309.822	1123.90651
310.345	1111.73174
310.868	1084.71542
311.391	1185.90775
311.914	1119.85791
312.437	1192.72334
312.96	1147.73132
313.482	1158.75375
314.005	1142.87913
314.527	1236.09745
315.049	1223.99364
315.571	1225.6264
316.093	1190.87547
316.615	1264.86669
317.137	1337.66342
317.659	1308.94274
318.18	1295.90532
318.702	1312.797
319.223	1324.49811
319.744	1319.69132
320.265	1283.84629
320.786	1349.94696
321.307	1431.04156
321.828	1389.73994
322.348	1402.84153
322.869	1421.83636
323.389	1250.97888
323.909	1477.80715
324.43	1524.0035
324.95	1385.70959
325.47	1446.9331
325.989	1582.88295
326.509	1447.59382
327.029	1505.67828
327.548	1555.68272
328.067	1576.88784
328.587	1635.05042
329.106	1592.71642
329.625	1677.29269
330.144	1668.76428
330.662	1668.7545
331.181	1692.79894
331.7	1719.79908
332.218	1797.5615
332.736	1788.79583
333.255	1748.73974
333.773	1807.80297
334.291	1856.02568
334.808	1838.57761
335.326	1873.61901
335.844	1850.64633
336.361	1910.94399
336.879	1861.63193
337.396	1960.75114
337.913	1931.57082
338.43	2131.487
338.947	2149.67235
339.464	2070.28273
339.981	2021.59666
340.497	2152.77321
341.014	2117.67838
341.53	2139.37086
342.046	2132.6572
342.562	2244.74157
343.078	2214.47824
343.594	2273.51623
344.11	2277.48013
344.626	2311.67011
345.141	2345.26166
345.657	2460.2433
346.172	2399.43231
346.687	2339.23289
347.202	2482.09005
347.717	2508.30427
348.232	2499.47991
348.747	2508.11625
349.261	2417.87987
349.776	2536.14913
350.29	2562.25215
350.805	2703.29777
351.319	2664.02544
351.833	2598.87607
352.347	2606.02024
352.861	2643.94238
353.374	2757.89524
353.888	2751.04057
354.401	2789.79585
354.915	2712.65849
355.428	2884.98935
355.941	2847.71758
356.454	2995.57808
356.967	2963.73873
357.48	2928.63915
357.993	2968.85786
358.505	2963.77468
359.018	3136.68736
359.53	3102.58698
360.042	3255.23282
360.554	3116.61205
361.066	3134.57034
361.578	3133.17465
362.09	3148.46537
362.602	3052.19657
363.113	3193.27392
363.625	3291.08305
364.136	3348.97919
364.647	3359.00562
365.158	3440.04141
365.669	3549.07194
366.18	3507.0183
366.691	3564.74733
367.201	3438.04918
367.712	3490.80281
368.222	3606.72998
368.733	3569.52947
369.243	3632.51341
369.753	3832.54428
370.263	3856.59843
370.773	3800.702
371.282	3790.50988
371.792	3915.19997
372.301	4123.25671
372.811	4117.48125
373.32	4173.8444
373.829	4129.01018
374.338	4466.77283
374.847	4485.7662
375.356	4609.74966
375.865	4809.6378
376.373	5114.7349
376.882	5266.80976
377.39	5260.79483
377.898	5276.82935
378.407	5589.25456
378.915	5967.92709
379.423	6143.13693
379.93	6302.77308
380.438	6525.45574
380.946	7075.61836
381.453	7153.35792
381.96	7428.41546
382.468	7922.54989
382.975	8533.06728
383.482	8862.26787
383.989	9014.22446
384.495	9058.86717
385.002	9579.91704
385.509	10166.50631
386.015	10890.04643
386.521	11414.07272
387.028	11942.4098
387.534	12207.62393
388.04	12675.61029
388.546	12704.00905
389.051	13460.31646
389.557	14395.81121
390.063	16193.37605
390.568	16425.78309
391.073	16957.38905
391.578	17585.84301
392.084	17719.39793
392.589	18040.79474
393.093	19295.12158
393.598	21216.08243
394.103	23238.30561
394.607	25426.17306
395.112	27563.77236
395.616	29178.11438
396.12	31061.36531
396.624	33938.95158
397.128	37160.68208
397.632	40077.62189
398.136	38677.14458
398.639	36273.96993
399.143	32503.66402
399.646	28888.45294
400.15	25083.82847
400.653	20124.16724
401.156	13866.23708
401.659	5169.95759
402.162	1054.15589
402.664	0
403.167	0
403.67	0
404.172	0
404.674	0
405.176	0
405.678	0
406.18	0
406.682	0
407.184	0
407.686	0
408.187	0
408.688	0
409.19	0
409.691	0
410.192	0
410.693	0
411.194	435.30976
411.694	4082.94878
412.195	8864.71461
412.696	12089.80453
413.196	12760.96929
413.696	12863.67595
414.196	13703.56671
414.696	17261.84252
415.196	21764.24417
415.696	29583.19008
416.196	36460.31858
416.695	40057.39798
417.195	41392.74103
417.694	42311.08144
418.194	43882.52025
418.693	44704.85811
419.192	43610.85106
419.691	43533.76769
420.19	42878.21413
420.688	41874.25358
421.187	40614.97023
421.685	38108.04124
422.184	35256.09579
422.682	30497.45422
423.18	25469.75321
423.678	22046.15174
424.176	20665.28853
424.674	19377.50275
425.172	18857.91281
425.669	17893.54036
426.167	16726.2187
426.664	15168.03901
427.161	13826.12727
427.659	12813.6094
428.156	11916.65061
428.652	11278.51436
429.149	10693.9594
429.646	10540.11057
430.143	9999.55323
430.639	9231.7591
431.135	8733.71801
431.632	8296.30862
432.128	7811.81727
432.624	7234.98016
433.12	6881.69002
433.616	6604.78818
434.111	6366.806
434.607	6207.18697
435.103	6189.25824
435.598	6067.97078
436.093	5861.28473
436.588	5694.1007
437.083	5336.82881
437.578	5139.76514
438.073	4834.79491
438.568	4819.89398
439.062	4502.73912
439.557	4524.97764
440.051	4276.97323
440.546	4081.07556
441.04	4117.23883
441.534	4000.53447
442.028	4002.43479
442.522	3783.5497
443.015	3796.3265
443.509	3696.76693
444.002	3637.80771
444.496	3565.53865
444.989	3531.93985
445.482	3536.00683
445.975	3506.68653
446.468	3383.65686
446.961	3370.68137
447.454	3332.90636
447.947	3308.0426
448.439	3251.26049
448.931	3136.02703
449.424	3225.47721
449.916	3165.36589
450.408	3051.14781
450.9	2980.45707
451.392	2968.65283
451.884	2942.39002
452.375	2793.69252
452.867	2877.44951
453.358	2695.47537
453.849	2730.30465
454.341	2753.49087
454.832	2739.36792
455.323	2669.82271
455.814	2576.7149
456.304	2635.71659
456.795	2554.74152
457.285	2594.71402
457.776	2645.8122
458.266	2493.93729
458.756	2576.01695
459.247	2348.01487
459.737	2432.01003
460.226	2290.89095
460.716	2259.12943
461.206	2258.1873
461.695	2208.39311
462.185	2219.18343
462.674	2123.15398
463.163	2183.03612
463.653	2178.88939
464.142	2087.33089
464.63	2132.43377
465.119	2040.23499
465.608	1989.24889
466.096	1980.13808
466.585	2012.34247
467.073	1938.47598
467.561	1935.50142
468.05	1998.41269
468.538	1951.61586
469.026	1912.53257
469.513	1809.15337
470.001	1829.36839
470.489	1807.50282
470.976	1805.46673
471.463	1732.71751
471.951	1718.75864
472.438	1629.51756
472.925	1537.47568
473.412	1648.73284
473.899	1557.50318
474.385	1544.70248
474.872	1570.55178
475.359	1470.65779
475.845	1517.26253
476.331	1436.39321
476.817	1445.70133
477.303	1390.541
477.789	1391.6522
478.275	1349.70439
478.761	1348.65449
479.247	1328.47667
479.732	1261.67249
480.218	1315.86818
480.703	1269.71228
481.188	1212.33124
481.673	1185.4628
482.158	1121.24186
482.643	1213.78267
483.128	1140.43
483.612	1204.55856
484.097	1150.6478
484.581	1076.46828
485.066	1069.54672
485.55	1051.31778
486.034	1050.29956
486.518	969.38127
487.002	946.44306
487.486	956.46356
487.969	947.457
488.453	951.55288
488.936	968.33971
489.42	966.31804
489.903	915.52391
490.386	883.82475
490.869	903.24964
491.352	888.45653
491.835	914.18122
492.318	876.27904
492.8	854.12655
493.283	846.46397
493.765	831.38891
494.247	851.34649
494.73	873.26406
495.212	779.31956
495.694	688.1251
496.175	697.15163
496.657	769.27305
497.139	740.84507
497.62	720.19073
498.102	752.31817
498.583	674.23261
499.064	705.09367
499.545	732.17193
500.026	677.07407
500.507	691.14737
500.988	713.28472
501.469	621.14894
501.949	629.15681
502.43	557.98256
502.91	588.87326
503.39	687.27131
503.87	641.09759
504.35	650.13302
504.83	565.91219
505.31	567.03263
505.79	558.00207
506.269	553.97855
506.749	492.85357
507.228	530.94101
507.707	503.84378
508.187	599.08056
508.666	507.95753
509.145	493.88234
509.623	537.95963
510.102	516.9657
510.581	525.98327
511.059	456.89645
511.538	528.06898
512.016	537.98739
512.494	514.97146
512.972	521.96085
513.45	437.78531
513.928	487.9202
514.406	443.8313
514.884	501.01121
515.361	511.94996
515.839	475.84003
516.316	464.87823
516.793	446.90489
517.27	488.93496
517.747	455.93095
518.224	420.77434
518.701	438.76832
519.178	438.86228
519.654	461.87319
520.131	435.86141
520.607	431.86228
521.083	438.79216
521.56	410.77677
522.036	407.71299
522.512	423.84549
522.987	364.6977
523.463	422.8042
523.939	440.86948
524.414	400.74708
524.89	361.69948
525.365	375.68634
525.84	321.62286
526.315	345.68095
526.79	392.71293
527.265	382.70533
527.74	337.67672
528.215	410.78095
528.689	289.52838
529.164	348.61682
529.638	400.84566
530.112	333.64461
530.587	312.54293
531.061	273.54972
531.534	379.75543
532.008	290.58113
532.482	328.62322
532.956	344.72537
533.429	352.70504
533.903	369.66751
534.376	326.59378
534.849	359.68463
535.322	302.59537
535.795	308.63062
536.268	298.59909
536.741	279.56517
537.213	345.65984
537.686	307.62388
538.158	249.46723
538.631	265.54737
539.103	267.50002
539.575	317.54653
540.047	299.5475
540.519	313.62765
540.991	313.64478
541.463	318.6449
541.934	288.55229
542.406	272.54582
542.877	250.47663
543.348	332.67053
543.82	303.62699
544.291	359.69527
544.762	302.59789
545.233	297.62558
545.703	297.54493
546.174	306.59361
546.645	275.54763
547.115	345.68638
547.585	337.63955
548.056	305.60709
548.526	351.67262
548.996	371.73055
549.466	485.94875
549.935	360.69004
550.405	416.72205
550.875	433.81694
551.344	455.86941
551.814	436.7966
552.283	475.80987
552.752	454.82907
553.221	519.85875
553.69	493.84692
554.159	436.84663
554.628	453.78609
555.096	485.96762
555.565	434.7613
556.033	488.90832
556.502	411.80589
556.97	366.66056
557.438	355.69443
557.906	360.70905
558.374	308.59264
558.842	212.43584
559.31	278.52744
559.777	192.40095
560.245	271.54544
560.712	223.44697
561.18	248.46799
561.647	203.39333
562.114	213.41942
562.581	242.5168
563.048	280.55408
563.514	192.41109
563.981	182.36589
564.448	207.40473
564.914	233.4722
565.381	287.56168
565.847	258.5237
566.313	217.44179
566.779	231.45336
567.245	238.48443
567.711	214.44828
568.176	217.42367
568.642	228.49808
569.108	243.51882
569.573	278.56662
570.038	227.41523
570.504	278.53311
570.969	297.64043
571.434	229.43373
571.899	305.6201
572.363	332.64067
572.828	355.68752
573.293	311.60778
573.757	316.61741
574.222	274.52188
574.686	276.52723
575.15	325.65443
575.614	273.53656
576.078	337.66766
576.542	351.6736
577.006	329.6268
577.469	399.83154
577.933	319.60243
578.396	367.7356
578.86	369.73208
579.323	364.72874
579.786	321.5866
580.249	338.64912
580.712	357.73971
581.175	324.6811
581.637	357.69768
582.1	352.65482
582.563	369.66887
583.025	327.67483
583.487	340.57696
583.95	321.58304
584.412	332.59214
584.874	339.70022
585.336	315.63809
585.797	354.64577
586.259	326.65931
586.721	311.62422
587.182	396.784
587.643	328.6369
588.105	331.66989
588.566	364.64788
589.027	276.57304
589.488	282.55594
589.949	376.77298
590.41	318.52328
590.87	346.67538
591.331	293.54654
591.791	306.60553
592.252	270.53229
592.712	288.59902
593.172	297.57519
593.632	342.64064
594.092	315.60246
594.552	376.68243
595.011	264.52389
595.471	333.63627
595.931	306.58567
596.39	345.70334
596.849	323.64411
597.308	336.62318
597.768	314.68652
598.227	344.70879
598.685	417.80683
599.144	362.71903
599.603	437.86578
600.062	365.64444
600.52	376.70573
600.978	416.82861
601.437	389.75265
601.895	407.72011
602.353	474.86867
602.811	424.78486
603.269	453.90252
603.727	479.9481
604.184	547.99316
604.642	591.16591
605.099	576.07482
605.557	580.14283
606.014	630.06225
606.471	618.22869
606.928	642.06668
607.385	725.35847
607.842	905.52042
608.299	1031.7197
608.755	893.60163
609.212	897.45623
609.668	825.3525
610.125	989.74342
610.581	1066.82643
611.037	1001.66583
611.493	972.69601
611.949	950.68973
612.405	957.36407
612.861	1056.80249
613.316	1020.77254
613.772	1023.70071
614.227	987.70825
614.683	1095.65039
615.138	1065.79021
615.593	1064.77737
616.048	1139.84263
616.503	1154.03237
616.958	1130.03955
617.412	1149.92884
617.867	1063.67385
618.321	1155.65038
618.776	1127.76496
619.23	1132.90174
619.684	1137.83113
620.138	1175.94489
620.592	1081.92983
621.046	1102.88732
621.5	1090.94744
621.954	1083.78114
622.407	1112.78916
622.861	1074.93551
623.314	1091.81917
623.768	1023.78198
624.221	992.42978
624.674	994.72722
625.127	1017.79291
625.58	1003.73419
626.033	1037.71368
626.485	949.75114
626.938	974.78439
627.39	987.75617
627.843	946.69388
628.295	956.70832
628.747	1007.83712
629.199	908.61485
629.651	937.65323
630.103	944.68163
630.555	963.56203
631.006	981.78868
631.458	955.76486
631.909	1008.79594
632.361	987.79511
632.812	978.7603
633.263	965.61451
633.714	990.63708
634.165	1045.97379
634.616	1050.93647
635.067	1051.7944
635.518	1142.07383
635.968	1143.6883
636.419	1091.8013
636.869	1222.17495
637.319	1157.01919
637.769	1185.97336
638.219	1369.37107
638.669	1327.31004
639.119	1455.53272
639.569	1399.4322
640.019	1504.41653
640.468	1479.2863
640.918	1556.60743
641.367	1582.39272
641.816	1687.46728
642.265	1710.60244
642.714	1812.681
643.163	1893.71348
643.612	1838.83099
644.061	1922.41382
644.51	1964.7183
644.958	2045.6195
645.406	2030.96287
645.855	2162.15912
646.303	2240.98252
646.751	2165.81716
647.199	2256.85934
647.647	2351.94135
648.095	2331.91929
648.543	2361.45925
648.99	2322.1149
649.438	2377.07411
649.885	2384.33246
650.333	2336.24058
650.78	2453.22657
651.227	2437.26105
651.674	2401.92926
652.121	2478.28298
652.568	2387.23897
653.015	2386.46779
653.461	2396.13956
653.908	2336.02809
654.354	2338.15318
654.801	2258.02436
655.247	2355.77142
655.693	2224.54924
656.139	2201.1146
656.585	2219.12914
657.031	2171.96209
657.477	2135.63058
657.922	2115.891
658.368	2138.23224
658.813	2145.97224
659.259	2067.05462
659.704	2069.92756
660.149	2012.89896
660.594	2008.97966
661.039	1928.76036
661.484	1893.9413
661.929	1932.87688
662.373	1895.16539
662.818	1868.07547
663.262	1830.91806
663.707	1886.18827
664.151	1884.03134
664.595	1797.90424
665.039	1792.03599
665.483	1810.1466
665.927	1845.85916
666.371	1745.69916
666.814	1824.90186
667.258	1764.80218
667.701	1871.55666
668.145	1850.10026
668.588	1832.02214
669.031	1785.80162
669.474	1764.88913
669.917	1817.61866
670.36	1810.05048
670.803	1835.96633
671.245	1762.41026
671.688	1778.96338
672.13	1749.60892
672.573	1805.15981
673.015	1801.91884
673.457	1757.51994
673.899	1781.94202
674.341	1762.90797
674.783	1779.89239
675.225	1752.97329
675.666	1731.85712
676.108	1714.48837
676.549	1692.78229
676.991	1678.5128
677.432	1646.16532
677.873	1601.61483
678.314	1662.78343
678.755	1594.78405
679.196	1534.5149
679.637	1588.80086
680.078	1623.68176
680.518	1569.61874
680.959	1490.62307
681.399	1479.72812
681.839	1462.6467
682.28	1404.61942
682.72	1411.39168
683.16	1390.63385
683.6	1390.36659
684.039	1290.0133
684.479	1310.48546
684.919	1305.28939
685.358	1347.64641
685.798	1328.72387
686.237	1314.4534
686.676	1251.2582
687.115	1197.21843
687.554	1246.3101
687.993	1230.10289
688.432	1172.11348
688.871	1135.04601
689.309	1138.18025
689.748	1118.84353
690.186	1146.19667
690.625	1113.09802
691.063	1099.13613
691.501	1135.26983
691.939	1090.22223
692.377	1096.17509
692.815	1063.07577
693.253	1126.18615
693.69	1017.82367
694.128	1030.05712
694.565	1027.01949
695.003	995.11649
695.44	1020.97481
695.877	928.82124
696.314	917.64815
696.751	965.83398
697.188	937.80225
697.625	980.8711
698.061	901.83587
698.498	930.90486
698.934	918.87349
699.371	944.86312
699.807	826.68634
700.243	820.70734
700.679	853.64988
701.115	855.72865
701.551	827.68113
701.987	814.57771
702.422	768.59402
702.858	815.68077
703.294	770.51931
703.729	819.73959
704.164	773.62757
704.599	734.43259
705.035	738.4445
705.47	703.51828
705.904	706.45478
706.339	759.54766
706.774	669.39851
707.209	644.33043
707.643	715.52116
708.078	650.42256
708.512	591.34515
708.946	671.43921
709.38	629.34381
709.814	670.36566
710.248	588.30566
710.682	612.31619
711.116	548.19605
711.549	596.40369
711.983	552.16661
712.416	602.29133
712.85	583.32693
713.283	568.2272
713.716	599.37161
714.149	546.1957
714.582	548.12525
715.015	547.26093
715.448	564.30404
715.881	559.1161
716.313	539.15923
716.746	486.06142
717.178	472.05685
717.61	474.12209
718.043	523.20458
718.475	469.06024
718.907	532.24455
719.339	421.89765
719.77	435.96807
720.202	479.12892
720.634	433.99033
721.065	487.07145
721.497	475.08472
721.928	425.98297
722.359	364.83574
722.79	431.9699
723.221	461.08559
723.652	444.07679
724.083	386.82535
724.514	440.94853
724.945	373.83425
725.375	335.74433
725.806	436.02323
726.236	436.05063
726.666	423.94372
727.096	382.89143
727.526	352.85488
727.956	410.87856
728.386	419.97409
728.816	392.94092
729.246	391.90041
729.675	347.81661
730.105	334.78924
730.534	352.78713
730.964	413.98811
731.393	409.96247
731.822	435.04446
732.251	373.90196
732.68	387.86627
733.109	422.98049
733.537	371.85266
733.966	376.88845
734.395	365.80289
734.823	358.77112
735.251	333.76932
735.68	404.95902
736.108	385.92606
736.536	427.94791
736.964	328.73045
737.392	408.9659
737.82	444.99976
738.247	377.85882
738.675	386.8763
739.102	356.84902
739.53	401.96672
739.957	381.93204
740.384	441.02108
740.811	436.03834
741.238	344.80341
741.665	379.83368
742.092	448.00095
742.519	387.90824
742.945	387.88124
743.372	399.93529
743.798	428.0352
744.225	417.93418
744.651	384.91542
745.077	431.00931
745.503	434.99561
745.929	427.96365
746.355	469.08903
746.781	451.04552
747.207	386.85709
747.632	399.91919
748.058	484.12282
748.483	456.98006
748.908	472.09234
749.334	431.99566
749.759	451.9941
750.184	428.95743
750.609	526.191
751.033	513.11883
751.458	539.10549
751.883	525.19957
752.307	501.08846
752.732	453.05637
753.156	493.12861
753.58	551.19727
754.005	502.18161
754.429	514.11178
754.853	502.15039
755.277	547.18403
755.7	560.27118
756.124	543.23627
756.548	545.1812
756.971	552.23424
757.394	599.40502
757.818	592.38832
758.241	576.33445
758.664	588.35205
759.087	551.11742
759.51	609.37332
759.933	564.23673
760.356	609.41793
760.778	588.31376
761.201	654.4259
761.623	653.42041
762.046	628.3408
762.468	629.36062
762.89	635.41218
763.312	633.39143
763.734	600.30694
764.156	613.36884
764.578	629.29737
765	639.40111
765.421	572.32569
765.843	608.45024
766.264	640.38886
766.686	655.47775
767.107	577.27138
767.528	563.29837
767.949	631.449
768.37	630.39207
768.791	619.35037
769.212	579.32365
769.632	581.22451
770.053	604.44783
770.473	620.35912
770.894	666.49373
771.314	626.34518
771.734	588.23847
772.154	618.43749
772.575	613.27734
772.994	569.16976
773.414	632.36333
773.834	565.28954
774.254	584.29784
774.673	620.36083
775.093	542.22828
775.512	528.19409
775.931	563.30455
776.351	532.21242
776.77	503.13354
777.189	533.16007
777.607	581.35162
778.026	567.28735
778.445	479.11098
778.864	575.34605
779.282	526.16007
779.701	501.16712
780.119	483.13131
780.537	486.12257
780.955	530.24035
781.373	526.19438
781.791	456.94968
782.209	519.0946
782.627	500.22053
783.045	441.94477
783.462	499.17886
783.88	497.18997
784.297	434.0209
784.715	465.1107
785.132	455.02352
785.549	451.05088
785.966	449.05277
786.383	428.98617
786.8	512.08903
787.217	473.03624
787.633	417.97709
788.05	470.03377
788.466	468.0216
788.883	408.97968
789.299	429.96619
789.715	470.05797
790.131	441.02269
790.547	418.98039
790.963	453.04602
791.379	436.0296
791.795	424.90306
792.21	393.86411
792.626	402.89595
793.041	359.8409
793.457	410.95224
793.872	403.88907
794.287	310.7075
794.702	397.92151
795.117	366.86148
795.532	366.86918
795.947	381.86583
796.362	367.82963
796.776	396.87235
797.191	353.82038
797.605	307.68893
798.02	345.79799
798.434	336.71036
798.848	349.81652
799.262	323.76517
799.676	324.75493
800.09	308.72584
800.504	343.79147
800.918	298.66117
801.331	309.77777
801.745	289.6368
802.158	338.80486
802.572	314.72846
802.985	314.72587
803.398	218.50637
803.811	345.84525
804.224	256.61665
804.637	232.53655
805.05	264.59013
805.462	281.66466
805.875	201.50923
806.288	219.51402
806.7	246.59928
807.112	234.52631
807.525	250.59741
807.937	216.52011
808.349	243.59032
808.761	207.49703
809.173	219.51663
809.584	256.61198
809.996	170.40889
810.408	207.52145
810.819	210.48123
811.231	205.51715
811.642	256.58899
812.053	352.79232
812.464	373.83597
812.875	350.85034
813.286	274.68016
813.697	269.60589
814.108	207.49343
814.519	168.36779
814.929	213.52982
815.34	148.35409
815.75	197.48932
816.16	158.3878
816.571	140.35929
816.981	160.37181
817.391	185.43744
817.801	118.29059
818.211	167.39121
818.62	122.29099
819.03	172.41386
819.44	160.41148
819.849	135.33631
820.259	163.41047
820.668	117.28531
821.077	104.25668
821.486	135.32144
821.895	149.36307
822.304	77.20369
822.713	123.28803
823.122	115.28471
823.531	76.18009
823.939	86.20897
824.348	86.20858
824.756	123.30519
825.164	111.27732
825.573	78.19541
825.981	83.20542
826.389	143.35455
826.797	72.18025
827.205	71.163
827.612	91.22373
828.02	29.06865
828.428	94.23829
828.835	81.21262
829.243	107.25331
829.65	56.13953
830.057	103.24845
830.464	115.27781
830.871	84.20067
831.278	68.16443
831.685	48.1077
832.092	73.17861
832.499	56.12296
832.905	109.2739
833.312	64.14625
833.718	60.14972
834.124	66.15101
834.531	116.28987
834.937	62.15923
835.343	89.21395
835.749	99.23001
836.155	60.1572
836.561	33.08167
836.966	77.18798
837.372	82.20809
837.777	36.09016
838.183	60.13374
838.588	32.07994
838.993	89.21582
839.399	40.09825
839.804	1.00247
840.209	41.10476
840.613	49.10947
841.018	55.1395
841.423	46.11835
841.828	37.09401
842.232	85.20983
842.637	10.02385
843.041	55.14113
843.445	33.08322
843.849	25.06233
844.253	77.18264
844.657	-8.0204
845.061	12.02753
845.465	1.00244
845.869	40.09343
846.272	21.05153
846.676	46.11165
847.079	8.02053
847.483	50.12504
847.886	66.16056
848.289	19.05104
848.692	38.09664
849.095	23.05567
849.498	97.24436
849.901	62.14231
850.304	49.11744
850.707	37.09474
851.109	66.16689
851.512	5.01242
851.914	0
852.316	41.10406
852.718	24.06233
853.121	21.05184
853.523	29.06823
853.925	24.06297
854.326	33.0829
854.728	18.04662
855.13	-7.01826
855.531	-13.0315
855.933	9.02182
856.334	48.1199
856.736	-25.057
857.137	10.02349
857.538	26.06575
857.939	44.109
858.34	36.08813
858.741	51.13346
859.142	19.046
859.542	-24.06418
859.943	38.09479
860.343	-43.10844
860.744	49.1198
861.144	15.03689
861.544	-17.04144
861.945	-9.02321
862.345	36.08843
862.745	16.04007
863.145	40.09599
863.544	39.09888
863.944	26.06183
864.344	20.05003
864.743	61.1513
865.143	21.05428
865.542	22.05141
865.941	-5.01252
866.34	35.08423
866.74	11.02974
867.139	-9.02182
867.537	38.09715
867.936	10.02429
868.335	22.05632
868.734	-2.00516
869.132	14.03282
869.531	24.05843
869.929	-38.08831
870.327	18.04348
870.726	49.12238
871.124	7.01653
871.522	-13.03352
871.92	55.13572
872.318	22.05414
872.715	57.14112
873.113	53.12924
873.511	16.04016
873.908	-27.06916
874.306	-16.04031
874.703	31.07793
875.1	33.08477
875.497	2.00485
875.894	-32.07968
876.291	5.01239
876.688	-17.0444
877.085	14.03387
877.482	20.05039
877.878	-10.02437
878.275	11.02817
878.671	8.018
879.068	42.10167
879.464	25.06078
879.86	16.03813
880.256	56.13821
880.652	24.06138
881.048	43.10681
881.444	38.09078
881.84	18.04605
882.236	37.09334
882.631	-6.0149
883.027	18.0439
883.422	-7.01809
883.817	-9.02288
884.213	19.04906
884.608	-9.02233
885.003	7.01703
885.398	-11.02786
885.793	-18.04578
886.188	13.03256
886.582	52.13346
886.977	-16.0385
887.371	22.05597
887.766	2.00502
888.16	12.03018
888.554	45.11149
888.949	35.0882
889.343	35.08583
889.737	-27.0729
890.131	21.053
890.525	1.00258
890.918	19.04812
891.312	46.11027
891.706	20.05278
892.099	42.10711
892.492	22.04782
892.886	-26.06457
893.279	39.09962
893.672	32.08178
894.065	14.03531
894.458	5.01269
894.851	63.15415
895.244	34.08714
895.637	18.04366
896.029	-11.02722
896.422	30.07363
896.814	7.01755
897.206	-41.09942
897.599	46.11395
897.991	-16.0392
898.383	-19.04554
898.775	-6.01371
899.167	-43.10219
899.559	36.09142
899.951	53.12499
900.342	20.05117
900.734	-48.12129
901.125	56.14687
901.517	-21.05226
901.908	25.06028
902.299	-9.02226
902.69	21.04987
903.082	1.00245
903.473	16.03859
903.863	17.04365
904.254	-36.08504
904.645	26.065
905.036	-53.13088
905.426	64.14625
905.817	20.04938
906.207	5.01202
906.597	-15.03555
906.987	1.00262
907.378	8.0204
907.768	45.11912
908.158	20.04907
908.547	-17.04444
908.937	7.01811
909.327	36.08771
909.717	29.07395
910.106	-23.05605
910.495	34.08518
910.885	1.00256
911.274	38.09523
911.663	25.06377
912.052	12.02983
912.441	26.06642
912.83	28.0646
913.219	59.15424
913.608	10.02469
913.997	6.01517
914.385	67.15966
914.774	37.09036
915.162	19.04557
915.55	26.06323
915.939	20.05077
916.327	34.08515
916.715	-1.00257
917.103	47.11581
917.491	5.01248
917.878	29.07161
918.266	26.06773
918.654	-10.02583
919.041	-13.03431
919.429	2.00477
919.816	34.08647
920.203	20.0488
920.591	65.16081
920.978	40.09818
921.365	8.02115
921.752	-2.00482
922.139	7.01535
922.525	16.03869
922.912	26.06372
923.299	-4.01004
923.685	7.0184
924.072	31.0718
924.458	-5.01251
924.844	43.10658
925.231	-37.08763
925.617	-23.05927
926.003	25.0642
926.389	16.04062
926.774	16.0408
927.16	-5.01255
927.546	-36.0933
927.931	45.11243
928.317	2.00465
928.702	28.06656
929.088	-36.08659
929.473	3.0077
929.858	-18.04408
930.243	16.03866
930.628	6.01472
931.013	3.0075
931.398	51.11732
931.783	24.06348
932.167	7.01725
932.552	6.01516
932.937	19.04744
933.321	-31.07893
933.705	-14.0357
934.09	51.12889
934.474	44.10467
934.858	-14.03672
935.242	-18.04229
935.626	5.0129
936.009	-19.05112
936.393	21.05372
936.777	-12.03107
937.16	37.0965
937.544	21.04977
937.927	-8.02051
938.311	28.06865
938.694	55.14535
939.077	9.02172
939.46	66.16164
939.843	20.04203
940.226	-12.03112
940.609	9.02084
940.991	17.04353
941.374	-26.06445
941.757	5.01244
942.139	13.02943
942.522	50.11821
942.904	5.01212
943.286	21.05364
943.668	16.04169
944.05	11.02729
944.432	24.05952
944.814	12.02977
945.196	-8.01971
945.578	-6.01442
945.959	20.04716
946.341	63.15432
946.722	-31.07393
947.104	42.10056
947.485	-4.00941
947.866	-14.03568
948.247	39.0986
948.628	33.08077
949.009	-24.06226
949.39	18.04508
949.771	-3.00705
950.152	-11.0273
950.532	-29.07238
950.913	26.06301
951.293	-10.02728
951.674	15.03652
952.054	-16.04013
952.434	-6.01505
952.814	-12.0289
953.194	48.12568
953.574	20.04954
953.954	-5.012
954.334	18.04513
954.714	-2.00492
955.093	49.12051
955.473	4.01009
955.853	-20.0524
956.232	31.08522
956.611	23.05546
956.99	23.05809
957.37	-21.05419
957.749	-27.06537
958.128	20.05066
958.506	34.08845
958.885	7.0178
959.264	-47.11726
959.643	13.02981
960.021	20.04983
960.4	-49.11331
960.778	29.07172
961.156	-12.03042
961.535	21.04923
961.913	-1.00236
962.291	-21.05454
962.669	-4.01023
963.047	49.12507
963.424	19.04875
963.802	45.11076
964.18	26.06607
964.557	22.05096
964.935	28.06663
965.312	16.04191
965.69	25.06289
966.067	23.0563
966.444	18.04462
966.821	12.03114
967.198	38.09241
967.575	39.0961
967.952	96.22423
968.329	51.12409
968.705	-36.07865
969.082	-1.00259
969.458	-76.18668
969.835	-4.00984
970.211	-10.02593
970.587	41.10225
970.963	9.02326
971.339	6.01578
971.715	-2.00504
972.091	1.00248
972.467	25.06264
972.843	-22.05531
973.219	41.09864
973.594	18.04734
973.97	48.11432
974.345	2.00483
974.721	19.04628
975.096	23.05594
975.471	2.00479
975.846	-14.03404
976.221	-15.03853
976.596	-48.1172
976.971	23.05707
977.346	-8.01884
977.72	13.03333
978.095	35.09069
978.469	16.03844
978.844	58.14562
979.218	-26.06323
979.593	-23.05588
979.967	42.10248
980.341	5.01162
980.715	0
981.089	42.1053
981.463	-21.04891
981.837	-28.06941
982.21	40.09328
982.584	-15.03667
982.957	-16.04043
983.331	35.08299
983.704	2.00496
984.078	-9.02242
984.451	82.20365
984.824	-19.04687
985.197	32.07799
985.57	6.01517
985.943	59.14548
986.316	31.07644
986.688	-5.01218
987.061	62.14499
987.434	35.09144
987.806	50.12127
988.179	-11.02626
988.551	31.07891
988.923	27.06677
989.295	56.13979
989.667	-48.11681
990.039	-6.01498
990.411	8.01857
990.783	19.04402
991.155	-40.09774
991.527	9.02233
991.898	7.01758
992.27	7.01745
992.641	10.02527
993.012	45.106
993.384	-1.00241
993.755	12.0308
994.126	26.06282
994.497	-25.06221
994.868	52.11941
995.239	30.07298
995.61	-1.00254
995.98	21.05129
996.351	-9.02253
996.722	-5.01172
997.092	-23.05523
997.462	-18.0426
997.833	20.04769
998.203	32.07785
998.573	-4.01006
998.943	-4.00948
999.313	3.00725
999.683	-18.04376
1000.053	-7.01629
1000.423	-14.03443
1000.792	24.06248
1001.162	-6.01492
1001.531	21.05205
1001.901	34.08499
1002.27	3.00677
1002.639	1.00258
1003.009	6.01439
1003.378	-5.01291
1003.747	-12.02869
1004.116	-34.08265
1004.485	-9.02175
1004.853	26.06614
1005.222	19.04817
1005.591	25.05964
1005.959	-6.01367
1006.328	-32.07322
1006.696	-11.02683
1007.064	-16.04072
1007.433	41.10262
1007.801	40.09836
1008.169	54.13626
1008.537	17.0379
1008.905	-48.11396
1009.273	11.02736
1009.64	-5.01205
1010.008	21.05033
1010.375	44.10696
1010.743	52.12003
1011.11	-7.01674
1011.478	4.00998
1011.845	34.0802
1012.212	16.03646
1012.579	3.00743
1012.946	39.09301
1013.313	64.15189
1013.68	-1.00227
1014.047	-24.05799
1014.414	-19.04547
1014.78	18.04498
1015.147	30.07282
1015.513	23.05569
1015.88	15.03858
1016.246	2.00498
1016.612	58.13254
1016.978	15.03699
1017.344	37.09164
1017.71	57.13879
1018.076	-1.00238
1018.442	52.13369
1018.808	-33.0837
1019.174	18.0454
1019.539	61.1401
1019.905	-5.01191
1020.27	7.01741
1020.636	19.04581
1021.001	-8.01936
1021.366	-41.10013
1021.731	44.11324
1022.096	-34.08702
1022.461	-3.00717
1022.826	-18.04333
1023.191	-12.0318
1023.556	3.00709
1023.92	5.01239
1024.285	38.09293
1024.649	21.05173
1025.014	42.10416
1025.378	-19.04834
1025.742	25.06235
1026.107	41.09288
1026.471	20.04695
1026.835	-16.04013
1027.199	-25.06101
1027.562	37.0862
1027.926	3.0074
1028.29	12.03056
1028.654	-30.0701
1029.017	19.04695
1029.381	-34.08249
1029.744	-8.0206
1030.107	-5.01195
1030.471	-29.07046
1030.834	11.02521
1031.197	14.03394
1031.56	-3.00715
1031.923	-21.05494
1032.286	37.08709
1032.648	34.08153
1033.011	-19.0442
1033.374	21.04962
1033.736	-22.05852
1034.099	-8.0197
1034.461	-8.02041
1034.823	-23.058
1035.185	-3.00762
1035.548	23.05623
1035.91	-4.00968
1036.272	15.03437
1036.634	29.07119
1036.995	22.05197
1037.357	-49.12136
1037.719	-7.0172
1038.08	25.05962
1038.442	-10.024
1038.803	11.02659
1039.165	-2.00509
1039.526	26.06308
1039.887	5.01206
1040.248	-25.06242
1040.609	48.1186
1040.97	8.01969
1041.331	21.05341
1041.692	-24.05681
1042.053	-11.02534
1042.413	14.03284
1042.774	-11.02704
1043.134	38.09064
1043.495	-20.05088
1043.855	19.04633
1044.215	41.10188
1044.576	-13.03144
1044.936	-17.03948
1045.296	42.10492
1045.656	13.0321
1046.016	10.02431
1046.375	34.08268
1046.735	-41.09462
1047.095	-30.07128
1047.454	35.07437
1047.814	11.02662
1048.173	44.10519
1048.533	-18.04178
1048.892	-26.06327
1049.251	58.1453
1049.61	-20.04985
1049.969	-7.01667
1050.328	-25.05504
1050.687	19.04647
1051.046	24.05869
1051.405	-17.04278
1051.763	-2.00464
1052.122	-35.08858
1052.48	4.00989
1052.839	1.00237
1053.197	-2.00475
1053.555	20.04585
1053.914	16.03936
1054.272	31.07517
1054.63	-12.02966
1054.988	-23.05537
1055.345	-24.05248
1055.703	35.08443
1056.061	-9.02338
1056.419	-27.07078
1056.776	-16.03926
1057.134	12.02797
1057.491	0
1057.848	28.06994
1058.206	7.01659
1058.563	21.04655
1058.92	7.01626
1059.277	59.14522
1059.634	51.1199
1059.991	-15.03636
1060.348	-3.00685
1060.704	-2.00481
1061.061	39.09076
1061.418	8.01954
1061.774	36.08905
1062.131	-8.02134
1062.487	-31.07359
1062.843	-9.02266
1063.199	0
1063.555	9.02101
1063.911	30.076
1064.267	15.03151
1064.623	-37.09127
1064.979	35.08312
1065.335	46.10997
1065.691	47.11264
1066.046	5.01109
1066.402	-53.12285
1066.757	29.07342
1067.112	34.08364
1067.468	-3.00715
1067.823	10.02421
1068.178	7.01706
1068.533	-23.05648
1068.888	16.03846
1069.243	-4.00996
1069.598	11.0269
1069.952	-70.16138
1070.307	1.0025
1070.662	-4.00959
1071.016	-33.07515
1071.371	4.00918
1071.725	31.07438
1072.079	6.01454
1072.434	-21.05167
1072.788	-15.03614
1073.142	54.13264
1073.496	-18.04323
1073.85	13.03035
1074.203	19.04633
1074.557	28.07468
1074.911	39.09322
1075.265	-1.00235
1075.618	0
1075.971	12.02873
1076.325	6.01536
1076.678	-45.1048
1077.031	-15.03437
1077.385	-13.02899
1077.738	-15.03429
1078.091	-10.023
1078.444	61.14122
1078.796	10.0247
1079.149	6.01503
1079.502	7.01666
1079.855	30.07018
1080.207	13.03222
1080.56	-15.03917
1080.912	10.02451
1081.264	-1.00243
1081.617	-7.01723
1081.969	17.0431
1082.321	13.03194
1082.673	-67.1564
1083.025	39.09265
1083.377	-194.43796
1083.728	69.16025
1084.08	5.01257
1084.432	-23.05619
1084.783	31.07285
1085.135	3.00758
1085.486	-37.08607
1085.838	1.00248
1086.189	-21.05161
1086.54	13.03124
1086.891	11.02799
1087.242	13.03184
1087.593	43.10474
1087.944	2.00457
1088.295	10.0229
1088.646	-1.00244
1088.996	-12.02922
1089.347	-2.00495
1089.698	-31.07435
1090.048	33.08589
1090.398	17.03965
1090.749	-13.03145
1091.099	-21.05343
1091.449	50.12445
1091.799	30.07532
1092.149	-38.0941
1092.499	-1.00246
1092.849	-20.05142
1093.199	-5.01265
1093.548	6.01452
1093.898	-18.04555
1094.248	29.07473
1094.597	-10.02577
1094.947	19.0509
1095.296	27.0669
1095.645	10.02617
1095.994	5.0121
1096.343	6.0152
1096.692	-8.0212
1097.041	-14.03826
1097.39	1.00253
1097.739	-11.02887
1098.088	20.0538
1098.437	-8.0212
1098.785	21.05683
1099.134	32.08515
1099.482	30.0827
1099.83	4.01058
1100.179	-23.06068
1100.527	1.00268
1100.875	-17.04541
1101.223	-9.02411
1101.571	11.03056
1101.919	-55.14613
1102.267	7.01982
1102.615	4.01286
1102.962	12.03863
1103.31	-2.00643
1103.658	17.05472
