Data from N2 R8 sample 10_Subt2__5__17-29-44-416.txt Node

Date: Fri Aug 29 17:29:44 PDT 2025
User: uwsun
Spectrometer: HDX01956
Trigger mode: 0
Integration Time (sec): 5.000000E-1
Scans to average: 1
Nonlinearity correction enabled: true
Boxcar width: 0
Storing dark spectrum: false
XAxis mode: Wavelengths
Number of Pixels in Spectrum: 2068
>>>>>Begin Spectral Data<<<<<
194.03	255.68733
194.578	260.79537
195.127	262.78874
195.676	267.80586
196.225	270.68364
196.773	278.72803
197.321	433.07571
197.87	586.29043
198.418	542.18692
198.966	595.2974
199.513	496.04578
200.061	486.04618
200.609	600.34336
201.156	551.98873
201.704	574.2047
202.251	528.1873
202.798	549.20303
203.345	583.20612
203.892	521.10893
204.438	626.23132
204.985	516.01698
205.532	632.37905
206.078	628.26891
206.624	611.23423
207.17	663.2476
207.716	550.11157
208.262	591.94181
208.808	564.14721
209.354	601.20344
209.899	633.33076
210.445	517.07796
210.99	563.12306
211.535	597.15901
212.08	650.22999
212.625	634.31092
213.17	633.32842
213.715	535.97729
214.259	611.17044
214.804	637.30036
215.348	614.15154
215.892	585.16486
216.436	616.17634
216.98	650.16768
217.524	624.20893
218.068	632.31961
218.612	607.27603
219.155	584.13885
219.698	616.21105
220.242	574.20629
220.785	528.03921
221.328	554.16573
221.871	570.22417
222.414	515.09566
222.956	451.93071
223.499	504.95815
224.041	556.09032
224.583	504.92367
225.126	505.9388
225.668	507.04583
226.21	530.12983
226.751	456.84495
227.293	523.00832
227.835	502.04083
228.376	555.07681
228.918	546.17154
229.459	520.09503
230	464.94614
230.541	545.05335
231.082	524.07298
231.622	484.9506
232.163	491.01005
232.704	508.06784
233.244	495.04527
233.784	498.04403
234.324	408.76354
234.864	532.00778
235.404	545.09062
235.944	523.04748
236.484	555.16912
237.023	509.0128
237.563	548.05283
238.102	567.11534
238.641	543.15934
239.18	485.95594
239.719	559.17911
240.258	518.97711
240.797	581.1499
241.335	605.22879
241.874	518.81522
242.412	548.09841
242.95	556.10008
243.488	546.03536
244.026	528.01237
244.564	545.92079
245.102	557.02979
245.64	592.18457
246.177	497.93496
246.715	566.13246
247.252	512.98806
247.789	617.93062
248.326	567.1211
248.863	506.92126
249.4	553.03922
249.936	580.96534
250.473	557.07092
251.009	538.01668
251.546	589.05434
252.082	551.99229
252.618	552.00703
253.154	539.07361
253.69	480.90586
254.226	548.0827
254.761	508.94837
255.297	532.95683
255.832	497.98419
256.367	577.11532
256.903	566.01074
257.438	607.16388
257.972	559.01751
258.507	555.03632
259.042	539.95874
259.576	523.91629
260.111	548.04473
260.645	604.05265
261.179	522.0047
261.713	554.00303
262.247	560.05834
262.781	455.78956
263.315	563.13191
263.849	576.18337
264.382	622.15395
264.915	590.11733
265.449	537.06862
265.982	623.14001
266.515	589.17066
267.048	590.9966
267.58	625.09365
268.113	550.95932
268.646	572.154
269.178	581.04053
269.71	613.06809
270.243	609.11883
270.775	603.25091
271.307	647.25447
271.838	632.21395
272.37	564.13523
272.902	555.02659
273.433	578.01201
273.965	617.21102
274.496	649.30151
275.027	591.19049
275.558	611.19245
276.089	560.11267
276.62	639.31743
277.15	636.26512
277.681	646.10469
278.211	613.21562
278.741	583.01784
279.272	564.03261
279.802	660.31721
280.332	623.16587
280.861	663.26289
281.391	621.11004
281.921	674.28544
282.45	632.26941
282.98	659.3788
283.509	628.11016
284.038	638.14138
284.567	652.20371
285.096	665.26671
285.625	630.12066
286.153	629.15913
286.682	631.12912
287.21	599.14575
287.739	657.21326
288.267	637.2121
288.795	686.43441
289.323	627.14215
289.851	685.24173
290.378	684.17674
290.906	639.2053
291.433	732.40841
291.961	668.15772
292.488	743.42104
293.015	648.1778
293.542	650.28641
294.069	668.27151
294.596	709.35722
295.122	685.25497
295.649	680.1387
296.175	759.39643
296.702	680.27494
297.228	719.33926
297.754	732.22601
298.28	692.18229
298.806	749.35041
299.332	698.14723
299.857	714.20036
300.383	750.44795
300.908	706.2854
301.433	722.31658
301.958	748.28918
302.483	708.33407
303.008	760.41122
303.533	795.561
304.058	745.31032
304.582	703.23434
305.107	697.38183
305.631	795.32058
306.155	744.26591
306.679	751.27751
307.203	806.34148
307.727	787.35621
308.251	828.48518
308.775	767.30971
309.298	716.25229
309.822	841.53523
310.345	885.46894
310.868	853.43826
311.391	929.60248
311.914	831.4879
312.437	884.3985
312.96	862.41061
313.482	838.38878
314.005	865.53145
314.527	858.60383
315.049	885.5775
315.571	855.27322
316.093	957.60807
316.615	967.55536
317.137	946.33605
317.659	995.61595
318.18	977.57506
318.702	894.38846
319.223	997.26522
319.744	951.37078
320.265	923.4751
320.786	956.54586
321.307	1010.62894
321.828	947.36668
322.348	1016.50465
322.869	993.46728
323.389	1041.89922
323.909	1054.48019
324.43	1136.68451
324.95	1034.43167
325.47	1083.61857
325.989	1078.51413
326.509	1091.36365
327.029	1126.43392
327.548	1118.41287
328.067	1128.56583
328.587	1241.76544
329.106	1171.46674
329.625	1179.86816
330.144	1117.43654
330.662	1233.51741
331.181	1217.53245
331.7	1217.52502
332.218	1265.3641
332.736	1268.54178
333.255	1261.50425
333.773	1317.57545
334.291	1305.72232
334.808	1262.36883
335.326	1378.45749
335.844	1390.48802
336.361	1363.69032
336.879	1345.45197
337.396	1437.57892
337.913	1452.44766
338.43	1513.40103
338.947	1508.54016
339.464	1436.21868
339.981	1482.47467
340.497	1510.61694
341.014	1509.54561
341.53	1521.31483
342.046	1536.54012
342.562	1632.64207
343.078	1611.42816
343.594	1627.46662
344.11	1739.46419
344.626	1622.58605
345.141	1697.2904
345.657	1749.30356
346.172	1713.43579
346.687	1710.26817
347.202	1692.18344
347.717	1811.36815
348.232	1770.49936
348.747	1807.21755
349.261	1778.00329
349.776	1806.25056
350.29	1785.3362
350.805	1950.4179
351.319	1934.18591
351.833	1860.04859
352.347	1864.1669
352.861	1941.11115
353.374	1932.11041
353.888	1976.22302
354.401	2019.03089
354.915	1849.91271
355.428	1936.22767
355.941	2039.98439
356.454	2197.89351
356.967	2063.04319
357.48	2120.9354
357.993	2118.13488
358.505	2092.06815
359.018	2211.04398
359.53	2196.94786
360.042	2206.71472
360.554	2231.96672
361.066	2234.93842
361.578	2191.6115
362.09	2213.86092
362.602	2181.59529
363.113	2200.72232
363.625	2250.58846
364.136	2368.4806
364.647	2319.52871
365.158	2454.5482
365.669	2497.61433
366.18	2461.55886
366.691	2473.3349
367.201	2368.58839
367.712	2473.34777
368.222	2475.3397
368.733	2382.17526
369.243	2562.10466
369.753	2667.1864
370.263	2724.22337
370.773	2655.32959
371.282	2711.10761
371.792	2783.81177
372.301	2903.90809
372.811	3019.0813
373.32	2794.50614
373.829	2969.59398
374.338	3223.26113
374.847	3160.29008
375.356	3315.20401
375.865	3399.85166
376.373	3638.80136
376.882	3721.97329
377.39	3720.81501
377.898	3717.71087
378.407	3915.54646
378.915	4090.522
379.423	4403.55848
379.93	4495.63598
380.438	4540.69482
380.946	4894.10893
381.453	5006.38836
381.96	5217.0663
382.468	5377.12645
382.975	5837.22154
383.482	6247.49777
383.989	6142.57633
384.495	6335.99232
385.002	6452.09671
385.509	6909.47427
386.015	7633.35175
386.521	7856.97189
387.028	8254.75996
387.534	8400.68486
388.04	8943.92754
388.546	8782.23228
389.051	9150.26177
389.557	9782.67084
390.063	11481.97167
390.568	11434.18856
391.073	11441.45654
391.578	11992.35013
392.084	11973.69283
392.589	12233.36329
393.093	12951.13367
393.598	14268.08062
394.103	15713.60673
394.607	17402.89091
395.112	18575.82067
395.616	19447.19764
396.12	21052.37387
396.624	22822.37097
397.128	24965.6649
397.632	28040.9318
398.136	30462.43743
398.639	30560.94236
399.143	31227.33046
399.646	28447.00596
400.15	25083.82847
400.653	20124.16724
401.156	13866.23708
401.659	5169.95759
402.162	1054.15589
402.664	0
403.167	0
403.67	0
404.172	0
404.674	0
405.176	0
405.678	0
406.18	0
406.682	0
407.184	0
407.686	0
408.187	0
408.688	0
409.19	0
409.691	0
410.192	0
410.693	0
411.194	435.30976
411.694	4082.94878
412.195	8864.71461
412.696	12089.80453
413.196	12760.96929
413.696	12863.67595
414.196	13703.56671
414.696	17261.84252
415.196	21764.24417
415.696	29583.19008
416.196	36460.31858
416.695	40057.39798
417.195	38824.39056
417.694	36559.54795
418.194	34818.74083
418.693	32252.01358
419.192	30962.57513
419.691	30465.80346
420.19	30278.7989
420.688	29734.4461
421.187	28794.50774
421.685	27385.89693
422.184	25130.72119
422.682	21595.62028
423.18	17577.53647
423.678	15555.24166
424.176	14235.98371
424.674	13510.77003
425.172	13086.80263
425.669	12577.4256
426.167	11643.01503
426.664	10624.08311
427.161	9802.71684
427.659	8861.20682
428.156	8386.15058
428.652	7830.46784
429.149	7389.64918
429.646	7031.70768
430.143	6865.05868
430.639	6360.83388
431.135	6010.08075
431.632	5709.44878
432.128	5273.34468
432.624	4941.83592
433.12	4616.80193
433.616	4535.723
434.111	4158.53355
434.607	4109.52651
435.103	4072.52195
435.598	4108.52556
436.093	3843.69772
436.588	3595.81079
437.083	3528.92579
437.578	3303.14666
438.073	3009.47473
438.568	3045.62092
439.062	2902.39466
439.557	2924.73403
440.051	2661.78466
440.546	2573.86888
441.04	2534.08361
441.534	2457.36215
442.028	2501.24544
442.522	2372.30763
443.015	2370.10037
443.509	2422.44367
444.002	2252.51871
444.496	2197.26424
444.989	2180.60675
445.482	2175.66726
445.975	2064.4173
446.468	2058.33435
446.961	2009.3668
447.454	1954.55324
447.947	1961.65003
448.439	1991.79195
448.931	1824.59299
449.424	1866.96823
449.916	1846.86192
450.408	1745.66446
450.9	1793.86284
451.392	1773.00607
451.884	1642.8106
452.375	1612.97402
452.867	1701.8261
453.358	1580.78644
453.849	1530.67885
454.341	1526.81723
454.832	1453.72747
455.323	1462.01125
455.814	1585.9218
456.304	1532.93758
456.795	1465.92575
457.285	1523.92317
457.776	1446.99538
458.266	1410.03384
458.756	1373.09492
459.247	1339.03826
459.737	1211.00961
460.226	1300.93636
460.716	1158.03246
461.206	1266.11243
461.695	1250.23167
462.185	1199.07812
462.674	1205.05221
463.163	1213.98734
463.653	1206.89113
464.142	1186.15365
464.63	1102.17137
465.119	1009.99931
465.608	1069.03848
466.096	1101.98699
466.585	1070.09538
467.073	1080.18253
467.561	1002.14419
468.05	1035.11463
468.538	1041.23812
469.026	989.15347
469.513	928.90078
470.001	976.05412
470.489	912.08461
470.976	908.06174
471.463	860.1642
471.951	905.23311
472.438	774.99411
472.925	760.97472
473.412	791.11719
473.899	840.05917
474.385	794.12819
474.872	735.98316
475.359	729.05277
475.845	714.82572
476.331	781.96986
476.817	717.06891
477.303	710.99358
477.789	609.93067
478.275	606.96381
478.761	598.93039
479.247	655.9173
479.732	554.90884
480.218	593.03316
480.703	568.94379
481.188	486.68572
481.673	514.78602
482.158	431.60591
482.643	548.96996
483.128	460.71507
483.612	487.78527
484.097	506.87182
484.581	536.86068
485.066	465.79965
485.55	346.54186
486.034	405.61646
486.518	378.63973
487.002	386.6874
487.486	309.56438
487.969	311.5689
488.453	375.71167
488.936	368.60862
489.42	381.61983
489.903	380.72661
490.386	349.40367
490.869	360.58615
491.352	355.66944
491.835	381.58267
492.318	313.53704
492.8	325.50556
493.283	331.65178
493.765	293.56255
494.247	305.55905
494.73	319.54205
495.212	339.64334
495.694	257.47154
496.175	202.38006
496.657	256.48451
497.139	295.39379
497.62	194.36807
498.102	230.45898
498.583	217.4432
499.064	208.37019
499.545	220.40415
500.026	212.38181
500.507	173.32878
500.988	226.45854
501.469	186.38204
501.949	205.41774
502.43	113.22251
502.91	133.225
503.39	220.45514
503.87	143.278
504.35	180.35319
504.83	153.2759
505.31	138.2791
505.79	88.1774
506.269	202.39017
506.749	128.24356
507.228	84.16646
507.707	187.34085
508.187	162.32538
508.666	145.29816
509.145	59.11744
509.623	62.12441
510.102	94.1943
510.581	181.36783
511.059	96.20475
511.538	128.2833
512.016	115.23392
512.494	162.3326
512.972	89.18194
513.45	40.07923
513.928	102.21093
514.406	17.03526
514.884	127.2788
515.361	155.3137
515.839	86.16755
516.316	107.22022
516.793	109.23817
517.27	94.19726
517.747	98.21672
518.224	98.19529
518.701	86.16484
519.178	51.10955
519.654	63.13095
520.131	1.00218
520.607	86.18581
521.083	84.16568
521.56	36.07444
522.036	51.09773
522.512	104.22326
522.987	-5.01044
523.463	86.17728
523.939	119.25286
524.414	61.12351
524.89	27.0565
525.365	6.01201
525.84	29.0602
526.315	50.10553
526.79	107.20871
527.265	40.08019
527.74	38.08157
528.215	94.19281
528.689	21.041
529.164	50.09551
529.638	91.2054
530.112	77.15819
530.587	12.02254
531.061	36.07645
531.534	85.18101
532.008	35.07428
532.482	37.07529
532.956	-8.01817
533.429	18.03884
533.903	30.05898
534.376	21.04121
534.849	16.03306
535.322	55.11473
535.795	30.06529
536.268	49.10417
536.741	73.15485
537.213	82.16683
537.686	6.01303
538.158	-8.01596
538.631	48.10397
539.103	36.07127
539.575	74.13587
540.047	10.01965
540.519	47.10005
540.991	51.11125
541.463	58.12462
541.934	19.03881
542.406	55.1159
542.877	38.07618
543.348	64.13721
543.82	67.14597
544.291	55.11427
544.762	7.01482
545.233	39.0868
545.703	29.05681
546.174	96.19558
546.645	11.02325
547.115	111.23288
547.585	152.30149
548.056	57.12001
548.526	105.21319
548.996	134.27859
549.466	172.36142
549.935	103.2097
550.405	138.25722
550.875	124.2517
551.344	147.30187
551.814	113.22335
552.283	219.39918
552.752	167.32714
553.221	128.23478
553.69	195.36174
554.159	200.41024
554.628	214.39491
555.096	188.40096
555.565	171.3207
556.033	231.45744
556.502	117.24536
556.97	148.28203
557.438	115.23776
557.906	115.23957
558.374	68.13841
558.842	55.11707
559.31	45.09024
559.777	1.00218
560.245	54.11412
560.712	34.07113
561.18	-14.02812
561.647	56.11232
562.114	-13.02696
562.581	68.15069
563.048	71.14738
563.514	30.06648
563.981	84.17269
564.448	44.08936
564.914	75.15749
565.381	71.14606
565.847	86.18143
566.313	105.21922
566.779	34.06984
567.245	69.14585
567.711	50.10854
568.176	45.09145
568.642	95.21337
569.108	100.22013
569.573	162.3389
570.038	152.28331
570.504	107.21367
570.969	176.38937
571.434	127.24654
571.899	156.32794
572.363	147.29628
572.828	249.49447
573.293	222.44301
573.757	196.39385
574.222	199.38595
574.686	169.33121
575.15	223.45959
575.614	245.4847
576.078	243.49202
576.542	259.50808
577.006	282.54339
577.469	343.72373
577.933	214.41454
578.396	300.61063
578.86	275.55757
579.323	301.61141
579.786	312.57145
580.249	232.45694
580.712	326.68016
581.175	268.57033
581.637	295.58499
582.1	260.49474
582.563	295.54481
583.025	253.5308
583.487	230.40192
583.95	192.36018
584.412	262.47574
584.874	208.44227
585.336	222.45928
585.797	219.41317
586.259	239.49301
586.721	218.44696
587.182	304.61482
587.643	211.42116
588.105	203.42289
588.566	198.36759
589.027	192.40611
589.488	205.41146
589.949	221.47021
590.41	118.205
590.87	220.44228
591.331	252.47484
591.791	205.41527
592.252	119.24293
592.712	176.3752
593.172	177.35264
593.632	225.43366
594.092	209.40999
594.552	173.33023
595.011	158.32131
595.471	165.32812
595.931	159.31515
596.39	145.30905
596.849	194.39847
597.308	225.42886
597.768	131.29749
598.227	210.44574
598.685	215.43612
599.144	190.39255
599.603	191.40019
600.062	146.27253
600.52	227.44172
600.978	214.4463
601.437	190.38515
601.895	186.34806
602.353	194.38066
602.811	271.52082
603.269	271.56278
603.727	222.46586
604.184	211.41587
604.642	268.56959
605.099	287.57472
605.557	248.52754
606.014	211.3969
606.471	283.60736
606.928	255.46952
607.385	369.75295
607.842	462.8706
608.299	493.94431
608.755	465.92642
609.212	482.87443
609.668	422.77023
610.125	491.97868
610.581	575.11357
611.037	530.99681
611.493	447.88849
611.949	440.8866
612.405	425.7078
612.861	476.93974
613.316	467.93084
613.772	481.91954
614.227	425.84594
614.683	502.89174
615.138	451.88558
615.593	482.93417
616.048	483.9265
616.503	503.03571
616.958	492.03188
617.412	485.96223
617.867	436.81151
618.321	480.83186
618.776	470.87698
619.23	487.96259
619.684	465.89196
620.138	503.98769
620.592	456.94588
621.046	464.93109
621.5	427.89384
621.954	480.9223
622.407	469.89269
622.861	406.85721
623.314	438.86187
623.768	426.85958
624.221	433.73345
624.674	408.81948
625.127	369.76115
625.58	385.7756
626.033	414.80275
626.485	357.75691
626.938	389.81826
627.39	331.68952
627.843	382.7839
628.295	317.66036
628.747	389.82114
629.199	349.71117
629.651	293.60439
630.103	317.65683
630.555	286.55296
631.006	294.62974
631.458	334.71356
631.909	310.65253
632.361	286.61314
632.812	275.58459
633.263	358.69914
633.714	316.62063
634.165	308.68705
634.616	319.69642
635.067	317.64861
635.518	350.76424
635.968	326.60252
636.419	306.61574
636.869	311.6847
637.319	246.53308
637.769	276.57508
638.219	339.74821
638.669	272.606
639.119	337.76027
639.569	304.68205
640.019	313.67377
640.468	346.71387
640.918	390.86237
641.367	331.68922
641.816	375.77145
642.265	382.8122
642.714	398.84401
643.163	422.88513
643.612	373.82324
644.061	389.75337
644.51	376.789
644.958	406.81621
645.406	428.93453
645.855	424.95239
646.303	502.05567
646.751	444.91811
647.199	473.97347
647.647	417.87908
648.095	469.97393
648.543	459.85412
648.99	463.00363
649.438	510.08053
649.885	521.16124
650.333	477.8339
650.78	496.08238
651.227	464.02738
651.674	445.92698
652.121	494.08893
652.568	452.00242
653.015	515.17999
653.461	447.97373
653.908	492.03915
654.354	469.02228
654.801	424.91561
655.247	510.01079
655.693	418.00793
656.139	444.97929
656.585	462.01444
657.031	353.76965
657.477	411.81998
657.922	421.89531
658.368	419.95986
658.813	426.91914
659.259	395.88272
659.704	373.81291
660.149	412.89122
660.594	378.84003
661.039	352.75461
661.484	425.94426
661.929	392.85739
662.373	372.8807
662.818	399.92505
663.262	332.75648
663.707	345.82673
664.151	386.88517
664.595	361.82039
665.039	385.90072
665.483	373.89448
665.927	373.82806
666.371	308.67824
666.814	327.74374
667.258	294.6645
667.701	401.81267
668.145	369.86871
668.588	350.81485
669.031	316.70781
669.474	375.85254
669.917	396.8251
670.36	360.84604
670.803	370.84577
671.245	380.75584
671.688	379.87452
672.13	364.77191
672.573	409.97817
673.015	391.88567
673.457	357.73806
673.899	360.82887
674.341	388.88441
674.783	327.74885
675.225	376.87536
675.666	322.73933
676.108	335.69568
676.549	382.85737
676.991	348.73154
677.432	314.6004
677.873	324.71885
678.314	333.76075
678.755	382.88021
679.196	311.68441
679.637	359.83629
680.078	321.72211
680.518	340.75936
680.959	337.77237
681.399	327.77703
681.839	341.79375
682.28	259.62021
682.72	313.68881
683.16	353.83815
683.6	350.7636
684.039	272.55137
684.479	307.72503
684.919	271.6049
685.358	340.82636
685.798	294.74334
686.237	362.83547
686.676	333.74266
687.115	313.70844
687.554	337.76679
687.993	327.69543
688.432	287.63531
688.871	251.5554
689.309	306.70457
689.748	349.69887
690.186	319.73405
690.625	325.73171
691.063	297.68808
691.501	342.81001
691.939	302.72633
692.377	318.7462
692.815	331.75923
693.253	344.79299
693.69	314.66531
694.128	311.72536
694.565	325.74547
695.003	335.81559
695.44	292.66401
695.877	284.64242
696.314	332.68684
696.751	354.7733
697.188	285.63457
697.625	361.7931
698.061	279.6492
698.498	310.7243
698.934	307.71377
699.371	281.6412
699.807	323.73524
700.243	332.76686
700.679	308.67397
701.115	347.78379
701.551	319.72408
701.987	301.65545
702.422	284.65366
702.858	321.736
703.294	310.67835
703.729	283.67172
704.164	293.68257
704.599	334.71449
705.035	265.57731
705.47	334.77914
705.904	259.58791
706.339	308.69301
706.774	313.70671
707.209	256.57555
707.643	367.84077
708.078	339.79158
708.512	289.69889
708.946	315.72832
709.38	301.6896
709.814	313.69055
710.248	323.75778
710.682	299.68722
711.116	266.61615
711.549	323.8022
711.983	310.69094
712.416	358.80945
712.85	369.87748
713.283	330.75041
713.716	388.92743
714.149	392.88775
714.582	364.77966
715.015	376.89773
715.448	390.93434
715.881	335.70468
716.313	310.70066
716.746	315.71413
717.178	296.68807
717.61	359.8704
718.043	330.79064
718.475	326.75988
718.907	428.0212
719.339	299.65442
719.77	261.60181
720.202	386.92793
720.634	313.73318
721.065	357.80834
721.497	410.95036
721.928	340.79968
722.359	297.69107
722.79	347.79432
723.221	370.88847
723.652	397.97332
724.083	352.7582
724.514	401.8717
724.945	343.77191
725.375	347.76907
725.806	391.92764
726.236	385.93867
726.666	384.86363
727.096	376.87847
727.526	378.91353
727.956	361.78175
728.386	431.99961
728.816	305.74423
729.246	397.91313
729.675	325.76812
730.105	431.99921
730.534	378.84073
730.964	417.99691
731.393	459.06745
731.822	437.04887
732.251	453.07663
732.68	408.90932
733.109	424.98474
733.537	403.92026
733.966	430.00323
734.395	460.99163
734.823	426.90417
735.251	477.06828
735.68	487.13535
736.108	463.09495
736.536	467.02608
736.964	435.9472
737.392	473.10353
737.82	501.11291
738.247	491.09066
738.675	529.16401
739.102	492.1405
739.53	540.26526
739.957	536.27103
740.384	554.25449
740.811	557.29624
741.238	523.17628
741.665	533.13254
742.092	593.28593
742.519	527.20076
742.945	559.22652
743.372	564.27716
743.798	554.30871
744.225	621.3307
744.651	589.34653
745.077	630.4187
745.503	658.43948
745.929	594.29276
746.355	656.46766
746.781	605.3604
747.207	600.27098
747.632	605.33427
748.058	661.48038
748.483	688.40303
748.908	685.51907
749.334	759.63653
749.759	745.53902
750.184	760.58161
750.609	780.67573
751.033	838.70313
751.458	808.55787
751.883	799.72577
752.307	833.68336
752.732	784.7103
753.156	813.74256
753.58	837.7092
754.005	864.89124
754.429	816.65235
754.853	894.8887
755.277	909.817
755.7	892.8894
756.124	851.81779
756.548	898.80119
756.971	972.98647
757.394	989.14182
757.818	951.07253
758.241	965.06235
758.664	1026.15189
759.087	968.77871
759.51	1004.08079
759.933	987.97308
760.356	1023.18644
760.778	1018.07242
761.201	1050.09714
761.623	1106.17466
762.046	1104.11496
762.468	1103.14494
762.89	1135.26253
763.312	1127.22069
763.734	1076.10764
764.156	1067.1591
764.578	1115.05068
765	1145.24361
765.421	1098.27889
765.843	1147.45165
766.264	1184.27294
766.686	1093.24492
767.107	1149.22932
767.528	1181.38798
767.949	1156.37501
768.37	1179.30713
768.791	1147.22333
769.212	1099.24919
769.632	1159.13505
770.053	1129.43384
770.473	1122.2
770.894	1159.33598
771.314	1167.21722
771.734	1099.05643
772.154	1166.41803
772.575	1117.0687
772.994	1104.99983
773.414	1071.0934
773.834	1153.31964
774.254	1080.1532
774.673	1186.2942
775.093	1065.157
775.512	1066.14679
775.931	1098.27385
776.351	1080.18892
776.77	1048.09892
777.189	1061.05139
777.607	1045.20761
778.026	1114.24873
778.445	1019.11051
778.864	1080.27717
779.282	1022.02044
779.701	1005.10825
780.119	953.02617
780.537	924.94956
780.955	1064.22875
781.373	938.95321
781.791	908.69998
782.209	961.83255
782.627	960.14095
783.045	935.78806
783.462	936.02306
783.88	910.00602
784.297	911.94517
784.715	846.87436
785.132	846.75217
785.549	866.85422
785.966	896.91848
786.383	860.80812
786.8	835.65275
787.217	812.65323
787.633	806.74201
788.05	883.77555
788.466	836.68441
788.883	767.71301
789.299	766.60399
789.715	766.62094
790.131	752.63769
790.547	741.62564
790.963	705.54726
791.379	705.579
791.795	708.41315
792.21	695.4292
792.626	698.45824
793.041	685.49955
793.457	681.49454
793.872	632.32545
794.287	574.23806
794.702	665.4594
795.117	605.3554
795.532	602.36221
795.947	623.34418
796.362	590.27099
796.776	620.29967
797.191	532.19044
797.605	468.01341
798.02	524.16673
798.434	524.06038
798.848	507.14722
799.262	524.1908
799.676	532.18653
800.09	479.08904
800.504	490.09542
800.918	458.98224
801.331	507.22822
801.745	424.90777
802.158	453.05265
802.572	478.07074
802.985	404.91715
803.398	386.8667
803.811	419.01016
804.224	398.93277
804.637	354.79878
805.05	335.73784
805.462	401.92638
805.875	328.81209
806.288	307.70814
806.7	349.83376
807.112	334.73579
807.525	377.8789
807.937	246.58897
808.349	315.75486
808.761	322.75617
809.173	294.68342
809.584	296.70217
809.996	258.61015
810.408	217.54565
810.819	290.65386
811.231	280.69683
811.642	297.6777
812.053	337.76089
812.464	397.88536
812.875	353.85715
813.286	324.79691
813.697	332.73813
814.108	254.6
814.519	208.45151
814.929	221.54892
815.34	218.51457
815.75	201.49889
816.16	217.52677
816.571	185.47103
816.981	209.48096
817.391	153.36402
817.801	137.3362
818.211	145.34114
818.62	151.35816
819.03	176.42316
819.44	211.53779
819.849	176.43517
820.259	174.43731
820.668	130.31624
821.077	127.31212
821.486	116.27721
821.895	174.422
822.304	157.40973
822.713	121.28346
823.122	155.38093
823.531	176.40898
823.939	142.34142
824.348	141.33844
824.756	143.35351
825.164	139.34552
825.573	88.22006
825.981	143.35001
826.389	119.29634
826.797	92.22948
827.205	84.19234
827.612	122.29822
828.02	74.17366
828.428	91.23081
828.835	92.24104
829.243	84.19974
829.65	61.15185
830.057	95.2295
830.464	111.26835
830.871	101.24049
831.278	86.20725
831.685	76.16954
832.092	81.19789
832.499	90.1962
832.905	70.17713
833.312	100.22686
833.718	88.21847
834.124	75.17129
834.531	67.16891
834.937	112.28512
835.343	76.18315
835.749	76.17738
836.155	91.23717
836.561	42.10377
836.966	49.12025
837.372	91.23056
837.777	36.09016
838.183	28.06283
838.588	46.11462
838.993	65.15833
839.399	43.10556
839.804	-8.01976
840.209	58.14776
840.613	28.06283
841.018	82.20698
841.423	54.13873
841.828	55.1393
842.232	98.24134
842.637	41.09721
843.041	48.12332
843.445	41.10325
843.849	33.08215
844.253	51.12158
844.657	14.03555
845.061	3.0069
845.465	-12.0294
845.869	41.09575
846.272	14.0344
846.676	83.20006
847.079	38.09701
847.483	55.13741
847.886	64.15575
848.289	51.13627
848.692	59.14948
849.095	38.09171
849.498	73.18469
849.901	32.07389
850.304	32.07694
850.707	34.08711
851.109	59.14938
851.512	40.09869
851.914	-13.03318
852.316	67.16927
852.718	-16.04184
853.121	32.07883
853.523	16.03774
853.925	9.02367
854.326	1.00253
854.728	31.0801
855.13	17.04415
855.531	20.04816
855.933	-3.00729
856.334	29.07269
856.736	19.04294
857.137	-13.03067
857.538	9.02283
857.939	26.06462
858.34	47.11483
858.741	46.12048
859.142	7.01699
859.542	2.00533
859.943	33.08239
860.343	-33.08308
860.744	60.1464
861.144	12.02953
861.544	-14.03411
861.945	6.01543
862.345	4.00988
862.745	22.05504
863.145	34.08169
863.544	16.04073
863.944	34.08072
864.344	43.10712
864.743	52.12919
865.143	50.12859
865.542	12.0281
865.941	47.11658
866.34	46.11048
866.74	42.11298
867.139	-7.01697
867.537	18.04618
867.936	49.11815
868.335	18.04612
868.734	20.05144
869.132	19.04449
869.531	29.07053
869.929	-33.07661
870.327	-5.01213
870.726	63.15695
871.124	27.0635
871.522	17.04361
871.92	57.1406
872.318	21.05169
872.715	43.10673
873.113	-6.01479
873.511	31.07759
873.908	-64.165
874.306	36.08986
874.703	25.06291
875.1	67.17108
875.497	32.07709
875.894	-27.06717
876.291	53.13016
876.688	31.0803
877.085	48.11537
877.482	69.17233
877.878	-14.03415
878.275	22.05623
878.671	46.1027
879.068	36.08725
879.464	40.09698
879.86	-1.00239
880.256	56.13821
880.652	17.04353
881.048	43.10681
881.444	24.05749
881.84	28.07151
882.236	21.05313
882.631	56.13745
883.027	54.13082
883.422	6.01547
883.817	-8.02033
884.213	43.11057
884.608	-10.02482
885.003	7.01703
885.398	5.01263
885.793	26.06561
886.188	6.01505
886.582	55.14108
886.977	17.04065
887.371	13.03312
887.766	5.01255
888.16	-5.01261
888.554	35.08688
888.949	48.12068
889.343	34.08339
889.737	-27.0729
890.131	-11.02792
890.525	46.11781
890.918	-9.02291
891.312	30.07213
891.706	23.06066
892.099	79.20016
892.492	5.01091
892.886	36.08839
893.279	36.092
893.672	30.0767
894.065	28.07045
894.458	32.0808
894.851	33.08119
895.244	-36.09339
895.637	38.09182
896.029	13.03203
896.422	12.02955
896.814	1.00251
897.206	-20.04831
897.599	45.11149
897.991	-8.01957
898.383	39.09244
898.775	15.03413
899.167	-37.08783
899.559	-10.0256
899.951	49.11564
900.342	26.06645
900.734	-18.04524
901.125	60.15726
901.517	-29.07227
901.908	49.11761
902.299	-38.09448
902.69	-38.09126
903.082	43.10435
903.473	4.00967
903.863	26.06666
904.254	-9.02115
904.645	45.1121
905.036	-35.08615
905.426	-1.00232
905.817	2.00495
906.207	-34.08237
906.597	-7.01657
906.987	26.0677
907.378	33.08376
907.768	8.02131
908.158	17.04173
908.547	-9.0235
908.937	30.07729
909.327	24.0586
909.717	29.07395
910.106	15.03629
910.495	68.16931
910.885	43.1091
911.274	3.00757
911.663	31.07899
912.052	30.07434
912.441	3.0077
912.83	-27.06298
913.219	85.22123
913.608	32.07869
913.997	-29.07376
914.385	-9.02176
914.774	15.03678
915.162	16.0384
915.55	22.05354
915.939	13.03304
916.327	46.11495
916.715	-18.04644
917.103	46.11337
917.491	23.05721
917.878	8.01983
918.266	30.07809
918.654	47.12018
919.041	-15.0396
919.429	-10.02389
919.816	6.01533
920.203	5.01223
920.591	36.08954
920.978	-11.02725
921.365	27.07114
921.752	-6.01446
922.139	11.0241
922.525	19.04592
922.912	24.05884
923.299	-8.0201
923.685	35.09156
924.072	14.03253
924.458	0
924.844	-17.0426
925.231	-36.08524
925.617	-17.04376
926.003	2.00516
926.389	-2.00509
926.774	21.05351
927.16	-2.00502
927.546	5.01287
927.931	3.00755
928.317	14.0325
928.702	74.17434
929.088	-4.00956
929.473	26.06645
929.858	-68.16808
930.243	-1.00242
930.628	2.00491
931.013	-23.05778
931.398	29.06701
931.783	39.10289
932.167	39.09557
932.552	15.03783
932.937	36.0896
933.321	-14.03554
933.705	32.08095
934.09	67.16885
934.474	9.02155
934.858	23.05994
935.242	-21.04937
935.626	20.05147
936.009	-15.04033
936.393	14.03586
936.777	-9.02329
937.16	29.07574
937.544	21.04977
937.927	-1.00256
938.311	33.08083
938.694	28.07433
939.077	-24.05827
939.46	22.05432
939.843	51.10643
940.226	15.03872
940.609	3.00695
940.991	11.0282
941.374	-22.0545
941.757	17.04221
942.139	3.0068
942.522	81.19035
942.904	18.04354
943.286	64.16224
943.668	29.0754
944.05	-1.00249
944.432	-18.04498
944.814	8.01986
945.196	-17.04195
945.578	-12.02886
945.959	25.05889
946.341	84.20495
946.722	-13.0309
947.104	-6.0145
947.485	-16.03772
947.866	4.01016
948.247	35.08855
948.628	57.1389
949.009	1.00258
949.39	17.04258
949.771	22.05147
950.152	-1.00248
950.532	-39.09751
950.913	54.13018
951.293	33.0894
951.674	17.04138
952.054	-42.10583
952.434	30.07475
952.814	36.0859
953.194	41.10748
953.574	45.11096
953.954	-31.07478
954.334	14.03512
954.714	-30.07421
955.093	11.02724
955.473	-13.03288
955.853	-1.00261
956.232	28.07701
956.611	-5.01212
956.99	-13.03304
957.37	-24.06196
957.749	22.05278
958.128	30.07586
958.506	7.01829
958.885	7.0178
959.264	-2.00495
959.643	18.04123
960.021	9.02247
960.4	-20.04598
960.778	63.15483
961.156	8.02021
961.535	2.00471
961.913	-17.04031
962.291	-24.06237
962.669	34.08637
963.047	12.03083
963.424	12.03083
963.802	-13.03234
964.18	89.22365
964.557	37.08546
964.935	34.08082
965.312	-11.02894
965.69	17.04283
966.067	37.09033
966.444	7.01739
966.821	20.05183
967.198	49.11891
967.575	51.12539
967.952	7.01664
968.329	13.03186
968.705	10.02163
969.082	20.05156
969.458	-43.10498
969.835	47.11449
970.211	-11.02853
970.587	57.14174
970.963	14.03614
971.339	-7.01846
971.715	-35.08874
972.091	15.03718
972.467	-4.01008
972.843	-2.00501
973.219	35.0843
973.594	-12.03172
973.97	79.18702
974.345	-14.03392
974.721	32.07776
975.096	4.00976
975.471	10.02391
975.846	-6.01457
976.221	19.04852
976.596	-19.04614
976.971	37.09157
977.346	34.07942
977.72	32.08178
978.095	11.02862
978.469	13.03125
978.844	49.12322
979.218	-7.01696
979.593	23.0554
979.967	33.08065
980.341	3.00697
980.715	18.04561
981.089	10.02521
981.463	-4.00928
981.837	-10.02471
982.21	43.10022
982.584	-9.02198
982.957	20.05021
983.331	-2.00478
983.704	22.05434
984.078	-7.01743
984.451	65.16193
984.824	-10.02463
985.197	23.05615
985.57	4.01011
985.943	66.16254
986.316	4.00991
986.688	11.02672
987.061	19.04481
987.434	34.08884
987.806	21.05121
988.179	-25.05985
988.551	2.00512
988.923	-4.00995
989.295	11.02768
989.667	-52.12664
990.039	12.02986
990.411	3.00697
990.783	28.06476
991.155	0
991.527	57.14019
991.898	-33.08346
992.27	-9.0225
992.641	54.13538
993.012	39.09197
993.384	-2.00482
993.755	13.03336
994.126	-8.01945
994.497	-15.03726
994.868	16.03701
995.239	39.09471
995.61	-2.00508
995.98	-30.07396
996.351	-4.01
996.722	-33.07779
997.092	-5.01197
997.462	-42.09987
997.833	-6.01438
998.203	36.08751
998.573	-30.07578
998.943	-4.00948
999.313	0
999.683	-3.00727
1000.053	-28.06543
1000.423	-6.01473
1000.792	27.07025
1001.162	-6.01492
1001.531	41.10125
1001.901	7.01758
1002.27	34.07626
1002.639	32.08201
1003.009	-33.07972
1003.378	14.03602
1003.747	4.00953
1004.116	5.01207
1004.485	-8.01933
1004.853	-16.04101
1005.222	-1.00254
1005.591	-17.04088
1005.959	-15.03424
1006.328	-2.00455
1006.696	-21.05132
1007.064	21.05309
1007.433	13.0327
1007.801	34.0837
1008.169	-4.0102
1008.537	39.08655
1008.905	-36.08528
1009.273	15.03729
1009.64	-45.10929
1010.008	22.05272
1010.375	78.1884
1010.743	66.15192
1011.11	-25.06001
1011.478	-13.03254
1011.845	13.03079
1012.212	-25.05744
1012.579	-2.00496
1012.946	56.13311
1013.313	59.14016
1013.68	36.08114
1014.047	-59.1435
1014.414	13.03092
1014.78	-4.01004
1015.147	4.00976
1015.513	23.05569
1015.88	22.05652
1016.246	22.05458
1016.612	49.11218
1016.978	38.09331
1017.344	40.09901
1017.71	39.09528
1018.076	31.07336
1018.442	23.05943
1018.808	12.03019
1019.174	5.01264
1019.539	55.12647
1019.905	9.02139
1020.27	-20.04998
1020.636	31.07458
1021.001	32.07685
1021.366	-12.02915
1021.731	33.08509
1022.096	-2.00509
1022.461	-17.04074
1022.826	8.01916
1023.191	13.03431
1023.556	-1.00237
1023.92	9.02229
1024.285	51.12441
1024.649	33.0811
1025.014	20.0498
1025.378	17.04298
1025.742	5.01251
1026.107	20.0455
1026.471	47.10976
1026.835	27.06719
1027.199	-27.06592
1027.562	23.05373
1027.926	37.09066
1028.29	22.05593
1028.654	3.00696
1029.017	20.04942
1029.381	17.04085
1029.744	11.02824
1030.107	21.04995
1030.471	24.05773
1030.834	5.01147
1031.197	81.19391
1031.56	4.00952
1031.923	9.02342
1032.286	49.11506
1032.648	-6.0145
1033.011	3.00695
1033.374	3.00711
1033.736	-31.08258
1034.099	17.04167
1034.461	-30.07683
1034.823	1.00251
1035.185	26.0657
1035.548	-45.11141
1035.91	-21.05096
1036.272	12.02751
1036.634	2.00493
1036.995	-22.05241
1037.357	-25.06165
1037.719	2.00491
1038.08	32.07621
1038.442	-27.06501
1038.803	7.01694
1039.165	4.01017
1039.526	-7.01709
1039.887	26.06247
1040.248	-15.03738
1040.609	16.03977
1040.97	4.00985
1041.331	-1.00255
1041.692	-47.11174
1042.053	-4.0092
1042.413	1.00235
1042.774	35.08532
1043.134	28.06691
1043.495	21.05304
1043.855	-19.04666
1044.215	45.11174
1044.576	-6.01449
1044.936	26.05987
1045.296	25.06264
1045.656	26.06405
1046.016	-11.02684
1046.375	-19.04666
1046.735	-11.02523
1047.095	3.00708
1047.454	18.03839
1047.814	11.02662
1048.173	30.07191
1048.533	-7.01621
1048.892	-53.12963
1049.251	40.10053
1049.61	-15.03735
1049.969	-6.01429
1050.328	8.01749
1050.687	-21.05174
1051.046	4.00982
1051.405	40.09963
1051.763	-25.05831
1052.122	-12.03025
1052.48	-5.01238
1052.839	-18.04288
1053.197	9.02134
1053.555	72.16334
1053.914	11.02708
1054.272	43.10404
1054.63	18.04425
1054.988	-62.15037
1055.345	-8.01743
1055.703	22.0532
1056.061	4.01037
1056.419	4.01043
1056.776	28.06814
1057.134	13.0303
1057.491	-33.08382
1057.848	27.06746
1058.206	23.05434
1058.563	-31.06946
1058.92	21.04866
1059.277	23.05699
1059.634	30.07082
1059.991	38.09119
1060.348	-10.02286
1060.704	1.0024
1061.061	80.18466
1061.418	30.07298
1061.774	5.01244
1062.131	-5.01333
1062.487	-14.03312
1062.843	9.02259
1063.199	-6.01506
1063.555	-44.10378
1063.911	28.07095
1064.267	36.07528
1064.623	15.03665
1064.979	45.10666
1065.335	52.12417
1065.691	13.03136
1066.046	-7.01557
1066.402	2.00459
1066.757	41.10358
1067.112	31.0763
1067.468	-20.04783
1067.823	16.03869
1068.178	14.03407
1068.533	-8.01959
1068.888	51.12176
1069.243	18.04465
1069.598	4.0098
1069.952	-76.17542
1070.307	-14.03504
1070.662	-3.00719
1071.016	-29.06599
1071.371	-19.0438
1071.725	37.08868
1072.079	12.02905
1072.434	-21.05167
1072.788	48.11427
1073.142	17.04204
1073.496	-20.04805
1073.85	24.0559
1074.203	-2.0049
1074.557	24.06405
1074.911	31.07421
1075.265	6.01406
1075.618	20.04907
1075.971	30.07158
1076.325	13.03323
1076.678	-23.05333
1077.031	-24.05509
1077.385	37.08167
1077.738	-37.08494
1078.091	-2.00459
1078.444	37.08607
1078.796	0
1079.149	7.01753
1079.502	-16.03825
1079.855	-5.01178
1080.207	37.0913
1080.56	-12.03132
1080.912	37.09023
1081.264	-27.06592
1081.617	-32.07912
1081.969	-16.0408
1082.321	32.07834
1082.673	-46.10694
1083.025	-12.02879
1083.377	7.01515
1083.728	9.02115
1084.08	-11.02774
1084.432	31.07498
1084.783	23.05413
1085.135	-3.00758
1085.486	-61.14257
1085.838	7.01736
1086.189	-13.0319
1086.54	27.06471
1086.891	4.01019
1087.242	2.00491
1087.593	34.08296
1087.944	0
1088.295	32.07295
1088.646	-3.00734
1088.996	-33.08068
1089.347	-22.05466
1089.698	-3.00716
1090.048	-2.00524
1090.398	24.0559
1090.749	25.06005
1091.099	1.00253
1091.449	13.03257
1091.799	16.04027
1092.149	-47.11658
1092.499	14.03435
1092.849	8.02047
1093.199	39.09786
1093.548	-13.03158
1093.898	-3.00757
1094.248	-1.00259
1094.597	-20.05163
1094.947	11.02951
1095.296	9.02237
1095.645	1.00262
1095.994	22.05308
1096.343	2.00507
1096.692	7.01851
1097.041	-35.09598
1097.39	32.08046
1097.739	-6.01573
1098.088	50.13384
1098.437	-29.07713
1098.785	25.06761
1099.134	59.15629
1099.482	35.0964
1099.83	5.01323
1100.179	-10.02633
1100.527	18.04804
1100.875	-19.05077
1101.223	20.05332
1101.571	35.09686
1101.919	-23.06078
1102.267	-19.05401
1102.615	3.00965
1102.962	13.04184
1103.31	1.00321
1103.658	10.03221
