Data from N2 R8 sample 5_Subt2__0__17-45-09-889.txt Node

Date: Fri Aug 29 17:45:09 PDT 2025
User: uwsun
Spectrometer: HDX01956
Trigger mode: 0
Integration Time (sec): 5.000000E-1
Scans to average: 1
Nonlinearity correction enabled: true
Boxcar width: 0
Storing dark spectrum: false
XAxis mode: Wavelengths
Number of Pixels in Spectrum: 2068
>>>>>Begin Spectral Data<<<<<
194.03	71.1971
194.578	68.21324
195.127	92.28333
195.676	80.24752
196.225	113.2941
196.773	94.25385
197.321	131.34398
197.87	232.54952
198.418	169.39977
198.966	130.31174
199.513	67.1548
200.061	144.3333
200.609	190.46184
201.156	108.21592
201.704	151.34694
202.251	116.28324
202.798	136.32438
203.345	188.4239
203.892	110.25542
204.438	182.39591
204.985	110.23787
205.532	147.35404
206.078	182.40583
206.624	150.33545
207.17	176.37129
207.716	148.32715
208.262	139.25027
208.808	157.34944
209.354	101.22592
209.899	179.41439
210.445	147.3322
210.99	148.32414
211.535	219.46413
212.08	177.37414
212.625	152.34861
213.17	204.46917
213.715	91.18493
214.259	186.39342
214.804	209.46864
215.348	165.34419
215.892	180.39273
216.436	178.3765
216.98	191.38407
217.524	134.29038
218.068	191.43831
218.612	198.45428
219.155	150.32311
219.698	238.51024
220.242	182.41607
220.785	161.34479
221.328	162.37079
221.871	178.4151
222.414	157.36058
222.956	82.18323
223.499	101.21087
224.041	193.41153
224.583	170.33782
225.126	167.33659
225.668	96.21664
226.21	93.21735
226.751	138.27603
227.293	154.32374
227.835	159.3555
228.376	198.41752
228.918	193.44627
229.459	79.18275
230	140.30649
230.541	159.33624
231.082	138.30772
231.622	181.38092
232.163	134.29831
232.704	143.32527
233.244	147.33464
233.784	169.38067
234.324	136.27165
234.864	150.31116
235.404	177.38495
235.944	176.3814
236.484	175.39998
237.023	172.3697
237.563	91.19438
238.102	138.29931
238.641	141.32772
239.18	122.26099
239.719	152.34972
240.258	171.35004
240.797	154.33572
241.335	152.34105
241.874	106.18679
242.412	118.2604
242.95	136.29598
243.488	133.27805
244.026	145.30421
244.564	151.2825
245.102	114.23447
245.64	209.4559
246.177	177.3592
246.715	189.41175
247.252	164.34294
247.789	170.29096
248.326	122.26675
248.863	148.29397
249.4	176.36199
249.936	161.29897
250.473	153.32327
251.009	122.25443
251.546	115.23135
252.082	124.24779
252.618	122.24719
253.154	182.39322
253.69	120.24648
254.226	125.27186
254.761	128.26149
255.297	96.19202
255.832	104.22489
256.367	152.32418
256.903	161.31807
257.438	157.33419
257.972	180.3597
258.507	116.24052
259.042	125.24625
259.576	106.20612
260.111	152.31813
260.645	168.32699
261.179	164.34339
261.713	154.30774
262.247	128.2679
262.781	115.2176
263.315	107.23806
263.849	139.31412
264.382	184.37913
264.915	174.36352
265.449	114.24957
265.982	181.36867
266.515	169.36928
267.048	186.34875
267.58	163.32036
268.113	153.29489
268.646	167.36876
269.178	101.20356
269.71	174.33883
270.243	203.41159
270.775	145.33195
271.307	162.35091
271.838	204.43282
272.37	162.35675
272.902	264.52462
273.433	169.32823
273.965	202.43587
274.496	174.38768
275.027	174.38462
275.558	165.35657
276.089	120.26326
276.62	153.35027
277.15	196.43035
277.681	173.33392
278.211	156.34282
278.741	106.20868
279.272	123.25064
279.802	177.3933
280.332	124.26102
280.861	122.26325
281.391	176.35122
281.921	198.42174
282.45	195.43167
282.98	188.4348
283.509	175.34638
284.038	161.3239
284.567	187.38592
285.096	194.41232
285.625	149.29851
286.153	188.38528
286.682	161.32345
287.21	146.3103
287.739	132.27615
288.267	131.2803
288.795	213.49251
289.323	162.33034
289.851	197.40199
290.378	142.28007
290.906	172.36206
291.433	216.46767
291.961	203.39577
292.488	152.33262
293.015	135.27773
293.542	180.39589
294.069	184.39192
294.596	188.40566
295.122	210.43134
295.649	175.33404
296.175	231.48186
296.702	202.42389
297.228	231.48293
297.754	193.37145
298.28	191.37078
298.806	193.39794
299.332	174.32819
299.857	211.40394
300.383	193.42279
300.908	139.28982
301.433	201.41537
301.958	256.4997
302.483	174.37126
303.008	242.50783
303.533	250.55445
304.058	223.44635
304.582	183.36561
305.107	189.41961
305.631	218.42027
306.155	186.36461
306.679	179.35197
307.203	191.3722
307.727	201.40101
308.251	204.42507
308.775	201.39598
309.298	172.34435
309.822	226.47719
310.345	225.44201
310.868	243.47827
311.391	261.53088
311.914	247.50928
312.437	242.45421
312.96	196.38095
313.482	262.50388
314.005	229.47302
314.527	223.48273
315.049	285.58736
315.571	187.33549
316.093	266.5318
316.615	241.46807
317.137	238.41239
317.659	258.50648
318.18	254.49391
318.702	228.42371
319.223	246.39442
319.744	235.4151
320.265	242.4625
320.786	177.34968
321.307	281.54733
321.828	290.50491
322.348	265.48303
322.869	293.52622
323.389	279.32895
323.909	283.49598
324.43	369.6757
324.95	289.49718
325.47	310.57237
325.989	295.51865
326.509	267.43139
327.029	282.46506
327.548	313.50745
328.067	314.55105
328.587	304.56129
329.106	273.45084
329.625	382.7446
330.144	252.42136
330.662	256.42593
331.181	319.52887
331.7	273.4566
332.218	372.54449
332.736	350.5673
333.255	327.52448
333.773	355.57492
334.291	369.6413
334.808	322.48029
335.326	376.55986
335.844	368.55627
336.361	305.52134
336.879	328.49845
337.396	365.5708
337.913	376.54729
338.43	355.50185
338.947	338.51489
339.464	360.46577
339.981	360.53049
340.497	403.62403
341.014	408.61012
341.53	356.48018
342.046	398.59228
342.562	437.66243
343.078	447.61283
343.594	415.58451
344.11	410.57067
344.626	422.62764
345.141	463.58306
345.657	505.62895
346.172	396.54762
346.687	481.59436
347.202	417.50385
347.717	487.62837
348.232	509.69567
348.747	477.5723
349.261	418.45424
349.776	472.57722
350.29	447.57629
350.805	562.72062
351.319	497.5825
351.833	449.49628
352.347	544.61959
352.861	468.53325
353.374	541.59916
353.888	507.60395
354.401	505.54577
354.915	504.50172
355.428	495.59308
355.941	480.51151
356.454	618.60272
356.967	517.56187
357.48	488.50885
357.993	512.58703
358.505	515.56896
359.018	602.64248
359.53	590.60009
360.042	621.54319
360.554	643.64964
361.066	524.54738
361.578	560.46879
362.09	612.58866
362.602	621.49784
363.113	612.53954
363.625	603.49352
364.136	604.47274
364.647	567.46115
365.158	640.52789
365.669	622.54534
366.18	605.51184
366.691	687.47768
367.201	622.51949
367.712	623.45283
368.222	676.47497
368.733	613.37381
369.243	643.39131
369.753	679.45411
370.263	666.47205
370.773	705.51577
371.282	748.45863
371.792	591.31324
372.301	762.42485
372.811	731.50576
373.32	711.22403
373.829	724.30373
374.338	739.22416
374.847	740.22174
375.356	715.21906
375.865	788.05704
376.373	786.08773
376.882	990.19855
377.39	865.10788
377.898	773.04786
378.407	875.90438
378.915	998.80009
379.423	1065.79627
379.93	1045.72385
380.438	996.71386
380.946	1112.58263
381.453	1213.48364
381.96	1103.47872
382.468	1050.44561
382.975	1450.22498
383.482	1509.18704
383.989	1446.21772
384.495	1516.21188
385.002	1343.39507
385.509	1596.34937
386.015	1711.73973
386.521	1861.78989
387.028	1966.15954
387.534	1744.31189
388.04	1828.27931
388.546	1757.92455
389.051	1857.78711
389.557	2129.03677
390.063	2727.07841
390.568	2694.05782
391.073	2690.7814
391.578	2805.8711
392.084	2609.89957
392.589	2408.16161
393.093	2238.42818
393.598	2851.14524
394.103	3136.28421
394.607	3930.42771
395.112	4095.98377
395.616	4481.33684
396.12	4445.5401
396.624	5049.21973
397.128	5608.9728
397.632	6532.8828
398.136	7053.89345
398.639	5909.11675
399.143	5574.89436
399.646	6681.714
400.15	7251.96907
400.653	7127.27951
401.156	6990.55351
401.659	3915.01748
402.162	795.89894
402.664	0
403.167	0
403.67	0
404.172	0
404.674	0
405.176	0
405.678	0
406.18	0
406.682	0
407.184	0
407.686	0
408.187	0
408.688	0
409.19	0
409.691	0
410.192	0
410.693	0
411.194	435.30976
411.694	4082.94878
412.195	8864.71461
412.696	12089.80453
413.196	12760.96929
413.696	12863.67595
414.196	13703.56671
414.696	17261.84252
415.196	21764.24417
415.696	26192.35402
416.196	22309.43001
416.695	15195.42884
417.195	10775.68109
417.694	10095.24146
418.194	10069.30206
418.693	8528.1043
419.192	8175.94454
419.691	7978.23328
420.19	8044.39588
420.688	8251.54893
421.187	7934.32702
421.685	7732.90955
422.184	7404.96604
422.682	6579.09914
423.18	5208.61175
423.678	4405.03496
424.176	3899.40528
424.674	3692.90888
425.172	3787.32642
425.669	3566.97859
426.167	3516.39572
426.664	3123.54784
427.161	2601.10157
427.659	2447.39398
428.156	2189.38434
428.652	2319.96735
429.149	2007.00533
429.646	1883.03619
430.143	1807.05511
430.639	1770.09283
431.135	1660.22895
431.632	1526.30764
432.128	1347.51269
432.624	1217.67843
433.12	1097.62645
433.616	1110.63846
434.111	891.80893
434.607	886.87988
435.103	996.81264
435.598	1080.80292
436.093	1011.02241
436.588	875.07054
437.083	783.13427
437.578	795.1918
438.073	584.24035
438.568	753.33791
439.062	695.20156
439.557	651.33151
440.051	550.26966
440.546	440.24263
441.04	462.30329
441.534	516.39855
442.028	513.36918
442.522	494.35991
443.015	461.28545
443.509	508.41274
444.002	408.34945
444.496	475.3161
444.989	408.3645
445.482	410.38019
445.975	355.27512
446.468	365.26175
446.961	393.28127
447.454	374.31113
447.947	295.27352
448.439	304.30926
448.931	291.25325
449.424	282.31746
449.916	340.35053
450.408	280.25577
450.9	288.30225
451.392	239.27844
451.884	196.20465
452.375	167.19613
452.867	265.27258
453.358	199.20365
453.849	171.16276
454.341	145.15503
454.832	181.17819
455.323	118.14574
455.814	177.20051
456.304	209.23677
456.795	153.17636
457.285	190.21483
457.776	268.31073
458.266	211.2574
458.756	155.20163
459.247	169.21223
459.737	80.10445
460.226	138.16441
460.716	77.10379
461.206	144.19443
461.695	120.17646
462.185	137.18455
462.674	137.18101
463.163	148.18566
463.653	167.19381
464.142	41.06005
464.63	102.15276
465.119	90.12457
465.608	58.08147
466.096	107.1407
466.585	133.18988
467.073	117.17729
467.561	81.12531
468.05	101.14984
468.538	149.23596
469.026	27.04298
469.513	21.02853
470.001	96.14047
470.489	10.01589
470.976	111.1688
471.463	40.06897
471.951	62.10811
472.438	19.03082
472.925	38.06099
473.412	65.11325
473.899	75.12021
474.385	15.02663
474.872	-32.05385
475.359	15.02655
475.845	-6.00884
476.331	11.01743
476.817	-25.04577
477.303	-73.12806
477.789	-36.06563
478.275	-27.05079
478.761	21.03822
479.247	-23.03927
479.732	-58.11149
480.218	-70.14358
480.703	-12.02314
481.188	-48.07933
481.673	-19.03368
482.158	-108.17819
482.643	-51.1044
483.128	-130.23725
483.612	-53.09861
484.097	-21.04129
484.581	-7.01299
485.066	-92.18188
485.55	-87.15351
486.034	-115.20238
486.518	-85.16201
487.002	-161.32748
487.486	-122.24719
487.969	-89.1793
488.453	-59.12384
488.936	-100.18694
489.42	-60.10978
489.903	-71.15061
490.386	-98.13258
490.869	-63.11483
491.352	-103.2161
491.835	-126.22192
492.318	-121.23186
492.8	-85.14818
493.283	-108.23464
493.765	-131.27727
494.247	-75.15067
494.73	-142.27151
495.212	-25.05166
495.694	-126.25354
496.175	-165.33853
496.657	-83.17013
497.139	-137.20947
497.62	-198.41165
498.102	-155.33697
498.583	-153.3387
499.064	-169.33027
499.545	-122.24346
500.026	-138.2709
500.507	-125.25484
500.988	-122.2672
501.469	-182.40483
501.949	-138.30314
502.43	-170.35706
502.91	-146.26578
503.39	-136.30377
503.87	-171.35734
504.35	-126.26511
504.83	-182.35644
505.31	-132.28348
505.79	-158.33654
506.269	-161.33808
506.749	-219.45195
507.228	-196.41385
507.707	-162.32147
508.187	-162.34971
508.666	-215.47793
509.145	-200.42211
509.623	-169.35723
510.102	-187.41085
510.581	-142.30982
511.059	-183.41389
511.538	-170.39956
512.016	-131.2814
512.494	-156.34325
512.972	-144.30992
513.45	-232.48878
513.928	-186.40943
514.406	-224.48955
514.884	-172.40127
515.361	-189.41263
515.839	-171.35353
516.316	-225.49766
516.793	-164.37899
517.27	-157.3477
517.747	-204.47947
518.224	-204.43508
518.701	-182.37146
519.178	-202.45751
519.654	-126.27293
520.131	-187.42414
520.607	-171.38974
521.083	-234.49603
521.56	-196.42637
522.036	-152.30558
522.512	-128.2885
522.987	-221.48351
523.463	-190.41595
523.939	-126.28201
524.414	-213.45832
524.89	-202.44409
525.365	-193.40402
525.84	-205.44774
526.315	-220.49178
526.79	-187.39025
527.265	-184.388
527.74	-213.48193
528.215	-166.36049
528.689	-171.34909
529.164	-149.29837
529.638	-158.37469
530.112	-225.49371
530.587	-201.39747
531.061	-175.38869
531.534	-156.34959
532.008	-185.41141
532.482	-174.3711
532.956	-270.64568
533.429	-135.30085
533.903	-152.31164
534.376	-160.32745
534.849	-167.35919
535.322	-192.42246
535.795	-167.37863
536.268	-202.45285
536.741	-162.36124
537.213	-163.35013
537.686	-217.49358
538.158	-221.46284
538.631	-153.34562
539.103	-204.42658
539.575	-166.32325
540.047	-142.28903
540.519	-143.31696
540.991	-190.43558
541.463	-168.37849
541.934	-189.40423
542.406	-206.45897
542.877	-168.35286
543.348	-119.26519
543.82	-142.32306
544.291	-153.33262
544.762	-212.47018
545.233	-191.44533
545.703	-214.44332
546.174	-154.33159
546.645	-235.52347
547.115	-142.31455
547.585	-153.32511
548.056	-206.45878
548.526	-176.38026
548.996	-133.29295
549.466	-122.27295
549.935	-139.29858
550.405	-177.35576
550.875	-170.36824
551.344	-177.39003
551.814	-158.33215
552.283	-148.29493
552.752	-184.39038
553.221	-192.38065
553.69	-145.29184
554.159	-119.26168
554.628	-178.36082
555.096	-138.3151
555.565	-109.21858
556.033	-135.29024
556.502	-155.34456
556.97	-181.37253
557.438	-164.36025
557.906	-175.38805
558.374	-148.31606
558.842	-202.45397
559.31	-193.40832
559.777	-205.46572
560.245	-197.43919
560.712	-173.3785
561.18	-241.50942
561.647	-231.49406
562.114	-212.45921
562.581	-145.33555
563.048	-172.37639
563.514	-197.45715
563.981	-193.42154
564.448	-195.4176
564.914	-198.44078
565.381	-139.29948
565.847	-193.43205
566.313	-196.43651
566.779	-205.44376
567.245	-237.53448
567.711	-217.49777
568.176	-235.50805
568.642	-205.48867
569.108	-212.49711
569.573	-168.3771
570.038	-185.37372
570.504	-220.47267
570.969	-147.34706
571.434	-224.4713
571.899	-212.48172
572.363	-194.42166
572.828	-166.36157
573.293	-221.48637
573.757	-203.44544
574.222	-209.44488
574.686	-216.46188
575.15	-213.48193
575.614	-219.48035
576.078	-196.43669
576.542	-206.4485
577.006	-160.3411
577.469	-168.39409
577.933	-222.47491
578.396	-167.37601
578.86	-207.46587
579.323	-194.4385
579.786	-182.37501
580.249	-203.44075
580.712	-214.49983
581.175	-186.43478
581.637	-146.31936
582.1	-149.31178
582.563	-125.25518
583.025	-203.46864
583.487	-200.38928
583.95	-242.50267
584.412	-141.28235
584.874	-178.4102
585.336	-163.36625
585.797	-182.3772
586.259	-187.42259
586.721	-191.42775
587.182	-105.23225
587.643	-175.38061
588.105	-178.40217
588.566	-127.25491
589.027	-206.47358
589.488	-211.46416
589.949	-104.2369
590.41	-265.50732
590.87	-136.29585
591.331	-144.29778
591.791	-167.36707
592.252	-201.44012
592.712	-128.29086
593.172	-190.41085
593.632	-115.23978
594.092	-164.35008
594.552	-152.31305
595.011	-189.41472
595.471	-129.27411
595.931	-127.26857
596.39	-132.29824
596.849	-152.33656
597.308	-125.25855
597.768	-149.3575
598.227	-118.26835
598.685	-61.13154
599.144	-123.27195
599.603	-108.24123
600.062	-152.30473
600.52	-179.38201
600.978	-98.21853
601.437	-66.14162
601.895	-128.25816
602.353	-69.14381
602.811	-83.17314
603.269	-105.23632
603.727	-36.07984
604.184	-97.20504
604.642	-101.23187
605.099	-36.07748
605.557	-39.08814
606.014	-33.06581
606.471	-63.14527
606.928	-100.20057
607.385	-7.0155
607.842	70.14462
608.299	138.28703
608.755	76.16512
609.212	116.23008
609.668	51.10184
610.125	113.24503
610.581	151.32254
611.037	133.2746
611.493	121.2588
611.949	102.22151
612.405	65.11902
612.861	118.25254
613.316	79.17167
613.772	107.2231
614.227	43.0932
614.683	177.34098
615.138	195.40604
615.593	133.27929
616.048	177.36462
616.503	190.41946
616.958	153.34548
617.412	150.32089
617.867	137.27396
618.321	203.37771
618.776	172.34467
619.23	159.33845
619.684	208.42376
620.138	236.49262
620.592	163.36023
621.046	205.43598
621.5	151.33539
621.954	176.36297
622.407	162.33139
622.861	165.36679
623.314	206.42751
623.768	140.30105
624.221	140.25602
624.674	172.36429
625.127	149.32254
625.58	139.29588
626.033	162.33305
626.485	170.37515
626.938	122.27171
627.39	130.28292
627.843	155.33438
628.295	122.26517
628.747	170.3761
629.199	162.34416
629.651	92.19835
630.103	116.25116
630.555	134.26852
631.006	147.32487
631.458	127.28349
631.909	215.46203
632.361	133.29455
632.812	137.29999
633.263	161.32912
633.714	131.26853
634.165	155.3567
634.616	151.34138
635.067	177.37365
635.518	181.40936
635.968	216.41021
636.419	195.40243
636.869	166.37659
637.319	178.39133
637.769	175.37283
638.219	212.48035
638.669	208.46956
639.119	215.49714
639.569	182.41858
640.019	251.54751
640.468	209.44449
640.918	255.57977
641.367	268.56586
641.816	251.53079
642.265	304.65735
642.714	286.62134
643.163	328.70226
643.612	267.60237
644.061	317.62451
644.51	303.64607
644.958	319.65418
645.406	343.76242
645.855	352.80237
646.303	431.92215
646.751	332.70375
647.199	398.83295
647.647	394.8348
648.095	392.82802
648.543	452.84255
648.99	401.88244
649.438	504.06919
649.885	468.05432
650.333	435.76887
650.78	444.98134
651.227	430.96072
651.674	433.90439
652.121	458.01702
652.568	409.91701
653.015	530.21077
653.461	423.92615
653.908	460.98015
654.354	491.06534
654.801	409.88606
655.247	447.9005
655.693	448.0743
656.139	401.89243
656.585	433.95843
657.031	391.84562
657.477	414.82539
657.922	412.87789
658.368	475.07383
658.813	433.93284
659.259	325.7368
659.704	397.8608
660.149	360.78741
660.594	408.90104
661.039	385.81947
661.484	430.95437
661.929	380.83325
662.373	355.84323
662.818	326.76676
663.262	342.77769
663.707	359.85797
664.151	363.83628
664.595	332.75893
665.039	411.95663
665.483	398.94987
665.927	407.89714
666.371	311.68441
666.814	365.82376
667.258	359.80063
667.701	406.82186
668.145	387.90788
668.588	383.88586
669.031	369.81748
669.474	329.75494
669.917	377.78883
670.36	354.83292
670.803	419.9483
671.245	379.75403
671.688	368.85101
672.13	344.73269
672.573	367.88478
673.015	376.85429
673.457	387.7947
673.899	403.91989
674.341	377.86125
674.783	403.90876
675.225	361.84294
675.666	336.7693
676.108	360.74343
676.549	408.91082
676.991	358.7509
677.432	330.62855
677.873	416.90526
678.314	368.83477
678.755	349.80948
679.196	323.70903
679.637	409.94335
680.078	382.84857
680.518	393.8681
680.959	347.79369
681.399	357.84341
681.839	374.86488
682.28	363.85193
682.72	351.76627
683.16	397.9346
683.6	406.87524
684.039	316.63411
684.479	340.79781
684.919	300.66561
685.358	360.87168
685.798	351.87838
686.237	442.00173
686.676	349.77576
687.115	375.83803
687.554	335.76255
687.993	381.80073
688.432	355.77467
688.871	337.73228
689.309	357.8136
689.748	376.74823
690.186	418.94277
690.625	358.80055
691.063	359.82146
691.501	386.90642
691.939	364.8651
692.377	355.82698
692.815	361.82305
693.253	432.97831
693.69	368.77051
694.128	343.79494
694.565	381.86407
695.003	395.95082
695.44	378.84456
695.877	356.79345
696.314	439.88642
696.751	429.92224
697.188	384.83741
697.625	422.91519
698.061	402.91261
698.498	429.97882
698.934	403.91915
699.371	363.81457
699.807	423.94333
700.243	410.93228
700.679	444.9436
701.115	424.94262
701.551	421.93576
701.987	440.9298
702.422	444.98912
702.858	454.01104
703.294	451.95743
703.729	430.99157
704.164	418.94969
704.599	423.88742
705.035	346.74079
705.47	432.98824
705.904	437.95599
706.339	449.98099
706.774	474.03298
707.209	467.00241
707.643	498.10875
708.078	519.16679
708.512	454.06141
708.946	522.15507
709.38	495.08772
709.814	479.01805
710.248	495.12003
710.682	520.14011
711.116	506.11403
711.549	515.23172
711.983	515.09708
712.416	530.15426
712.85	540.23958
713.283	516.12705
713.716	567.30657
714.149	592.28403
714.582	537.10535
715.015	618.40469
715.448	548.27101
715.881	584.15936
716.313	567.21223
716.746	589.25879
717.178	559.22961
717.61	622.43088
718.043	610.38089
718.475	577.27616
718.907	622.42974
719.339	607.24015
719.77	653.38551
720.202	641.46377
720.634	689.49246
721.065	675.42726
721.497	659.44985
721.928	645.42436
722.359	656.41577
722.79	694.47548
723.221	758.68281
723.652	786.78463
724.083	717.42154
724.514	757.51912
724.945	762.56539
725.375	738.50036
725.806	795.73614
726.236	823.83887
726.666	799.64185
727.096	889.86463
727.526	858.88205
727.956	894.71406
728.386	884.8635
728.816	886.92313
729.246	852.77873
729.675	946.96291
730.105	942.95981
730.534	919.81245
730.964	1063.22129
731.393	1059.1711
731.822	1095.29828
732.251	1028.17214
732.68	1085.07598
733.109	1137.26339
733.537	1137.20807
733.966	1204.38209
734.395	1200.17514
734.823	1275.20633
735.251	1260.36958
735.68	1331.58812
736.108	1338.62809
736.536	1351.42218
736.964	1354.37391
737.392	1378.6438
737.82	1395.5281
738.247	1459.59543
738.675	1556.69473
739.102	1561.85581
739.53	1534.89631
739.957	1596.00965
740.384	1657.91801
740.811	1684.05097
741.238	1675.88778
741.665	1738.74487
742.092	1801.91884
742.519	1764.02468
742.945	1848.97518
743.372	1865.11979
743.798	1926.34645
744.225	1939.00102
744.651	2040.32205
745.077	2038.28972
745.503	2087.22095
745.929	2098.14659
746.355	2193.38755
746.781	2240.38962
747.207	2187.08285
747.632	2200.27568
748.058	2275.44471
748.483	2407.08774
748.908	2533.53572
749.334	2485.45362
749.759	2488.23094
750.184	2523.29226
750.609	2635.50536
751.033	2664.29458
751.458	2738.01677
751.883	2797.5916
752.307	2832.28168
752.732	2788.6276
753.156	2967.58546
753.58	3048.3454
754.005	3045.77709
754.429	3094.27107
754.853	3133.60616
755.277	3163.30991
755.7	3210.61556
756.124	3279.60725
756.548	3214.30911
756.971	3350.49254
757.394	3492.85834
757.818	3506.84499
758.241	3535.73134
758.664	3588.68391
759.087	3603.82696
759.51	3712.54466
759.933	3675.30388
760.356	3748.76302
760.778	3828.41338
761.201	3881.31976
761.623	3889.29956
762.046	3968.10774
762.468	3995.18512
762.89	3996.38476
763.312	4064.27168
763.734	4136.12856
764.156	4155.31408
764.578	4232.76059
765	4176.21282
765.421	4199.51009
765.843	4276.75796
766.264	4303.0809
766.686	4249.40899
767.107	4301.09672
767.528	4392.36815
767.949	4380.4445
768.37	4368.16183
768.791	4365.05569
769.212	4317.36191
769.632	4381.75556
770.053	4472.70206
770.473	4540.00024
770.894	4447.28563
771.314	4450.91594
771.734	4329.78861
772.154	4404.51303
772.575	4451.6891
772.994	4417.55738
773.414	4522.91331
773.834	4381.29736
774.254	4417.10992
774.673	4453.05524
775.093	4417.19136
775.512	4288.21926
775.931	4382.40978
776.351	4338.25798
776.77	4262.16923
777.189	4206.99293
777.607	4155.57142
778.026	4221.33771
778.445	4126.41003
778.864	4127.62238
779.282	4167.0937
779.701	4139.47006
780.119	4047.52324
780.537	4007.4389
780.955	3937.62712
781.373	3947.39538
781.791	3899.72918
782.209	3994.8639
782.627	3856.93701
783.045	3773.93819
783.462	3765.70918
783.88	3805.79613
784.297	3627.62419
784.715	3670.76904
785.132	3551.36164
785.549	3549.59814
785.966	3460.65715
786.383	3463.49353
786.8	3393.12134
787.217	3330.265
787.633	3340.61347
788.05	3338.28433
788.466	3251.25023
788.883	3269.77696
789.299	3194.38792
789.715	3072.45631
790.131	3071.60668
790.547	3083.63704
790.963	3003.59237
791.379	2887.70145
791.795	2941.07405
792.21	2874.21354
792.626	2742.28875
793.041	2718.51828
793.457	2752.53431
793.872	2722.23161
794.287	2570.28314
794.702	2569.47098
795.117	2567.51432
795.532	2480.53313
795.947	2440.29767
796.362	2448.25849
796.776	2351.12582
797.191	2285.31825
797.605	2216.06992
798.02	2192.23852
798.434	2188.81891
798.848	2126.25874
799.262	2064.25343
799.676	1998.13188
800.09	1983.15827
800.504	1917.04663
800.918	1832.78578
801.331	1919.41447
801.745	1817.74087
802.158	1804.08247
802.572	1791.94423
802.985	1700.84912
803.398	1617.71698
803.811	1625.02246
804.224	1613.87811
804.637	1498.591
805.05	1482.48259
805.462	1467.66714
805.875	1393.76369
806.288	1374.49178
806.7	1367.62202
807.112	1371.36458
807.525	1297.47082
807.937	1257.42091
808.349	1242.44261
808.761	1149.25674
809.173	1112.16197
809.584	1109.21163
809.996	1090.15615
810.408	1010.16835
810.819	1036.97724
811.231	968.09941
811.642	975.91764
812.053	1028.99127
812.464	985.92736
812.875	1062.22846
813.286	925.01581
813.697	918.7906
814.108	860.78911
814.519	844.58228
814.929	810.79086
815.34	752.58782
815.75	732.63648
816.16	736.60891
816.571	738.69048
816.981	701.4519
817.391	687.46343
817.801	658.45521
818.211	639.35577
818.62	624.34203
819.03	631.38297
819.44	628.47911
819.849	587.33873
820.259	583.35414
820.668	508.14552
821.077	520.18217
821.486	550.20244
821.895	506.14797
822.304	454.12163
822.713	488.0586
823.122	456.05567
823.531	418.92466
823.939	395.90381
824.348	410.93341
824.756	426.99797
825.164	390.92473
825.573	380.89964
825.981	413.95977
826.389	370.87901
826.797	349.82962
827.205	354.76643
827.612	376.87536
828.02	303.67911
828.428	266.65356
828.835	304.76752
829.243	264.60593
829.65	263.63051
830.057	266.62176
830.464	222.52543
830.871	248.57377
831.278	221.51892
831.685	234.50491
832.092	231.54853
832.499	256.53839
832.905	239.58647
833.312	231.51008
833.718	233.56306
834.124	222.49195
834.531	285.69025
834.937	177.4454
835.343	192.4525
835.749	212.48152
836.155	199.509
836.561	131.31837
836.966	171.41013
837.372	172.42948
837.777	132.32483
838.183	176.38286
838.588	135.33092
838.993	146.35024
839.399	134.32341
839.804	120.2894
840.209	114.28755
840.613	114.25126
841.018	91.22933
841.423	117.29727
841.828	129.32241
842.232	154.37532
842.637	133.30974
843.041	94.23956
843.445	84.20991
843.849	106.26037
844.253	116.27307
844.657	99.24761
845.061	95.21434
845.465	93.2234
845.869	80.18539
846.272	52.12688
846.676	116.27785
847.079	49.12485
847.483	104.25753
847.886	179.4262
848.289	100.26502
848.692	78.19696
849.095	89.21273
849.498	126.31577
849.901	79.18071
850.304	108.25592
850.707	86.21832
851.109	74.18686
851.512	67.16448
851.914	28.07095
852.316	53.13424
852.718	17.0442
853.121	69.16883
853.523	56.13106
853.925	64.16677
854.326	53.13266
854.728	52.13387
855.13	13.03379
855.531	33.07927
855.933	70.1678
856.334	31.07768
856.736	-3.00681
857.137	33.07716
857.538	0
857.939	25.06214
858.34	45.10998
858.741	74.1929
859.142	55.13227
859.542	32.08478
859.943	53.13184
860.343	36.0895
860.744	53.12949
861.144	51.1246
861.544	-25.06103
861.945	21.05387
862.345	60.14672
862.745	20.05005
863.145	50.11976
863.544	47.119
863.944	36.08544
864.344	78.19308
864.743	90.22205
865.143	22.05686
865.542	-2.0047
865.941	20.04985
866.34	41.09856
866.74	89.23757
867.139	20.04823
867.537	28.07171
867.936	59.14199
868.335	17.04356
868.734	53.13552
869.132	32.07474
869.531	43.10431
869.929	-13.03006
870.327	-9.02185
870.726	33.08266
871.124	51.11938
871.522	44.11233
871.92	52.12839
872.318	11.02712
872.715	36.08947
873.113	31.07591
873.511	25.06264
873.908	-14.03578
874.306	9.02258
874.703	26.06542
875.1	33.08477
875.497	31.07469
875.894	-9.02232
876.291	52.12773
876.688	-3.00782
877.085	38.09151
877.482	12.03028
877.878	-2.00487
878.275	16.04093
878.671	38.08498
879.068	9.02192
879.464	3.00732
879.86	-23.05523
880.256	16.03978
880.652	28.07156
881.048	21.05237
881.444	21.05033
881.84	19.0486
882.236	27.06824
882.631	15.0371
883.027	6.01467
883.422	8.02062
883.817	3.00761
884.213	5.01294
884.608	-7.01736
885.003	-5.01219
885.398	17.04284
885.793	-3.00761
886.188	-17.04281
886.582	69.17656
886.977	17.04065
887.371	20.0509
887.766	-25.06307
888.16	50.1249
888.554	29.07206
888.949	25.06312
889.343	68.16573
889.737	-35.09463
890.131	16.04042
890.525	43.11018
890.918	7.01777
891.312	26.06256
891.706	43.11303
892.099	39.09951
892.492	19.04132
892.886	-5.01237
893.279	4.01028
893.672	11.02822
894.065	32.08046
894.458	35.08833
894.851	22.05424
895.244	15.03857
895.637	24.05814
896.029	21.05167
896.422	10.02464
896.814	11.02756
897.206	-28.06773
897.599	67.16533
897.991	-20.04904
898.383	-3.00717
898.775	10.02278
899.167	-34.08066
899.559	24.06108
899.951	47.11097
900.342	-7.01799
900.734	-33.08316
901.125	18.04751
901.517	29.07151
901.908	63.15082
902.299	-3.00741
902.69	-3.00716
903.082	33.08023
903.473	-6.01453
903.863	16.04109
904.254	-29.06842
904.645	55.13677
905.036	10.02441
905.426	13.03001
905.817	11.0272
906.207	16.0384
906.597	-1.00236
906.987	17.04434
907.378	-21.05381
907.768	17.04521
908.158	14.03439
908.547	-6.01566
908.937	11.02843
909.327	38.09255
909.717	18.04599
910.106	21.05075
910.495	26.06523
910.885	20.05095
911.274	-7.01769
911.663	41.10429
912.052	35.08665
912.441	28.07151
912.83	-10.02325
913.219	29.0762
913.608	36.08846
913.997	-24.06099
914.385	49.11717
914.774	20.049
915.162	27.06466
915.55	16.03898
915.939	-10.02552
916.327	81.20113
916.715	5.01285
917.103	32.07907
917.491	57.14091
917.878	38.09368
918.266	22.05735
918.654	19.04882
919.041	-19.0502
919.429	-8.0191
919.816	42.10666
920.203	36.08758
920.591	12.02998
920.978	12.02961
921.365	24.06327
921.752	18.0432
922.139	-22.04853
922.525	-13.03161
922.912	0
923.299	-5.01256
923.685	18.04723
924.072	1.00233
924.458	11.02745
924.844	-10.02503
925.231	-18.04247
925.617	-32.08259
926.003	1.00258
926.389	-8.0204
926.774	21.05351
927.16	4.01002
927.546	-41.10634
927.931	0
928.317	1.00233
928.702	31.07364
929.088	-21.05037
929.473	2.00513
929.858	-35.08599
930.243	-26.06332
930.628	-21.05178
931.013	-6.01503
931.398	26.06011
931.783	19.0503
932.167	8.01972
932.552	17.04286
932.937	18.04495
933.321	-25.06359
933.705	-18.04594
934.09	56.1414
934.474	15.03588
934.858	-36.09477
935.242	10.02337
935.626	-11.02846
936.009	-13.03494
936.393	16.04096
936.777	34.08732
937.16	20.05231
937.544	33.07803
937.927	-31.0798
938.311	43.10513
938.694	53.14011
939.077	-19.04609
939.46	4.00991
939.843	-19.04027
940.226	15.03872
940.609	-39.09115
940.991	-30.07745
941.374	1.00247
941.757	16.03974
942.139	-11.02502
942.522	20.04756
942.904	28.0676
943.286	7.01792
943.668	23.05986
944.05	26.06434
944.432	-11.02745
944.814	17.04214
945.196	-27.06675
945.578	-39.09429
945.959	-26.06185
946.341	39.09596
946.722	4.00948
947.104	6.01446
947.485	12.02814
947.866	-14.03568
948.247	35.08855
948.628	20.04907
949.009	-11.02847
949.39	21.05256
949.771	4.00939
950.152	-21.05222
950.532	-47.11768
950.913	-9.02196
951.293	-13.03548
951.674	7.01707
952.054	-21.05271
952.434	20.04992
952.814	11.02637
953.194	55.14383
953.574	57.14024
953.954	-11.02643
954.334	21.05262
954.714	-25.06178
955.093	29.07159
955.473	-22.05573
955.853	9.02346
956.232	21.05782
956.611	25.06026
956.99	19.04802
957.37	2.00514
957.749	20.048
958.128	-12.03057
958.506	32.08327
958.885	27.06843
959.264	-13.03223
959.643	6.01378
960.021	-51.12871
960.4	-2.00458
960.778	14.03472
961.156	8.02021
961.535	22.05157
961.913	12.02829
962.291	-35.09113
962.669	-23.05902
963.047	26.06663
963.424	-5.01288
963.802	-18.04482
964.18	40.1014
964.557	-25.05845
964.935	10.02388
965.312	-11.02894
965.69	43.10782
966.067	6.01473
966.444	-5.01245
966.821	46.11868
967.198	13.03176
967.575	34.08385
967.952	37.08742
968.329	3.00736
968.705	15.03242
969.082	1.00259
969.458	-36.08777
969.835	3.00737
970.211	42.10794
970.587	41.10225
970.963	26.06698
971.339	-9.02374
971.715	-23.05819
972.091	31.07661
972.467	10.02512
972.843	0
973.219	16.03867
973.594	-26.06888
973.97	23.05504
974.345	-26.06313
974.721	30.07293
975.096	-26.06382
975.471	-15.03603
975.846	13.03145
976.221	-26.06691
976.596	27.06501
976.971	52.12834
977.346	8.01878
977.72	-1.00257
978.095	18.04678
978.469	56.13352
978.844	32.08072
979.218	-22.05346
979.593	-17.04125
979.967	26.06363
980.341	1.00233
980.715	36.09094
981.089	-2.00505
981.463	-31.07234
981.837	-29.0719
982.21	34.07939
982.584	-14.03422
982.957	-12.0303
983.331	14.03333
983.704	-13.03232
984.078	7.01739
984.451	60.14961
984.824	-12.02956
985.197	38.09251
985.57	12.0303
985.943	33.08176
986.316	72.1762
986.688	-7.01706
987.061	4.00946
987.434	45.11736
987.806	41.09961
988.179	-25.05985
988.551	21.05355
988.923	-27.06743
989.295	51.12742
989.667	-5.01207
990.039	11.02737
990.411	-48.11265
990.783	10.02321
991.155	-6.01457
991.527	38.09379
991.898	13.03261
992.27	17.0423
992.641	27.06802
993.012	37.08729
993.384	9.02164
993.755	-28.07236
994.126	-24.05854
994.497	6.01485
994.868	47.10803
995.239	3.00733
995.61	-5.0127
995.98	1.00245
996.351	-9.02253
996.722	-21.04939
997.092	-28.0673
997.462	-79.18919
997.833	8.01912
998.203	33.08026
998.573	6.01506
998.943	19.04482
999.313	-11.02666
999.683	-1.00242
1000.053	11.02551
1000.423	11.02692
1000.792	42.10899
1001.162	-1.00248
1001.531	25.06192
1001.901	21.05262
1002.27	-9.02036
1002.639	11.0283
1003.009	-1.0024
1003.378	31.07952
1003.747	15.03568
1004.116	-18.04362
1004.485	14.03369
1004.853	7.01787
1005.222	2.00509
1005.591	-3.0072
1005.959	-9.02052
1006.328	-7.01594
1006.696	-37.0907
1007.064	24.06065
1007.433	-2.00504
1007.801	47.11543
1008.169	42.10621
1008.537	-7.01568
1008.905	6.0141
1009.273	5.01245
1009.64	-43.10439
1010.008	43.10262
1010.375	25.06099
1010.743	54.12459
1011.11	-57.13765
1011.478	28.06956
1011.845	3.00712
1012.212	6.0137
1012.579	1.00248
1012.946	53.12605
1013.313	37.08827
1013.68	11.02492
1014.047	-40.09694
1014.414	-31.07435
1014.78	-20.05032
1015.147	18.04379
1015.513	6.01457
1015.88	51.13036
1016.246	68.16728
1016.612	-3.00694
1016.978	13.03207
1017.344	-39.09793
1017.71	44.1074
1018.076	26.06159
1018.442	12.03107
1018.808	13.0327
1019.174	-4.01013
1019.539	76.17403
1019.905	0
1020.27	-46.11549
1020.636	23.05542
1021.001	-26.06313
1021.366	-25.06087
1021.731	14.03622
1022.096	5.01271
1022.461	2.00478
1022.826	4.00959
1023.191	0
1023.556	-25.05944
1023.92	45.11072
1024.285	30.07347
1024.649	32.07866
1025.014	-5.01251
1025.378	-19.04834
1025.742	27.06731
1026.107	41.09288
1026.471	37.08658
1026.835	-17.04264
1027.199	-51.12506
1027.562	12.0281
1027.926	11.02708
1028.29	12.03056
1028.654	3.00696
1029.017	26.06417
1029.381	-2.00482
1029.744	3.00771
1030.107	4.00954
1030.471	45.10781
1030.834	7.01606
1031.197	41.0989
1031.56	-7.01669
1031.923	-21.05494
1032.286	13.03074
1032.648	29.06961
1033.011	-34.07932
1033.374	3.00711
1033.736	-22.05852
1034.099	6.01474
1034.461	-10.02552
1034.823	-23.058
1035.185	47.11832
1035.548	-51.12641
1035.91	-7.01694
1036.272	14.03208
1036.634	44.10772
1036.995	6.01422
1037.357	30.07323
1037.719	31.07562
1038.08	-11.02641
1038.442	-21.0505
1038.803	20.04827
1039.165	-8.02039
1039.526	-4.00976
1039.887	-22.05334
1040.248	24.05939
1040.609	39.09652
1040.97	-13.03213
1041.331	28.07113
1041.692	-64.15265
1042.053	3.00689
1042.413	45.10492
1042.774	35.08532
1043.134	13.03116
1043.495	2.00507
1043.855	-20.04913
1044.215	-15.03765
1044.576	-25.0606
1044.936	12.02771
1045.296	3.00755
1045.656	2.00495
1046.016	15.03643
1046.375	-11.02697
1046.735	6.01372
1047.095	-29.06889
1047.454	5.01069
1047.814	-3.00728
1048.173	37.08857
1048.533	-71.16652
1048.892	-46.11236
1049.251	10.02527
1049.61	15.03715
1049.969	-8.01906
1050.328	-20.04399
1050.687	-12.02952
1051.046	36.08784
1051.405	-14.03521
1051.763	-10.02326
1052.122	-19.04795
1052.48	0
1052.839	20.0473
1053.197	-21.05008
1053.555	38.0868
1053.914	-15.03711
1054.272	8.01948
1054.63	-53.13199
1054.988	21.05014
1055.345	-29.06348
1055.703	12.02907
1056.061	-13.03379
1056.419	-39.10244
1056.776	0
1057.134	14.03262
1057.491	12.03024
1057.848	20.05003
1058.206	-27.06441
1058.563	-43.09658
1058.92	27.06248
1059.277	35.08653
1059.634	3.00712
1059.991	21.05056
1060.348	-24.05502
1060.704	-31.07498
1061.061	32.07457
1061.418	-10.02451
1061.774	-21.05249
1062.131	10.0266
1062.487	-63.15047
1062.843	25.06257
1063.199	18.045
1063.555	-33.07767
1063.911	-20.05111
1064.267	-12.02536
1064.623	1.00245
1064.979	66.15579
1065.335	25.06001
1065.691	2.00483
1066.046	-8.0178
1066.402	22.05023
1066.757	0
1067.112	0
1067.468	1.00238
1067.823	28.06755
1068.178	7.01706
1068.533	15.03658
1068.888	27.06476
1069.243	-3.00747
1069.598	13.03178
1069.952	-21.04794
1070.307	-22.05514
1070.662	-32.07712
1071.016	-75.17225
1071.371	23.05257
1071.725	22.05288
1072.079	-21.05115
1072.434	-34.08385
1072.788	-9.02166
1073.142	45.11072
1073.496	-2.00479
1073.85	16.03733
1074.203	10.02443
1074.557	6.01606
1074.911	34.08135
1075.265	17.03975
1075.618	17.04173
1075.971	0
1076.325	7.01791
1076.678	-54.12598
1077.031	-13.02977
1077.385	16.03547
1077.738	-11.02512
1078.091	-41.09488
1078.444	7.01638
1078.796	4.00989
1079.149	2.00501
1079.502	-13.03106
1079.855	-16.03777
1080.207	5.01241
1080.56	-17.04441
1080.912	39.09507
1081.264	-17.04143
1081.617	-22.0543
1081.969	-4.01018
1082.321	8.01967
1082.673	-58.13516
1083.025	-9.02158
1083.377	-242.55166
1083.728	39.09111
1084.08	24.06015
1084.432	-8.01949
1084.783	22.05179
1085.135	21.05287
1085.486	-14.03242
1085.838	-15.03735
1086.189	-9.02207
1086.54	16.03843
1086.891	11.02799
1087.242	-19.04682
1087.593	2.00491
1087.944	13.02962
1088.295	-1.00229
1088.646	-12.0294
1088.996	-9.02191
1089.347	17.04193
1089.698	-26.0623
1090.048	17.04437
1090.398	-9.0211
1090.749	11.02649
1091.099	-4.01015
1091.449	5.01255
1091.799	30.07532
1092.149	-63.15672
1092.499	19.04658
1092.849	-2.00513
1093.199	29.0729
1093.548	-9.02185
1093.898	12.0302
1094.248	10.02585
1094.597	-25.0646
1094.947	8.02147
1095.296	-4.00997
1095.645	-5.01312
1095.994	4.00968
1096.343	-5.0127
1096.692	-5.01324
1097.041	-18.04923
1097.39	23.05792
1097.739	16.04179
1098.088	54.14445
1098.437	-29.07713
1098.785	24.06492
1099.134	53.14054
1099.482	17.04696
1099.83	69.18057
1100.179	-25.06598
1100.527	38.10108
1100.875	12.0319
1101.223	17.04535
1101.571	41.11336
1101.919	-75.19993
1102.267	-10.02839
1102.615	5.01607
1102.962	5.01611
1103.31	-5.01609
1103.658	6.01934
