Data from N2 R8 sample 3_Subt2__2__17-44-28-907.txt Node

Date: Fri Aug 29 17:44:28 PDT 2025
User: uwsun
Spectrometer: HDX01956
Trigger mode: 0
Integration Time (sec): 5.000000E-1
Scans to average: 1
Nonlinearity correction enabled: true
Boxcar width: 0
Storing dark spectrum: false
XAxis mode: Wavelengths
Number of Pixels in Spectrum: 2068
>>>>>Begin Spectral Data<<<<<
194.03	42.11712
194.578	48.1509
195.127	36.11167
195.676	43.13368
196.225	56.14717
196.773	51.13869
197.321	113.29762
197.87	119.28802
198.418	119.28422
198.966	58.14099
199.513	65.15024
200.061	89.20825
200.609	134.32914
201.156	48.0973
201.704	40.09394
202.251	109.2665
202.798	102.24487
203.345	106.24301
203.892	65.15227
204.438	110.24295
204.985	48.10517
205.532	93.22628
206.078	70.15971
206.624	95.21486
207.17	98.21028
207.716	100.22327
208.262	121.21887
208.808	60.13623
209.354	31.07034
209.899	136.31753
210.445	133.30142
210.99	100.22124
211.535	118.2556
212.08	128.27347
212.625	101.23401
213.17	110.25774
213.715	34.06999
214.259	102.21972
214.804	121.27623
215.348	75.15958
215.892	95.21101
216.436	133.28409
216.98	127.25915
217.524	99.21614
218.068	137.31779
218.612	149.34522
219.155	107.23262
219.698	142.31074
220.242	111.25738
220.785	126.27188
221.328	109.25214
221.871	134.3152
222.414	162.37169
222.956	39.08792
223.499	79.16575
224.041	113.24514
224.583	109.21969
225.126	52.10758
225.668	63.14313
226.21	120.27897
226.751	43.0879
227.293	105.22312
227.835	86.19518
228.376	106.22804
228.918	155.36111
229.459	43.10018
230	78.173
230.541	76.16364
231.082	66.14937
231.622	109.23303
232.163	68.15345
232.704	78.17975
233.244	56.12983
233.784	90.206
234.324	21.04307
234.864	78.16441
235.404	123.27058
235.944	109.23959
236.484	147.33788
237.023	104.22682
237.563	73.15654
238.102	56.12358
238.641	158.366
239.18	43.09356
239.719	133.30717
240.258	119.24647
240.797	88.19452
241.335	95.21565
241.874	115.20217
242.412	82.18232
242.95	65.14359
243.488	81.17129
244.026	54.11557
244.564	92.17463
245.102	126.25845
245.64	83.18589
246.177	72.14962
246.715	144.31671
247.252	118.24926
247.789	135.23323
248.326	78.17213
248.863	89.17921
249.4	126.26207
249.936	130.24327
250.473	107.22836
251.009	62.13103
251.546	126.25284
252.082	103.20683
252.618	125.2531
253.154	61.13521
253.69	80.1658
254.226	84.18429
254.761	90.18544
255.297	70.14086
255.832	93.20158
256.367	82.17755
256.903	68.13727
257.438	118.25331
257.972	74.15152
258.507	13.02758
259.042	82.16318
259.576	72.14114
260.111	96.20341
260.645	95.18812
261.179	76.16223
261.713	29.05963
262.247	111.23319
262.781	75.1433
263.315	62.13923
263.849	106.24116
264.382	119.24878
264.915	111.23515
265.449	74.16337
265.982	102.21149
266.515	107.23687
267.048	84.16147
267.58	80.16031
268.113	91.17801
268.646	61.13768
269.178	20.04106
269.71	97.19235
270.243	83.17291
270.775	59.1374
271.307	151.32785
271.838	142.30535
272.37	87.1946
272.902	88.18206
273.433	77.15284
273.965	147.32093
274.496	117.26376
275.027	114.25515
275.558	76.16737
276.089	27.06039
276.62	100.23137
277.15	97.21742
277.681	92.18103
278.211	123.27218
278.741	66.13115
279.272	71.14639
279.802	131.29387
280.332	118.24872
280.861	94.20405
281.391	99.2011
281.921	124.26837
282.45	88.19915
282.98	112.26294
283.509	76.15392
284.038	120.2437
284.567	145.30206
285.096	118.25495
285.625	50.10247
286.153	83.17414
286.682	126.25518
287.21	82.17671
287.739	106.22303
288.267	62.13464
288.795	160.37386
289.323	62.1293
289.851	114.23701
290.378	87.17381
290.906	36.07805
291.433	117.25868
291.961	101.20169
292.488	99.21907
293.015	60.12552
293.542	102.22801
294.069	110.23807
294.596	164.3557
295.122	147.30623
295.649	128.24712
296.175	115.24607
296.702	161.34092
297.228	175.3704
297.754	90.17751
298.28	111.2196
298.806	126.26371
299.332	66.12779
299.857	103.20234
300.383	120.26692
300.908	46.0979
301.433	87.18438
301.958	199.3937
302.483	136.29258
303.008	144.30872
303.533	125.28444
304.058	126.25787
304.582	93.18968
305.107	81.18387
305.631	153.29957
306.155	93.18632
306.679	64.12926
307.203	147.28946
307.727	127.25773
308.251	126.2671
308.775	117.23505
309.298	73.1495
309.822	132.28446
310.345	145.29023
310.868	142.28613
311.391	163.33896
311.914	122.25862
312.437	162.31006
312.96	135.2662
313.482	166.32664
314.005	130.27449
314.527	117.25901
315.049	154.32674
315.571	90.1655
316.093	138.28409
316.615	126.25144
317.137	118.21099
317.659	165.33102
318.18	156.31044
318.702	138.2622
319.223	144.23759
319.744	119.21657
320.265	153.29872
320.786	155.3078
321.307	144.28963
321.828	167.30022
322.348	132.24872
322.869	128.23964
323.389	173.21194
323.909	158.28601
324.43	234.44309
324.95	150.26765
325.47	159.30468
325.989	107.1974
326.509	161.26793
327.029	117.2018
327.548	161.27222
328.067	123.22669
328.587	178.33903
329.106	159.27088
329.625	247.49691
330.144	152.26113
330.662	127.21882
331.181	199.34087
331.7	168.28908
332.218	180.27906
332.736	134.23045
333.255	169.28326
333.773	111.19217
334.291	241.43304
334.808	215.33109
335.326	237.36777
335.844	129.209
336.361	198.34819
336.879	203.32
337.396	178.29353
337.913	208.31851
338.43	196.29107
338.947	223.35133
339.464	152.21066
339.981	140.22023
340.497	180.29699
341.014	216.34178
341.53	155.22296
342.046	164.26143
342.562	187.30469
343.078	200.29628
343.594	246.36511
344.11	204.30276
344.626	212.33545
345.141	221.30187
345.657	255.34559
346.172	226.3297
346.687	222.29957
347.202	218.28235
347.717	276.38183
348.232	269.39646
348.747	205.27033
349.261	222.25988
349.776	265.34807
350.29	152.21584
350.805	295.41302
351.319	268.34075
351.833	174.21294
352.347	221.28263
352.861	232.28801
353.374	243.30029
353.888	232.30419
354.401	261.3093
354.915	204.2289
355.428	262.34053
355.941	323.36574
356.454	328.35969
356.967	255.30575
357.48	324.36031
357.993	317.39012
358.505	233.28567
359.018	314.37366
359.53	320.36193
360.042	340.33647
360.554	347.39385
361.066	272.31325
361.578	260.24938
362.09	323.34964
362.602	259.2455
363.113	278.28326
363.625	336.31117
364.136	302.27289
364.647	243.22951
365.158	343.32408
365.669	344.34072
366.18	353.33472
366.691	324.2713
367.201	343.32522
367.712	294.25189
368.222	279.2396
368.733	274.20254
369.243	355.25484
369.753	353.28065
370.263	403.327
370.773	300.26762
371.282	325.25183
371.792	297.18976
372.301	323.23334
372.811	323.27506
373.32	296.13513
373.829	276.16002
374.338	302.13636
374.847	360.15389
375.356	388.16151
375.865	333.069
376.373	421.0932
376.882	476.17341
377.39	419.10918
377.898	310.06151
378.407	462.99731
378.915	479.96026
379.423	424.98202
379.93	429.94178
380.438	398.93359
380.946	495.86423
381.453	478.84612
381.96	413.83771
382.468	374.82013
382.975	607.69559
383.482	680.62802
383.989	581.69585
384.495	601.66156
385.002	494.73073
385.509	592.68199
386.015	630.75102
386.521	808.70533
387.028	752.80327
387.534	722.90068
388.04	957.88642
388.546	607.06218
389.051	391.13528
389.557	755.57864
390.063	1350.53334
390.568	1011.33841
391.073	988.86319
391.578	1020.12135
392.084	882.37855
392.589	719.5293
393.093	268.12999
393.598	716.01043
394.103	1095.69381
394.607	1096.40513
395.112	1289.49853
395.616	1348.71556
396.12	1217.38778
396.624	1398.47815
397.128	1484.38142
397.632	2137.79576
398.136	2052.98453
398.639	939.48224
399.143	-86.86288
399.646	375.04221
400.15	165.38424
400.653	-682.80828
401.156	-2379.65831
401.659	-2579.10631
402.162	-293.47591
402.664	-47.17505
403.167	0
403.67	0
404.172	0
404.674	0
405.176	0
405.678	0
406.18	0
406.682	0
407.184	0
407.686	0
408.187	0
408.688	0
409.19	0
409.691	0
410.192	0
410.693	0
411.194	435.30976
411.694	4082.94878
412.195	8864.71461
412.696	12089.80453
413.196	12094.63705
413.696	10480.06089
414.196	11522.02931
414.696	13905.47011
415.196	15464.42056
415.696	18320.09169
416.196	15832.35012
416.695	9960.86054
417.195	6254.57502
417.694	5885.1986
418.194	6065.44815
418.693	4937.62018
419.192	4755.24153
419.691	4414.87121
420.19	4603.18635
420.688	4897.21051
421.187	4844.60297
421.685	4902.61962
422.184	4785.08744
422.682	4196.87896
423.18	3011.95519
423.678	2429.40433
424.176	2101.36278
424.674	2033.97552
425.172	2171.82523
425.669	2239.66303
426.167	2049.66559
426.664	1839.03398
427.161	1496.59116
427.659	1399.36206
428.156	1272.41857
428.652	1296.29252
429.149	975.45966
429.646	1031.43061
430.143	986.50217
430.639	917.56765
431.135	794.70211
431.632	855.674
432.128	752.79959
432.624	655.9008
433.12	450.89928
433.616	405.9219
434.111	401.95794
434.607	371.99702
435.103	483.96601
435.598	470.98104
436.093	459.0821
436.588	432.09135
437.083	396.1159
437.578	386.14465
438.073	224.12092
438.568	328.19745
439.062	307.12906
439.557	322.20293
440.051	253.15154
440.546	185.11969
441.04	132.10363
441.534	247.21735
442.028	237.19635
442.522	177.15122
443.015	139.1033
443.509	173.16408
444.002	83.08219
444.496	140.11148
444.989	130.13109
445.482	88.09344
445.975	52.04666
446.468	126.10226
446.961	88.07363
447.454	164.15043
447.947	41.04237
448.439	114.12515
448.931	6.00593
449.424	95.11463
449.916	57.06565
450.408	-35.03658
450.9	-31.03678
451.392	13.01643
451.884	58.06397
452.375	-36.04547
452.867	79.08751
453.358	-56.06341
453.849	14.01425
454.341	-20.0228
454.832	-105.11613
455.323	-92.12216
455.814	-12.01458
456.304	8.00976
456.795	-5.00611
457.285	33.03956
457.776	20.02535
458.266	-19.0251
458.756	26.03531
459.247	-89.12195
459.737	-72.09888
460.226	-144.18943
460.716	-92.13097
461.206	-48.06894
461.695	-66.10262
462.185	-42.05994
462.674	-45.06311
463.163	-53.0712
463.653	-54.06788
464.142	-78.11844
464.63	-27.04202
465.119	-98.14393
465.608	-37.05355
466.096	-67.0933
466.585	-105.1612
467.073	-87.13992
467.561	-61.09832
468.05	-51.07918
468.538	-68.11444
469.026	-115.19053
469.513	-150.2153
470.001	-51.07802
470.489	-70.11382
470.976	-20.03161
471.463	-109.19545
471.951	-85.15398
472.438	-152.25847
472.925	-129.21692
473.412	-51.09159
473.899	-89.14933
474.385	-109.19978
474.872	-107.18377
475.359	-112.20481
475.845	-138.21156
476.331	-75.12178
476.817	-132.24823
477.303	-84.14779
477.789	-143.26779
478.275	-107.20524
478.761	-108.203
479.247	-76.13161
479.732	-131.25625
480.218	-98.20229
480.703	-166.33203
481.188	-168.28691
481.673	-162.2979
482.158	-200.33844
482.643	-122.25375
483.128	-137.25047
483.612	-134.25435
484.097	-93.18597
484.581	-146.28024
485.066	-172.34642
485.55	-175.3159
486.034	-173.30909
486.518	-162.31456
487.002	-156.31695
487.486	-198.40816
487.969	-212.43918
488.453	-139.29691
488.936	-174.33125
489.42	-172.32362
489.903	-173.37514
490.386	-124.16919
490.869	-131.24289
491.352	-147.31141
491.835	-141.24931
492.318	-173.33568
492.8	-159.28261
493.283	-188.41539
493.765	-211.45441
494.247	-144.2939
494.73	-197.3817
495.212	-181.38712
495.694	-209.4286
496.175	-238.49635
496.657	-141.29282
497.139	-170.26248
497.62	-227.47499
498.102	-251.55679
498.583	-152.33642
499.064	-214.42268
499.545	-170.34303
500.026	-230.46132
500.507	-182.37585
500.988	-172.38068
501.469	-219.49086
501.949	-227.50795
502.43	-217.4605
502.91	-215.39825
503.39	-173.38936
503.87	-201.42282
504.35	-160.33917
504.83	-206.40573
505.31	-248.5459
505.79	-210.45235
506.269	-192.40593
506.749	-220.45412
507.228	-237.50491
507.707	-263.53422
508.187	-140.30079
508.666	-212.47097
509.145	-262.56048
509.623	-201.42785
510.102	-206.4544
510.581	-166.36403
511.059	-242.55389
511.538	-201.47527
512.016	-161.34807
512.494	-179.39576
512.972	-180.3904
513.45	-266.5646
513.928	-211.46689
514.406	-263.57952
514.884	-200.46915
515.361	-209.45822
515.839	-211.44014
516.316	-252.56052
516.793	-190.44134
517.27	-210.4702
517.747	-232.54825
518.224	-244.52491
518.701	-228.47021
519.178	-265.60786
519.654	-171.37396
520.131	-243.5574
520.607	-226.5208
521.083	-226.47823
521.56	-215.46958
522.036	-198.40228
522.512	-170.38644
522.987	-296.65783
523.463	-223.49159
523.939	-194.44028
524.414	-200.42915
524.89	-232.51325
525.365	-234.4943
525.84	-268.59313
526.315	-210.46846
526.79	-236.49786
527.265	-220.46758
527.74	-240.546
528.215	-195.42608
528.689	-234.48454
529.164	-199.40311
529.638	-181.43113
530.112	-235.51674
530.587	-253.5064
531.061	-256.57815
531.534	-189.42641
532.008	-246.55398
532.482	-220.47389
532.956	-216.51123
533.429	-195.43995
533.903	-199.41234
534.376	-198.40871
534.849	-196.42419
535.322	-211.46611
535.795	-223.51133
536.268	-207.46454
536.741	-183.40984
537.213	-211.45792
537.686	-251.57483
538.158	-212.44311
538.631	-209.4775
539.103	-297.63383
539.575	-193.37825
540.047	-250.52137
540.519	-192.4299
540.991	-198.45465
541.463	-191.43233
541.934	-207.44445
542.406	-264.59524
542.877	-217.4607
543.348	-193.43668
543.82	-224.51805
544.291	-216.47586
544.762	-231.51434
545.233	-221.51831
545.703	-214.44332
546.174	-233.51019
546.645	-226.50248
547.115	-206.46239
547.585	-209.44952
548.056	-270.60927
548.526	-226.4935
548.996	-196.43741
549.466	-155.34913
549.935	-195.42392
550.405	-183.36833
550.875	-223.4885
551.344	-212.47057
551.814	-215.45765
552.283	-205.41394
552.752	-196.41693
553.221	-186.36824
553.69	-167.33783
554.159	-190.42402
554.628	-206.42025
555.096	-193.44556
555.565	-192.39241
556.033	-158.34137
556.502	-151.33539
556.97	-196.40476
557.438	-203.44957
557.906	-191.42493
558.374	-186.40048
558.842	-208.46803
559.31	-224.47711
559.777	-248.5683
560.245	-180.39988
560.712	-213.46994
561.18	-235.49608
561.647	-243.52107
562.114	-267.58512
562.581	-226.53138
563.048	-189.41507
563.514	-223.52014
563.981	-220.48325
564.448	-172.36652
564.914	-209.46633
565.381	-154.33287
565.847	-212.47644
566.313	-207.46206
566.779	-234.50967
567.245	-209.46864
567.711	-213.4882
568.176	-252.54678
568.642	-226.54089
569.108	-212.49711
569.573	-191.43075
570.038	-209.42453
570.504	-255.55199
570.969	-189.44984
571.434	-287.61222
571.899	-219.49833
572.363	-196.42619
572.828	-167.36382
573.293	-232.51175
573.757	-230.50755
574.222	-203.43154
574.686	-274.59324
575.15	-239.54361
575.614	-214.46888
576.078	-232.52074
576.542	-197.42809
577.006	-213.45931
577.469	-191.45006
577.933	-214.457
578.396	-245.56041
578.86	-202.45416
579.323	-206.46676
579.786	-213.44194
580.249	-260.57135
580.712	-211.49254
581.175	-231.54472
581.637	-185.408
582.1	-207.4387
582.563	-219.45662
583.025	-248.57764
583.487	-232.455
583.95	-226.46776
584.412	-204.41447
584.874	-217.50395
585.336	-193.43632
585.797	-240.50386
586.259	-211.47915
586.721	-239.54053
587.182	-153.34181
587.643	-248.54773
588.105	-236.5395
588.566	-219.44891
589.027	-242.56034
589.488	-204.44811
589.949	-176.40672
590.41	-214.40462
590.87	-193.42493
591.331	-103.21104
591.791	-194.42883
592.252	-194.42417
592.712	-195.4491
593.172	-195.42212
593.632	-164.34567
594.092	-205.44149
594.552	-167.34511
595.011	-219.48358
595.471	-159.34007
595.931	-191.40957
596.39	-164.37296
596.849	-160.35486
597.308	-147.30555
597.768	-189.45691
598.227	-187.43119
598.685	-151.3319
599.144	-198.44462
599.603	-157.35422
600.062	-202.40966
600.52	-188.40201
600.978	-210.47911
601.437	-183.40257
601.895	-226.46609
602.353	-151.32044
602.811	-195.41688
603.269	-170.3877
603.727	-173.39462
604.184	-219.47528
604.642	-171.39807
605.099	-187.41552
605.557	-175.40642
606.014	-181.37337
606.471	-200.47373
606.928	-247.51226
607.385	-134.30461
607.842	-142.30732
608.299	-68.14793
608.755	-127.28782
609.212	-123.2576
609.668	-151.31568
610.125	-111.25218
610.581	-28.06213
611.037	-79.17087
611.493	-142.32097
611.949	-166.38102
612.405	-136.26168
612.861	-82.18308
613.316	-147.33477
613.772	-97.21142
614.227	-123.27604
614.683	-122.25194
615.138	-111.24685
615.593	-132.29337
616.048	-46.09951
616.503	-88.20555
616.958	-97.23017
617.412	-103.23239
617.867	-119.25209
618.321	-48.0949
618.776	-92.19562
619.23	-64.14283
619.684	-43.09261
620.138	-59.13121
620.592	-110.25693
621.046	-41.09186
621.5	-94.21939
621.954	-36.07778
622.407	-6.01274
622.861	-39.09036
623.314	-73.16093
623.768	-60.13457
624.221	-61.11723
624.674	-60.13352
625.127	-42.09463
625.58	33.07186
626.033	39.0824
626.485	-58.13409
626.938	-38.08743
627.39	-15.03365
627.843	22.04881
628.295	-46.10355
628.747	9.02058
629.199	25.0547
629.651	-49.10884
630.103	40.08801
630.555	40.0819
631.006	52.1172
631.458	79.17809
631.909	95.20943
632.361	70.15706
632.812	38.08495
633.263	96.19914
633.714	88.18214
634.165	164.37673
634.616	80.18348
635.067	203.42609
635.518	163.37001
635.968	195.37222
636.419	166.34481
636.869	221.49575
637.319	266.57396
637.769	232.48814
638.219	284.63404
638.669	328.72227
639.119	348.78332
639.569	342.7613
640.019	393.83141
640.468	400.81527
640.918	432.94685
641.367	414.84611
641.816	417.84973
642.265	498.03023
642.714	491.01821
643.163	548.11563
643.612	507.08563
644.061	575.06261
644.51	630.24618
644.958	617.17854
645.406	648.34708
645.855	716.50976
646.303	684.3816
646.751	669.31202
647.199	706.37525
647.647	744.4542
648.095	744.44871
648.543	750.29401
648.99	770.56123
649.438	803.59377
649.885	788.66027
650.333	784.25973
650.78	818.66471
651.227	816.67568
651.674	780.50236
652.121	809.66689
652.568	810.6641
653.015	863.84026
653.461	819.64144
653.908	834.63115
654.354	830.67231
654.801	833.63956
655.247	817.50486
655.693	757.70941
656.139	769.57872
656.585	763.57061
657.031	716.43906
657.477	769.40566
657.922	771.5131
658.368	742.5872
658.813	754.51066
659.259	710.48138
659.704	734.47528
660.149	741.48834
660.594	677.40901
661.039	711.40437
661.484	741.53622
661.929	662.36339
662.373	649.45169
662.818	665.45817
663.262	630.34682
663.707	657.47805
664.151	673.45219
664.595	677.43774
665.039	681.4983
665.483	678.52875
665.927	701.44802
666.371	578.1987
666.814	699.46775
667.258	652.36384
667.701	722.35451
668.145	717.57097
668.588	671.46084
669.031	646.3465
669.474	691.46814
669.917	738.4193
670.36	673.48254
670.803	748.5773
671.245	627.17395
671.688	685.48189
672.13	635.26518
672.573	716.60923
673.015	706.49451
673.457	714.35659
673.899	692.48526
674.341	727.54136
674.783	712.50197
675.225	701.52493
675.666	695.47409
676.108	706.34332
676.549	740.53653
676.991	722.39114
677.432	711.22819
677.873	723.46883
678.314	700.47857
678.755	719.54293
679.196	659.34229
679.637	700.51856
680.078	682.41849
680.518	681.41169
680.959	673.43606
681.399	674.49187
681.839	646.41082
682.28	609.35822
682.72	666.35504
683.16	680.51016
683.6	670.36071
684.039	635.179
684.479	616.36507
684.919	557.16768
685.358	646.47727
685.798	664.56456
686.237	666.44167
686.676	691.42479
687.115	663.39146
687.554	649.3812
687.993	650.28341
688.432	598.23582
688.871	554.14629
689.309	586.27154
689.748	657.22053
690.186	637.37032
690.625	638.34217
691.063	660.4165
691.501	655.4549
691.939	646.44942
692.377	634.39334
692.815	608.31486
693.253	681.46194
693.69	690.34021
694.128	639.39169
694.565	664.41714
695.003	627.44038
695.44	678.41892
695.877	639.33867
696.314	706.33681
696.751	698.41185
697.188	726.46655
697.625	749.50927
698.061	669.4343
698.498	671.45405
698.934	700.49857
699.371	681.42614
699.807	717.49964
700.243	726.54291
700.679	752.48929
701.115	761.5714
701.551	798.6328
701.987	788.5367
702.422	747.55763
702.858	787.63313
703.294	754.49326
703.729	831.76051
704.164	820.70885
704.599	799.5357
705.035	733.43639
705.47	765.63045
705.904	814.63704
706.339	876.73925
706.774	853.71123
707.209	826.63758
707.643	880.80561
708.078	910.88314
708.512	915.94698
708.946	936.89388
709.38	968.91767
709.814	987.86859
710.248	1007.04119
710.682	973.93162
711.116	945.89078
711.549	1051.25501
711.983	961.85113
712.416	1062.05284
712.85	1105.24931
713.283	1102.1101
713.716	1155.34911
714.149	1154.20463
714.582	1163.06051
715.015	1170.36195
715.448	1144.33983
715.881	1210.05642
716.313	1229.25431
716.746	1238.2771
717.178	1268.37655
717.61	1341.64197
718.043	1340.5842
718.475	1352.50975
718.907	1391.70631
719.339	1375.32781
719.77	1423.51814
720.202	1465.79173
720.634	1454.6401
721.065	1445.54675
721.497	1592.82384
721.928	1517.74462
722.359	1524.68463
722.79	1581.72183
723.221	1662.00186
723.652	1757.2086
724.083	1695.61334
724.514	1697.68474
724.945	1743.8067
725.375	1807.80273
725.806	1872.1711
726.236	1905.31738
726.666	1877.94452
727.096	1937.14449
727.526	1988.3411
727.956	2058.88377
728.386	2062.25206
728.816	2073.38666
729.246	2096.20453
729.675	2114.27737
730.105	2199.33695
730.534	2200.08921
730.964	2336.55653
731.393	2395.49269
731.822	2400.64359
732.251	2438.62395
732.68	2514.249
733.109	2536.49317
733.537	2638.40538
733.966	2687.58216
734.395	2700.17024
734.823	2831.05901
735.251	2846.42617
735.68	2896.68332
736.108	2971.75345
736.536	2993.31007
736.964	2966.20911
737.392	3100.68537
737.82	3183.40684
738.247	3179.39448
738.675	3280.37207
739.102	3237.66326
739.53	3293.79396
739.957	3425.85944
740.384	3518.5472
740.811	3550.73392
741.238	3609.43673
741.665	3657.06567
742.092	3773.23762
742.519	3783.47999
742.945	3861.2362
743.372	4015.40342
743.798	4103.67138
744.225	4117.05596
744.651	4161.44854
745.077	4269.3484
745.503	4409.11101
745.929	4338.01596
746.355	4503.22326
746.781	4482.19446
747.207	4461.7743
747.632	4619.97821
748.058	4776.09171
748.483	4809.45759
748.908	5023.91495
749.334	4991.84047
749.759	5132.44288
750.184	5101.53202
750.609	5164.74845
751.033	5350.35188
751.458	5409.9499
751.883	5499.63015
752.307	5471.24307
752.732	5454.70386
753.156	5700.49149
753.58	5776.16439
754.005	5865.63833
754.429	5972.99579
754.853	5937.39882
755.277	6030.02372
755.7	6147.32475
756.124	6224.29265
756.548	6302.93558
756.971	6319.14611
757.394	6381.53863
757.818	6507.48624
758.241	6575.35538
758.664	6607.31094
759.087	6682.49608
759.51	6831.16879
759.933	6914.93343
760.356	6911.37461
760.778	7011.07476
761.201	6943.01003
761.623	7009.99553
762.046	7104.86893
762.468	7190.95201
762.89	7213.11715
763.312	7313.06557
763.734	7228.96281
764.156	7263.12169
764.578	7268.72961
765	7380.07408
765.421	7341.30618
765.843	7475.55468
766.264	7367.01742
766.686	7432.26232
767.107	7465.05684
767.528	7486.29664
767.949	7651.40058
768.37	7472.13073
768.791	7576.09095
769.212	7402.24388
769.632	7337.80159
770.053	7486.58404
770.473	7612.13058
770.894	7556.27661
771.314	7586.03008
771.734	7360.81293
772.154	7506.41606
772.575	7582.87924
772.994	7522.75334
773.414	7512.02462
773.834	7465.23382
774.254	7564.14269
774.673	7523.1022
775.093	7277.12627
775.512	7351.11251
775.931	7318.29054
776.351	7271.14659
776.77	7206.03794
777.189	7226.88349
777.607	7120.32232
778.026	7175.1543
778.445	7072.17354
778.864	7058.35658
779.282	6911.92114
779.701	7025.2296
780.119	6830.25696
780.537	6841.1651
780.955	6756.32518
781.373	6584.14451
781.791	6574.52267
782.209	6648.67034
782.627	6560.64698
783.045	6519.66952
783.462	6430.43125
783.88	6414.53626
784.297	6259.36418
784.715	6270.52238
785.132	6209.08984
785.549	5894.46946
785.966	5984.47334
786.383	5994.29103
786.8	5818.94829
787.217	5632.1785
787.633	5548.61921
788.05	5558.23908
788.466	5618.1535
788.883	5504.82587
789.299	5343.44809
789.715	5247.57354
790.131	5157.80791
790.547	5140.85471
790.963	5013.8742
791.379	5074.99198
791.795	4932.28008
792.21	4944.44555
792.626	4660.71554
793.041	4585.06396
793.457	4593.07184
793.872	4590.68339
794.287	4405.88933
794.702	4398.1497
795.117	4272.27185
795.532	4206.37153
795.947	4158.08625
796.362	4072.06789
796.776	4060.93544
797.191	3917.3117
797.605	3726.0742
798.02	3752.3262
798.434	3678.75133
798.848	3572.46576
799.262	3585.51492
799.676	3452.43109
800.09	3359.50439
800.504	3334.41332
800.918	3175.13263
801.331	3262.98474
801.745	3148.08421
802.158	2982.63074
802.572	2946.43562
802.985	2870.40939
803.398	2753.31307
803.811	2822.80052
804.224	2682.5581
804.637	2683.29347
805.05	2593.12717
805.462	2539.43975
805.875	2418.70117
806.288	2324.25214
806.7	2330.47986
807.112	2263.03029
807.525	2238.33351
807.937	2143.28433
808.349	2093.3212
808.761	2016.17842
809.173	1999.09534
809.584	1962.16195
809.996	1870.04365
810.408	1880.29464
810.819	1775.79843
811.231	1769.19223
811.642	1681.76934
812.053	1661.74209
812.464	1652.7338
812.875	1681.05389
813.286	1639.03819
813.697	1576.6042
814.108	1487.66711
814.519	1445.31643
814.929	1365.66935
815.34	1312.43286
815.75	1285.54558
816.16	1272.46676
816.571	1238.55046
816.981	1181.18544
817.391	1193.26347
817.801	1152.28538
818.211	1069.05609
818.62	1038.03401
819.03	1091.15964
819.44	1021.2196
819.849	986.06699
820.259	1026.17356
820.668	923.90624
821.077	883.86098
821.486	881.79264
821.895	881.84784
822.304	845.9383
822.713	819.65277
823.122	774.67993
823.531	765.56767
823.939	696.49385
824.348	739.56818
824.756	721.58903
825.164	732.61833
825.573	638.43263
825.981	655.44707
826.389	667.49138
826.797	614.38263
827.205	616.25715
827.612	607.3465
828.02	501.07507
828.428	549.27559
828.835	514.24636
829.243	519.12811
829.65	493.1277
830.057	549.2096
830.464	493.10327
830.871	487.071
831.278	435.9785
831.685	435.89809
832.092	446.01286
832.499	417.84586
832.905	402.95648
833.312	380.81287
833.718	382.89703
834.124	355.76482
834.531	355.84841
834.937	344.83952
835.343	342.78241
835.749	379.83158
836.155	330.82451
836.561	275.65022
836.966	256.60402
837.372	319.77519
837.777	270.64741
838.183	287.60957
838.588	297.70603
838.993	285.66551
839.399	232.54952
839.804	227.53633
840.209	213.5277
840.613	223.48025
841.018	204.50365
841.423	209.52233
841.828	180.44571
842.232	240.57549
842.637	212.48601
843.041	164.41277
843.445	181.44433
843.849	170.41261
844.253	208.48086
844.657	175.43166
845.061	166.36909
845.465	149.3541
845.869	174.3957
846.272	157.37555
846.676	161.38232
847.079	147.36806
847.483	169.41349
847.886	140.33584
848.289	136.35825
848.692	127.31787
849.095	130.30829
849.498	177.43948
849.901	115.26116
850.304	122.28831
850.707	120.30279
851.109	108.27105
851.512	108.26312
851.914	80.20085
852.316	98.24622
852.718	61.1574
853.121	111.26947
853.523	82.19093
853.925	92.23858
854.326	50.12522
854.728	76.19484
855.13	80.20553
855.531	84.19982
855.933	120.28491
856.334	35.08764
856.736	30.06764
857.137	72.16705
857.538	16.04053
857.939	47.11636
858.34	68.16548
858.741	107.27734
859.142	73.17495
859.542	68.17907
859.943	83.20534
860.343	27.06724
860.744	112.27062
861.144	71.17282
861.544	0
861.945	48.12254
862.345	61.14914
862.745	52.12938
863.145	109.25814
863.544	66.16654
863.944	45.10661
864.344	94.232
864.743	87.21476
865.143	68.17434
865.542	15.0351
865.941	73.1802
866.34	62.14845
866.74	79.21122
867.139	17.04102
867.537	52.13262
867.936	62.14913
868.335	40.10208
868.734	43.11015
869.132	34.07939
869.531	50.12113
869.929	34.07789
870.327	3.00727
870.726	56.13969
871.124	47.1101
871.522	47.11993
871.92	49.12105
872.318	29.07127
872.715	58.14357
873.113	-8.01973
873.511	38.09499
873.908	-37.09494
874.306	52.12943
874.703	83.20669
875.1	62.15845
875.497	26.0627
875.894	-27.06717
876.291	30.07399
876.688	41.10601
877.085	3.00727
877.482	57.14267
877.878	16.03881
878.275	1.00257
878.671	40.08942
879.068	63.15191
879.464	-11.02692
879.86	-10.02395
880.256	10.02489
880.652	-8.02057
881.048	54.13387
881.444	26.06225
881.84	20.05115
882.236	37.09334
882.631	10.02475
883.027	8.01955
883.422	4.01032
883.817	-50.12801
884.213	12.03102
884.608	-34.08475
885.003	19.04613
885.398	-16.04056
885.793	23.05807
886.188	-16.04029
886.582	62.15884
886.977	16.03827
887.371	8.0204
887.766	-17.04283
888.16	-21.05313
888.554	31.077
888.949	-2.00507
889.343	5.01233
889.737	-15.04042
890.131	9.02276
890.525	31.0796
890.918	-1.00254
891.312	22.05298
891.706	-16.04248
892.099	38.09698
892.492	9.01962
892.886	-38.09458
893.279	-11.02834
893.672	5.01284
894.065	-8.02026
894.458	-16.04075
894.851	40.09829
895.244	-16.04136
895.637	22.05332
896.029	-11.02722
896.422	48.11742
896.814	24.06
897.206	20.04794
897.599	43.10658
897.991	-29.07122
898.383	-32.07688
898.775	7.01595
899.167	-14.03309
899.559	70.17669
899.951	37.08753
900.342	29.07408
900.734	-91.23171
901.125	39.10258
901.517	3.00743
901.908	28.06748
902.299	-26.0645
902.69	-11.02628
903.082	38.0923
903.473	-30.07298
903.863	49.12512
904.254	-41.09695
904.645	26.065
905.036	-34.08367
905.426	72.16427
905.817	-4.00992
906.207	-39.09457
906.597	-42.10006
906.987	8.0209
907.378	52.13154
907.768	26.06905
908.158	21.05152
908.547	-5.01304
908.937	46.11818
909.327	17.04156
909.717	75.18968
910.106	-10.02431
910.495	46.11499
910.885	19.04841
911.274	-4.0101
911.663	50.12697
912.052	50.12345
912.441	10.02562
912.83	7.01622
913.219	23.0605
913.608	39.09578
913.997	-43.10964
914.385	16.0385
914.774	34.08308
915.162	9.02163
915.55	38.0922
915.939	16.04065
916.327	3.00755
916.715	-13.03351
917.103	35.08643
917.491	16.03985
917.878	32.07898
918.266	7.01829
918.654	25.06417
919.041	-30.0794
919.429	-8.0191
919.816	-12.03077
920.203	-33.08131
920.591	13.03247
920.978	1.00247
921.365	4.01058
921.752	-1.00241
922.139	-5.01099
922.525	-25.06092
922.912	35.08564
923.299	-7.01758
923.685	17.04461
924.072	38.08789
924.458	23.05728
924.844	22.05474
925.231	10.02347
925.617	-18.04634
926.003	4.01031
926.389	15.03809
926.774	4.01022
927.16	12.03002
927.546	-17.04391
927.931	19.04769
928.317	2.00465
928.702	9.02147
929.088	-19.04555
929.473	-13.03345
929.858	-50.12318
930.243	-29.07067
930.628	-17.04189
931.013	5.0125
931.398	67.15363
931.783	42.11075
932.167	-20.04954
932.552	13.0328
932.937	-14.03516
933.321	-4.01014
933.705	52.13107
934.09	70.17631
934.474	42.09995
934.858	1.00262
935.242	0
935.626	12.03093
936.009	9.0241
936.393	13.0333
936.777	28.07199
937.16	1.00262
937.544	46.1085
937.927	1.00256
938.311	48.11725
938.694	51.13487
939.077	-7.01694
939.46	49.12038
939.843	41.08575
940.226	-9.02333
940.609	-1.00232
940.991	11.0282
941.374	8.01971
941.757	28.06939
942.139	6.0136
942.522	37.0877
942.904	21.05077
943.286	17.04345
943.668	21.05468
944.05	-7.01743
944.432	51.12585
944.814	14.03472
945.196	-7.01724
945.578	-42.1016
945.959	36.08462
946.341	55.13492
946.722	20.04723
947.104	6.01446
947.485	-14.033
947.866	-19.04846
948.247	7.0178
948.628	67.16296
949.009	32.08221
949.39	-1.00251
949.771	12.02813
950.152	-6.01488
950.532	-80.2015
950.913	27.06542
951.293	-12.03274
951.674	-8.01956
952.054	2.005
952.434	17.04246
952.814	24.0574
953.194	71.18517
953.574	27.0668
953.954	-37.08935
954.334	15.03763
954.714	-32.07918
955.093	20.04945
955.473	-16.04049
955.853	6.01565
956.232	22.06057
956.611	22.05306
956.99	-16.04069
957.37	41.10465
957.749	17.04082
958.128	2.00508
958.506	-32.08418
958.885	17.04316
959.264	-28.06961
959.643	20.0458
960.021	11.02745
960.4	-34.07839
960.778	48.11829
961.156	-16.04059
961.535	15.03521
961.913	53.12397
962.291	-37.09637
962.669	17.04332
963.047	24.06153
963.424	-29.07504
963.802	1.00248
964.18	28.07113
964.557	39.09004
964.935	5.01195
965.312	1.00263
965.69	37.09288
966.067	8.01964
966.444	-1.00249
966.821	-3.00781
967.198	39.09482
967.575	36.08875
967.952	11.02612
968.329	10.02452
968.705	-8.01737
969.082	2.00517
969.458	-31.07551
969.835	31.07574
970.211	-27.07022
970.587	44.10967
970.963	12.03099
971.339	14.03678
971.715	-3.00756
972.091	19.04706
972.467	27.06763
972.843	-14.03515
973.219	43.10341
973.594	15.03947
973.97	53.1261
974.345	-13.03149
974.721	39.09464
975.096	-1.00244
975.471	-10.024
975.846	15.03628
976.221	-4.01026
976.596	-19.04614
976.971	20.04965
977.346	6.01409
977.72	-3.00771
978.095	-7.01827
978.469	18.04323
978.844	31.07821
979.218	-48.1172
979.593	34.08172
979.967	-14.03452
980.341	3.00697
980.715	3.00762
981.089	-1.00253
981.463	-9.02091
981.837	6.01478
982.21	14.03282
982.584	-21.0514
982.957	-21.05311
983.331	-1.00239
983.704	14.03463
984.078	16.03968
984.451	70.17423
984.824	-9.02216
985.197	51.12386
985.57	35.08802
985.943	34.08422
986.316	34.08379
986.688	34.08225
987.061	17.04011
987.434	3.00788
987.806	51.12367
988.179	34.08048
988.551	70.17694
988.923	18.04459
989.295	52.1299
989.667	-26.06301
990.039	11.02737
990.411	3.00697
990.783	-3.00698
991.155	-41.10021
991.527	54.13289
991.898	-20.05047
992.27	-15.03754
992.641	57.14282
993.012	29.06852
993.384	4.00962
993.755	17.04359
994.126	-20.04874
994.497	-5.0124
994.868	2.00464
995.239	14.03416
995.61	38.09582
995.98	-4.00981
996.351	27.06714
996.722	-13.03053
997.092	-16.03837
997.462	-44.10467
997.833	53.12557
998.203	14.03417
998.573	0
998.943	1.00237
999.313	25.06019
999.683	15.03624
1000.053	20.04629
1000.423	37.09013
1000.792	50.12958
1001.162	-17.04235
1001.531	39.09634
1001.901	-30.07586
1002.27	28.06288
1002.639	27.06926
1003.009	-5.01202
1003.378	37.09481
1003.747	26.06171
1004.116	-24.05823
1004.485	11.02648
1004.853	64.16172
1005.222	9.02286
1005.591	49.11636
1005.959	-35.08022
1006.328	-3.00682
1006.696	1.00243
1007.064	19.04805
1007.433	21.05275
1007.801	19.0469
1008.169	6.01527
1008.537	9.0201
1008.905	3.00705
1009.273	5.01245
1009.64	-43.10439
1010.008	51.12153
1010.375	60.14541
1010.743	56.12916
1011.11	-29.06966
1011.478	34.08438
1011.845	15.03551
1012.212	1.00229
1012.579	-8.01985
1012.946	33.07879
1013.313	59.14016
1013.68	-8.01819
1014.047	-53.12876
1014.414	2.00477
1014.78	6.01503
1015.147	57.13765
1015.513	-2.00487
1015.88	42.10753
1016.246	57.1405
1016.612	18.04147
1016.978	16.03945
1017.344	37.09164
1017.71	20.04904
1018.076	-7.01669
1018.442	37.09537
1018.808	-12.03032
1019.174	-30.07632
1019.539	91.20774
1019.905	-34.08147
1020.27	2.00498
1020.636	46.11035
1021.001	31.07447
1021.366	-22.05354
1021.731	8.02072
1022.096	-19.0485
1022.461	-7.01674
1022.826	-5.01201
1023.191	35.09203
1023.556	-11.02608
1023.92	12.0297
1024.285	11.02703
1024.649	-5.01237
1025.014	20.0498
1025.378	27.06814
1025.742	24.05987
1026.107	40.09064
1026.471	15.03525
1026.835	26.06471
1027.199	-24.05856
1027.562	-4.00939
1027.926	1.00247
1028.29	14.03564
1028.654	18.04166
1029.017	36.08869
1029.381	-40.09716
1029.744	13.03336
1030.107	12.02859
1030.471	19.04574
1030.834	5.01147
1031.197	60.14421
1031.56	40.09453
1031.923	5.01302
1032.286	42.09876
1032.648	27.06483
1033.011	-16.0372
1033.374	44.1035
1033.736	-47.12554
1034.099	-12.02957
1034.461	-3.00765
1034.823	-28.07068
1035.185	24.06067
1035.548	4.00981
1035.91	18.04336
1036.272	-5.0115
1036.634	37.0907
1036.995	-11.02615
1037.357	-25.06165
1037.719	-6.01474
1038.08	30.07147
1038.442	7.01674
1038.803	7.01694
1039.165	10.0254
1039.526	33.07996
1039.887	7.01688
1040.248	-12.02989
1040.609	30.07437
1040.97	-11.02717
1041.331	10.02549
1041.692	-10.02361
1042.053	29.06628
1042.413	2.0047
1042.774	12.02938
1043.134	26.06216
1043.495	26.06561
1043.855	5.01222
1044.215	44.10927
1044.576	-28.06791
1044.936	17.03922
1045.296	55.13707
1045.656	10.02471
1046.016	44.10628
1046.375	-19.04666
1046.735	-34.07835
1047.095	35.08212
1047.454	57.12054
1047.814	3.00727
1048.173	60.143
1048.533	-11.0255
1048.892	-6.01455
1049.251	60.15026
1049.61	12.02974
1049.969	32.07565
1050.328	7.01531
1050.687	2.00491
1051.046	10.02452
1051.405	30.07486
1051.763	-26.06066
1052.122	-17.04289
1052.48	22.0542
1052.839	-37.08847
1053.197	20.04732
1053.555	66.14991
1053.914	2.00493
1054.272	7.01705
1054.63	-9.02223
1054.988	-49.11855
1055.345	12.02604
1055.703	39.094
1056.061	-22.05727
1056.419	23.05978
1056.776	15.03659
1057.134	2.00467
1057.491	36.09032
1057.848	49.12194
1058.206	12.02841
1058.563	-23.05145
1058.92	37.08546
1059.277	30.07423
1059.634	12.02843
1059.991	-11.02664
1060.348	-38.08736
1060.704	-8.01926
1061.061	50.1161
1061.418	-2.00489
1061.774	17.0422
1062.131	-20.05347
1062.487	-26.06166
1062.843	15.03761
1063.199	35.08722
1063.555	-16.03753
1063.911	15.0381
1064.267	36.07528
1064.623	-27.06648
1064.979	8.0191
1065.335	10.02407
1065.691	-18.04367
1066.046	16.03541
1066.402	-10.02298
1066.757	27.06838
1067.112	9.02224
1067.468	-60.14459
1067.823	17.0411
1068.178	43.10408
1068.533	-12.02941
1068.888	53.12649
1069.243	36.08902
1069.598	-14.0344
1069.952	-60.13805
1070.307	3.00748
1070.662	-1.0024
1071.016	0
1071.371	-41.09492
1071.725	10.02409
1072.079	8.01938
1072.434	-22.05414
1072.788	11.02637
1073.142	55.13507
1073.496	-46.11106
1073.85	31.07211
1074.203	19.04633
1074.557	-6.01609
1074.911	47.11217
1075.265	42.09772
1075.618	-12.02962
1075.971	12.02873
1076.325	-5.01282
1076.678	-21.04868
1077.031	-20.04587
1077.385	3.00667
1077.738	14.03181
1078.091	-39.09022
1078.444	31.0722
1078.796	20.04931
1079.149	16.04001
1079.502	-6.01432
1079.855	-22.05199
1080.207	14.03469
1080.56	-1.00261
1080.912	29.07082
1081.264	39.09404
1081.617	18.0441
1081.969	-27.06899
1082.321	5.0123
1082.673	-43.09991
1083.025	-4.00958
1083.377	26.05605
1083.728	25.05857
1084.08	-28.07083
1084.432	4.00972
1084.783	23.05413
1085.135	12.03026
1085.486	-40.0931
1085.838	12.02974
1086.189	1.00245
1086.54	35.08375
1086.891	-18.04603
1087.242	6.01472
1087.593	65.15768
1087.944	-14.03207
1088.295	26.05934
1088.646	-4.00979
1088.996	-4.00973
1089.347	-1.00247
1089.698	-52.12522
1090.048	23.05996
1090.398	-34.0801
1090.749	4.00965
1091.099	-36.09184
1091.449	35.08735
1091.799	-11.02782
1092.149	-56.13913
1092.499	0
1092.849	-31.07985
1093.199	36.09038
1093.548	9.02178
1093.898	-8.02021
1094.248	64.16391
1094.597	-67.17438
1094.947	-6.01614
1095.296	9.02237
1095.645	29.07563
1095.994	-8.01941
1096.343	21.05307
1096.692	-45.12
1097.041	-7.01911
1097.39	-3.00759
1097.739	3.00785
1098.088	29.0779
1098.437	-29.07713
1098.785	44.11863
1099.134	30.07985
1099.482	33.09092
1099.83	26.06854
1100.179	-9.02369
1100.527	14.03739
1100.875	-7.01867
1101.223	-2.00535
1101.571	16.04441
1101.919	-46.12204
1102.267	19.0537
1102.615	-15.04834
1102.962	10.0322
1103.31	-9.02897
1103.658	7.02256
