Data from N2 R8 sample 4_Subt2__0__17-44-48-391.txt Node

Date: Fri Aug 29 17:44:48 PDT 2025
User: uwsun
Spectrometer: HDX01956
Trigger mode: 0
Integration Time (sec): 5.000000E-1
Scans to average: 1
Nonlinearity correction enabled: true
Boxcar width: 0
Storing dark spectrum: false
XAxis mode: Wavelengths
Number of Pixels in Spectrum: 2068
>>>>>Begin Spectral Data<<<<<
194.03	44.12266
194.578	64.2008
195.127	60.18555
195.676	49.15221
196.225	83.21713
196.773	75.20317
197.321	93.24577
197.87	148.35625
198.418	125.29821
198.966	105.25299
199.513	22.05129
200.061	83.19444
200.609	146.35782
201.156	91.18265
201.704	59.13805
202.251	67.16509
202.798	123.29411
203.345	147.33423
203.892	123.28487
204.438	155.33912
204.985	93.20184
205.532	92.22389
206.078	120.27102
206.624	110.24803
207.17	108.23124
207.716	136.30138
208.262	118.2136
208.808	65.14743
209.354	65.14647
209.899	140.32662
210.445	109.24823
210.99	87.193
211.535	166.35589
212.08	189.39845
212.625	138.31739
213.17	174.40258
213.715	106.21467
214.259	173.36697
214.804	179.40385
215.348	146.30584
215.892	130.28664
216.436	177.37447
216.98	150.30448
217.524	128.27774
218.068	166.38285
218.612	160.3699
219.155	125.27071
219.698	154.33614
220.242	161.36962
220.785	100.21698
221.328	145.33302
221.871	147.3449
222.414	145.33382
222.956	79.17664
223.499	91.19042
224.041	135.29149
224.583	108.21772
225.126	89.1826
225.668	136.30439
226.21	98.22881
226.751	76.1542
227.293	95.20231
227.835	102.23074
228.376	118.2532
228.918	142.33167
229.459	66.15307
230	77.17081
230.541	182.38294
231.082	92.2071
231.622	100.21421
232.163	123.27445
232.704	122.27868
233.244	93.21402
233.784	139.31502
234.324	71.14396
234.864	102.21386
235.404	106.23402
235.944	159.34581
236.484	110.25471
237.023	73.16025
237.563	69.14809
238.102	153.33078
238.641	112.26181
239.18	41.08925
239.719	109.25295
240.258	94.19578
240.797	125.27418
241.335	132.29739
241.874	56.09997
242.412	104.23018
242.95	103.22573
243.488	121.25364
244.026	134.28182
244.564	123.23171
245.102	103.21237
245.64	118.26236
246.177	103.21256
246.715	156.34224
247.252	144.30245
247.789	196.33311
248.326	103.22611
248.863	102.20478
249.4	106.22146
249.936	102.19219
250.473	79.16962
251.009	111.23206
251.546	125.25089
252.082	112.22444
252.618	89.18169
253.154	111.24347
253.69	95.19623
254.226	113.24639
254.761	104.21362
255.297	81.16258
255.832	64.13958
256.367	63.13696
256.903	140.27795
257.438	155.33008
257.972	109.22141
258.507	86.17951
259.042	83.16513
259.576	63.12376
260.111	137.28768
260.645	141.2762
261.179	112.23721
261.713	38.07798
262.247	107.22499
262.781	103.19546
263.315	79.17678
263.849	127.28771
264.382	151.31344
264.915	117.24753
265.449	81.17857
265.982	152.31164
266.515	118.26062
267.048	105.20081
267.58	162.31847
268.113	121.23501
268.646	79.17766
269.178	68.13809
269.71	110.21747
270.243	150.30782
270.775	158.36077
271.307	144.31312
271.838	155.33237
272.37	139.30758
272.902	157.31978
273.433	134.26243
273.965	139.30398
274.496	158.3532
275.027	130.29001
275.558	118.25757
276.089	72.15956
276.62	127.29226
277.15	150.33254
277.681	131.2554
278.211	167.36614
278.741	109.21443
279.272	119.24271
279.802	92.20804
280.332	108.22814
280.861	146.31341
281.391	102.20705
281.921	170.3643
282.45	158.35247
282.98	131.3064
283.509	136.27165
284.038	115.23381
284.567	133.27781
285.096	107.23173
285.625	132.26549
286.153	125.25982
286.682	128.25911
287.21	107.22935
287.739	146.30449
288.267	98.21119
288.795	163.38065
289.323	53.11075
289.851	130.26931
290.378	126.24945
290.906	117.24927
291.433	141.31018
291.961	105.20948
292.488	155.33897
293.015	116.23966
293.542	134.29757
294.069	133.28643
294.596	138.30097
295.122	123.2576
295.649	122.23587
296.175	139.29588
296.702	168.35519
297.228	144.30685
297.754	117.2293
298.28	90.17893
298.806	126.26371
299.332	93.1789
299.857	141.2745
300.383	173.38057
300.908	121.2533
301.433	141.2953
301.958	171.34052
302.483	107.23163
303.008	127.27327
303.533	182.40936
304.058	202.40629
304.582	120.24325
305.107	102.23055
305.631	146.28634
306.155	152.30036
306.679	138.27398
307.203	155.30464
307.727	139.28131
308.251	194.40513
308.775	121.24286
309.298	124.25101
309.822	156.33445
310.345	178.35356
310.868	152.30558
311.391	208.42819
311.914	137.28946
312.437	183.34847
312.96	130.25665
313.482	133.26374
314.005	174.36385
314.527	108.23953
315.049	179.3777
315.571	126.2296
316.093	193.39239
316.615	171.33767
317.137	186.32674
317.659	220.43575
318.18	210.41264
318.702	193.36179
319.223	209.33862
319.744	171.3071
320.265	150.29307
320.786	183.36103
321.307	239.47017
321.828	209.37168
322.348	187.3476
322.869	218.39907
323.389	177.21653
323.909	279.48949
324.43	237.44844
324.95	218.38215
325.47	212.40104
325.989	174.31562
326.509	130.21819
327.029	218.3659
327.548	206.34405
328.067	204.36835
328.587	215.40582
329.106	195.32899
329.625	271.54218
330.144	182.31016
330.662	169.28792
331.181	281.47076
331.7	217.36851
332.218	208.31983
332.736	281.46431
333.255	215.35583
333.773	272.45081
334.291	329.57783
334.808	240.36687
335.326	229.35619
335.844	213.33693
336.361	177.31297
336.879	271.41882
337.396	246.39802
337.913	272.40864
338.43	290.4184
338.947	231.36309
339.464	223.30201
339.981	239.36523
340.497	236.38335
341.014	228.35952
341.53	242.33868
342.046	251.39019
342.562	262.41792
343.078	271.39281
343.594	305.44458
344.11	288.41655
344.626	326.49897
345.141	273.36659
345.657	329.43511
346.172	254.36736
346.687	286.37783
347.202	328.409
347.717	329.44741
348.232	302.44062
348.747	280.35997
349.261	282.32282
349.776	347.44326
350.29	230.31859
350.805	389.52837
351.319	374.45821
351.833	335.38659
352.347	383.46271
352.861	331.39665
353.374	342.40791
353.888	338.42743
354.401	315.36595
354.915	290.31475
355.428	324.41228
355.941	296.3386
356.454	443.46427
356.967	372.42725
357.48	315.35152
357.993	336.41073
358.505	325.38549
359.018	410.47095
359.53	370.41058
360.042	467.43765
360.554	413.45713
361.066	328.36985
361.578	335.31094
362.09	361.38496
362.602	394.35164
363.113	383.37347
363.625	407.36512
364.136	373.32627
364.647	275.2561
365.158	474.42247
365.669	433.41291
366.18	414.38219
366.691	449.35361
367.201	438.39824
367.712	400.32569
368.222	397.32212
368.733	374.2619
369.243	410.28559
369.753	565.40239
370.263	547.41282
370.773	520.41792
371.282	422.31092
371.792	378.22996
372.301	492.32347
372.811	496.38819
373.32	453.1819
373.829	411.21784
374.338	488.18872
374.847	428.17283
375.356	513.19151
375.865	548.07748
376.373	531.09938
376.882	681.20193
377.39	571.12132
377.898	427.06929
378.407	567.98097
378.915	640.92193
379.423	602.94735
379.93	644.88116
380.438	631.86264
380.946	634.80969
381.453	678.75914
381.96	724.68542
382.468	547.72808
382.975	868.54932
383.482	1033.42996
383.989	899.51587
384.495	868.51477
385.002	869.5552
385.509	839.56846
386.015	1055.67027
386.521	1028.6705
387.028	1045.80057
387.534	1186.99414
388.04	1206.94249
388.546	980.22339
389.051	919.50486
389.557	1011.88985
390.063	1680.18308
390.568	1666.77616
391.073	1443.08847
391.578	1488.49852
392.084	1408.25173
392.589	975.59077
393.093	950.44008
393.598	1297.78977
394.103	1519.10581
394.607	1718.42921
395.112	1939.55149
395.616	2102.77452
396.12	1843.74903
396.624	2134.0282
397.128	2540.73807
397.632	3308.06237
398.136	3295.74955
398.639	1973.39995
399.143	845.14378
399.646	1749.00895
400.15	1804.79218
400.653	868.54071
401.156	-77.26541
401.659	-863.3005
402.162	-20.39213
402.664	0
403.167	0
403.67	0
404.172	0
404.674	0
405.176	0
405.678	0
406.18	0
406.682	0
407.184	0
407.686	0
408.187	0
408.688	0
409.19	0
409.691	0
410.192	0
410.693	0
411.194	435.30976
411.694	4082.94878
412.195	8864.71461
412.696	12089.80453
413.196	12760.96929
413.696	12484.63431
414.196	13292.80802
414.696	16932.94647
415.196	19589.81681
415.696	22108.07153
416.196	18493.60361
416.695	11805.08801
417.195	8046.49229
417.694	7529.05708
418.194	7212.53198
418.693	6232.84729
419.192	6094.44932
419.691	5938.89136
420.19	6116.14503
420.688	6132.15307
421.187	6072.36203
421.685	6195.71399
422.184	5798.01168
422.682	5009.48588
423.18	3684.98919
423.678	3111.15504
424.176	2589.3858
424.674	2482.49565
425.172	2687.22649
425.669	2662.4992
426.167	2633.47916
426.664	2212.31766
427.161	2016.71867
427.659	1803.3006
428.156	1694.34607
428.652	1540.18189
429.149	1339.26946
429.646	1393.24234
430.143	1356.29309
430.639	1130.448
431.135	1181.49905
431.632	1064.56529
432.128	921.72647
432.624	702.88627
433.12	573.85732
433.616	694.82449
434.111	544.92433
434.607	588.96199
435.103	661.9247
435.598	645.94547
436.093	607.08156
436.588	613.09566
437.083	601.13643
437.578	540.17441
438.073	396.18905
438.568	425.24052
439.062	378.14958
439.557	416.24748
440.051	314.18092
440.546	247.15397
441.04	277.20158
441.534	230.20398
442.028	311.24845
442.522	261.21414
443.015	269.18624
443.509	237.21852
444.002	239.22116
444.496	153.12104
444.989	215.20916
445.482	178.18222
445.975	175.14823
446.468	217.16823
446.961	232.1807
447.454	135.12545
447.947	136.13508
448.439	126.13768
448.931	137.12788
449.424	128.1526
449.916	130.14563
450.408	95.09407
450.9	138.15364
451.392	51.06359
451.884	112.12094
452.375	32.03946
452.867	111.12143
453.358	13.01433
453.849	50.05012
454.341	50.05549
454.832	13.01372
455.323	-41.05351
455.814	32.03826
456.304	76.09047
456.795	36.04333
457.285	98.1147
457.776	85.10532
458.266	6.00786
458.756	37.05007
459.247	-18.02409
459.737	-50.06817
460.226	33.04083
460.716	-38.05317
461.206	-28.03996
461.695	2.00305
462.185	-53.0759
462.674	5.0069
463.163	3.00396
463.653	-26.03236
464.142	-8.01189
464.63	32.04894
465.119	-19.02723
465.608	-67.09788
466.096	-37.05103
466.585	16.02369
467.073	38.05894
467.561	4.00633
468.05	25.03795
468.538	-38.06343
469.026	-78.1279
469.513	-48.06669
470.001	-44.06717
470.489	-101.16567
470.976	-49.07809
471.463	-60.10623
471.951	-47.08432
472.438	-69.1147
472.925	-147.24841
473.412	-38.06801
473.899	-41.06789
474.385	-63.11413
474.872	-85.14512
475.359	-98.17858
475.845	-71.10668
476.331	-41.06594
476.817	-29.05315
477.303	-69.12092
477.789	-110.20431
478.275	-200.39224
478.761	-115.21653
479.247	-99.17249
479.732	-113.2201
480.218	-75.15401
480.703	-96.1889
481.188	-120.20229
481.673	-127.23148
482.158	-176.29588
482.643	-85.17534
483.128	-182.33653
483.612	-124.2348
484.097	-118.23734
484.581	-90.17042
485.066	-92.18188
485.55	-181.32723
486.034	-160.2849
486.518	-142.27441
487.002	-160.32537
487.486	-133.27016
487.969	-127.25809
488.453	-136.29031
488.936	-140.26432
489.42	-121.2248
489.903	-126.27048
490.386	-76.10207
490.869	-111.20478
491.352	-115.24191
491.835	-156.27692
492.318	-193.37628
492.8	-123.21658
493.283	-132.28825
493.765	-184.39396
494.247	-107.21655
494.73	-117.22236
495.212	-94.19726
495.694	-154.31189
496.175	-201.41574
496.657	-71.14514
497.139	-104.15745
497.62	-260.54801
498.102	-203.44582
498.583	-150.33185
499.064	-197.38755
499.545	-119.2373
500.026	-188.37342
500.507	-202.41903
500.988	-153.33729
501.469	-162.35885
501.949	-138.30314
502.43	-212.4494
502.91	-201.37102
503.39	-143.31986
503.87	-202.42502
504.35	-169.35895
504.83	-199.3913
505.31	-192.41767
505.79	-182.38968
506.269	-183.38614
506.749	-193.39597
507.228	-193.40724
507.707	-228.45943
508.187	-124.2655
508.666	-279.62841
509.145	-219.46413
509.623	-212.45234
510.102	-192.42228
510.581	-162.35495
511.059	-228.52038
511.538	-163.38259
512.016	-177.38397
512.494	-198.4395
512.972	-151.32548
513.45	-223.46889
513.928	-223.49468
514.406	-247.54244
514.884	-194.45455
515.361	-194.42399
515.839	-184.38152
516.316	-220.4861
516.793	-168.38854
517.27	-158.34999
517.747	-201.47214
518.224	-203.43286
518.701	-215.4421
519.178	-220.5001
519.654	-192.42175
520.131	-249.57185
520.607	-182.41573
521.083	-221.46714
521.56	-249.54775
522.036	-198.40228
522.512	-171.3888
522.987	-200.43562
523.463	-198.4342
523.939	-157.35364
524.414	-156.33156
524.89	-208.45785
525.365	-251.53218
525.84	-258.56981
526.315	-226.50582
526.79	-196.40985
527.265	-231.49213
527.74	-198.44662
528.215	-232.51089
528.689	-226.46713
529.164	-204.41371
529.638	-213.51046
530.112	-221.48453
530.587	-204.40368
531.061	-236.53081
531.534	-172.38671
532.008	-189.42066
532.482	-200.42896
532.956	-256.61057
533.429	-159.35609
533.903	-239.49965
534.376	-214.44332
534.849	-212.46039
535.322	-210.46381
535.795	-215.49219
536.268	-244.55173
536.741	-202.45416
537.213	-198.42852
537.686	-250.57243
538.158	-245.51583
538.631	-208.47512
539.103	-247.52141
539.575	-191.37415
540.047	-197.406
540.519	-213.47898
540.991	-180.41183
541.463	-218.49615
541.934	-202.43325
542.406	-235.52672
542.877	-222.47183
543.348	-200.45316
543.82	-163.37241
544.291	-179.39129
544.762	-216.47945
545.233	-190.44291
545.703	-248.51766
546.174	-158.34049
546.645	-209.46305
547.115	-210.47175
547.585	-175.37364
548.056	-230.51477
548.526	-189.40948
548.996	-221.49575
549.466	-166.37475
549.935	-189.41035
550.405	-186.37462
550.875	-188.40879
551.344	-171.37633
551.814	-174.36707
552.283	-150.29905
552.752	-188.39922
553.221	-211.42018
553.69	-145.29184
554.159	-224.50341
554.628	-223.45669
555.096	-160.36695
555.565	-135.27234
556.033	-171.37048
556.502	-156.34685
556.97	-232.48298
557.438	-218.48429
557.906	-160.35368
558.374	-177.38037
558.842	-195.43761
559.31	-167.3513
559.777	-242.55389
560.245	-218.48812
560.712	-171.37396
561.18	-229.48278
561.647	-215.45824
562.114	-252.55051
562.581	-194.4533
563.048	-187.41051
563.514	-212.49341
563.981	-201.43975
564.448	-224.48271
564.914	-210.46865
565.381	-204.44566
565.847	-185.41346
566.313	-217.48538
566.779	-211.45734
567.245	-240.54158
567.711	-189.43111
568.176	-245.5308
568.642	-228.54588
569.108	-241.5683
569.573	-191.43075
570.038	-218.44372
570.504	-221.47492
570.969	-197.4696
571.434	-250.52902
571.899	-215.48883
572.363	-226.49455
572.828	-165.35932
573.293	-227.5002
573.757	-220.48447
574.222	-213.45378
574.686	-264.57037
575.15	-220.49848
575.614	-253.55889
576.078	-200.44597
576.542	-185.40098
577.006	-253.55024
577.469	-156.36509
577.933	-217.46371
578.396	-195.44156
578.86	-219.49409
579.323	-224.50939
579.786	-180.37072
580.249	-232.50682
580.712	-202.4707
581.175	-228.53733
581.637	-195.43095
582.1	-160.33561
582.563	-198.41091
583.025	-233.54111
583.487	-218.42613
583.95	-228.47211
584.412	-196.39749
584.874	-206.47737
585.336	-224.5096
585.797	-211.44014
586.259	-211.47915
586.721	-216.48623
587.182	-140.31193
587.643	-175.38061
588.105	-211.47993
588.566	-174.35304
589.027	-193.44254
589.488	-188.41157
589.949	-167.38523
590.41	-247.4708
590.87	-162.35436
591.331	-143.29564
591.791	-221.49126
592.252	-201.44012
592.712	-183.42046
593.172	-224.48789
593.632	-166.35004
594.092	-191.4101
594.552	-166.34296
595.011	-217.47897
595.471	-180.38673
595.931	-184.39396
596.39	-169.38472
596.849	-159.35257
597.308	-199.41843
597.768	-207.50212
598.227	-170.39067
598.685	-174.3843
599.144	-198.44462
599.603	-171.38691
600.062	-188.38005
600.52	-214.46017
600.978	-219.50054
601.437	-214.47383
601.895	-178.36313
602.353	-173.36889
602.811	-154.32631
603.269	-194.44457
603.727	-186.42538
604.184	-181.38963
604.642	-214.50238
605.099	-186.41321
605.557	-190.44256
606.014	-146.2988
606.471	-215.51073
606.928	-243.50351
607.385	-218.50397
607.842	-141.3051
608.299	-93.20339
608.755	-111.25074
609.212	-133.27916
609.668	-190.40065
610.125	-118.26846
610.581	-73.16349
611.037	-87.18849
611.493	-121.27233
611.949	-167.38339
612.405	-188.36627
612.861	-130.29312
613.316	-142.32306
613.772	-131.28758
614.227	-227.52029
614.683	-122.25194
615.138	-165.37105
615.593	-155.34613
616.048	-108.23674
616.503	-148.34976
616.958	-152.36449
617.412	-199.45776
617.867	-191.41098
618.321	-129.25988
618.776	-138.29637
619.23	-122.27554
619.684	-90.19578
620.138	-52.11548
620.592	-154.36281
621.046	-119.2709
621.5	-178.42228
621.954	-109.23918
622.407	-98.21228
622.861	-92.2154
623.314	-76.16765
623.768	-132.30043
624.221	-111.21589
624.674	-123.27728
625.127	-121.27701
625.58	-69.15351
626.033	-69.14924
626.485	-109.25455
626.938	-46.10601
627.39	-68.15421
627.843	-72.16288
628.295	-47.10583
628.747	-44.10168
629.199	-84.18801
629.651	-151.34249
630.103	-73.16443
630.555	-87.18326
631.006	15.03406
631.458	-90.20989
631.909	-10.02253
632.361	-61.14055
632.812	-26.05889
633.263	-33.07043
633.714	-37.07873
634.165	-11.02615
634.616	-18.04209
635.067	36.07835
635.518	54.12529
635.968	32.0635
636.419	32.06846
636.869	-9.02114
637.319	27.06124
637.769	16.03526
638.219	124.28599
638.669	24.05621
639.119	86.20395
639.569	67.15763
640.019	135.30172
640.468	85.18565
640.918	144.33476
641.367	113.24671
641.816	85.18628
642.265	110.24772
642.714	161.35908
643.163	187.41258
643.612	145.33529
644.061	149.30515
644.51	206.4485
644.958	189.39898
645.406	204.46654
645.855	225.52604
646.303	245.54529
646.751	237.51281
647.199	269.57906
647.647	261.56908
648.095	295.63639
648.543	288.55869
648.99	331.73911
649.438	341.75042
649.885	389.89223
650.333	298.54553
650.78	313.71075
651.227	372.8411
651.674	354.75235
652.121	322.73666
652.568	315.71993
653.015	378.89145
653.461	353.78432
653.908	338.73929
654.354	367.81881
654.801	312.68993
655.247	340.70181
655.693	352.86128
656.139	297.67524
656.585	345.77768
657.031	308.67795
657.477	308.62919
657.922	304.66297
658.368	348.8086
658.813	342.7512
659.259	347.78315
659.704	303.67017
660.149	295.65411
660.594	305.68809
661.039	340.73078
661.484	361.81274
661.929	283.63325
662.373	301.72241
662.818	251.59899
663.262	303.69446
663.707	294.71138
664.151	316.73484
664.595	276.63804
665.039	327.77375
665.483	280.68337
665.927	335.74959
666.371	252.56145
666.814	350.79233
667.258	250.57013
667.701	324.66819
668.145	348.82263
668.588	267.6318
669.031	307.68893
669.474	271.62909
669.917	337.71139
670.36	356.8373
670.803	356.81607
671.245	280.56992
671.688	343.79714
672.13	269.58229
672.573	354.85555
673.015	313.72025
673.457	349.72281
673.899	354.81604
674.341	336.77394
674.783	306.70372
675.225	349.81684
675.666	286.66141
676.108	302.63177
676.549	388.86976
676.991	338.71209
677.432	338.64254
677.873	324.71885
678.314	337.76927
678.755	344.79868
679.196	319.70084
679.637	378.87725
680.078	348.77851
680.518	352.78421
680.959	319.73376
681.399	352.8324
681.839	340.79157
682.28	327.77285
682.72	281.62255
683.16	310.74217
683.6	350.7636
684.039	274.55517
684.479	299.70723
684.919	299.66353
685.358	369.89195
685.798	360.89943
686.237	319.74255
686.676	382.84328
687.115	359.80493
687.554	379.855
687.993	370.7795
688.432	334.73209
688.871	315.68768
689.309	369.8389
689.748	355.7099
690.186	363.82794
690.625	347.77771
691.063	318.73365
691.501	391.91726
691.939	366.86951
692.377	347.80962
692.815	362.82516
693.253	383.87601
693.69	351.73769
694.128	390.89542
694.565	399.90158
695.003	433.03256
695.44	386.86101
695.877	377.83659
696.314	397.80934
696.751	454.97072
697.188	455.97728
697.625	486.03767
698.061	412.93341
698.498	481.08388
698.934	493.10191
699.371	432.95562
699.807	466.02796
700.243	497.10812
700.679	478.00643
701.115	545.17919
701.551	507.10479
701.987	528.0924
702.422	509.11666
702.858	543.18737
703.294	576.18763
703.729	534.20375
704.164	537.18856
704.599	546.11256
705.035	523.07503
705.47	579.28325
705.904	541.15556
706.339	625.31277
706.774	627.32276
707.209	581.217
707.643	593.29467
708.078	655.432
708.512	650.46199
708.946	655.40969
709.38	660.40068
709.814	717.44603
710.248	758.62425
710.682	732.53408
711.116	686.45403
711.549	769.7506
711.983	742.50371
712.416	821.67877
712.85	774.69417
713.283	793.6317
713.716	915.96296
714.149	918.85404
714.582	865.6508
715.015	921.96568
715.448	948.0238
715.881	954.73277
716.313	928.83065
716.746	932.84542
717.178	960.93541
717.61	1042.19505
718.043	1038.14468
718.475	1007.0273
718.907	1121.31896
719.339	1089.98507
719.77	1077.07448
720.202	1127.32105
720.634	1247.38104
721.065	1207.25692
721.497	1307.48633
721.928	1181.31646
722.359	1280.39559
722.79	1315.42102
723.221	1331.60396
723.652	1373.74656
724.083	1358.29578
724.514	1409.40872
724.945	1455.52876
725.375	1510.53938
725.806	1543.841
726.236	1546.94157
726.666	1597.70189
727.096	1622.8597
727.526	1669.04105
727.956	1640.59291
728.386	1771.01844
728.816	1688.04449
729.246	1803.98681
729.675	1857.08629
730.105	1859.09465
730.534	2032.99803
730.964	1994.32989
731.393	2062.29966
731.822	2103.46066
732.251	2067.40067
732.68	2149.10113
733.109	2193.33538
733.537	2249.26272
733.966	2246.40481
734.395	2338.08285
734.823	2460.0116
735.251	2432.33039
735.68	2551.59905
736.108	2640.68487
736.536	2651.28099
736.964	2611.18069
737.392	2706.63507
737.82	2827.40536
738.247	2913.40033
738.675	2913.39074
739.102	2930.65819
739.53	3017.79264
739.957	3104.87207
740.384	3242.58975
740.811	3360.76375
741.238	3282.50202
741.665	3358.15018
742.092	3470.32773
742.519	3466.56343
742.945	3633.314
743.372	3684.51894
743.798	3714.8009
744.225	3778.19667
744.651	3857.56741
745.077	3961.48032
745.503	4082.2668
745.929	4141.11167
746.355	4358.29655
746.781	4305.28307
747.207	4191.91327
747.632	4326.13192
748.058	4454.26374
748.483	4672.53501
748.908	4610.14531
749.334	4773.96338
749.759	4753.65749
750.184	4894.64945
750.609	5011.83526
751.033	5061.51274
751.458	5267.02519
751.883	5307.73577
752.307	5265.35397
752.732	5418.72361
753.156	5566.56075
753.58	5566.26729
754.005	5726.70789
754.429	5633.14899
754.853	5772.47676
755.277	5853.09767
755.7	5928.41781
756.124	6051.36086
756.548	5971.05298
756.971	6118.21711
757.394	6282.57468
757.818	6304.55441
758.241	6387.4102
758.664	6447.35374
759.087	6564.50456
759.51	6608.20513
759.933	6633.95856
760.356	6726.40308
760.778	6707.09747
761.201	6761.02191
761.623	6776.00475
762.046	6882.85777
762.468	7020.93518
762.89	7069.1059
763.312	7132.039
763.734	7068.94291
764.156	7120.106
764.578	7269.72989
765	7119.03066
765.421	7230.29249
765.843	7217.52777
766.264	7155.97745
766.686	7236.22883
767.107	7288.01036
767.528	7255.25301
767.949	7317.31723
768.37	7185.07079
768.791	7276.00115
769.212	7129.20815
769.632	7183.76257
770.053	7375.56741
770.473	7283.02987
770.894	7181.2015
771.314	7260.92605
771.734	7141.75909
772.154	7076.36931
772.575	7276.76314
772.994	7249.64814
773.414	7168.93725
773.834	7185.18459
774.254	7115.04238
774.673	6990.00746
775.093	6948.10588
775.512	6964.07499
775.931	6915.28005
776.351	7010.12756
776.77	6890.0243
777.189	6807.85545
777.607	6750.35389
778.026	6670.18175
778.445	6692.20493
778.864	6580.42823
779.282	6420.98995
779.701	6366.35038
780.119	6335.37525
780.537	6247.30746
780.955	6291.45229
781.373	6117.28991
781.791	6059.63767
782.209	6187.76586
782.627	6015.86166
783.045	5911.84538
783.462	5896.64793
783.88	5778.81217
784.297	5629.65012
784.715	5665.80198
785.132	5590.36151
785.549	5441.7017
785.966	5409.76578
786.383	5305.63857
786.8	5213.25335
787.217	5090.46952
787.633	5002.92377
788.05	4992.54888
788.466	4946.51839
788.883	4896.16849
789.299	4815.7453
789.715	4683.8916
790.131	4622.10817
790.547	4511.20381
790.963	4441.18821
791.379	4401.35759
791.795	4261.65157
792.21	4186.85813
792.626	4134.98974
793.041	4079.31209
793.457	3970.36893
793.872	4019.97402
794.287	3791.16957
794.702	3779.41591
795.117	3727.48923
795.532	3599.5892
795.947	3532.32042
796.362	3509.27244
796.776	3483.15109
797.191	3414.46017
797.605	3109.22019
798.02	3157.45224
798.434	3139.9059
798.848	2982.53226
799.262	2885.57092
799.676	2886.47031
800.09	2836.51491
800.504	2795.42495
800.918	2698.14088
801.331	2607.86536
801.745	2541.06972
802.158	2507.52844
802.572	2467.345
802.985	2414.30699
803.398	2265.17216
803.811	2333.61432
804.224	2217.36872
804.637	2117.08915
805.05	2111.96073
805.462	2074.21431
805.875	1964.39189
806.288	1869.97849
806.7	1883.17554
807.112	1807.76894
807.525	1711.941
807.937	1701.93598
808.349	1679.97066
808.761	1607.82364
809.173	1586.74413
809.584	1592.82673
809.996	1489.67613
810.408	1466.84248
810.819	1398.43745
811.231	1374.72531
811.642	1366.44234
812.053	1343.40778
812.464	1298.35344
812.875	1316.6089
813.286	1266.56181
813.697	1221.21166
814.108	1172.26921
814.519	1137.98018
814.929	1113.30444
815.34	1074.10766
815.75	1028.15703
816.16	1012.08251
816.571	975.12577
816.981	930.8286
817.391	906.83897
817.801	908.90408
818.211	889.78435
818.62	819.68827
819.03	815.71758
819.44	825.86904
819.849	774.69915
820.259	736.65826
820.668	727.56681
821.077	704.5415
821.486	663.41531
821.895	725.57251
822.304	650.54872
822.713	617.3022
823.122	614.37756
823.531	573.22455
823.939	536.18955
824.348	569.25164
824.756	559.27326
825.164	547.25542
825.573	523.2017
825.981	508.15625
826.389	499.15379
826.797	474.09741
827.205	460.97334
827.612	489.11092
828.02	387.85235
828.428	433.02862
828.835	406.00394
829.243	427.94791
829.65	379.88843
830.057	367.84077
830.464	349.80564
830.871	380.85603
831.278	350.80103
831.685	344.72473
832.092	335.77948
832.499	267.56017
832.905	333.80284
833.312	316.68534
833.718	290.69324
834.124	287.62736
834.531	263.63961
834.937	272.67274
835.343	245.57144
835.749	282.6314
836.155	235.59726
836.561	234.55768
836.966	262.61745
837.372	241.59422
837.777	196.4766
838.183	195.42248
838.588	222.53537
838.993	225.5316
839.399	162.38891
839.804	153.36668
840.209	181.45105
840.613	108.23834
841.018	172.42715
841.423	174.43762
841.828	150.37347
842.232	196.47392
842.637	175.40417
843.041	115.29199
843.445	179.43958
843.849	143.34884
844.253	178.41396
844.657	94.23532
845.061	109.24522
845.465	82.19738
845.869	124.28485
846.272	117.28201
846.676	137.32683
847.079	121.30438
847.483	122.3011
847.886	142.34051
848.289	95.25198
848.692	116.29092
849.095	119.2828
849.498	134.33533
849.901	112.2545
850.304	126.29754
850.707	106.26813
851.109	144.35905
851.512	96.23441
851.914	46.1162
852.316	89.22397
852.718	61.1574
853.121	104.25281
853.523	68.15877
853.925	50.1306
854.326	51.1277
854.728	75.19231
855.13	41.10605
855.531	51.12209
855.933	52.12508
856.334	42.10503
856.736	17.03843
857.137	45.10497
857.538	58.14583
857.939	47.11636
858.34	60.14623
858.741	65.1697
859.142	61.14653
859.542	27.07159
859.943	66.16379
860.343	23.05732
860.744	82.19925
861.144	67.1632
861.544	-1.00243
861.945	53.13519
862.345	14.03453
862.745	50.12445
863.145	62.14817
863.544	77.19391
863.944	64.15107
864.344	49.12194
864.743	64.15865
865.143	46.11839
865.542	22.05141
865.941	44.1092
866.34	76.18148
866.74	49.13166
867.139	24.05784
867.537	65.16539
867.936	27.06537
868.335	72.18271
868.734	30.07702
869.132	50.11638
869.531	72.17371
869.929	-19.04399
870.327	65.1556
870.726	52.1298
871.124	68.15864
871.522	57.14519
871.92	77.18924
872.318	58.14178
872.715	50.12395
873.113	35.08564
873.511	4.01006
873.908	-22.0563
874.306	10.02508
874.703	19.04787
875.1	34.08732
875.497	47.1129
875.894	26.06405
876.291	61.14959
876.688	2.00521
877.085	58.13914
877.482	10.02524
877.878	9.02186
878.275	19.04858
878.671	39.0872
879.068	-1.00244
879.464	25.06078
879.86	20.04763
880.256	35.08672
880.652	29.0741
881.048	21.05237
881.444	35.08366
881.84	43.10953
882.236	19.04809
882.631	18.04449
883.027	20.04876
883.422	38.09746
883.817	-3.00762
884.213	34.08756
884.608	9.02226
885.003	48.11589
885.398	10.02523
885.793	24.06058
886.188	-12.03019
886.582	62.15884
886.977	64.15166
887.371	16.04075
887.766	-18.04535
888.16	21.05273
888.554	28.06959
888.949	17.04298
889.343	49.11985
889.737	-15.04042
890.131	-14.03555
890.525	40.10255
890.918	27.06829
891.312	-7.01695
891.706	8.02115
892.099	52.13238
892.492	-2.00437
892.886	22.05416
893.279	13.03336
893.672	22.05632
894.065	15.03783
894.458	50.12585
894.851	26.06405
895.244	-9.02324
895.637	30.0726
896.029	20.04922
896.422	29.07119
896.814	33.08236
897.206	-27.0653
897.599	38.09427
897.991	29.07046
898.383	16.03809
898.775	29.0658
899.167	-21.0497
899.559	67.16921
899.951	16.038
900.342	60.15242
900.734	-10.0251
901.125	18.04751
901.517	29.07151
901.908	-13.03157
902.299	-14.03466
902.69	-24.05749
903.082	32.07782
903.473	-21.051
903.863	35.08959
904.254	7.0164
904.645	46.11458
905.036	-19.04663
905.426	46.1055
905.817	11.0272
906.207	31.07418
906.597	-37.08807
906.987	26.0677
907.378	12.03057
907.768	15.03991
908.158	3.00738
908.547	38.09841
908.937	8.02069
909.327	12.02937
909.717	43.10937
910.106	-5.01214
910.495	12.03018
910.885	12.03061
911.274	-4.0101
911.663	24.06123
912.052	36.08911
912.441	-8.02056
912.83	15.0347
913.219	71.18523
913.608	0
913.997	-30.07632
914.385	0
914.774	1.00246
915.162	-20.04833
915.55	14.03412
915.939	-12.03064
916.327	27.0677
916.715	4.01028
917.103	63.15478
917.491	31.077
917.878	6.01488
918.266	-10.02621
918.654	16.04114
919.041	-10.02638
919.429	-45.10822
919.816	-9.02306
920.203	28.06822
920.591	-3.00751
920.978	45.11035
921.365	40.10516
921.752	2.00481
922.139	-6.01319
922.525	-4.00971
922.912	36.08807
923.299	-4.01004
923.685	13.03414
924.072	-4.00933
924.458	-6.01502
924.844	-15.03757
925.231	-9.0212
925.617	-1.00257
926.003	37.09481
926.389	-18.04597
926.774	4.01022
927.16	12.03002
927.546	-20.05169
927.931	8.02012
928.317	21.04868
928.702	20.04761
929.088	25.05944
929.473	2.00513
929.858	-52.12815
930.243	-16.03889
930.628	5.01227
931.013	5.0125
931.398	-9.02095
931.783	64.16814
932.167	-4.00988
932.552	23.05792
932.937	56.13887
933.321	-25.06359
933.705	5.01271
934.09	45.11385
934.474	18.04303
934.858	16.04175
935.242	-35.08251
935.626	-6.01551
936.009	16.0428
936.393	11.02819
936.777	-36.09358
937.16	2.00525
937.544	4.00951
937.927	15.0383
938.311	28.06865
938.694	54.14273
939.077	-12.02907
939.46	-8.01986
939.843	37.07746
940.226	-12.03112
940.609	-27.06295
940.991	2.00513
941.374	-4.00988
941.757	19.04716
942.139	0
942.522	-2.00478
942.904	-10.02432
943.286	33.08412
943.668	8.02088
944.05	6.0149
944.432	19.04716
944.814	-4.00995
945.196	-34.08416
945.578	-25.06028
945.959	12.02834
946.341	39.09596
946.722	2.00474
947.104	15.0361
947.485	4.00939
947.866	17.04309
948.247	-28.07163
948.628	25.06128
949.009	8.02064
949.39	40.09978
949.771	49.11403
950.152	-18.04474
950.532	-53.13285
950.913	26.06301
951.293	-25.06836
951.674	0
952.054	-3.00751
952.434	22.0549
952.814	-30.07249
953.194	19.04999
953.574	38.09382
953.954	-19.04573
954.334	30.07505
954.714	-37.09164
955.093	9.0223
955.473	-46.11702
955.853	-20.0524
956.232	14.03859
956.611	40.09614
956.99	8.02026
957.37	35.08943
957.749	50.11931
958.128	-30.07667
958.506	-19.04987
958.885	12.0305
959.264	-8.01982
959.643	16.03667
960.021	-12.03007
960.4	-25.05753
960.778	37.09137
961.156	5.01264
961.535	-23.05439
961.913	14.033
962.291	-9.02333
962.669	-9.02304
963.047	15.03852
963.424	22.05642
963.802	-31.07737
964.18	41.10392
964.557	13.03017
964.935	12.02864
965.312	25.06538
965.69	41.10284
966.067	-10.02463
966.444	7.01739
966.821	26.06731
967.198	23.05609
967.575	-14.03483
967.952	27.06392
968.329	-15.03695
968.705	18.03887
969.082	-3.00777
969.458	-3.00727
969.835	48.1169
970.211	18.04645
970.587	6.01506
970.963	20.05158
971.339	-9.02374
971.715	0
972.091	33.08152
972.467	-15.03786
972.843	17.04244
973.219	68.16275
973.594	-18.04763
973.97	48.11432
974.345	-12.02906
974.721	61.14742
975.096	11.02681
975.471	-7.01679
975.846	15.03628
976.221	-9.02309
976.596	-4.00969
976.971	24.05954
977.346	9.02113
977.72	26.06652
978.095	-1.00261
978.469	15.03605
978.844	20.05056
979.218	-31.07546
979.593	50.11981
979.967	13.03189
980.341	-43.10085
980.715	33.0834
981.089	6.01514
981.463	-5.01161
981.837	8.0197
982.21	-2.0047
982.584	-18.04403
982.957	-14.03536
983.331	6.01431
983.704	-3.00744
984.078	-23.05744
984.451	81.2012
984.824	-19.04687
985.197	30.07314
985.57	-13.03297
985.943	17.04224
986.316	52.12773
986.688	-8.01951
987.061	-18.04275
987.434	-13.03424
987.806	4.00979
988.179	-12.02866
988.551	30.07637
988.923	8.01985
989.295	12.03019
989.667	-14.03385
990.039	-28.07017
990.411	-18.04199
990.783	8.01858
991.155	-51.12488
991.527	16.03965
991.898	-5.01258
992.27	-29.07277
992.641	60.15026
993.012	49.11533
993.384	33.07897
993.755	10.02567
994.126	17.04115
994.497	-7.01736
994.868	-3.00696
995.239	20.04874
995.61	9.02281
995.98	-12.02949
996.351	-3.0075
996.722	-65.15418
997.092	5.01194
997.462	-39.09269
997.833	22.05243
998.203	41.09957
998.573	-36.09103
998.943	-11.0261
999.313	-1.00242
999.683	4.00968
1000.053	-26.06073
1000.423	48.11668
1000.792	-2.00523
1001.162	-13.03236
1001.531	36.08898
1001.901	32.08002
1002.27	10.02254
1002.639	5.01287
1003.009	8.01918
1003.378	11.02831
1003.747	0
1004.116	-43.1047
1004.485	12.02889
1004.853	17.04332
1005.222	8.02032
1005.591	16.03824
1005.959	-28.06409
1006.328	-10.02278
1006.696	12.02915
1007.064	-8.02033
1007.433	26.06525
1007.801	29.07146
1008.169	35.08861
1008.537	25.05564
1008.905	-12.02829
1009.273	-9.02247
1009.64	-25.06049
1010.008	48.11445
1010.375	97.23345
1010.743	50.11546
1011.11	44.10423
1011.478	-1.0025
1011.845	25.05907
1012.212	15.03419
1012.579	5.01237
1012.946	36.0859
1013.313	2.0048
1013.68	54.12126
1014.047	-28.06771
1014.414	-16.03827
1014.78	14.03501
1015.147	14.03408
1015.513	38.09175
1015.88	10.02575
1016.246	29.07185
1016.612	54.1235
1016.978	7.01729
1017.344	2.00499
1017.71	43.10498
1018.076	33.07806
1018.442	37.09537
1018.808	-3.00757
1019.174	17.04289
1019.539	89.20326
1019.905	-13.03103
1020.27	0
1020.636	4.00967
1021.001	-16.03878
1021.366	-30.07312
1021.731	27.06969
1022.096	-50.12832
1022.461	9.02146
1022.826	-16.0385
1023.191	-10.02649
1023.556	4.00946
1023.92	9.02229
1024.285	5.0123
1024.649	23.05663
1025.014	53.13117
1025.378	-48.12276
1025.742	21.05241
1026.107	-11.02518
1026.471	43.1005
1026.835	2.005
1027.199	-11.02677
1027.562	-33.07794
1027.926	7.01725
1028.29	-8.02045
1028.654	-10.02328
1029.017	57.13988
1029.381	-14.03384
1029.744	3.00771
1030.107	43.10184
1030.471	-6.01451
1030.834	2.00459
1031.197	44.10608
1031.56	6.01427
1031.923	20.05196
1032.286	37.08709
1032.648	31.07438
1033.011	-52.12175
1033.374	45.10583
1033.736	-13.03453
1034.099	-11.0271
1034.461	-18.046
1034.823	7.01756
1035.185	29.07324
1035.548	9.02206
1035.91	8.01931
1036.272	30.06853
1036.634	28.06875
1036.995	2.00474
1037.357	-8.01967
1037.719	-8.01966
1038.08	24.05725
1038.442	5.01197
1038.803	1.00242
1039.165	-5.01274
1039.526	20.04858
1039.887	20.04811
1040.248	-19.04738
1040.609	14.03481
1040.97	-4.00987
1041.331	40.1014
1041.692	-50.11894
1042.053	2.0046
1042.413	29.06783
1042.774	44.10708
1043.134	30.07167
1043.495	17.04296
1043.855	16.03904
1044.215	-3.00751
1044.576	-66.16122
1044.936	35.08045
1045.296	38.09499
1045.656	22.05424
1046.016	3.0073
1046.375	-5.01225
1046.735	-25.05751
1047.095	9.02122
1047.454	36.07648
1047.814	-1.00243
1048.173	31.0743
1048.533	-23.05344
1048.892	-77.18917
1049.251	46.11549
1049.61	16.03962
1049.969	13.03085
1050.328	-28.06169
1050.687	4.00981
1051.046	23.05625
1051.405	-3.00753
1051.763	-21.04895
1052.122	-16.04036
1052.48	17.04192
1052.839	-17.04049
1053.197	1.00237
1053.555	34.07773
1053.914	-9.02224
1054.272	28.06794
1054.63	-5.01234
1054.988	-6.0144
1055.345	2.00435
1055.703	3.00728
1056.061	10.02589
1056.419	8.02085
1056.776	22.0536
1057.134	13.0303
1057.491	-13.0329
1057.848	15.03756
1058.206	4.00949
1058.563	1.00223
1058.92	12.02785
1059.277	6.01491
1059.634	26.06142
1059.991	-1.00242
1060.348	-11.02515
1060.704	-20.04827
1061.061	55.12758
1061.418	-56.13842
1061.774	-16.03995
1062.131	0
1062.487	-18.04262
1062.843	39.09737
1063.199	11.02753
1063.555	-58.13718
1063.911	1.00255
1064.267	53.11041
1064.623	-48.11864
1064.979	9.02148
1065.335	37.08861
1065.691	36.08646
1066.046	12.02658
1066.402	-26.05994
1066.757	6.01525
1067.112	30.07385
1067.468	-37.08878
1067.823	29.06995
1068.178	6.01462
1068.533	10.02441
1068.888	-30.07273
1069.243	9.02236
1069.598	18.04397
1069.952	-52.11945
1070.307	-30.07529
1070.662	-9.02159
1071.016	-25.05684
1071.371	24.05485
1071.725	40.09581
1072.079	24.05797
1072.434	3.00735
1072.788	43.10247
1073.142	36.08872
1073.496	-10.02398
1073.85	7.01636
1074.203	6.01467
1074.557	-12.03222
1074.911	39.09322
1075.265	-18.04237
1075.618	12.02949
1075.971	27.06446
1076.325	5.0128
1076.678	-43.1001
1077.031	-14.03207
1077.385	34.07509
1077.738	-10.02283
1078.091	-49.11358
1078.444	-3.00703
1078.796	-30.07464
1079.149	28.06987
1079.502	-8.0191
1079.855	21.04922
1080.207	28.06921
1080.56	23.05968
1080.912	0
1081.264	-11.02677
1081.617	5.01228
1081.969	-1.00254
1082.321	2.00492
1082.673	-52.12103
1083.025	9.0215
1083.377	28.06034
1083.728	47.10963
1084.08	2.00503
1084.432	17.04122
1084.783	12.0283
1085.135	-15.038
1085.486	-62.14493
1085.838	4.00993
1086.189	-27.06643
1086.54	40.09563
1086.891	-43.11045
1087.242	-21.05176
1087.593	44.10716
1087.944	-11.02518
1088.295	-7.01608
1088.646	-17.04169
1088.996	-27.06594
1089.347	1.00247
1089.698	-19.04547
1090.048	28.07294
1090.398	33.07673
1090.749	45.10768
1091.099	-3.00761
1091.449	-11.02768
1091.799	39.09776
1092.149	-32.07915
1092.499	27.06609
1092.849	9.02302
1093.199	25.06289
1093.548	-27.06577
1093.898	-21.05317
1094.248	40.10287
1094.597	3.00771
1094.947	19.0509
1095.296	7.01741
1095.645	15.03921
1095.994	-18.04376
1096.343	10.02532
1096.692	-14.03714
1097.041	-16.04374
1097.39	-5.01265
1097.739	-12.03149
1098.088	38.10192
1098.437	-54.14421
1098.785	28.07569
1099.134	57.15104
1099.482	26.07172
1099.83	46.12085
1100.179	-7.01842
1100.527	36.09579
1100.875	24.06367
1101.223	34.09044
1101.571	25.06929
1101.919	-17.04488
1102.267	25.07059
1102.615	3.00965
1102.962	4.01289
1103.31	-10.03219
1103.658	13.04186
