Data from N2 R8 sample 7_Subt2__2__17-34-48-404.txt Node

Date: Fri Aug 29 17:34:48 PDT 2025
User: uwsun
Spectrometer: HDX01956
Trigger mode: 0
Integration Time (sec): 5.000000E-1
Scans to average: 1
Nonlinearity correction enabled: true
Boxcar width: 0
Storing dark spectrum: false
XAxis mode: Wavelengths
Number of Pixels in Spectrum: 2068
>>>>>Begin Spectral Data<<<<<
194.03	266.71569
194.578	262.80127
195.127	256.77131
195.676	254.76798
196.225	273.69087
196.773	295.77031
197.321	431.07113
197.87	624.3633
198.418	604.30564
198.966	619.34296
199.513	534.11668
200.061	617.29138
200.609	602.34729
201.156	521.94208
201.704	563.18444
202.251	589.30815
202.798	548.20109
203.345	608.25091
203.892	603.26093
204.438	611.206
204.985	602.1629
205.532	593.3045
206.078	645.29825
206.624	609.23074
207.17	629.19337
207.716	620.23324
208.262	616.97468
208.808	554.1294
209.354	596.19479
209.899	679.41318
210.445	605.23718
210.99	577.14731
211.535	679.2928
212.08	693.29777
212.625	636.31447
213.17	656.36979
213.715	601.07808
214.259	617.18024
214.804	630.28809
215.348	631.17854
215.892	658.28829
216.436	683.28341
216.98	638.1496
217.524	622.20562
218.068	654.35897
218.612	619.29786
219.155	579.13042
219.698	588.16351
220.242	577.21181
220.785	576.1211
221.328	576.20625
221.871	590.26174
222.414	568.19471
222.956	515.04571
223.499	556.04204
224.041	560.09714
224.583	620.10169
225.126	541.99675
225.668	553.12914
226.21	527.12415
226.751	461.85315
227.293	541.0386
227.835	522.07756
228.376	615.17641
228.918	545.16965
229.459	528.10996
230	535.07156
230.541	547.05671
231.082	548.11613
231.622	589.12659
232.163	504.03381
232.704	565.173
233.244	522.09588
233.784	560.15821
234.324	517.94153
234.864	557.0488
235.404	591.17028
235.944	524.04924
236.484	571.19866
237.023	589.15053
237.563	502.97666
238.102	547.08098
238.641	547.16688
239.18	530.03189
239.719	560.18096
240.258	609.12164
240.797	535.07008
241.335	549.12908
241.874	580.89655
242.412	583.15926
242.95	586.15142
243.488	530.00887
244.026	528.01237
244.564	576.96501
245.102	580.06625
245.64	579.16199
246.177	530.98896
246.715	613.21335
247.252	537.02843
247.789	615.92815
248.326	564.11594
248.863	548.98713
249.4	602.11788
249.936	599.99178
250.473	571.0942
251.009	532.00679
251.546	585.04824
252.082	582.0383
252.618	565.02742
253.154	527.05258
253.69	609.11154
254.226	536.06192
254.761	558.02726
255.297	581.03037
255.832	504.99642
256.367	585.12865
256.903	625.09939
257.438	618.18188
257.972	553.0081
258.507	543.01688
259.042	569.00276
259.576	585.00684
260.111	587.10866
260.645	575.00966
261.179	587.11245
261.713	646.14265
262.247	594.11341
262.781	589.986
263.315	570.14416
263.849	581.19232
264.382	613.13976
264.915	646.20691
265.449	569.12401
265.982	624.14156
266.515	620.22351
267.048	574.97377
267.58	631.10243
268.113	547.95483
268.646	572.154
269.178	628.11132
269.71	645.11451
270.243	626.14523
270.775	587.222
271.307	658.27249
271.838	642.23023
272.37	622.2355
272.902	626.13773
273.433	618.07087
273.965	636.24279
274.496	576.17433
275.027	595.19746
275.558	649.25535
276.089	592.16761
276.62	635.31035
277.15	677.33399
277.681	681.15378
278.211	687.33913
278.741	591.02967
279.272	625.12699
279.802	685.35927
280.332	647.20371
280.861	619.19151
281.391	620.10853
281.921	622.20103
282.45	656.31042
282.98	675.40733
283.509	676.18031
284.038	650.1593
284.567	674.23758
285.096	674.28109
285.625	652.15329
286.153	644.18238
286.682	666.18117
287.21	681.27714
287.739	712.297
288.267	679.27902
288.795	727.50649
289.323	659.19086
289.851	750.33739
290.378	723.23108
290.906	680.26993
291.433	773.47282
291.961	646.12603
292.488	735.40843
293.015	668.20808
293.542	697.36445
294.069	746.39343
294.596	747.41699
295.122	756.36063
295.649	742.2218
296.175	767.40835
296.702	757.39274
297.228	824.49541
297.754	742.23942
298.28	728.23195
298.806	744.34309
299.332	765.23433
299.857	778.28551
300.383	787.50607
300.908	734.32703
301.433	753.36249
301.958	782.33575
302.483	773.43363
303.008	775.43377
303.533	779.53529
304.058	810.40078
304.582	754.30646
305.107	782.51993
305.631	765.28109
306.155	848.40309
306.679	763.29378
307.203	810.34668
307.727	846.43532
308.251	832.49084
308.775	838.40409
309.298	796.36338
309.822	927.65595
310.345	901.48901
310.868	899.49718
311.391	913.58149
311.914	862.53126
312.437	893.40915
312.96	870.42057
313.482	910.47866
314.005	894.57103
314.527	896.65933
315.049	996.72524
315.571	891.31265
316.093	963.61555
316.615	965.55301
317.137	953.34302
317.659	984.60294
318.18	1034.64061
318.702	971.47481
319.223	969.24131
319.744	973.3931
320.265	1011.57604
320.786	983.57763
321.307	1071.69814
321.828	1036.45474
322.348	1033.52209
322.869	1021.49606
323.389	804.77065
323.909	1076.50076
324.43	1194.74012
324.95	1089.48181
325.47	1127.66249
325.989	1176.60174
326.509	1142.40268
327.029	1169.46727
327.548	1146.4346
328.067	1221.6458
328.587	1267.7881
329.106	1180.47351
329.625	1289.97964
330.144	1239.52919
330.662	1174.47413
331.181	1315.60144
331.7	1307.58817
332.218	1310.38859
332.736	1365.60437
333.255	1379.57736
333.773	1310.57091
334.291	1374.77299
334.808	1378.42969
335.326	1446.48976
335.844	1413.49947
336.361	1479.76245
336.879	1463.50954
337.396	1428.57427
337.913	1491.46347
338.43	1519.40304
338.947	1551.55753
339.464	1510.239
339.981	1527.49225
340.497	1630.66709
341.014	1545.56032
341.53	1580.33034
342.046	1585.55854
342.562	1713.66904
343.078	1658.44009
343.594	1710.48724
344.11	1697.45568
344.626	1746.6231
345.141	1756.2975
345.657	1751.30378
346.172	1762.44458
346.687	1675.26361
347.202	1755.18807
347.717	1789.36586
348.232	1877.51535
348.747	1861.21868
349.261	1765.00373
349.776	1930.25247
350.29	1861.34212
350.805	1997.41879
351.319	2033.1787
351.833	1958.04009
352.347	2005.15918
352.861	1992.10649
353.374	2050.09812
353.888	2115.21037
354.401	2100.01773
354.915	2074.87585
355.428	2088.21666
355.941	2078.97749
356.454	2166.90125
356.967	2242.00746
357.48	2218.91216
357.993	2150.12977
358.505	2177.05265
359.018	2313.01948
359.53	2330.91188
360.042	2281.69051
360.554	2258.95988
361.066	2289.92367
361.578	2286.57836
362.09	2245.85204
362.602	2236.57642
363.113	2436.64019
363.625	2418.52428
364.136	2515.41758
364.647	2425.48609
365.158	2540.51167
365.669	2552.59141
366.18	2542.52456
366.691	2470.33627
367.201	2554.51165
367.712	2520.32614
368.222	2575.29286
368.733	2611.0618
369.243	2653.05781
369.753	2787.12413
370.263	2833.16669
370.773	2885.2124
371.282	2847.0351
371.792	2792.80676
372.301	2984.86284
372.811	3087.0436
373.32	2882.45616
373.829	3065.53948
374.338	3250.24649
374.847	3356.18455
375.356	3364.17819
375.865	3584.7751
376.373	3681.78495
376.882	3798.94056
377.39	3860.76506
377.898	3955.64375
378.407	4084.53295
378.915	4307.5464
379.423	4341.54666
379.93	4472.627
380.438	4750.81513
380.946	5037.25325
381.453	5119.52616
381.96	5343.27676
382.468	5661.78086
382.975	6067.868
383.482	6379.97528
383.989	6204.77788
384.495	6489.62
385.002	6848.11787
385.509	7369.13106
386.015	7783.46438
386.521	8212.7642
387.028	8444.40465
387.534	8823.65349
388.04	9174.19131
388.546	8975.22341
389.051	9431.44559
389.557	10369.97476
390.063	11723.26457
390.568	12009.18793
391.073	11952.6898
391.578	12560.52277
392.084	12625.13914
392.589	12697.10631
393.093	13499.97072
393.598	15237.91364
394.103	16821.54272
394.607	18469.25234
395.112	19434.28432
395.616	20730.51317
396.12	22416.9104
396.624	24696.03728
397.128	27050.2816
397.632	30035.03822
398.136	32470.50135
398.639	32681.4428
399.143	31532.11542
399.646	28690.62214
400.15	25083.82847
400.653	20124.16724
401.156	13866.23708
401.659	5169.95759
402.162	1054.15589
402.664	0
403.167	0
403.67	0
404.172	0
404.674	0
405.176	0
405.678	0
406.18	0
406.682	0
407.184	0
407.686	0
408.187	0
408.688	0
409.19	0
409.691	0
410.192	0
410.693	0
411.194	435.30976
411.694	4082.94878
412.195	8864.71461
412.696	12089.80453
413.196	12760.96929
413.696	12863.67595
414.196	13703.56671
414.696	17261.84252
415.196	21764.24417
415.696	29583.19008
416.196	36460.31858
416.695	40057.39798
417.195	39612.62797
417.694	37381.22102
418.194	35921.3624
418.693	32901.8193
419.192	31717.90032
419.691	31149.71895
420.19	30560.10004
420.688	30149.36993
421.187	28817.80538
421.685	27090.94383
422.184	24998.65537
422.682	22095.05068
423.18	18378.31234
423.678	16255.99225
424.176	14903.65274
424.674	13892.30993
425.172	13486.51361
425.669	12938.39757
426.167	12244.79624
426.664	10839.55597
427.161	9985.55626
427.659	9207.07326
428.156	8472.80701
428.652	7999.46748
429.149	7735.494
429.646	7563.32264
430.143	7157.21939
430.639	6572.49036
431.135	6197.51556
431.632	5933.89661
432.128	5498.63124
432.624	4994.87346
433.12	4691.85131
433.616	4612.7659
434.111	4459.60445
434.607	4218.53069
435.103	4258.53606
435.598	4166.52725
436.093	3991.65832
436.588	3746.75427
437.083	3679.8611
437.578	3317.13936
438.073	3118.41324
438.568	3205.53026
439.062	3045.31425
439.557	2995.69384
440.051	2854.67678
440.546	2647.82878
441.04	2559.07089
441.534	2637.27736
442.028	2585.20461
442.522	2497.25015
443.015	2483.04452
443.509	2511.40462
444.002	2309.497
444.496	2293.22264
444.989	2204.59873
445.482	2212.65545
445.975	2235.35246
446.468	2096.31999
446.961	2127.32304
447.454	2116.50313
447.947	1957.65102
448.439	1992.79174
448.931	1931.56704
449.424	1894.96535
449.916	1896.85495
450.408	1937.62505
450.9	1834.85822
451.392	1828.00344
451.884	1810.79476
452.375	1624.97449
452.867	1767.82013
453.358	1708.7783
453.849	1674.66541
454.341	1593.81703
454.832	1672.71672
455.323	1638.03007
455.814	1576.92148
456.304	1572.94006
456.795	1522.93109
457.285	1538.92419
457.776	1556.00944
458.266	1464.04437
458.756	1483.12156
459.247	1351.04148
459.737	1351.05429
460.226	1295.93516
460.716	1350.10342
461.206	1308.12802
461.695	1265.23886
462.185	1278.10976
462.674	1356.10522
463.163	1222.99045
463.653	1214.8934
464.142	1159.13993
464.63	1178.21562
465.119	1153.07472
465.608	1037.02077
466.096	1186.02323
466.585	1100.11269
467.073	1166.23548
467.561	1107.21577
468.05	1053.1262
468.538	1060.25224
469.026	1009.16833
469.513	981.93121
470.001	950.03627
470.489	975.13363
470.976	990.12355
471.463	890.19322
471.951	881.20962
472.438	836.05043
472.925	796.00756
473.412	877.20566
473.899	817.03824
474.385	778.11093
474.872	731.97909
475.359	782.11107
475.845	687.80239
476.331	814.9993
476.817	765.12422
477.303	701.98377
477.789	657.98987
478.275	599.95457
478.761	696.051
479.247	646.90727
479.732	561.91854
480.218	622.07553
480.703	558.92972
481.188	605.82175
481.673	565.85105
482.158	481.66552
482.643	614.06674
483.128	512.78389
483.612	537.85371
484.097	489.84634
484.581	478.78014
485.066	452.77999
485.55	459.69539
486.034	423.64042
486.518	423.70719
487.002	362.64866
487.486	372.66864
487.969	403.7201
488.453	402.75789
488.936	363.60118
489.42	378.61547
489.903	398.75772
490.386	420.47302
490.869	409.65681
491.352	387.72405
491.835	313.48831
492.318	324.55428
492.8	330.51259
493.283	304.60242
493.765	269.51947
494.247	375.67525
494.73	315.53583
495.212	288.55335
495.694	220.40741
496.175	227.42447
496.657	290.5443
497.139	303.40339
497.62	170.32442
498.102	272.53749
498.583	231.47029
499.064	170.30554
499.545	240.43868
500.026	178.32337
500.507	246.45921
500.988	220.44698
501.469	157.32459
501.949	163.33533
502.43	141.27581
502.91	181.30221
503.39	209.43345
503.87	119.23267
504.35	190.37193
504.83	62.11441
505.31	172.34515
505.79	121.24208
506.269	147.28769
506.749	105.20091
507.228	78.15478
507.707	158.29011
508.187	207.41145
508.666	102.21178
509.145	87.17204
509.623	133.26251
510.102	151.30812
510.581	132.27125
511.059	103.21934
511.538	154.33899
512.016	108.22003
512.494	172.35233
512.972	87.17793
513.45	69.13574
513.928	90.18661
514.406	74.15152
514.884	103.22725
515.361	91.18687
515.839	93.18088
516.316	124.25423
516.793	108.23604
517.27	140.2908
517.747	89.19719
518.224	108.21472
518.701	62.11952
519.178	22.04755
519.654	98.20211
520.131	64.13774
520.607	62.13464
521.083	78.15406
521.56	53.10918
522.036	55.10529
522.512	111.23792
522.987	31.06421
523.463	68.14074
523.939	134.28381
524.414	83.16721
524.89	69.14304
525.365	33.06562
525.84	-17.03565
526.315	57.12012
526.79	93.182
527.265	110.21696
527.74	22.04739
528.215	27.05622
528.689	61.11796
529.164	37.0709
529.638	74.16761
530.112	-3.00627
530.587	-1.00188
531.061	49.10376
531.534	60.12847
532.008	51.10785
532.482	72.14535
532.956	12.02715
533.429	50.10715
533.903	46.09009
534.376	-21.04162
534.849	78.15891
535.322	48.10028
535.795	-10.02195
536.268	20.04279
536.741	99.20881
537.213	71.14481
537.686	23.04977
538.158	11.02185
538.631	83.17844
539.103	9.01793
539.575	72.13227
540.047	85.16406
540.519	51.10847
540.991	56.12203
541.463	47.10122
541.934	62.12539
542.406	25.05303
542.877	45.09007
543.348	39.08406
543.82	82.17808
544.291	68.14087
544.762	6.0127
545.233	58.12859
545.703	47.09168
546.174	58.11919
546.645	7.01481
547.115	115.24106
547.585	96.19291
548.056	55.11585
548.526	81.16536
548.996	131.27254
549.466	166.34927
549.935	159.31958
550.405	132.2464
550.875	158.31823
551.344	189.38443
551.814	163.31839
552.283	145.26926
552.752	164.32149
553.221	96.17751
553.69	198.36704
554.159	204.41807
554.628	165.30823
555.096	206.43763
555.565	215.39885
556.033	171.34338
556.502	112.23514
556.97	106.20405
557.438	76.1585
557.906	111.23144
558.374	33.06771
558.842	56.11918
559.31	49.09817
559.777	-19.04153
560.245	42.08899
560.712	50.10423
561.18	16.03191
561.647	35.07054
562.114	-33.06875
562.581	9.02019
563.048	5.01053
563.514	-6.0134
563.981	-2.00419
564.448	-4.00821
564.914	-25.05366
565.381	23.04783
565.847	10.02145
566.313	16.03407
566.779	18.03711
567.245	-35.07567
567.711	-1.00219
568.176	25.05104
568.642	-1.00229
569.108	-36.08151
569.573	48.10295
570.038	-1.00193
570.504	12.02449
570.969	-22.05068
571.434	-23.04625
571.899	22.04761
572.363	5.01041
572.828	59.12236
573.293	36.07495
573.757	40.08327
574.222	-19.03877
574.686	-20.04095
575.15	11.02375
575.614	7.01462
576.078	16.03408
576.542	6.01247
577.006	50.10173
577.469	62.13888
577.933	15.03044
578.396	22.04761
578.86	21.04505
579.323	32.06899
579.786	46.08992
580.249	-40.08383
580.712	8.01787
581.175	8.01799
581.637	9.01904
582.1	27.05429
582.563	30.05909
583.025	-5.01109
583.487	1.00185
583.95	-31.06136
584.412	42.08054
584.874	3.00666
585.336	42.09039
585.797	-16.03193
586.259	49.10539
586.721	9.01932
587.182	41.08792
587.643	32.06653
588.105	40.08635
588.566	38.07336
589.027	19.04171
589.488	-38.08055
589.949	56.12343
590.41	11.01965
590.87	93.19244
591.331	69.13587
591.791	1.00212
592.252	-24.05059
592.712	52.11384
593.172	4.00829
593.632	29.05853
594.092	60.12185
594.552	4.00795
595.011	0
595.471	76.15427
595.931	40.08149
596.39	17.03724
596.849	48.10184
597.308	27.05394
597.768	-5.01167
598.227	45.09895
598.685	58.12187
599.144	29.06208
599.603	92.19698
600.062	-3.00581
600.52	-12.02468
600.978	-14.03068
601.437	30.06304
601.895	2.00391
602.353	71.14336
602.811	9.01839
603.269	51.11111
603.727	14.03073
604.184	7.01446
604.642	10.02245
605.099	56.11814
605.557	64.14159
606.014	53.10358
606.471	20.04535
606.928	19.03706
607.385	113.24399
607.842	173.34916
608.299	186.38273
608.755	188.3987
609.212	181.35355
609.668	132.25864
610.125	185.39499
610.581	266.554
611.037	226.45686
611.493	129.27543
611.949	55.12064
612.405	67.12262
612.861	89.19167
613.316	79.17167
613.772	55.116
614.227	108.23084
614.683	99.1943
615.138	48.10322
615.593	55.11748
616.048	98.20547
616.503	147.32745
616.958	50.11527
617.412	93.20141
617.867	72.14615
618.321	107.20385
618.776	119.24139
619.23	97.20926
619.684	91.19033
620.138	141.30053
620.592	67.15104
621.046	90.1962
621.5	87.19581
621.954	106.22205
622.407	74.1544
622.861	63.14301
623.314	101.21452
623.768	69.15064
624.221	53.09905
624.674	43.09364
625.127	64.14106
625.58	107.22935
626.033	87.18188
626.485	28.06363
626.938	78.1753
627.39	114.24894
627.843	57.12555
628.295	87.19051
628.747	19.04336
629.199	9.01976
629.651	6.01317
630.103	-2.00444
630.555	32.06564
631.006	51.11497
631.458	-3.00688
631.909	67.14857
632.361	40.0903
632.812	-8.01805
633.263	20.04219
633.714	50.10437
634.165	32.07545
634.616	1.00233
635.067	26.0567
635.518	80.18466
635.968	58.1144
636.419	31.06633
636.869	40.09306
637.319	4.00912
637.769	16.03526
638.219	65.15168
638.669	-1.00235
639.119	25.05998
639.569	26.06166
640.019	28.06396
640.468	-13.02898
640.918	21.05
641.367	27.06002
641.816	23.05107
642.265	12.02757
642.714	25.05733
643.163	36.08194
643.612	-3.00714
644.061	-38.08112
644.51	4.00908
644.958	-30.06637
645.406	13.03087
645.855	29.0704
646.303	48.11119
646.751	5.01135
647.199	13.02952
647.647	-17.03925
648.095	15.0343
648.543	77.15691
648.99	-15.03588
649.438	32.07498
649.885	76.18523
650.333	29.0567
650.78	23.05529
651.227	36.08695
651.674	39.08857
652.121	62.14924
652.568	25.06046
653.015	73.18232
653.461	23.0546
653.908	67.15493
654.354	56.13296
654.801	31.07257
655.247	48.10557
655.693	59.15219
656.139	52.12408
656.585	34.0815
657.031	19.04435
657.477	8.01745
657.922	26.06004
658.368	101.24611
658.813	88.20361
659.259	-8.01936
659.704	3.00705
660.149	50.11651
660.594	41.09748
661.039	-18.04166
661.484	72.17167
661.929	50.11725
662.373	12.03038
662.818	30.07461
663.262	5.01214
663.707	42.10643
664.151	41.1005
664.595	2.00487
665.039	39.0974
665.483	57.14488
665.927	35.08315
666.371	-12.02819
666.814	54.12959
667.258	34.08091
667.701	77.16761
668.145	67.16697
668.588	29.07177
669.031	21.04989
669.474	20.04873
669.917	101.22424
670.36	68.16888
670.803	63.15288
671.245	89.18904
671.688	50.12291
672.13	-1.00229
672.573	104.26317
673.015	78.1879
673.457	55.1214
673.899	75.18248
674.341	71.17217
674.783	25.06071
675.225	85.20921
675.666	73.17595
676.108	77.16911
676.549	94.22344
676.991	94.20866
677.432	68.13778
677.873	96.22309
678.314	80.19206
678.755	101.24574
679.196	79.18231
679.637	83.20383
680.078	105.24665
680.518	119.2779
680.959	77.18567
681.399	74.18438
681.839	98.23902
682.28	56.13928
682.72	86.19827
683.16	95.23675
683.6	129.29461
684.039	82.17345
684.479	63.1558
684.919	59.13746
685.358	84.21392
685.798	89.23322
686.237	151.36313
686.676	102.23834
687.115	104.2454
687.554	98.23375
687.993	90.20127
688.432	83.19154
688.871	102.23272
689.309	106.2538
689.748	87.18479
690.186	120.2871
690.625	111.26085
691.063	144.34373
691.501	140.34451
691.939	157.38798
692.377	115.28054
692.815	145.34499
693.253	170.40548
693.69	169.36943
694.128	161.38658
694.565	112.26786
695.003	137.34587
695.44	165.38486
695.877	146.33954
696.314	224.47463
696.751	218.48993
697.188	170.38754
697.625	256.57485
698.061	173.41097
698.498	201.47968
698.934	217.5135
699.371	155.36268
699.807	190.44413
700.243	184.43752
700.679	202.45192
701.115	233.53854
701.551	205.47609
701.987	271.59389
702.422	252.58372
702.858	250.58138
703.294	214.47778
703.729	231.5538
704.164	284.66278
704.599	244.53213
705.035	257.56084
705.47	245.58154
705.904	261.5922
706.339	330.73916
706.774	250.57174
707.209	255.57342
707.643	324.74868
708.078	313.73461
708.512	261.63451
708.946	286.66509
709.38	288.66154
709.814	280.62202
710.248	348.81243
710.682	348.79197
711.116	311.71393
711.549	355.87651
711.983	358.78998
712.416	379.85326
712.85	409.96509
713.283	393.88223
713.716	465.0929
714.149	421.94779
714.582	401.85204
715.015	462.08267
715.448	449.06137
715.881	415.85757
716.313	445.97801
716.746	432.95602
717.178	465.04264
717.61	493.16286
718.043	499.1547
718.475	504.1314
718.907	544.26967
719.339	489.02535
719.77	464.02439
720.202	574.32823
720.634	566.25779
721.065	549.19241
721.497	592.32053
721.928	534.2062
722.359	596.3026
722.79	642.3802
723.221	675.52415
723.652	711.63869
724.083	660.32574
724.514	674.37818
724.945	685.43137
725.375	692.42142
725.806	781.71057
726.236	749.69888
726.666	789.62492
727.096	789.69109
727.526	774.72758
727.956	808.58097
728.386	951.97548
728.816	907.95997
729.246	916.88544
729.675	890.8696
730.105	982.02339
730.534	942.84789
730.964	1016.14489
731.393	1102.23763
731.822	1102.30945
732.251	1053.21294
732.68	1162.18266
733.109	1116.23228
733.537	1194.28781
733.966	1184.35332
734.395	1313.31306
734.823	1316.25308
735.251	1318.44403
735.68	1407.68735
736.108	1360.65769
736.536	1483.57096
736.964	1409.43559
737.392	1511.80801
737.82	1595.74753
738.247	1600.74534
738.675	1638.77693
739.102	1624.9251
739.53	1673.05293
739.957	1712.1392
740.384	1700.96113
740.811	1825.19179
741.238	1900.08625
741.665	1933.88951
742.092	1984.0568
742.519	1967.19731
742.945	2059.12605
743.372	2094.29404
743.798	2221.57288
744.225	2220.17022
744.651	2327.50277
745.077	2353.48112
745.503	2438.40192
745.929	2362.28035
746.355	2559.56008
746.781	2513.51551
747.207	2525.20918
747.632	2599.43996
748.058	2752.62496
748.483	2777.15752
748.908	2871.61726
749.334	2983.55443
749.759	2963.29819
750.184	3025.35591
750.609	3132.56035
751.033	3229.30458
751.458	3315.96211
751.883	3330.60145
752.307	3444.22469
752.732	3365.63953
753.156	3576.52545
753.58	3667.22912
754.005	3738.6939
754.429	3727.12889
754.853	3821.47303
755.277	3813.14738
755.7	3936.44608
756.124	4026.40775
756.548	3987.08251
756.971	4225.20174
757.394	4268.61344
757.818	4372.55312
758.241	4373.43254
758.664	4513.32256
759.087	4413.44848
759.51	4551.1859
759.933	4637.86573
760.356	4659.37689
760.778	4798.94942
761.201	4838.84748
761.623	4868.81227
762.046	4949.59723
762.468	5065.62465
762.89	5161.78094
763.312	5162.69133
763.734	5197.55618
764.156	5219.74508
764.578	5229.2096
765	5268.62258
765.421	5298.92469
765.843	5379.17275
766.264	5406.47381
766.686	5448.75982
767.107	5407.48833
767.528	5561.72639
767.949	5593.78083
768.37	5468.55524
768.791	5438.46253
769.212	5475.72952
769.632	5480.14807
770.053	5531.12322
770.473	5548.44012
770.894	5702.59696
771.314	5527.31987
771.734	5517.13485
772.154	5507.90917
772.575	5608.05479
772.994	5539.94067
773.414	5566.33523
773.834	5486.68951
774.254	5457.53384
774.673	5471.48999
775.093	5383.65661
775.512	5403.60887
775.931	5356.87642
776.351	5393.67876
776.77	5363.56686
777.189	5221.43775
777.607	5238.0033
778.026	5239.78941
778.445	5133.88043
778.864	5219.05525
779.282	5101.58917
779.701	4991.03024
780.119	5084.99256
780.537	5025.92002
780.955	4950.135
781.373	4886.92763
781.791	4800.2543
782.209	4835.41944
782.627	4762.54404
783.045	4659.4986
783.462	4601.35434
783.88	4553.48555
784.297	4606.21826
784.715	4460.46386
785.132	4280.07748
785.549	4265.34125
785.966	4317.36191
786.383	4236.22029
786.8	4157.83226
787.217	4085.01017
787.633	3866.4833
788.05	3933.09969
788.466	4009.01305
788.883	3942.62827
789.299	3744.26172
789.715	3720.33679
790.131	3653.52486
790.547	3706.54359
790.963	3587.52826
791.379	3500.68275
791.795	3473.98229
792.21	3389.1588
792.626	3279.27657
793.041	3192.54957
793.457	3247.55542
793.872	3214.22521
794.287	3046.33068
794.702	3098.54355
795.117	2970.59056
795.532	2930.64355
795.947	2903.3902
796.362	2861.34007
796.776	2856.22695
797.191	2710.46395
797.605	2613.19861
798.02	2599.40237
798.434	2549.91617
798.848	2484.434
799.262	2419.44886
799.676	2383.34649
800.09	2279.34115
800.504	2256.25836
800.918	2199.00091
801.331	2146.604
801.745	2065.89651
802.158	2022.26174
802.572	2040.13186
802.985	1972.06951
803.398	1907.96166
803.811	1924.32221
804.224	1813.0727
804.637	1754.83482
805.05	1676.66393
805.462	1720.93253
805.875	1597.01953
806.288	1522.65898
806.7	1586.88515
807.112	1463.46313
807.525	1501.72101
807.937	1442.65634
808.349	1411.66666
808.761	1410.60233
809.173	1280.3909
809.584	1338.52894
809.996	1226.34927
810.408	1189.45542
810.819	1184.17854
811.231	1193.46478
811.642	1122.12996
812.053	1233.27182
812.464	1302.35834
812.875	1208.45427
813.286	1082.2804
813.697	1066.00576
814.108	1011.03165
814.519	920.69286
814.929	943.02566
815.34	877.80147
815.75	854.8615
816.16	854.82066
816.571	855.91273
816.981	789.60235
817.391	742.5619
817.801	674.48567
818.211	745.54452
818.62	693.46856
819.03	667.4509
819.44	700.6258
819.849	648.45986
820.259	655.49996
820.668	559.24761
821.077	559.26095
821.486	541.18498
821.895	596.32782
822.304	575.38949
822.713	536.15104
823.122	509.16623
823.531	451.99077
823.939	465.04691
824.348	490.09542
824.756	508.16882
825.164	446.04389
825.573	433.01242
825.981	435.00438
826.389	402.94913
826.797	404.95015
827.205	361.78042
827.612	390.90544
828.02	320.7147
828.428	429.01988
828.835	396.98325
829.243	357.80407
829.65	311.73874
830.057	317.73353
830.464	310.72118
830.871	331.75314
831.278	281.65205
831.685	307.65204
832.092	262.61841
832.499	234.49451
832.905	264.64481
833.312	227.50167
833.718	287.68646
834.124	252.55493
834.531	243.59319
834.937	240.59708
835.343	237.55366
835.749	227.51402
836.155	221.56307
836.561	213.50968
836.966	236.55899
837.372	201.49925
837.777	200.48596
838.183	175.38077
838.588	190.46098
838.993	185.44049
839.399	153.36793
839.804	98.23733
840.209	194.4823
840.613	128.28129
841.018	166.4127
841.423	175.44006
841.828	185.45767
842.232	187.45293
842.637	143.33237
843.041	137.34648
843.445	139.34388
843.849	130.3179
844.253	166.38697
844.657	92.2304
845.061	123.27592
845.465	119.28444
845.869	101.23308
846.272	60.14618
846.676	126.30122
847.079	86.2177
847.483	140.34438
847.886	147.35216
848.289	86.22846
848.692	73.18449
849.095	109.25954
849.498	142.35483
849.901	130.29432
850.304	110.26056
850.707	89.22581
851.109	128.32008
851.512	108.26312
851.914	72.18103
852.316	84.21158
852.718	75.19305
853.121	51.1252
853.523	89.20694
853.925	92.23858
854.326	42.10533
854.728	97.24777
855.13	58.14958
855.531	34.08166
855.933	45.10838
856.334	26.06521
856.736	76.16975
857.137	42.09803
857.538	73.18305
857.939	56.13842
858.34	105.25375
858.741	106.27479
859.142	54.12989
859.542	40.10583
859.943	54.13431
860.343	6.015
860.744	43.10525
861.144	91.22067
861.544	52.12512
861.945	65.16545
862.345	35.08599
862.745	83.20534
863.145	77.18349
863.544	81.20384
863.944	33.07837
864.344	79.19552
864.743	98.24143
865.143	66.16927
865.542	13.03043
865.941	44.1092
866.34	76.18148
866.74	27.07281
867.139	47.11277
867.537	61.15532
867.936	33.07981
868.335	54.13747
868.734	55.14059
869.132	11.0258
869.531	68.16418
869.929	-4.00923
870.327	26.0627
870.726	57.14215
871.124	61.14251
871.522	36.09204
871.92	84.20618
872.318	41.10054
872.715	71.17533
873.113	2.00492
873.511	56.13953
873.908	-8.02042
874.306	20.05007
874.703	24.06041
875.1	65.16603
875.497	43.10337
875.894	-23.05717
876.291	25.06171
876.688	44.11371
877.085	51.12251
877.482	8.0202
877.878	34.08218
878.275	35.08924
878.671	59.13137
879.068	6.01462
879.464	49.1186
879.86	19.04526
880.256	26.06452
880.652	5.01283
881.048	61.15102
881.444	39.09315
881.84	54.13728
882.236	47.11836
882.631	51.12529
883.027	45.1092
883.422	34.08726
883.817	-9.02288
884.213	74.18925
884.608	-24.05971
885.003	18.04371
885.398	31.07793
885.793	31.07815
886.188	-19.04787
886.582	42.10798
886.977	29.06918
887.371	7.01786
887.766	-24.06054
888.16	41.10258
888.554	75.1848
888.949	61.15301
889.343	28.06875
889.737	-7.01884
890.131	50.12553
890.525	11.02834
890.918	24.06073
891.312	4.00967
891.706	59.15466
892.099	57.14498
892.492	37.08016
892.886	29.0713
893.279	53.13505
893.672	18.04612
894.065	35.08795
894.458	20.05061
894.851	72.17587
895.244	29.07439
895.637	19.04607
896.029	27.06636
896.422	46.11257
896.814	5.01254
897.206	-30.0726
897.599	53.13112
897.991	13.03168
898.383	35.08302
898.775	20.04547
899.167	-34.08066
899.559	61.15422
899.951	39.09222
900.342	51.12977
900.734	-34.0857
901.125	50.13127
901.517	-2.00496
901.908	57.13661
902.299	-4.00988
902.69	17.0404
903.082	49.11878
903.473	46.11031
903.863	41.10484
904.254	14.03275
904.645	42.10469
905.036	-6.01469
905.426	27.06216
905.817	-21.05224
906.207	5.01202
906.597	-30.07131
906.987	47.12195
907.378	8.0204
907.768	25.0664
908.158	5.0123
908.547	-6.01566
908.937	30.07729
909.327	8.01959
909.717	74.18719
910.106	9.0218
910.495	62.15454
910.885	13.03316
911.274	36.09025
911.663	57.14457
912.052	51.1259
912.441	36.09181
912.83	24.05542
913.219	47.12312
913.608	-5.01238
913.997	-2.00506
914.385	9.02168
914.774	54.13146
915.162	16.0384
915.55	82.19731
915.939	3.00764
916.327	-10.02524
916.715	-16.04126
917.103	79.19351
917.491	43.10658
917.878	63.1546
918.266	30.07809
918.654	9.02317
919.041	11.02891
919.429	-18.04307
919.816	40.10162
920.203	47.1141
920.591	-7.01755
920.978	-4.0099
921.365	9.02378
921.752	-10.02413
922.139	9.01972
922.525	-3.00728
922.912	-2.00493
923.299	-9.02262
923.685	15.03937
924.072	45.10393
924.458	14.03492
924.844	-16.04008
925.231	-15.03537
925.617	23.05879
926.003	40.10244
926.389	-15.03829
926.774	24.06112
927.16	24.05991
927.546	-35.09069
927.931	19.04769
928.317	-2.00466
928.702	15.03574
929.088	-4.00956
929.473	33.08423
929.858	-4.00977
930.243	-27.06577
930.628	8.01962
931.013	29.07217
931.398	58.13324
931.783	38.10027
932.167	45.11015
932.552	31.07796
932.937	45.11182
933.321	-12.03045
933.705	-30.07672
934.09	54.1364
934.474	1.0024
934.858	-6.01572
935.242	-18.04229
935.626	17.04377
936.009	-13.03494
936.393	16.04096
936.777	-3.00775
937.16	23.06013
937.544	37.08742
937.927	1.00256
938.311	41.10028
938.694	71.18713
939.077	-18.04366
939.46	53.13011
939.843	67.13933
940.226	14.03614
940.609	-32.07469
940.991	36.09188
941.374	43.10525
941.757	20.04963
942.139	-3.00681
942.522	46.10884
942.904	32.0772
943.286	27.06889
943.668	39.10123
944.05	30.07418
944.432	-25.06255
944.814	66.16212
945.196	-14.03453
945.578	-38.09185
945.959	11.02598
946.341	58.1422
946.722	20.04723
947.104	28.06722
947.485	19.04449
947.866	-34.08695
948.247	17.04315
948.628	44.10748
949.009	26.06687
949.39	56.13928
949.771	56.13013
950.152	29.07146
950.532	-38.09499
950.913	42.10148
951.293	-6.01636
951.674	20.04865
952.054	-42.10583
952.434	21.05241
952.814	12.02877
953.194	61.15936
953.574	39.09627
953.954	15.03587
954.334	23.05761
954.714	-24.0593
955.093	71.17391
955.473	15.03775
955.853	17.04426
956.232	25.0688
956.611	50.11995
956.99	-3.00761
957.37	-17.04384
957.749	30.07186
958.128	3.00762
958.506	8.0209
958.885	36.0911
959.264	-16.03969
959.643	16.03667
960.021	20.04983
960.4	22.05015
960.778	40.09872
961.156	-10.02534
961.535	38.08879
961.913	5.0118
962.291	-28.07281
962.669	-17.04358
963.047	49.12507
963.424	19.04875
963.802	-39.09747
964.18	44.11146
964.557	24.05557
964.935	39.09261
965.312	11.02884
965.69	50.12522
966.067	5.01228
966.444	9.02235
966.821	19.04925
967.198	53.12852
967.575	46.1132
967.952	23.05449
968.329	3.00736
968.705	-32.06985
969.082	-13.03371
969.458	-38.09268
969.835	-21.0518
970.211	31.07982
970.587	32.07994
970.963	14.03614
971.339	12.03154
971.715	8.02013
972.091	46.11337
972.467	37.09251
972.843	7.01751
973.219	27.06513
973.594	12.03159
973.97	60.14256
974.345	-42.10229
974.721	14.03413
975.096	-9.02202
975.471	57.13505
975.846	15.03628
976.221	-24.06175
976.596	4.00967
976.971	30.07434
977.346	7.01644
977.72	49.12485
978.095	2.00521
978.469	18.04323
978.844	45.11324
979.218	-31.07546
979.593	23.0554
979.967	3.00737
980.341	39.09
980.715	2.00508
981.089	23.05786
981.463	-15.03489
981.837	-21.05199
982.21	2.0047
982.584	-12.02932
982.957	-18.0455
983.331	-6.01434
983.704	4.00991
984.078	-17.04241
984.451	79.1963
984.824	-23.05678
985.197	18.04398
985.57	28.0705
985.943	50.1235
986.316	27.06663
986.688	32.07744
987.061	4.00946
987.434	43.11218
987.806	42.10202
988.179	-1.00238
988.551	24.06116
988.923	12.02976
989.295	42.10511
989.667	-66.16116
990.039	-14.035
990.411	-5.01164
990.783	-7.0163
991.155	-49.11994
991.527	56.13776
991.898	-6.0151
992.27	-6.01499
992.641	31.07804
993.012	65.15251
993.384	-11.02654
993.755	12.0308
994.126	9.02182
994.497	12.02966
994.868	-13.03024
995.239	12.02929
995.61	-13.03308
995.98	-21.05169
996.351	33.08197
996.722	-40.09442
997.092	-25.06005
997.462	-61.14558
997.833	12.02866
998.203	20.04876
998.573	-5.01257
998.943	1.00237
999.313	5.01208
999.683	-49.1198
1000.053	37.08535
1000.423	16.03913
1000.792	14.03651
1001.162	5.01241
1001.531	16.03969
1001.901	2.00503
1002.27	32.0718
1002.639	40.10237
1003.009	19.04545
1003.378	35.08972
1003.747	6.01429
1004.116	-13.03148
1004.485	-15.03629
1004.853	25.06361
1005.222	18.04565
1005.591	17.04062
1005.959	-12.02738
1006.328	-24.05482
1006.696	-11.02683
1007.064	47.11828
1007.433	58.14473
1007.801	75.18323
1008.169	5.01273
1008.537	12.02678
1008.905	-23.05434
1009.273	58.14304
1009.64	8.01924
1010.008	9.02162
1010.375	53.12862
1010.743	75.17232
1011.11	-11.02633
1011.478	-9.02251
1011.845	23.05437
1012.212	-42.09683
1012.579	-3.00744
1012.946	37.08827
1013.313	16.03832
1013.68	-10.02275
1014.047	-28.06771
1014.414	-26.0623
1014.78	10.02503
1015.147	28.06799
1015.513	-6.01461
1015.88	44.11261
1016.246	13.0323
1016.612	76.17305
1016.978	-11.02725
1017.344	20.04969
1017.71	23.05636
1018.076	11.02613
1018.442	18.04655
1018.808	10.02517
1019.174	0
1019.539	78.17853
1019.905	-11.02624
1020.27	-40.10032
1020.636	69.1648
1021.001	6.01448
1021.366	-28.06822
1021.731	15.0388
1022.096	10.0254
1022.461	25.05944
1022.826	-16.0385
1023.191	-17.04509
1023.556	21.04948
1023.92	17.04204
1024.285	12.02949
1024.649	26.06398
1025.014	8.01996
1025.378	21.05306
1025.742	-1.00251
1026.107	-19.04357
1026.471	69.16044
1026.835	23.05728
1027.199	-34.08311
1027.562	36.08389
1027.926	24.05895
1028.29	-17.04352
1028.654	7.01624
1029.017	56.13745
1029.381	0
1029.744	-5.01287
1030.107	18.04284
1030.471	-4.00967
1030.834	-26.06004
1031.197	14.03394
1031.56	-16.03822
1031.923	-22.05756
1032.286	16.03781
1032.648	24.05766
1033.011	-4.00928
1033.374	23.05432
1033.736	-9.02389
1034.099	19.04656
1034.461	-7.01786
1034.823	14.03507
1035.185	23.05815
1035.548	-21.05176
1035.91	51.12209
1036.272	-6.01381
1036.634	38.09313
1036.995	4.00948
1037.357	6.01471
1037.719	26.06349
1038.08	24.05725
1038.442	34.08091
1038.803	30.07227
1039.165	17.04313
1039.526	-17.04158
1039.887	-5.01208
1040.248	-29.07246
1040.609	47.11615
1040.97	5.01232
1041.331	19.04834
1041.692	-37.0878
1042.053	12.02752
1042.413	35.08177
1042.774	34.0829
1043.134	66.15658
1043.495	19.048
1043.855	8.01955
1044.215	18.04492
1044.576	-23.05573
1044.936	32.0736
1045.296	45.11235
1045.656	8.01977
1046.016	62.14924
1046.375	51.12362
1046.735	-26.05982
1047.095	24.05643
1047.454	35.07437
1047.814	-2.00485
1048.173	42.10045
1048.533	6.01386
1048.892	-68.16678
1049.251	21.05296
1049.61	-11.02737
1049.969	-5.01191
1050.328	-26.05726
1050.687	39.09503
1051.046	-6.01475
1051.405	24.05995
1051.763	-27.063
1052.122	-13.03277
1052.48	2.00495
1052.839	-2.00475
1053.197	27.0638
1053.555	76.17228
1053.914	1.00247
1054.272	43.10404
1054.63	-16.03958
1054.988	-5.012
1055.345	-32.07009
1055.703	50.12027
1056.061	3.00778
1056.419	21.0546
1056.776	-9.02205
1057.134	36.08353
1057.491	22.05533
1057.848	17.04255
1058.206	-19.04526
1058.563	-1.00223
1058.92	7.01626
1059.277	41.10125
1059.634	25.05907
1059.991	51.12209
1060.348	-29.06655
1060.704	-29.07011
1061.061	48.1115
1061.418	20.04874
1061.774	-25.06253
1062.131	11.02926
1062.487	26.06104
1062.843	29.07253
1063.199	11.02753
1063.555	-4.00936
1063.911	-11.02807
1064.267	48.10011
1064.623	-23.05659
1064.979	43.10196
1065.335	30.07194
1065.691	19.04578
1066.046	-18.04012
1066.402	5.01146
1066.757	1.00254
1067.112	12.02964
1067.468	-63.15191
1067.823	5.01212
1068.178	17.04135
1068.533	31.07537
1068.888	32.07668
1069.243	35.08656
1069.598	-7.01718
1069.952	-57.13107
1070.307	15.03734
1070.662	11.02629
1071.016	-21.04771
1071.371	-26.06001
1071.725	6.01446
1072.079	-15.0365
1072.434	19.0464
1072.788	-44.1066
1073.142	54.13264
1073.496	-27.06496
1073.85	17.03965
1074.203	14.03417
1074.557	28.07468
1074.911	54.1287
1075.265	15.03508
1075.618	61.14853
1075.971	20.04781
1076.325	-15.03853
1076.678	-8.0185
1077.031	-24.05509
1077.385	-11.02452
1077.738	-13.0297
1078.091	-72.16765
1078.444	48.11141
1078.796	4.00989
1079.149	13.03253
1079.502	-1.00238
1079.855	16.03753
1080.207	18.04457
1080.56	19.04933
1080.912	30.07325
1081.264	18.04357
1081.617	-30.07415
1081.969	-15.03825
1082.321	35.08564
1082.673	-37.08586
1083.025	37.08793
1083.377	-210.47563
1083.728	49.11425
1084.08	8.02011
1084.432	-10.02437
1084.783	21.04945
1085.135	-10.02531
1085.486	-43.10014
1085.838	-7.01741
1086.189	12.02931
1086.54	6.01444
1086.891	18.04574
1087.242	2.00491
1087.593	18.04405
1087.944	18.04097
1088.295	55.1248
1088.646	-8.01959
1088.996	-26.06349
1089.347	-11.02727
1089.698	-39.09368
1090.048	50.12975
1090.398	48.11128
1090.749	7.01687
1091.099	-17.04323
1091.449	24.06002
1091.799	-35.0889
1092.149	-54.13411
1092.499	-20.04938
1092.849	-19.04884
1093.199	9.02271
1093.548	-7.01699
1093.898	6.01512
1094.248	28.07216
1094.597	-13.03352
1094.947	27.07224
1095.296	9.02237
1095.645	30.07823
1095.994	11.02659
1096.343	12.03038
1096.692	5.01322
1097.041	-31.08495
1097.39	40.10043
1097.739	26.0678
1098.088	85.22621
1098.437	-14.03714
1098.785	54.14536
1099.134	32.08515
1099.482	37.10188
1099.83	46.12085
1100.179	-30.07924
1100.527	32.08521
1100.875	-49.13157
1101.223	10.02671
1101.571	15.04164
1101.919	-2.00527
1102.267	25.07059
1102.615	6.01929
1102.962	13.04184
1103.31	18.05775
1103.658	16.0515
