Data from N2 R8 sample 10_Subt2__3__17-29-42-911.txt Node

Date: Fri Aug 29 17:29:42 PDT 2025
User: uwsun
Spectrometer: HDX01956
Trigger mode: 0
Integration Time (sec): 5.000000E-1
Scans to average: 1
Nonlinearity correction enabled: true
Boxcar width: 0
Storing dark spectrum: false
XAxis mode: Wavelengths
Number of Pixels in Spectrum: 2068
>>>>>Begin Spectral Data<<<<<
194.03	254.68475
194.578	272.83075
195.127	254.7655
195.676	251.75922
196.225	282.7125
196.773	319.82954
197.321	448.11001
197.87	595.30781
198.418	584.26774
198.966	559.22807
199.513	514.07953
200.061	506.08465
200.609	585.31377
201.156	490.89302
201.704	553.16592
202.251	550.23128
202.798	560.22434
203.345	574.18986
203.892	582.22259
204.438	647.26642
204.985	545.06694
205.532	546.21278
206.078	577.1793
206.624	582.18335
207.17	649.2254
207.716	560.12923
208.262	614.97207
208.808	521.06995
209.354	547.10878
209.899	647.35605
210.445	623.26886
210.99	562.12132
211.535	593.15233
212.08	608.16215
212.625	653.34453
213.17	653.36442
213.715	530.96937
214.259	632.20461
214.804	618.26694
215.348	628.17379
215.892	605.19917
216.436	610.16655
216.98	637.14809
217.524	561.10299
218.068	648.34828
218.612	631.31956
219.155	576.12535
219.698	565.12393
220.242	575.20813
220.785	522.02883
221.328	552.16203
221.871	569.22228
222.414	575.2076
222.956	482.98775
223.499	543.02089
224.041	555.08861
224.583	581.04266
225.126	495.9225
225.668	519.06776
226.21	501.0746
226.751	485.8922
227.293	464.90874
227.835	505.04637
228.376	560.08524
228.918	536.15253
229.459	487.03284
230	520.04507
230.541	474.93316
231.082	556.1304
231.622	504.98522
232.163	564.14148
232.704	544.13461
233.244	504.06221
233.784	562.16183
234.324	476.87586
234.864	498.95274
235.404	481.97835
235.944	503.012
236.484	580.21517
237.023	546.07723
237.563	481.94048
238.102	539.06713
238.641	504.085
239.18	500.98203
239.719	588.2325
240.258	529.99517
240.797	559.11197
241.335	589.2006
241.874	571.88496
242.412	517.04356
242.95	470.9501
243.488	560.05834
244.026	514.99049
244.564	573.96077
245.102	512.95868
245.64	555.1199
246.177	517.96781
246.715	576.14984
247.252	547.04509
247.789	574.87685
248.326	553.09695
248.863	555.99796
249.4	560.05059
249.936	628.03016
250.473	604.14836
251.009	537.01503
251.546	594.06195
252.082	576.02916
252.618	560.0196
253.154	563.11526
253.69	539.00091
254.226	592.15776
254.761	598.09004
255.297	521.93968
255.832	538.05346
256.367	537.04778
256.903	577.0275
257.438	597.14743
257.972	553.0081
258.507	517.97594
259.042	590.03416
259.576	561.97309
260.111	575.08914
260.645	595.03939
261.179	582.1043
261.713	546.9921
262.247	608.13578
262.781	539.9146
263.315	570.14416
263.849	635.28748
264.382	599.11755
264.915	564.07477
265.449	531.05813
265.982	654.18752
266.515	598.1861
267.048	568.96515
267.58	595.04923
268.113	618.05726
268.646	596.19589
269.178	566.01751
269.71	576.01327
270.243	619.13439
270.775	585.21837
271.307	652.26267
271.838	691.30867
272.37	649.28113
272.902	629.14232
273.433	612.06213
273.965	608.19585
274.496	677.349
275.027	627.25269
275.558	604.18072
276.089	641.24992
276.62	623.289
277.15	632.25832
277.681	633.08618
278.211	644.26797
278.741	611.05899
279.272	632.1376
279.802	656.31042
280.332	588.10974
280.861	618.18987
281.391	655.16071
281.921	646.24029
282.45	728.43027
282.98	665.38953
283.509	659.1557
284.038	654.16525
284.567	726.31587
285.096	682.2938
285.625	690.20861
286.153	657.20236
286.682	635.13512
287.21	650.22819
287.739	656.21171
288.267	685.28844
288.795	727.50649
289.323	669.20589
289.851	724.29958
290.378	685.17815
290.906	637.20211
291.433	721.39087
291.961	677.17056
292.488	711.37024
293.015	665.20356
293.542	702.37263
294.069	702.32534
294.596	753.42631
295.122	727.31802
295.649	662.11393
296.175	729.3512
296.702	691.2921
297.228	780.43119
297.754	752.25273
298.28	691.18089
298.806	743.34162
299.332	713.16708
299.857	763.26588
300.383	765.47166
300.908	762.36795
301.433	722.31658
301.958	766.31397
302.483	768.4261
303.008	864.5634
303.533	794.5594
304.058	782.36227
304.582	732.27564
305.107	732.43949
305.631	764.27976
306.155	784.31981
306.679	807.35237
307.203	767.29006
307.727	820.40084
308.251	804.45091
308.775	749.28507
309.298	778.33888
309.822	795.46792
310.345	853.42813
310.868	886.48072
311.391	895.55761
311.914	876.55057
312.437	872.3842
312.96	924.48636
313.482	868.42678
314.005	860.52455
314.527	882.63903
315.049	936.64674
315.571	851.26877
316.093	966.61928
316.615	913.49061
317.137	882.27044
317.659	970.58623
318.18	965.5609
318.702	1012.51871
319.223	943.21854
319.744	925.34389
320.265	999.56267
320.786	1002.59961
321.307	1020.64051
321.828	1057.47455
322.348	1024.51288
322.869	1043.51821
323.389	977.86861
323.909	1073.49798
324.43	1137.6855
324.95	1092.48448
325.47	1125.66053
325.989	1131.56249
326.509	1066.34375
327.029	1124.43233
327.548	1160.44523
328.067	1178.6097
328.587	1224.75032
329.106	1184.4765
329.625	1221.91194
330.144	1163.47287
330.662	1220.50811
331.181	1267.56859
331.7	1286.574
332.218	1282.37353
332.736	1330.58263
333.255	1324.54461
333.773	1267.5422
334.291	1321.73441
334.808	1252.36311
335.326	1397.46684
335.844	1445.51475
336.361	1388.70674
336.879	1379.46961
337.396	1422.57114
337.913	1480.45912
338.43	1468.38518
338.947	1503.53805
339.464	1427.21596
339.981	1473.47098
340.497	1535.62823
341.014	1531.55471
341.53	1512.31226
342.046	1545.54363
342.562	1660.6519
343.078	1641.43594
343.594	1620.46468
344.11	1644.44331
344.626	1666.60039
345.141	1646.28253
345.657	1776.3063
346.172	1694.43197
346.687	1667.26247
347.202	1780.18926
347.717	1802.36725
348.232	1857.5129
348.747	1837.21839
349.261	1815.00156
349.776	1859.25245
350.29	1815.33895
350.805	1980.41862
351.319	1882.18761
351.833	1892.04636
352.347	1944.16383
352.861	1927.11219
353.374	2044.09891
353.888	1938.22471
354.401	2008.03243
354.915	1968.89623
355.428	2081.21743
355.941	2061.98059
356.454	2171.90003
356.967	2114.03452
357.48	2104.93879
357.993	2117.13504
358.505	2181.05184
359.018	2331.0147
359.53	2233.93867
360.042	2279.69119
360.554	2322.94244
361.066	2211.9442
361.578	2261.58739
362.09	2216.8601
362.602	2269.56458
363.113	2303.68893
363.625	2295.57219
364.136	2356.48547
364.647	2300.53598
365.158	2461.54531
365.669	2537.59775
366.18	2444.56581
366.691	2409.36358
367.201	2461.55132
367.712	2402.37935
368.222	2508.32451
368.733	2495.12063
369.243	2603.08374
369.753	2655.19248
370.263	2746.2121
370.773	2771.27172
371.282	2756.08392
371.792	2694.86083
372.301	2895.91254
372.811	3032.07413
373.32	2884.45503
373.829	2979.5883
374.338	3101.3283
374.847	3361.18193
375.356	3193.26976
375.865	3407.84815
376.373	3640.80058
376.882	3766.95395
377.39	3863.76406
377.898	3785.68935
378.407	4005.53738
378.915	4217.53273
379.423	4312.54199
379.93	4592.67814
380.438	4583.71665
380.946	4959.17223
381.453	5044.43334
381.96	5125.92452
382.468	5398.17169
382.975	5974.59887
383.482	6225.42037
383.989	6327.18869
384.495	6416.31663
385.002	6621.93736
385.509	6935.61758
386.015	7607.16079
386.521	8111.95565
387.028	8189.20245
387.534	8408.75848
388.04	8972.20198
388.546	8745.86201
389.051	9086.55223
389.557	9998.31702
390.063	11383.63979
390.568	11424.04902
391.073	11609.82735
391.578	12216.56562
392.084	12067.04278
392.589	12122.75433
393.093	13085.05393
393.598	14532.63479
394.103	16116.41084
394.607	17803.87237
395.112	18839.14648
395.616	19858.53569
396.12	21426.46473
396.624	23255.88738
397.128	25207.91553
397.632	28480.20979
398.136	30954.84476
398.639	30940.90004
399.143	31324.12529
399.646	28527.83038
400.15	25083.82847
400.653	20124.16724
401.156	13866.23708
401.659	5169.95759
402.162	1054.15589
402.664	0
403.167	0
403.67	0
404.172	0
404.674	0
405.176	0
405.678	0
406.18	0
406.682	0
407.184	0
407.686	0
408.187	0
408.688	0
409.19	0
409.691	0
410.192	0
410.693	0
411.194	435.30976
411.694	4082.94878
412.195	8864.71461
412.696	12089.80453
413.196	12760.96929
413.696	12863.67595
414.196	13703.56671
414.696	17261.84252
415.196	21764.24417
415.696	29583.19008
416.196	36460.31858
416.695	40057.39798
417.195	39184.79598
417.694	37170.50352
418.194	35353.9181
418.693	32441.16084
419.192	31329.53701
419.691	30697.47354
420.19	30412.84161
420.688	30220.39828
421.187	29148.07811
421.685	27714.26392
422.184	25353.52814
422.682	22035.52914
423.18	17843.8364
423.678	15859.5013
424.176	14595.19389
424.674	13701.53818
425.172	13283.60829
425.669	12647.38357
426.167	11901.32021
426.664	10771.77284
427.161	9878.47406
427.659	8996.30746
428.156	8316.63138
428.652	7872.71404
429.149	7368.54188
429.646	7147.24347
430.143	6764.68551
430.639	6336.7627
431.135	6005.06968
431.632	5623.29138
432.128	5306.38366
432.624	4884.79811
433.12	4673.83904
433.616	4559.73588
434.111	4240.5469
434.607	4208.53001
435.103	4157.52581
435.598	4123.52581
436.093	3932.67292
436.588	3733.75883
437.083	3587.89974
437.578	3387.10334
438.073	3147.397
438.568	3152.56021
439.062	2944.37092
439.557	2978.70348
440.051	2744.7386
440.546	2537.88813
441.04	2521.09017
441.534	2478.35267
442.028	2552.22083
442.522	2396.2969
443.015	2272.14649
443.509	2351.4732
444.002	2196.53896
444.496	2220.25451
444.989	2187.60444
445.482	2230.64953
445.975	2189.37084
446.468	2069.33024
446.961	2125.32382
447.454	2009.53737
447.947	1964.64928
448.439	2002.78959
448.931	1879.58027
449.424	1905.96412
449.916	1960.84427
450.408	1837.64767
450.9	1768.86524
451.392	1719.00706
451.884	1755.80154
452.375	1640.97499
452.867	1686.82714
453.358	1639.78377
453.849	1566.6765
454.341	1567.81741
454.832	1556.72563
455.323	1496.01635
455.814	1553.92044
456.304	1550.93881
456.795	1444.92329
457.285	1552.92501
457.776	1560.00982
458.266	1454.04256
458.756	1422.10777
459.247	1378.04836
459.737	1302.04017
460.226	1343.94601
460.716	1267.07589
461.206	1202.08628
461.695	1210.21169
462.185	1269.10637
462.674	1248.06892
463.163	1137.95885
463.653	1205.89084
464.142	1112.11477
464.63	1166.20892
465.119	1101.04905
465.608	993.99575
466.096	1030.95238
466.585	1059.08887
467.073	1098.19408
467.561	1051.17866
468.05	1018.10346
468.538	1031.23058
469.026	1004.16464
469.513	945.91077
470.001	961.04388
470.489	960.12225
470.976	956.09857
471.463	916.21775
471.951	888.21652
472.438	810.0268
472.925	783.99641
473.412	857.18564
473.899	854.0717
474.385	753.08352
474.872	793.03969
475.359	748.07395
475.845	746.8526
476.331	750.9414
476.817	685.03093
477.303	645.92119
477.789	664.99833
478.275	637.0029
478.761	645.98986
479.247	597.85143
479.732	600.97177
480.218	640.10145
480.703	582.96334
481.188	543.7524
481.673	567.85356
482.158	502.6899
482.643	574.00763
483.128	453.70563
483.612	517.8266
484.097	529.90588
484.581	496.80546
485.066	483.82662
485.55	381.59064
486.034	417.63247
486.518	412.69087
487.002	385.6858
487.486	448.78958
487.969	372.67002
488.453	449.83675
488.936	320.53626
489.42	407.65731
489.903	392.74738
490.386	382.43643
490.869	341.55817
491.352	390.72913
491.835	355.54708
492.318	289.49904
492.8	314.49002
493.283	318.6281
493.765	263.50861
494.247	406.72527
494.73	305.52022
495.212	282.54261
495.694	270.49377
496.175	181.34231
496.657	277.52157
497.139	278.37319
497.62	163.31159
498.102	202.40572
498.583	181.37269
499.064	203.36176
499.545	210.38675
500.026	183.33203
500.507	277.5131
500.988	208.42376
501.469	208.42511
501.949	213.43325
502.43	138.27014
502.91	169.28311
503.39	194.40369
503.87	164.31723
504.35	177.34755
504.83	119.21646
505.31	109.22191
505.79	104.20889
506.269	132.25925
506.749	95.18222
507.228	95.18777
507.707	145.26711
508.187	145.29238
508.666	115.23808
509.145	90.17785
509.623	110.21828
510.102	143.29233
510.581	162.33064
511.059	90.1922
511.538	146.32192
512.016	133.26942
512.494	177.36216
512.972	102.2079
513.45	85.16658
513.928	83.17237
514.406	64.13134
514.884	110.24234
515.361	100.20494
515.839	51.10019
516.316	98.20211
516.793	116.25309
517.27	120.25037
517.747	121.2663
518.224	96.19139
518.701	51.09858
519.178	55.11804
519.654	53.11041
520.131	70.15046
520.607	148.31551
521.083	75.14824
521.56	39.08059
522.036	59.11284
522.512	86.18533
522.987	5.01042
523.463	61.12645
523.939	84.17985
524.414	114.22802
524.89	89.18367
525.365	21.04188
525.84	3.00626
526.315	54.11387
526.79	91.17817
527.265	56.11185
527.74	68.14503
528.215	70.14436
528.689	11.02153
529.164	44.08417
529.638	98.22088
530.112	33.06847
530.587	-14.02647
531.061	-11.0236
531.534	43.09241
532.008	25.05317
532.482	43.08738
532.956	-26.05927
533.429	79.16823
533.903	73.14205
534.376	11.02164
534.849	38.07812
535.322	59.12296
535.795	55.11906
536.268	37.07886
536.741	50.10659
537.213	61.1247
537.686	24.05192
538.158	23.04557
538.631	45.09754
539.103	-10.02001
539.575	40.07407
540.047	42.0819
540.519	81.17114
540.991	73.1585
541.463	53.114
541.934	68.13734
542.406	34.07198
542.877	58.11574
543.348	23.04975
543.82	90.19512
544.291	66.13679
544.762	46.09653
545.233	42.09342
545.703	26.05097
546.174	79.16157
546.645	29.06106
547.115	48.10211
547.585	96.19291
548.056	37.07825
548.526	83.16936
548.996	118.2462
549.466	221.45936
549.935	71.1456
550.405	123.23011
550.875	121.24578
551.344	159.32563
551.814	172.33526
552.283	247.44702
552.752	141.2779
553.221	128.23478
553.69	224.41254
554.159	168.3471
554.628	104.19722
555.096	189.40301
555.565	163.3063
556.033	195.3894
556.502	118.2474
556.97	112.21529
557.438	111.22969
557.906	85.17825
558.374	88.1783
558.842	124.25998
559.31	85.16887
559.777	2.00435
560.245	43.09109
560.712	7.01473
561.18	28.05569
561.647	7.0142
562.114	18.03707
562.581	23.05145
563.048	94.19412
563.514	31.06868
563.981	19.03963
564.448	33.06718
564.914	78.16368
565.381	49.1013
565.847	94.19796
566.313	74.15556
566.779	109.22009
567.245	44.09352
567.711	94.20214
568.176	42.08541
568.642	74.16692
569.108	134.29286
569.573	120.25338
570.038	167.31011
570.504	140.27743
570.969	121.27077
571.434	132.25594
571.899	187.39042
572.363	161.32345
572.828	170.34382
573.293	228.45435
573.757	238.47362
574.222	210.40621
574.686	170.33309
575.15	224.46155
575.614	223.44345
576.078	196.40113
576.542	298.5792
577.006	266.51454
577.469	314.66676
577.933	298.56567
578.396	291.59352
578.86	267.54234
579.323	257.52728
579.786	271.50149
580.249	254.49768
580.712	320.66854
581.175	271.57634
581.637	283.56277
582.1	294.55481
582.563	300.55335
583.025	223.47096
583.487	243.42318
583.95	210.3922
584.412	236.43137
584.874	234.49473
585.336	208.43166
585.797	203.38448
586.259	269.55115
586.721	221.4528
587.182	267.54457
587.643	255.50378
588.105	208.43282
588.566	204.37816
589.027	188.398
589.488	212.42483
589.949	208.44381
590.41	193.32864
590.87	196.39622
591.331	203.38712
591.791	142.2918
592.252	123.25087
592.712	220.46452
593.172	201.39821
593.632	196.3804
594.092	178.35174
594.552	185.3521
595.011	147.29969
595.471	192.3794
595.931	183.36069
596.39	162.34401
596.849	167.34511
597.308	210.40173
597.768	126.28643
598.227	180.38457
598.685	199.40514
599.144	191.39452
599.603	211.44014
600.062	166.30833
600.52	162.32012
600.978	216.45027
601.437	212.42758
601.895	174.32657
602.353	237.46031
602.811	242.46833
603.269	234.48996
603.727	252.52531
604.184	252.49189
604.642	286.60546
605.099	260.52391
605.557	291.61321
606.014	340.61928
606.471	245.53012
606.928	279.51061
607.385	360.73608
607.842	461.86893
608.299	523.99452
608.755	428.86004
609.212	384.714
609.668	409.74896
610.125	532.04857
610.581	578.11859
611.037	503.9523
611.493	445.88493
611.949	394.80231
612.405	370.62551
612.861	486.95723
613.316	431.86627
613.772	485.92629
614.227	477.93796
614.683	547.96037
615.138	454.89084
615.593	498.9615
616.048	525.99687
616.503	534.09201
616.958	476.00178
617.412	520.02151
617.867	485.89175
618.321	564.95576
618.776	489.90815
619.23	415.83411
619.684	525.9925
620.138	561.08485
620.592	461.95518
621.046	464.93109
621.5	446.92968
621.954	454.8778
622.407	452.86389
622.861	424.89168
623.314	468.91441
623.768	441.88678
624.221	390.6683
624.674	440.87723
625.127	356.73649
625.58	475.93711
626.033	430.83059
626.485	342.72748
626.938	388.81634
627.39	397.81486
627.843	372.7651
628.295	365.75223
628.747	378.79985
629.199	316.64876
629.651	298.61402
630.103	297.61815
630.555	296.57092
631.006	347.73474
631.458	282.60926
631.909	347.72446
632.361	297.6352
632.812	280.59457
633.263	353.69019
633.714	278.55089
634.165	297.66402
634.616	293.64318
635.067	279.57577
635.518	334.73178
635.968	335.61776
636.419	297.59887
636.869	336.73585
637.319	318.6785
637.769	327.67361
638.219	368.80728
638.669	337.74069
639.119	322.72866
639.569	338.75303
640.019	367.78082
640.468	352.72527
640.918	354.78866
641.367	337.70077
641.816	307.64124
642.265	383.81415
642.714	409.86525
643.163	371.78693
643.612	371.81917
644.061	369.71806
644.51	453.93441
644.958	428.85608
645.406	450.97798
645.855	438.98101
646.303	509.06877
646.751	397.82957
647.199	461.95134
647.647	448.938
648.095	478.99062
648.543	493.90965
648.99	500.07545
649.438	498.05782
649.885	497.11315
650.333	507.87938
650.78	479.04897
651.227	479.05735
651.674	475.98287
652.121	480.06111
652.568	449.99839
653.015	505.15936
653.461	479.0344
653.908	474.005
654.354	481.04582
654.801	401.87021
655.247	479.95787
655.693	463.10718
656.139	483.05463
656.585	500.08928
657.031	398.85947
657.477	404.80733
657.922	396.84673
658.368	408.93673
658.813	423.91325
659.259	360.81033
659.704	350.76651
660.149	379.82563
660.594	417.91918
661.039	354.75857
661.484	435.96446
661.929	392.85739
662.373	370.87631
662.818	325.76455
663.262	351.7967
663.707	380.9045
664.151	419.95447
664.595	366.83091
665.039	362.85074
665.483	351.84526
665.927	395.87288
666.371	302.66586
666.814	394.88393
667.258	306.68992
667.701	392.79606
668.145	426.99173
668.588	368.85371
669.031	310.69523
669.474	366.8336
669.917	389.81178
670.36	367.86131
670.803	438.98746
671.245	358.71573
671.688	403.92544
672.13	338.72085
672.573	412.98477
673.015	394.89192
673.457	330.68637
673.899	392.89677
674.341	400.90955
674.783	320.73385
675.225	371.86458
675.666	305.70268
676.108	335.69568
676.549	363.81791
676.991	306.64921
677.432	324.61803
677.873	327.72505
678.314	366.83057
678.755	330.7683
679.196	331.72536
679.637	384.89011
680.078	339.75979
680.518	381.84371
680.959	332.76167
681.399	299.71434
681.839	344.80025
682.28	347.81693
682.72	303.66821
683.16	314.75117
683.6	341.74538
684.039	306.61546
684.479	293.69385
684.919	266.59435
685.358	320.78068
685.798	350.87604
686.237	281.659
686.676	365.80862
687.115	330.74433
687.554	349.79216
687.993	302.64576
688.432	330.72393
688.871	310.67749
689.309	343.78391
689.748	330.66373
690.186	320.73621
690.625	326.73381
691.063	329.75736
691.501	342.81001
691.939	342.81626
692.377	335.78347
692.815	332.76137
693.253	384.87812
693.69	266.56952
694.128	321.7472
694.565	312.71752
695.003	340.82698
695.44	334.75304
695.877	297.67005
696.314	295.61535
696.751	363.79145
697.188	283.63038
697.625	331.73178
698.061	297.68862
698.498	365.84357
698.934	300.69847
699.371	257.58928
699.807	331.75223
700.243	306.71047
700.679	312.68214
701.115	365.82141
701.551	326.73891
701.987	369.79191
702.422	329.75041
702.858	346.78933
703.294	298.65374
703.729	348.81562
704.164	292.68038
704.599	376.79701
705.035	292.63248
705.47	276.6512
705.904	325.72781
706.339	356.79312
706.774	338.75926
707.209	301.67047
707.643	341.78529
708.078	300.70589
708.512	296.71487
708.946	349.80147
709.38	350.79395
709.814	382.83058
710.248	337.78845
710.682	308.70662
711.116	294.67721
711.549	318.79051
711.983	306.68259
712.416	414.92536
712.85	388.91928
713.283	340.77158
713.716	349.84045
714.149	415.93543
714.582	343.73802
715.015	427.00733
715.448	372.89429
715.881	390.81043
716.313	372.83013
716.746	291.66294
717.178	361.82836
717.61	410.98448
718.043	363.86421
718.475	344.79899
718.907	390.93932
719.339	324.70538
719.77	315.71848
720.202	362.87422
720.634	359.83333
721.065	379.85431
721.497	387.90114
721.928	360.84341
722.359	315.73035
722.79	337.77299
723.221	393.93956
723.652	424.03204
724.083	298.64934
724.514	364.7975
724.945	357.80111
725.375	330.73399
725.806	377.89684
726.236	378.92281
726.666	378.85118
727.096	464.06317
727.526	437.04211
727.956	406.87074
728.386	449.03553
728.816	385.92535
729.246	397.91313
729.675	376.87985
730.105	435.00557
730.534	477.03711
730.964	473.11648
731.393	471.09282
731.822	449.07528
732.251	449.06792
732.68	475.04194
733.109	455.04814
733.537	419.9537
733.966	475.09864
734.395	480.02837
734.823	510.06075
735.251	418.94931
735.68	503.16903
736.108	494.1614
736.536	509.10869
736.964	503.07751
737.392	480.11835
737.82	534.17823
738.247	508.12451
738.675	549.20303
739.102	533.22569
739.53	539.26316
739.957	496.18509
740.384	612.3697
740.811	597.37851
741.238	556.24218
741.665	562.18674
742.092	555.21313
742.519	589.32547
742.945	633.36753
743.372	626.39991
743.798	618.44201
744.225	624.33628
744.651	623.41463
745.077	678.51195
745.503	629.38436
745.929	700.48954
746.355	723.59543
746.781	716.57372
747.207	644.35124
747.632	655.42959
748.058	725.60251
748.483	706.43392
748.908	709.56452
749.334	703.53381
749.759	732.51652
750.184	767.59371
750.609	770.65778
751.033	866.74892
751.458	821.57805
751.883	857.82824
752.307	760.56127
752.732	797.73391
753.156	831.77428
753.58	881.78127
754.005	920.99018
754.429	883.7609
754.853	885.87334
755.277	877.7659
755.7	946.98033
756.124	880.86802
756.548	904.81074
756.971	936.92836
757.394	958.08824
757.818	995.14844
758.241	990.10448
758.664	1017.13719
759.087	882.65527
759.51	1025.11448
759.933	995.98542
760.356	1052.23448
760.778	1107.20865
761.201	1066.12132
761.623	1042.07922
762.046	1075.07358
762.468	1125.17646
762.89	1106.21935
763.312	1176.29099
763.734	1143.20402
764.156	1119.23778
764.578	1110.044
765	1170.27928
765.421	1144.35033
765.843	1144.44681
766.264	1171.25491
766.686	1109.26968
767.107	1120.18784
767.528	1076.22725
767.949	1143.35509
768.37	1196.33113
768.791	1145.22049
769.212	1115.27379
769.632	1098.05305
770.053	1154.47455
770.473	1178.27977
770.894	1182.36994
771.314	1125.1589
771.734	1143.11596
772.154	1139.37609
772.575	1166.13357
772.994	1092.98405
773.414	1162.22315
773.834	1122.27315
774.254	1118.20959
774.673	1090.15615
775.093	1088.19217
775.512	1095.1907
775.931	1098.27385
776.351	1096.21335
776.77	1059.11564
777.189	1116.12981
777.607	1084.27069
778.026	1064.17208
778.445	966.02411
778.864	1041.21348
779.282	1043.05197
779.701	1013.12134
780.119	996.09804
780.537	969.02284
780.955	969.07179
781.373	914.91331
781.791	995.8234
782.209	1014.90908
782.627	952.12658
783.045	949.80876
783.462	944.03691
783.88	914.01317
784.297	924.96741
784.715	874.92517
785.132	835.7336
785.549	862.84724
785.966	860.85561
786.383	875.83364
786.8	877.71901
787.217	855.72392
787.633	810.74917
788.05	858.73512
788.466	819.65655
788.883	768.71489
789.299	799.661
789.715	756.60324
790.131	752.63769
790.547	722.59024
790.963	745.6214
791.379	720.60766
791.795	733.45466
792.21	704.4448
792.626	695.45293
793.041	681.49204
793.457	644.42422
793.872	648.35426
794.287	611.30756
794.702	629.39073
795.117	593.33176
795.532	586.33027
795.947	635.36659
796.362	617.32155
796.776	613.28696
797.191	592.30856
797.605	450.98006
798.02	531.18063
798.434	492.00278
798.848	493.11866
799.262	431.99961
799.676	539.20043
800.09	480.0911
800.504	481.07725
800.918	448.96287
801.331	482.17303
801.745	450.95801
802.158	450.04628
802.572	435.9849
802.985	434.97924
803.398	391.87703
803.811	416.00348
804.224	421.98222
804.637	350.7904
805.05	383.83505
805.462	367.85358
805.875	338.83531
806.288	307.70814
806.7	341.8159
807.112	334.73579
807.525	309.73003
807.937	262.62536
808.349	289.69599
808.761	340.79563
809.173	283.65928
809.584	299.70887
809.996	270.63704
810.408	267.66533
810.819	239.54449
811.231	277.68974
811.642	311.70764
812.053	370.82976
812.464	413.91798
812.875	399.96044
813.286	304.75048
813.697	282.63348
814.108	270.63581
814.519	224.48458
814.929	227.5632
815.34	188.44634
815.75	221.54652
816.16	190.46357
816.571	215.5445
816.981	181.41886
817.391	192.45338
817.801	169.41226
818.211	130.30674
818.62	113.26999
819.03	168.40454
819.44	191.48854
819.849	164.40639
820.259	164.41292
820.668	119.29008
821.077	110.27119
821.486	144.34228
821.895	171.41496
822.304	114.2997
822.713	131.30628
823.122	130.32097
823.531	138.32309
823.939	118.28501
824.348	153.3664
824.756	114.28332
825.164	122.3042
825.573	111.27642
825.981	149.36429
826.389	143.35455
826.797	112.27835
827.205	84.19234
827.612	83.20436
828.02	75.17597
828.428	70.1782
828.835	81.21262
829.243	110.26026
829.65	79.19602
830.057	90.21763
830.464	112.27072
830.871	111.26379
831.278	76.1835
831.685	57.12766
832.092	56.13745
832.499	52.11427
832.905	66.16713
833.312	48.11004
833.718	68.16943
834.124	69.15778
834.531	62.15644
834.937	60.15415
835.343	64.15458
835.749	111.25728
836.155	52.13643
836.561	67.16479
836.966	74.18076
837.372	66.16796
837.777	19.04773
838.183	60.13374
838.588	39.0973
838.993	46.11245
839.399	26.06403
839.804	16.03934
840.209	19.04874
840.613	27.06059
841.018	52.13196
841.423	50.12855
841.828	18.04589
842.232	62.1537
842.637	62.14641
843.041	-6.01556
843.445	43.10825
843.849	26.06481
844.253	45.1074
844.657	25.06336
845.061	53.1206
845.465	-4.00979
845.869	28.06556
846.272	-1.00246
846.676	30.07303
847.079	15.03845
847.483	66.16457
847.886	42.10263
848.289	13.03495
848.692	10.02556
849.095	74.17739
849.498	118.29614
849.901	42.09679
850.304	38.09126
850.707	31.07946
851.109	73.18436
851.512	21.05199
851.914	-7.01785
852.316	36.09145
852.718	-3.00783
853.121	24.05921
853.523	11.02597
853.925	10.0263
854.326	-18.04563
854.728	33.08524
855.13	18.04674
855.531	-9.02179
855.933	61.14647
856.334	47.11743
856.736	-5.01135
857.137	8.0188
857.538	19.04811
857.939	7.01746
858.34	62.15105
858.741	46.12048
859.142	-5.01216
859.542	28.07423
859.943	22.05504
860.343	13.03246
860.744	74.18008
861.144	63.15357
861.544	-27.06594
861.945	26.06663
862.345	10.02468
862.745	22.05504
863.145	41.09838
863.544	56.14156
863.944	43.10192
864.344	38.09475
864.743	46.11441
865.143	29.07486
865.542	28.06535
865.941	7.01749
866.34	46.11048
866.74	17.04592
867.139	-4.00969
867.537	-3.00772
867.936	10.02429
868.335	46.11727
868.734	29.07447
869.132	-17.04009
869.531	19.0463
869.929	7.01612
870.327	36.08666
870.726	36.09012
871.124	7.01653
871.522	18.04616
871.92	37.09161
872.318	21.05169
872.715	81.19966
873.113	11.02703
873.511	16.04016
873.908	-30.07689
874.306	-32.08086
874.703	8.02019
875.1	64.16351
875.497	31.07469
875.894	-11.02728
876.291	32.07889
876.688	0
877.085	12.02904
877.482	52.13027
877.878	26.06294
878.275	9.02305
878.671	39.0872
879.068	32.07761
879.464	2.00488
879.86	-9.02155
880.256	40.09901
880.652	18.04608
881.048	17.04243
881.444	53.12625
881.84	19.0486
882.236	37.09334
882.631	20.04942
883.027	8.01955
883.422	29.07449
883.817	-40.10223
884.213	20.05163
884.608	-22.05472
885.003	-19.04645
885.398	-3.00759
885.793	42.10567
886.188	5.01254
886.582	51.13091
886.977	57.13525
887.371	22.05597
887.766	-8.02012
888.16	57.14221
888.554	29.07206
888.949	41.10321
889.343	24.05897
889.737	-12.03232
890.131	30.07559
890.525	-11.02845
890.918	4.01016
891.312	57.13635
891.706	17.04488
892.099	59.15002
892.492	26.05646
892.886	3.00741
893.279	6.01541
893.672	32.08178
894.065	23.05792
894.458	48.12086
894.851	4.00989
895.244	13.03344
895.637	1.00243
896.029	22.05412
896.422	21.05163
896.814	28.06994
897.206	-4.00963
897.599	26.06464
897.991	2.00488
898.383	-31.07447
898.775	15.03413
899.167	-16.03783
899.559	41.10403
899.951	10.02378
900.342	48.1222
900.734	-17.04272
901.125	29.07641
901.517	-20.04976
901.908	24.05788
902.299	22.0541
902.69	8.01905
903.082	32.07782
903.473	-8.01938
903.863	-9.02322
904.254	30.06996
904.645	35.08735
905.036	-33.08119
905.426	75.17101
905.817	30.07393
906.207	-32.0775
906.597	16.0377
906.987	46.11937
907.378	-4.01022
907.768	32.08489
908.158	40.09778
908.547	0
908.937	33.08497
909.327	-1.00245
909.717	44.1119
910.106	11.02663
910.495	83.20609
910.885	13.03316
911.274	33.08278
911.663	38.09671
912.052	42.10385
912.441	23.05879
912.83	15.0347
913.219	17.04476
913.608	-2.00495
913.997	-2.00506
914.385	4.00965
914.774	4.00983
915.162	-10.02412
915.55	41.09942
915.939	13.03304
916.327	34.08515
916.715	6.01541
917.103	70.17175
917.491	37.09181
917.878	47.11568
918.266	31.08068
918.654	14.03601
919.041	-26.06877
919.429	-34.08159
919.816	31.07888
920.203	0
920.591	-15.03765
920.978	22.05418
921.365	3.00794
921.752	17.04081
922.139	-17.03746
922.525	-13.03161
922.912	5.0123
923.299	5.01253
923.685	16.04199
924.072	10.02326
924.458	-32.08049
924.844	21.05226
925.231	17.03984
925.617	-15.0386
926.003	23.05908
926.389	13.03302
926.774	10.02553
927.16	18.04498
927.546	-1.00258
927.931	38.09506
928.317	19.04406
928.702	18.04287
929.088	2.00478
929.473	7.01795
929.858	-9.022
930.243	-10.02428
930.628	-7.01722
931.013	14.03493
931.398	53.12187
931.783	32.08453
932.167	9.02218
932.552	31.07796
932.937	36.0896
933.321	-9.02283
933.705	29.0734
934.09	51.12889
934.474	44.10467
934.858	2.00523
935.242	11.0257
935.626	-24.06224
936.009	20.05347
936.393	3.0077
936.777	25.06431
937.16	-2.00525
937.544	33.07803
937.927	-13.03336
938.311	32.0784
938.694	38.10071
939.077	-23.05584
939.46	63.15437
939.843	11.02316
940.226	3.00776
940.609	-54.12658
940.991	2.00513
941.374	-20.04953
941.757	30.07432
942.139	-21.04786
942.522	16.03808
942.904	28.0676
943.286	-7.01797
943.668	27.07022
944.05	9.02234
944.432	-5.01247
944.814	25.06187
945.196	-40.09912
945.578	-45.10892
945.959	31.07293
946.341	53.13006
946.722	15.03546
947.104	12.0289
947.485	18.04216
947.866	25.06327
948.247	-1.00255
948.628	27.06616
949.009	4.01033
949.39	14.03509
949.771	10.02345
950.152	21.05182
950.532	-58.14551
950.913	8.01945
951.293	16.04346
951.674	15.03652
952.054	-6.01502
952.434	7.01751
952.814	47.11191
953.194	62.16195
953.574	8.01986
953.954	-5.012
954.334	28.07007
954.714	-1.00246
955.093	28.06913
955.473	1.00252
955.853	-28.07346
956.232	29.07975
956.611	11.02658
956.99	10.02531
957.37	22.05634
957.749	10.02404
958.128	-1.00254
958.506	-46.1213
958.885	30.076
959.264	-13.03223
959.643	32.0731
960.021	1.0025
960.4	-16.03676
960.778	73.17908
961.156	10.02525
961.535	10.0235
961.913	22.05177
962.291	-1.00259
962.669	26.06614
963.047	35.08956
963.424	29.07428
963.802	-11.02735
964.18	45.11397
964.557	1.00233
964.935	33.07846
965.312	-20.0527
965.69	35.08789
966.067	-10.02463
966.444	22.0545
966.821	22.05699
967.198	39.09482
967.575	40.09854
967.952	5.01189
968.329	31.07571
968.705	6.01299
969.082	30.07721
969.458	-40.0976
969.835	36.08787
970.211	-16.04154
970.587	44.10967
970.963	51.13082
971.339	25.06556
971.715	29.07269
972.091	42.10358
972.467	46.11482
972.843	-47.1187
973.219	48.11532
973.594	-14.03702
973.97	121.28412
974.345	12.02893
974.721	43.10427
975.096	11.02681
975.471	32.07618
975.846	15.03628
976.221	-23.05916
976.596	-5.01211
976.971	26.06448
977.346	32.07477
977.72	25.06397
978.095	14.03641
978.469	24.05757
978.844	40.10075
979.218	-35.08525
979.593	47.11269
979.967	26.06363
980.341	40.09229
980.715	17.04309
981.089	-27.06853
981.463	8.01852
981.837	-31.07689
982.21	36.08402
982.584	-11.02687
982.957	-12.0303
983.331	28.06648
983.704	14.03463
984.078	-12.02991
984.451	64.15947
984.824	-9.02216
985.197	15.03667
985.57	32.08051
985.943	-5.01247
986.316	54.13259
986.688	66.15869
987.061	62.14499
987.434	4.01051
987.806	21.05121
988.179	-52.12512
988.551	21.05355
988.923	31.07661
989.295	74.18411
989.667	-74.18096
990.039	-14.035
990.411	-9.02096
990.783	17.0394
991.155	-35.08545
991.527	53.13045
991.898	16.04011
992.27	-1.0025
992.641	17.0429
993.012	51.11999
993.384	-7.01688
993.755	35.08946
994.126	39.094
994.497	-23.05721
994.868	-27.06298
995.239	17.04146
995.61	-21.05351
995.98	-32.07892
996.351	6.01498
996.722	-31.07305
997.092	-17.04077
997.462	-69.16493
997.833	26.06192
998.203	-10.02452
998.573	-16.04031
998.943	-27.06427
999.313	1.00242
999.683	-18.04376
1000.053	-18.04198
1000.423	23.05617
1000.792	6.01567
1001.162	16.03962
1001.531	28.06931
1001.901	-22.05555
1002.27	18.0405
1002.639	-12.03099
1003.009	17.04068
1003.378	-5.01291
1003.747	2.00477
1004.116	-9.02178
1004.485	-5.01207
1004.853	40.10151
1005.222	15.03806
1005.591	5.01197
1005.959	-42.0964
1006.328	-48.11018
1006.696	-17.04152
1007.064	15.03796
1007.433	9.02266
1007.801	16.03952
1008.169	21.0533
1008.537	33.07333
1008.905	-33.07812
1009.273	23.05709
1009.64	-12.02896
1010.008	-8.01928
1010.375	42.10213
1010.743	92.21066
1011.11	11.02622
1011.478	5.01247
1011.845	34.0802
1012.212	27.06139
1012.579	2.00495
1012.946	41.09774
1013.313	31.07404
1013.68	31.06994
1014.047	0
1014.414	-13.03107
1014.78	0
1015.147	64.15435
1015.513	19.04604
1015.88	27.06931
1016.246	33.0817
1016.612	49.11218
1016.978	24.05908
1017.344	-14.035
1017.71	62.15082
1018.076	28.0663
1018.442	58.14896
1018.808	11.02768
1019.174	7.01769
1019.539	96.21894
1019.905	-45.10805
1020.27	-29.07259
1020.636	32.07697
1021.001	32.07685
1021.366	-7.01699
1021.731	43.11069
1022.096	-22.05619
1022.461	11.02622
1022.826	15.03588
1023.191	16.04221
1023.556	-19.04512
1023.92	33.08137
1024.285	-3.00739
1024.649	28.06888
1025.014	57.14097
1025.378	21.05306
1025.742	-4.01003
1026.107	30.06811
1026.471	20.04695
1026.835	-6.01502
1027.199	-35.08557
1027.562	9.02108
1027.926	2.00493
1028.29	10.02548
1028.654	-10.02328
1029.017	26.06417
1029.381	13.03126
1029.744	-1.00257
1030.107	-10.02393
1030.471	26.06251
1030.834	7.01606
1031.197	57.13708
1031.56	-9.02147
1031.923	7.01823
1032.286	30.07071
1032.648	25.06005
1033.011	6.01389
1033.374	22.05197
1033.736	-7.01857
1034.099	12.02944
1034.461	-2.0051
1034.823	26.065
1035.185	34.08579
1035.548	27.06596
1035.91	-38.09251
1036.272	-18.04151
1036.634	33.08095
1036.995	-23.05481
1037.357	-18.04433
1037.719	3.00736
1038.08	40.09512
1038.442	-38.09168
1038.803	27.06508
1039.165	-38.09735
1039.526	2.00487
1039.887	-31.07529
1040.248	-26.06492
1040.609	0
1040.97	9.02215
1041.331	2.0051
1041.692	-43.10215
1042.053	-25.05776
1042.413	43.1003
1042.774	35.08532
1043.134	48.11427
1043.495	5.01266
1043.855	-14.03435
1044.215	-21.05277
1044.576	-9.02175
1044.936	30.06903
1045.296	-3.00755
1045.656	37.09097
1046.016	5.01217
1046.375	-8.01961
1046.735	-46.10626
1047.095	37.08678
1047.454	21.04476
1047.814	-45.11006
1048.173	38.09095
1048.533	-29.06746
1048.892	-24.05838
1049.251	37.09304
1049.61	-21.05235
1049.969	0
1050.328	22.04796
1050.687	22.05378
1051.046	10.02452
1051.405	38.09468
1051.763	-37.08651
1052.122	-24.06062
1052.48	-10.02478
1052.839	-7.01664
1053.197	24.05674
1053.555	38.0868
1053.914	8.01971
1054.272	23.05586
1054.63	-27.06692
1054.988	-3.0072
1055.345	12.02604
1055.703	19.04597
1056.061	17.04396
1056.419	48.12422
1056.776	46.11157
1057.134	1.00234
1057.491	15.03777
1057.848	31.0774
1058.206	-36.08603
1058.563	-22.0492
1058.92	9.0209
1059.277	67.16466
1059.634	-5.01188
1059.991	13.03135
1060.348	-37.08505
1060.704	-43.10423
1061.061	8.01873
1061.418	-3.00734
1061.774	-21.05249
1062.131	-6.016
1062.487	-12.02838
1062.843	39.09737
1063.199	3.00752
1063.555	29.06743
1063.911	38.09612
1064.267	49.10217
1064.623	-56.13862
1064.979	37.08783
1065.335	45.1076
1065.691	38.09123
1066.046	18.03982
1066.402	-19.04374
1066.757	43.1086
1067.112	31.0763
1067.468	-18.04303
1067.823	27.06515
1068.178	48.11607
1068.533	25.06085
1068.888	6.01445
1069.243	20.0496
1069.598	6.01469
1069.952	-5.01138
1070.307	0
1070.662	-28.06743
1071.016	-16.03631
1071.371	4.00918
1071.725	2.00483
1072.079	13.03146
1072.434	-15.03687
1072.788	-30.07249
1073.142	38.09362
1073.496	-19.04564
1073.85	7.01636
1074.203	9.02199
1074.557	14.03743
1074.911	31.07421
1075.265	-10.0235
1075.618	29.07104
1075.971	7.01678
1076.325	13.03323
1076.678	-31.072
1077.031	1.00228
1077.385	-18.04019
1077.738	-2.00456
1078.091	-29.06695
1078.444	9.02105
1078.796	7.0173
1079.149	-1.00251
1079.502	-38.09123
1079.855	-9.02122
1080.207	-2.00497
1080.56	14.03638
1080.912	24.05867
1081.264	21.05081
1081.617	-26.06422
1081.969	-1.00254
1082.321	-13.03209
1082.673	-76.17773
1083.025	-3.00718
1083.377	-6.01302
1083.728	18.04223
1084.08	14.03515
1084.432	-2.00487
1084.783	37.08685
1085.135	16.04031
1085.486	-17.03939
1085.838	-17.04235
1086.189	-1.00245
1086.54	23.05517
1086.891	11.02799
1087.242	3.00736
1087.593	7.01717
1087.944	18.04097
1088.295	30.06842
1088.646	-4.00979
1088.996	-21.05123
1089.347	16.03948
1089.698	-1.00238
1090.048	15.03916
1090.398	31.07211
1090.749	38.09106
1091.099	-26.06621
1091.449	13.03257
1091.799	2.00505
1092.149	-58.14415
1092.499	9.0221
1092.849	-6.01539
1093.199	25.06289
1093.548	0
1093.898	0
1094.248	32.08241
1094.597	-19.04904
1094.947	-11.02961
1095.296	-9.02245
1095.645	30.07823
1095.994	38.0914
1096.343	2.00507
1096.692	6.01586
1097.041	-3.00818
1097.39	37.09294
1097.739	16.04179
1098.088	29.0779
1098.437	-2.0053
1098.785	15.04063
1099.134	27.0719
1099.482	2.00554
1099.83	0
1100.179	-30.07924
1100.527	19.0507
1100.875	1.00266
1101.223	4.01069
1101.571	-16.04463
1101.919	-25.06609
1102.267	19.0537
1102.615	-10.0322
1102.962	10.0322
1103.31	-6.0193
1103.658	14.04508
