Data from N2 R8 sample 10_Subt2__0__17-29-39-912.txt Node

Date: Fri Aug 29 17:29:39 PDT 2025
User: uwsun
Spectrometer: HDX01956
Trigger mode: 0
Integration Time (sec): 5.000000E-1
Scans to average: 1
Nonlinearity correction enabled: true
Boxcar width: 0
Storing dark spectrum: false
XAxis mode: Wavelengths
Number of Pixels in Spectrum: 2068
>>>>>Begin Spectral Data<<<<<
194.03	276.74137
194.578	263.80422
195.127	296.88693
195.676	262.79131
196.225	336.84071
196.773	327.84917
197.321	455.12595
197.87	580.2788
198.418	607.3113
198.966	596.29931
199.513	504.06082
200.061	504.08082
200.609	625.39222
201.156	507.92004
201.704	508.08144
202.251	555.24122
202.798	572.24745
203.345	562.16806
203.892	591.23907
204.438	611.206
204.985	590.14294
205.532	594.30643
206.078	632.27584
206.624	583.18512
207.17	671.2602
207.716	588.17818
208.262	648.01468
208.808	540.1043
209.354	572.15294
209.899	644.35065
210.445	583.19805
210.99	570.13521
211.535	699.3245
212.08	645.222
212.625	684.39866
213.17	634.33023
213.715	575.03823
214.259	656.24318
214.804	695.40032
215.348	673.24411
215.892	622.22803
216.436	668.2598
216.98	640.15262
217.524	615.19402
218.068	652.35541
218.612	628.31415
219.155	582.13548
219.698	582.15323
220.242	596.24654
220.785	570.11098
221.328	560.17683
221.871	547.1805
222.414	581.21861
222.956	526.06541
223.499	544.02252
224.041	596.15789
224.583	607.08217
225.126	538.99196
225.668	529.08592
226.21	500.07269
226.751	444.82517
227.293	563.0752
227.835	545.11933
228.376	589.13366
228.918	587.24855
229.459	495.04801
230	543.08561
230.541	519.00923
231.082	539.10001
231.622	535.03645
232.163	528.07728
232.704	552.14928
233.244	545.13846
233.784	593.21753
234.324	505.92247
234.864	539.01932
235.404	532.06775
235.944	552.09827
236.484	609.26787
237.023	557.09614
237.563	559.07116
238.102	582.14086
238.641	560.1913
239.18	507.99414
239.719	570.19945
240.258	566.05351
240.797	547.09109
241.335	573.17217
241.874	525.82457
242.412	592.17472
242.95	548.08625
243.488	567.06977
244.026	555.05733
244.564	563.94657
245.102	546.01218
245.64	593.1863
246.177	573.05626
246.715	605.19973
247.252	590.1157
247.789	626.94167
248.326	521.04106
248.863	584.0408
249.4	617.14153
249.936	578.96254
250.473	579.10742
251.009	609.13119
251.546	586.04977
252.082	600.06552
252.618	565.02742
253.154	596.17166
253.69	556.02819
254.226	566.11363
254.761	609.10705
255.297	572.01674
255.832	550.07395
256.367	587.13197
256.903	587.04265
257.438	712.33112
257.972	581.05176
258.507	576.07004
259.042	599.0475
259.576	536.93587
260.111	603.13449
260.645	634.09633
261.179	623.17047
261.713	574.03404
262.247	629.16899
262.781	574.96482
263.315	583.1668
263.849	574.17979
264.382	661.21457
264.915	615.15768
265.449	562.11197
265.982	652.18448
266.515	643.26214
267.048	588.99376
267.58	644.12135
268.113	595.02409
268.646	651.2899
269.178	588.0512
269.71	675.15719
270.243	688.23926
270.775	657.34671
271.307	695.3323
271.838	661.26091
272.37	661.30119
272.902	642.16214
273.433	568.99857
273.965	640.24944
274.496	655.31175
275.027	621.24241
275.558	650.25699
276.089	586.15738
276.62	695.41508
277.15	643.27699
277.681	669.13707
278.211	647.27299
278.741	674.14899
279.272	631.13609
279.802	679.34923
280.332	667.23484
280.861	624.19971
281.391	649.15185
281.921	693.31567
282.45	639.28143
282.98	658.37701
283.509	626.10719
284.038	596.0776
284.567	701.27854
285.096	667.26991
285.625	616.09967
286.153	671.22371
286.682	654.16345
287.21	649.22659
287.739	693.26838
288.267	625.19269
288.795	653.37527
289.323	680.22232
289.851	691.25072
290.378	720.22695
290.906	666.24803
291.433	714.37966
291.961	703.20725
292.488	697.34772
293.015	705.26314
293.542	707.38079
294.069	697.31749
294.596	776.46173
295.122	776.38957
295.649	763.24917
296.175	786.43643
296.702	787.43718
297.228	839.51691
297.754	790.30251
298.28	743.2523
298.806	743.34162
299.332	751.21646
299.857	758.25929
300.383	756.45746
300.908	701.27789
301.433	739.34187
301.958	814.37864
302.483	725.36048
303.008	848.54062
303.533	821.60228
304.058	805.39395
304.582	768.32585
305.107	712.40668
305.631	867.4121
306.155	832.38261
306.679	815.36283
307.203	874.42792
307.727	880.4795
308.251	821.47524
308.775	748.2837
309.298	820.39559
309.822	899.61737
310.345	876.45755
310.868	884.47817
311.391	902.56693
311.914	871.54369
312.437	910.42907
312.96	873.42429
313.482	857.41294
314.005	908.58986
314.527	845.58454
315.049	943.65607
315.571	863.28208
316.093	1001.66218
316.615	953.53882
317.137	914.30368
317.659	992.61242
318.18	1020.62477
318.702	990.49533
319.223	915.1934
319.744	1047.46516
320.265	979.54011
320.786	971.56359
321.307	1109.73963
321.828	1070.48663
322.348	1052.54128
322.869	1047.52219
323.389	1049.90283
323.909	1133.55221
324.43	1139.68746
324.95	1059.45477
325.47	1125.66053
325.989	1144.574
326.509	1110.37843
327.029	1163.46271
327.548	1146.4346
328.067	1164.59762
328.587	1269.78982
329.106	1185.47724
329.625	1284.9748
330.144	1170.47825
330.662	1253.53145
331.181	1323.60675
331.7	1289.57605
332.218	1349.4086
332.736	1324.5788
333.255	1262.50492
333.773	1262.53877
334.291	1376.7744
334.808	1413.44611
335.326	1341.4385
335.844	1427.50625
336.361	1450.74538
336.879	1503.52677
337.396	1437.57892
337.913	1558.48814
338.43	1498.3959
338.947	1545.55518
339.464	1508.23849
339.981	1565.50599
340.497	1572.64413
341.014	1636.59345
341.53	1550.32274
342.046	1621.57101
342.562	1719.67086
343.078	1649.43792
343.594	1705.48613
344.11	1740.46438
344.626	1687.60676
345.141	1806.30187
345.657	1852.31169
346.172	1739.44064
346.687	1842.27871
347.202	1802.19001
347.717	1881.37352
348.232	1891.51692
348.747	1839.21842
349.261	1827.00084
349.776	1827.2515
350.29	1912.3442
350.805	2044.41844
351.319	1965.18421
351.833	1926.04341
352.347	1981.16124
352.861	1995.10618
353.374	2134.08514
353.888	2040.21844
354.401	2004.03297
354.915	2044.88214
355.428	2190.20265
355.941	2112.97091
356.454	2218.88804
356.967	2139.02982
357.48	2216.91267
357.993	2236.11363
358.505	2222.04311
359.018	2336.01334
359.53	2288.92395
360.042	2402.64716
360.554	2327.94101
361.066	2302.92001
361.578	2368.54726
362.09	2293.83796
362.602	2347.53513
363.113	2399.65435
363.625	2441.51479
364.136	2531.41035
364.647	2436.48147
365.158	2503.52765
365.669	2488.61799
366.18	2549.52151
366.691	2559.29472
367.201	2490.53922
367.712	2594.29099
368.222	2621.27052
368.733	2581.07725
369.243	2742.01067
369.753	2759.13888
370.263	2874.14488
370.773	2822.24545
371.282	2831.04376
371.792	2807.79841
372.301	2981.86452
372.811	3130.01956
373.32	2948.41875
373.829	2967.59512
374.338	3241.25136
374.847	3328.19929
375.356	3438.13997
375.865	3479.81729
376.373	3610.81237
376.882	3911.8958
377.39	3816.78001
377.898	3847.67133
378.407	4158.53192
378.915	4361.55712
379.423	4514.58603
379.93	4721.74523
380.438	4718.79454
380.946	5012.22668
381.453	5236.68185
381.96	5279.16779
382.468	5553.52108
382.975	6175.19079
383.482	6524.52205
383.989	6450.62214
384.495	6697.5191
385.002	6967.7707
385.509	7186.03789
386.015	7815.70738
386.521	8242.00126
387.028	8415.14784
387.534	8607.59791
388.04	9256.01134
388.546	8999.47675
389.051	9496.19053
389.557	10442.90252
390.063	11838.85383
390.568	11845.89997
391.073	12036.89034
391.578	12621.40277
392.084	12344.05687
392.589	12608.82346
393.093	13446.20706
393.598	14838.69758
394.103	16666.78856
394.607	18278.45082
395.112	19338.46751
395.616	20660.95975
396.12	21985.17621
396.624	24336.83813
397.128	26205.84901
397.632	29475.76554
398.136	31795.06451
398.639	32013.72774
399.143	31449.50812
399.646	28605.62239
400.15	25083.82847
400.653	20124.16724
401.156	13866.23708
401.659	5169.95759
402.162	1054.15589
402.664	0
403.167	0
403.67	0
404.172	0
404.674	0
405.176	0
405.678	0
406.18	0
406.682	0
407.184	0
407.686	0
408.187	0
408.688	0
409.19	0
409.691	0
410.192	0
410.693	0
411.194	435.30976
411.694	4082.94878
412.195	8864.71461
412.696	12089.80453
413.196	12760.96929
413.696	12863.67595
414.196	13703.56671
414.696	17261.84252
415.196	21764.24417
415.696	29583.19008
416.196	36460.31858
416.695	40057.39798
417.195	40237.66192
417.694	37736.79467
418.194	36042.12829
418.693	32916.05567
419.192	32250.69855
419.691	31767.76783
420.19	31460.20311
420.688	30941.05694
421.187	30057.34968
421.685	28382.38584
422.184	26086.57211
422.682	22446.09333
423.18	18344.91351
423.678	16294.52197
424.176	14904.66738
424.674	14045.53791
425.172	13472.30985
425.669	12966.79161
426.167	12059.36871
426.664	11073.29243
427.161	10002.73112
427.659	9215.14203
428.156	8497.99976
428.652	8057.8218
429.149	7713.37108
429.646	7363.29372
430.143	7123.07798
430.639	6666.80081
431.135	6153.40962
431.632	5833.68985
432.128	5451.56732
432.624	5063.92585
433.12	4807.93682
433.616	4643.78449
434.111	4266.55204
434.607	4295.53794
435.103	4291.54079
435.598	4335.54372
436.093	3998.65668
436.588	3858.71761
437.083	3646.87467
437.578	3482.05596
438.073	3205.36469
438.568	3210.52744
439.062	3118.27377
439.557	3058.65808
440.051	2849.67961
440.546	2659.82221
441.04	2654.02157
441.534	2578.30599
442.028	2657.16843
442.522	2455.2699
443.015	2516.02772
443.509	2393.45591
444.002	2296.50205
444.496	2291.22353
444.989	2212.59601
445.482	2255.64109
445.975	2201.36611
446.468	2107.31574
446.961	2165.30797
447.454	2078.51579
447.947	1958.65077
448.439	1989.79238
448.931	1884.57904
449.424	1962.95672
449.916	2034.82952
450.408	1889.63646
450.9	1828.85895
451.392	1805.00474
451.884	1761.80087
452.375	1638.97493
452.867	1765.82034
453.358	1661.7823
453.849	1612.67251
454.341	1623.81614
454.832	1617.72182
455.323	1578.02575
455.814	1608.92242
456.304	1582.94053
456.795	1552.93313
457.285	1605.92711
457.776	1541.00794
458.266	1426.03716
458.756	1520.12877
459.247	1319.03269
459.737	1345.05265
460.226	1368.95106
460.716	1288.0833
461.206	1333.13673
461.695	1288.24957
462.185	1220.08696
462.674	1268.07625
463.163	1308.01708
463.653	1247.90231
464.142	1136.12782
464.63	1151.2004
465.119	1068.03172
465.608	1127.06865
466.096	1150.00832
466.585	1119.1233
467.073	1054.1654
467.561	1084.20082
468.05	1123.16887
468.538	1011.21525
469.026	1078.21715
469.513	948.91251
470.001	995.06684
470.489	924.09419
470.976	929.07808
471.463	933.23349
471.951	904.23214
472.438	854.06646
472.925	814.02405
473.412	886.21455
473.899	846.06456
474.385	783.11635
474.872	777.0241
475.359	777.10567
475.845	821.91234
476.331	744.93579
476.817	754.11172
477.303	674.95393
477.789	709.05055
478.275	621.98345
478.761	640.98363
479.247	663.92616
479.732	607.98118
480.218	604.04932
480.703	628.025
481.188	598.81408
481.673	591.88333
482.158	513.70252
482.643	628.08709
483.128	496.76297
483.612	529.84291
484.097	508.8748
484.581	478.78014
485.066	491.83852
485.55	392.60574
486.034	420.63645
486.518	426.71162
487.002	432.76018
487.486	431.76299
487.969	352.63724
488.453	344.65777
488.936	410.67023
489.42	363.59353
489.903	413.78341
490.386	374.42857
490.869	349.56999
491.352	371.69686
491.835	370.56769
492.318	369.62365
492.8	358.55155
493.283	283.56356
493.765	311.59452
494.247	324.59104
494.73	265.45686
495.212	277.53363
495.694	222.41091
496.175	200.37648
496.657	306.57207
497.139	287.38412
497.62	180.34267
498.102	227.4533
498.583	259.52393
499.064	193.34483
499.545	231.42319
500.026	205.36987
500.507	201.37939
500.988	251.50635
501.469	169.34846
501.949	195.39827
502.43	165.32092
502.91	150.25258
503.39	223.46104
503.87	163.31537
504.35	211.41098
504.83	141.25504
505.31	103.20998
505.79	117.23429
506.269	158.30841
506.749	138.26195
507.228	148.28889
507.707	150.27597
508.187	154.30989
508.666	122.25217
509.145	121.23736
509.623	116.22987
510.102	141.28837
510.581	166.3385
511.059	142.29983
511.538	161.35388
512.016	143.28901
512.494	206.41873
512.972	110.2238
513.45	79.15505
513.928	154.31474
514.406	99.20155
514.884	126.27666
515.361	102.20894
515.839	129.24875
516.316	92.18999
516.793	135.29336
517.27	136.28275
517.747	80.17758
518.224	76.15223
518.701	123.23364
519.178	45.09679
519.654	122.25025
520.131	106.22608
520.607	114.24483
521.083	93.18304
521.56	116.23557
522.036	112.21145
522.512	80.17262
522.987	77.15784
523.463	55.11417
523.939	99.21128
524.414	90.18102
524.89	92.18974
525.365	57.11271
525.84	54.11147
526.315	47.09926
526.79	104.203
527.265	59.11776
527.74	53.11341
528.215	90.18478
528.689	53.10269
529.164	116.21804
529.638	117.26268
530.112	7.01461
530.587	31.05797
531.061	32.06801
531.534	51.10941
532.008	49.10367
532.482	106.21231
532.956	17.03842
533.429	132.27786
533.903	60.11712
534.376	48.0936
534.849	55.11264
535.322	61.12708
535.795	57.12334
536.268	31.06616
536.741	57.12133
537.213	56.11461
537.686	44.09478
538.158	17.03373
538.631	51.1104
539.103	25.04962
539.575	68.12504
540.047	11.02161
540.519	67.142
540.991	56.12203
541.463	39.08414
541.934	40.08131
542.406	31.06567
542.877	29.05826
543.348	105.22312
543.82	91.19724
544.291	74.15309
544.762	40.08405
545.233	73.16133
545.703	93.17942
546.174	60.12324
546.645	78.16245
547.115	97.20414
547.585	104.2086
548.056	97.20243
548.526	106.21517
548.996	116.24214
549.466	177.37151
549.935	107.21764
550.405	178.32848
550.875	144.29097
551.344	145.2979
551.814	170.33152
552.283	229.41635
552.752	111.22032
553.221	154.28062
553.69	220.40558
554.159	186.38273
554.628	209.38617
555.096	205.4356
555.565	195.36355
556.033	262.51506
556.502	152.31629
556.97	112.21529
557.438	152.31164
557.906	136.28199
558.374	62.12637
558.842	100.21078
559.31	55.11004
559.777	44.0949
560.245	47.09948
560.712	45.09391
561.18	59.11651
561.647	36.07254
562.114	27.0555
562.581	67.14851
563.048	81.16776
563.514	23.05104
563.981	34.07069
564.448	67.13535
564.914	83.17398
565.381	89.18235
565.847	111.23288
566.313	59.12444
566.779	75.15262
567.245	125.26098
567.711	109.23364
568.176	114.22802
568.642	59.1335
569.108	115.25235
569.573	168.35099
570.038	142.26533
570.504	122.24278
570.969	150.33365
571.434	115.22389
571.899	164.34415
572.363	198.39438
572.828	241.47947
573.293	247.49004
573.757	230.45855
574.222	206.39885
574.686	181.35372
575.15	244.50049
575.614	266.52366
576.078	255.51489
576.542	284.55383
577.006	301.57736
577.469	327.6924
577.933	279.53205
578.396	249.51271
578.86	292.58974
579.323	242.49818
579.786	308.56469
580.249	231.45508
580.712	272.57431
581.175	300.63398
581.637	296.58684
582.1	279.52844
582.563	326.5974
583.025	269.56237
583.487	287.494
583.95	229.42567
584.412	278.50274
584.874	274.57422
585.336	224.46321
585.797	218.41138
586.259	276.56459
586.721	195.40188
587.182	271.55223
587.643	251.49634
588.105	251.51729
588.566	188.34989
589.027	222.46648
589.488	207.41529
589.949	234.49646
590.41	196.33347
590.87	211.42507
591.331	252.47484
591.791	155.31758
592.252	179.36044
592.712	198.42009
593.172	184.36599
593.632	227.4373
594.092	245.47653
594.552	178.33936
595.011	151.30756
595.471	207.40761
595.931	171.33799
596.39	168.35628
596.849	182.37484
597.308	244.46293
597.768	186.41767
598.227	218.46191
598.685	181.37001
599.144	205.42211
599.603	212.44213
600.062	219.40141
600.52	204.39914
600.978	228.47401
601.437	203.41027
601.895	185.34628
602.353	211.41235
602.811	275.52799
603.269	232.48599
603.727	311.63979
604.184	283.54834
604.642	251.53543
605.099	239.48392
605.557	300.63092
606.014	340.61928
606.471	300.64148
606.928	291.53096
607.385	399.80861
607.842	449.8488
608.299	596.11167
608.755	493.97581
609.212	429.78876
609.668	383.70594
610.125	515.01905
610.581	605.16339
611.037	561.04548
611.493	554.07205
611.949	478.95476
612.405	462.76162
612.861	500.98157
613.316	440.88253
613.772	476.91108
614.227	455.89933
614.683	513.90869
615.138	476.92916
615.593	518.99532
616.048	539.01833
616.503	547.11536
616.958	504.0543
617.412	542.05931
617.867	473.8723
618.321	525.89903
618.776	563.02481
619.23	502.98875
619.684	504.95769
620.138	573.10492
620.592	481.99216
621.046	527.04041
621.5	470.97448
621.954	495.94769
622.407	494.93457
622.861	493.01918
623.314	441.86717
623.768	398.80825
624.221	391.66983
624.674	390.78658
625.127	420.85642
625.58	406.81396
626.033	410.79576
626.485	365.77251
626.938	446.92638
627.39	393.80738
627.843	404.82492
628.295	379.77862
628.747	365.77454
629.199	329.67346
629.651	334.68262
630.103	367.75193
630.555	332.63482
631.006	313.66768
631.458	359.76281
631.909	353.736
632.361	319.679
632.812	275.58459
633.263	298.59025
633.714	346.67474
634.165	324.72034
634.616	320.69845
635.067	318.65051
635.518	324.71137
635.968	352.64635
636.419	366.7263
636.869	325.71342
637.319	294.63056
637.769	332.68314
638.219	336.74206
638.669	333.73251
639.119	346.77914
639.569	333.74266
640.019	362.77102
640.468	354.72907
640.918	373.82772
641.367	376.77507
641.816	416.84788
642.265	423.89134
642.714	427.89977
643.163	380.80443
643.612	355.78647
644.061	405.78136
644.51	433.89717
644.958	466.92388
645.406	453.98387
645.855	513.12923
646.303	520.08927
646.751	429.89008
647.199	502.0246
647.647	527.0823
648.095	534.09102
648.543	573.03461
648.99	564.1967
649.438	539.13487
649.885	540.19894
650.333	499.86733
650.78	546.1791
651.227	519.13624
651.674	527.07597
652.121	496.09289
652.568	472.04252
653.015	578.30785
653.461	504.08268
653.908	547.14164
654.354	445.97677
654.801	484.02982
655.247	470.94183
655.693	512.21311
656.139	500.0879
656.585	524.13586
657.031	380.82377
657.477	450.88966
657.922	453.95664
658.368	460.04302
658.813	521.09931
659.259	427.94791
659.704	437.93943
660.149	412.89122
660.594	459.00086
661.039	391.83116
661.484	450.9946
661.929	456.98385
662.373	364.8631
662.818	402.93145
663.262	397.89268
663.707	388.92212
664.151	412.93986
664.595	379.85814
665.039	408.95021
665.483	420.99814
665.927	394.87085
666.371	402.86774
666.814	424.94536
667.258	393.87028
667.701	482.95873
668.145	447.03418
668.588	375.86874
669.031	410.90053
669.474	373.84834
669.917	452.93005
670.36	400.93269
670.803	446.0018
671.245	402.7955
671.688	395.90853
672.13	373.78944
672.573	412.98477
673.015	383.86896
673.457	413.84311
673.899	440.99683
674.341	377.86125
674.783	390.88179
675.225	397.92042
675.666	340.77784
676.108	372.76614
676.549	426.94746
676.991	424.87637
677.432	367.69275
677.873	366.80492
678.314	448.99968
678.755	387.89084
679.196	347.75785
679.637	402.9285
680.078	395.87507
680.518	376.83351
680.959	389.88221
681.399	343.81254
681.839	405.93078
682.28	373.87368
682.72	338.73992
683.16	370.87563
683.6	386.8357
684.039	344.68583
684.479	362.84577
684.919	296.65728
685.358	367.88746
685.798	367.91575
686.237	378.86961
686.676	378.83515
687.115	357.80078
687.554	350.79427
687.993	323.68752
688.432	334.73209
688.871	322.70192
689.309	354.80725
689.748	343.68781
690.186	400.9055
690.625	334.75058
691.063	362.82782
691.501	382.89773
691.939	383.90691
692.377	382.88512
692.815	351.80187
693.253	409.93057
693.69	362.75896
694.128	303.70781
694.565	347.79241
695.003	383.92404
695.44	402.89373
695.877	321.72063
696.314	333.68875
696.751	369.80351
697.188	349.76674
697.625	423.91716
698.061	338.7773
698.498	398.91378
698.934	366.841
699.371	325.735
699.807	348.78813
700.243	341.78623
700.679	346.75103
701.115	399.89166
701.551	400.89297
701.987	390.83318
702.422	362.82016
702.858	395.89218
703.294	348.75537
703.729	360.84176
704.164	394.89953
704.599	362.76968
705.035	364.77629
705.47	344.80088
705.904	386.85353
706.339	408.89916
706.774	374.8339
707.209	359.79003
707.643	373.85348
708.078	394.91003
708.512	362.86332
708.946	402.91335
709.38	371.83799
709.814	375.81657
710.248	380.88154
710.682	358.81308
711.116	326.74611
711.549	372.9156
711.983	371.81643
712.416	410.91718
712.85	434.01694
713.283	389.87397
713.716	395.94289
714.149	444.99485
714.582	386.82285
715.015	454.06555
715.448	454.07218
715.881	334.70273
716.313	366.81776
716.746	386.86243
717.178	361.82836
717.61	436.03953
718.043	383.90831
718.475	415.95032
718.907	470.1126
719.339	400.85676
719.77	394.8843
720.202	393.9435
720.634	451.02568
721.065	422.94285
721.497	427.98642
721.928	446.02513
722.359	375.85909
722.79	397.89962
723.221	453.06837
723.652	509.21966
724.083	454.95644
724.514	461.98931
724.945	429.94839
725.375	416.90872
725.806	493.1444
726.236	497.18409
726.666	488.07208
727.096	484.10464
727.526	455.08139
727.956	453.96167
728.386	499.13962
728.816	455.07683
729.246	458.03848
729.675	465.06696
730.105	556.25494
730.534	490.06249
730.964	511.19746
731.393	537.22998
731.822	531.25214
732.251	514.20755
732.68	520.13005
733.109	536.21515
733.537	520.15734
733.966	596.34589
734.395	524.11218
734.823	572.17356
735.251	565.24283
735.68	623.41406
736.108	544.26669
736.536	574.2333
736.964	525.11939
737.392	577.31907
737.82	613.33049
738.247	595.29356
738.675	558.22047
739.102	615.39138
739.53	589.36702
739.957	595.39509
740.384	697.53289
740.811	649.48324
741.238	651.42625
741.665	605.26567
742.092	659.40919
742.519	602.35116
742.945	602.30908
743.372	700.54175
743.798	709.625
744.225	687.4514
744.651	699.56298
745.077	726.60306
745.503	770.64502
745.929	740.5611
746.355	782.7045
746.781	820.76323
747.207	703.45605
747.632	786.66837
748.058	780.70444
748.483	812.60979
748.908	804.73917
749.334	828.7591
749.759	819.6641
750.184	831.7023
750.609	881.8519
751.033	929.84931
751.458	909.71064
751.883	906.9124
752.307	891.77687
752.732	915.94109
753.156	932.94672
753.58	982.94001
754.005	1013.14645
754.429	971.89725
754.853	987.04142
755.277	984.9331
755.7	1058.15884
756.124	1030.11393
756.548	1017.98443
756.971	1042.09454
757.394	1052.24799
757.818	1082.2933
758.241	1115.30654
758.664	1123.30559
759.087	1034.86893
759.51	1111.24828
759.933	1132.18639
760.356	1129.35832
760.778	1126.23681
761.201	1150.24446
761.623	1154.24381
762.046	1226.28076
762.468	1225.31424
762.89	1215.37771
763.312	1169.28108
763.734	1196.2774
764.156	1192.3441
764.578	1218.18338
765	1212.33794
765.421	1221.46561
765.843	1227.57779
766.264	1273.39235
766.686	1265.49894
767.107	1205.30728
767.528	1178.38352
767.949	1264.5346
768.37	1261.42055
768.791	1248.36181
769.212	1185.37868
769.632	1176.15731
770.053	1250.62556
770.473	1254.38353
770.894	1240.45345
771.314	1237.31092
771.734	1204.19563
772.154	1202.47293
772.575	1266.25937
772.994	1218.14223
773.414	1259.35329
773.834	1223.42143
774.254	1158.26754
774.673	1218.33837
775.093	1190.34234
775.512	1166.29501
775.931	1195.4218
776.351	1144.28523
776.77	1130.2209
777.189	1163.19467
777.607	1165.39726
778.026	1097.22292
778.445	1104.24372
778.864	1153.39263
779.282	1060.07721
779.701	1085.23644
780.119	1097.2602
780.537	1066.17813
780.955	1089.26868
781.373	1029.09816
781.791	1017.85353
782.209	1078.99812
782.627	1040.2814
783.045	987.86405
783.462	1021.16717
783.88	969.11002
784.297	966.03654
784.715	960.07499
785.132	946.91587
785.549	906.92324
785.966	917.95461
786.383	964.98076
786.8	921.7867
787.217	879.76264
787.633	836.79535
788.05	962.89957
788.466	908.79952
788.883	851.86786
789.299	833.71869
789.715	785.65431
790.131	795.71566
790.547	831.78881
790.963	756.64153
791.379	775.71096
791.795	720.43315
792.21	729.48776
792.626	695.45293
793.041	704.53502
793.457	722.57098
793.872	728.49479
794.287	645.3703
794.702	677.48202
795.117	657.45632
795.532	638.43322
795.947	682.45309
796.362	658.39704
796.776	700.44175
797.191	604.33178
797.605	538.1479
798.02	602.31906
798.434	569.13979
798.848	491.11457
799.262	487.11485
799.676	533.18852
800.09	531.19479
800.504	496.10749
800.918	507.07393
801.331	517.25013
801.745	437.93297
802.158	492.13465
802.572	453.01985
802.985	452.01406
803.398	442.981
803.811	458.09624
804.224	403.94356
804.637	382.85702
805.05	399.86698
805.462	382.88583
805.875	394.96365
806.288	309.71247
806.7	416.98103
807.112	338.74398
807.525	393.91331
807.937	302.71529
808.349	346.82423
808.761	320.75177
809.173	312.72268
809.584	326.76884
809.996	223.53096
810.408	271.6748
810.819	290.65386
811.231	287.71334
811.642	298.67985
812.053	399.88945
812.464	441.97451
812.875	405.97377
813.286	315.77606
813.697	333.7402
814.108	269.63358
814.519	240.51741
814.929	260.64118
815.34	188.44634
815.75	225.556
816.16	257.61917
816.571	203.51521
816.981	222.50954
817.391	187.442
817.801	170.41462
818.211	146.34343
818.62	193.45406
819.03	207.49476
819.44	225.57205
819.849	204.5018
820.259	169.42512
820.668	150.36352
821.077	116.28566
821.486	149.35382
821.895	232.55652
822.304	152.39702
822.713	101.23753
823.122	149.36659
823.531	116.27275
823.939	144.3461
824.348	149.35709
824.756	147.36314
825.164	130.32367
825.573	84.21021
825.981	113.27812
826.389	127.3158
826.797	117.29051
827.205	59.13578
827.612	139.3387
828.02	76.17828
828.428	149.37401
828.835	110.28732
829.243	113.2672
829.65	112.27622
830.057	102.24608
830.464	96.23275
830.871	91.2171
831.278	103.24742
831.685	107.23717
832.092	105.25538
832.499	28.06184
832.905	69.17463
833.312	88.20013
833.718	100.24771
834.124	67.15326
834.531	87.21854
834.937	107.27264
835.343	73.17602
835.749	86.20032
836.155	85.22176
836.561	62.15263
836.966	92.22397
837.372	64.16293
837.777	70.17423
838.183	87.19284
838.588	43.1072
838.993	66.16074
839.399	53.12987
839.804	11.02707
840.209	33.08444
840.613	12.02701
841.018	25.06375
841.423	69.17681
841.828	56.14181
842.232	58.14389
842.637	11.02623
843.041	-5.01296
843.445	56.14065
843.849	67.16576
844.253	41.09793
844.657	35.08855
845.061	11.02524
845.465	11.02683
845.869	46.10732
846.272	28.06862
846.676	46.11165
847.079	27.06906
847.483	90.22343
847.886	55.13407
848.289	22.05906
848.692	43.10926
849.095	41.0989
849.498	85.21459
849.901	14.03244
850.304	71.16945
850.707	47.12014
851.109	62.15689
851.512	34.08398
851.914	-12.03063
852.316	39.09902
852.718	-36.09445
853.121	52.12763
853.523	35.08225
853.925	25.06558
854.326	16.04031
854.728	36.09294
855.13	27.07001
855.531	46.11022
855.933	33.07966
856.334	19.04771
856.736	-8.01818
857.137	23.05388
857.538	27.06826
857.939	16.03984
858.34	89.21574
858.741	29.07618
859.142	20.04842
859.542	14.0372
859.943	42.10469
860.343	-5.01252
860.744	29.07117
861.144	31.07602
861.544	-17.04144
861.945	41.1048
862.345	34.08355
862.745	4.01004
863.145	83.19756
863.544	5.01275
863.944	9.02147
864.344	28.06994
864.743	58.14394
865.143	22.05686
865.542	-21.04948
865.941	48.11903
866.34	56.13424
866.74	56.1503
867.139	-16.03885
867.537	54.13767
867.936	29.07019
868.335	28.07161
868.734	20.05144
869.132	14.03282
869.531	82.19746
869.929	-13.03006
870.327	20.04829
870.726	67.16679
871.124	2.00473
871.522	57.14519
871.92	53.13083
872.318	37.0908
872.715	36.08947
873.113	36.08807
873.511	37.09251
873.908	-18.04603
874.306	23.05755
874.703	7.01767
875.1	42.10772
875.497	9.02178
875.894	-14.03474
876.291	27.06663
876.688	27.06998
877.085	68.16282
877.482	30.07546
877.878	10.02428
878.275	37.09431
878.671	38.08498
879.068	12.02921
879.464	34.08252
879.86	17.04051
880.256	41.10147
880.652	9.02308
881.048	53.13141
881.444	37.08841
881.84	-2.00513
882.236	17.04304
882.631	44.10824
883.027	46.11161
883.422	6.01547
883.817	-23.05861
884.213	6.01553
884.608	-48.11995
885.003	13.0316
885.398	10.02523
885.793	27.06812
886.188	-25.06305
886.582	42.10798
886.977	44.10467
887.371	31.07874
887.766	-5.01257
888.16	27.06773
888.554	-7.01751
888.949	29.07316
889.343	33.08095
889.737	-20.05394
890.131	32.0806
890.525	26.06682
890.918	-2.00508
891.312	44.10551
891.706	40.10519
892.099	-1.00257
892.492	35.07586
892.886	-1.00247
893.279	13.03336
893.672	6.0154
894.065	41.10292
894.458	18.04557
894.851	48.11777
895.244	11.02831
895.637	22.05332
896.029	15.03695
896.422	45.11015
896.814	29.07243
897.206	-24.05801
897.599	52.12867
897.991	7.01708
898.383	15.03572
898.775	28.06355
899.167	5.01177
899.559	40.10151
899.951	49.11564
900.342	31.07916
900.734	-28.0705
901.125	32.08427
901.517	-16.03978
901.908	34.08184
902.299	-14.03466
902.69	22.05223
903.082	39.09471
903.473	-1.00242
903.863	-2.00515
904.254	-34.08029
904.645	42.10469
905.036	-16.03924
905.426	16.03692
905.817	-1.00248
906.207	-43.10435
906.597	-15.03555
906.987	46.11937
907.378	11.02803
907.768	5.01332
908.158	11.02703
908.547	10.02602
908.937	30.07729
909.327	9.02204
909.717	51.12954
910.106	-11.02674
910.495	17.04272
910.885	33.08388
911.274	29.0728
911.663	23.05869
912.052	43.1063
912.441	-20.05151
912.83	8.01853
913.219	42.11012
913.608	39.09578
913.997	-30.07632
914.385	10.02409
914.774	-1.00246
915.162	22.05274
915.55	20.04869
915.939	-9.02296
916.327	8.02013
916.715	-22.0568
917.103	50.12313
917.491	39.09673
917.878	55.13517
918.266	-1.00262
918.654	28.07184
919.041	-11.02902
919.429	-18.04307
919.816	21.05353
920.203	16.03907
920.591	22.05486
920.978	18.04436
921.365	-11.02917
921.752	-2.00482
922.139	15.03283
922.525	-40.09774
922.912	30.07347
923.299	16.04003
923.685	-5.01317
924.072	43.09935
924.458	-16.04013
924.844	-16.04008
925.231	-6.01412
925.617	-5.01284
926.003	11.02831
926.389	-12.03061
926.774	31.07885
927.16	39.09709
927.546	-24.06207
927.931	-16.04042
928.317	10.02323
928.702	37.0878
929.088	-23.05519
929.473	2.00513
929.858	-17.04163
930.243	-14.03402
930.628	-9.02214
931.013	8.01998
931.398	18.04168
931.783	25.06611
932.167	16.03937
932.552	40.10043
932.937	37.09207
933.321	1.00253
933.705	5.01271
934.09	71.1788
934.474	20.0478
934.858	-5.01309
935.242	-28.06592
935.626	28.07196
936.009	3.00804
936.393	7.01795
936.777	33.08477
937.16	8.02097
937.544	60.14114
937.927	-19.04881
938.311	56.13659
938.694	50.13225
939.077	-21.05096
939.46	36.08866
939.843	8.01685
940.226	0
940.609	-5.01161
940.991	-20.05154
941.374	0
941.757	22.05458
942.139	12.02717
942.522	44.10415
942.904	25.0604
943.286	37.09424
943.668	30.07799
944.05	-3.00746
944.432	27.06692
944.814	36.08892
945.196	-33.08167
945.578	-39.09429
945.959	23.0542
946.341	61.14947
946.722	43.10109
947.104	-1.00241
947.485	20.04683
947.866	25.06327
948.247	15.03809
948.628	51.12441
949.009	4.01033
949.39	18.04508
949.771	29.06775
950.152	1.00248
950.532	-70.176
950.913	44.10628
951.293	-5.01363
951.674	-3.00733
952.054	14.03492
952.434	28.06979
952.814	-18.04339
953.194	26.06833
953.574	63.15483
953.954	-16.03849
954.334	2.00503
954.714	-47.11662
955.093	29.07159
955.473	-30.0761
955.853	5.01304
956.232	19.05233
956.611	37.08898
956.99	20.05054
957.37	44.11225
957.749	-11.02655
958.128	-11.02802
958.506	-3.00785
958.885	25.06339
959.264	-48.11977
959.643	22.05036
960.021	30.07461
960.4	-40.09233
960.778	27.0668
961.156	-31.07885
961.535	-13.03068
961.913	-14.03318
962.291	-14.03632
962.669	1.00256
963.047	30.07683
963.424	9.02313
963.802	-30.07486
964.18	51.12903
964.557	32.07398
964.935	28.06663
965.312	17.04452
965.69	-1.00253
966.067	10.02454
966.444	51.12567
966.821	26.06731
967.198	65.15726
967.575	12.02972
967.952	33.07803
968.329	5.01227
968.705	-6.01302
969.082	16.04128
969.458	-41.10006
969.835	-6.01476
970.211	19.04903
970.587	15.03759
970.963	30.07724
971.339	-11.02902
971.715	27.0677
972.091	30.07415
972.467	4.01006
972.843	14.03497
973.219	51.12246
973.594	-26.06888
973.97	53.1261
974.345	18.04335
974.721	8.01953
975.096	-2.00489
975.471	12.02868
975.846	-3.00728
976.221	-38.098
976.596	-13.03154
976.971	20.04965
977.346	3.00705
977.72	47.1198
978.095	33.08554
978.469	33.07903
978.844	38.09575
979.218	-12.0291
979.593	-20.04856
979.967	-1.00246
980.341	22.05094
980.715	21.05319
981.089	6.01514
981.463	-35.08174
981.837	-13.03214
982.21	10.02346
982.584	-22.05386
982.957	-16.04043
983.331	16.03808
983.704	-15.0373
984.078	-33.08257
984.451	45.11251
984.824	-16.03945
985.197	19.04642
985.57	8.02022
985.943	34.08422
986.316	61.14959
986.688	28.06781
987.061	-1.00237
987.434	12.03147
987.806	45.10924
988.179	19.0451
988.551	21.05355
988.923	31.07661
989.295	26.06525
989.667	-46.1119
990.039	2.00499
990.411	-9.02096
990.783	-2.00465
991.155	-32.07808
991.527	55.13532
991.898	16.04011
992.27	-57.14375
992.641	9.02275
993.012	-1.00238
993.384	6.01443
993.755	7.01798
994.126	-19.0463
994.497	17.04198
994.868	31.07148
995.239	48.11637
995.61	-3.00762
995.98	-4.00981
996.351	-11.02754
996.722	-21.04939
997.092	-16.03837
997.462	-60.14317
997.833	4.00957
998.203	37.08992
998.573	8.02007
998.943	-12.02848
999.313	3.00725
999.683	-31.07554
1000.053	33.07619
1000.423	-13.03196
1000.792	27.07025
1001.162	-34.08496
1001.531	-2.00498
1001.901	6.01507
1002.27	65.14485
1002.639	-10.02582
1003.009	25.05973
1003.378	-4.01032
1003.747	-40.09614
1004.116	15.03613
1004.485	26.06242
1004.853	10.02551
1005.222	-10.02549
1005.591	5.01197
1005.959	-38.08715
1006.328	-7.01594
1006.696	-3.00731
1007.064	5.01268
1007.433	20.05025
1007.801	49.12029
1008.169	15.03811
1008.537	-20.04493
1008.905	-19.04486
1009.273	29.0719
1009.64	-18.04349
1010.008	-1.00241
1010.375	22.0537
1010.743	41.09484
1011.11	-24.0576
1011.478	34.08438
1011.845	4.00949
1012.212	-16.0367
1012.579	9.02226
1012.946	3.0072
1013.313	45.10719
1013.68	31.06994
1014.047	-38.09206
1014.414	7.01667
1014.78	-22.05537
1015.147	37.08969
1015.513	-12.02925
1015.88	34.08717
1016.246	0
1016.612	59.1348
1016.978	5.01235
1017.344	-6.01498
1017.71	37.09043
1018.076	5.01189
1018.442	13.03365
1018.808	-19.04807
1019.174	-18.04569
1019.539	75.17177
1019.905	-45.10805
1020.27	-19.04747
1020.636	2.00484
1021.001	21.05054
1021.366	-36.08784
1021.731	42.10813
1022.096	-5.01273
1022.461	5.01193
1022.826	14.0335
1023.191	21.05535
1023.556	-12.02846
1023.92	14.03464
1024.285	-10.02467
1024.649	15.03699
1025.014	19.04732
1025.378	38.09571
1025.742	-11.02761
1026.107	18.04097
1026.471	37.08658
1026.835	16.0399
1027.199	-49.12011
1027.562	21.04908
1027.926	56.13674
1028.29	16.04072
1028.654	7.01624
1029.017	41.10091
1029.381	-12.029
1029.744	24.06147
1030.107	67.15794
1030.471	-23.05582
1030.834	-5.0115
1031.197	19.04602
1031.56	-6.01431
1031.923	17.04419
1032.286	57.13364
1032.648	21.05048
1033.011	-29.06759
1033.374	18.04256
1033.736	-11.02921
1034.099	-25.06176
1034.461	28.07098
1034.823	-6.01509
1035.185	26.0657
1035.548	5.01227
1035.91	22.05296
1036.272	-18.04151
1036.634	-12.02968
1036.995	3.00711
1037.357	15.03672
1037.719	38.09258
1038.08	34.08094
1038.442	-6.01439
1038.803	-18.04376
1039.165	30.07594
1039.526	33.07996
1039.887	-24.05821
1040.248	4.00993
1040.609	33.08176
1040.97	-10.0247
1041.331	18.04581
1041.692	-50.11894
1042.053	21.04808
1042.413	4.0094
1042.774	11.02693
1043.134	4.0096
1043.495	29.07314
1043.855	14.03417
1044.215	18.04492
1044.576	-39.09479
1044.936	10.0231
1045.296	27.06763
1045.656	40.09829
1046.016	34.08228
1046.375	-9.02206
1046.735	-48.11093
1047.095	33.07746
1047.454	17.03627
1047.814	0
1048.173	45.10756
1048.533	-42.09795
1048.892	-17.0413
1049.251	38.09554
1049.61	-15.03735
1049.969	-4.00952
1050.328	-22.04841
1050.687	13.03183
1051.046	31.07571
1051.405	38.09468
1051.763	-26.06066
1052.122	28.07007
1052.48	-8.01982
1052.839	-2.00475
1053.197	-2.00475
1053.555	40.09134
1053.914	28.06873
1054.272	51.12321
1054.63	-7.01729
1054.988	-36.08689
1055.345	-12.02617
1055.703	6.01455
1056.061	34.08766
1056.419	0
1056.776	47.11397
1057.134	26.06044
1057.491	17.0428
1057.848	35.08732
1058.206	12.02841
1058.563	-4.00891
1058.92	-1.00233
1059.277	-9.02243
1059.634	39.0919
1059.991	16.03856
1060.348	-6.01371
1060.704	-5.01203
1061.061	24.05601
1061.418	5.01222
1061.774	-15.03745
1062.131	-1.00266
1062.487	-15.0355
1062.843	25.06257
1063.199	24.05993
1063.555	-57.13478
1063.911	32.08103
1064.267	29.06074
1064.623	-19.04671
1064.979	24.05711
1065.335	12.02887
1065.691	22.05298
1066.046	-23.05132
1066.402	-39.09015
1066.757	6.01525
1067.112	20.04933
1067.468	-37.08878
1067.823	14.03387
1068.178	-1.00244
1068.533	50.12113
1068.888	29.06953
1069.243	14.03476
1069.598	9.02202
1069.952	-48.11018
1070.307	-14.03504
1070.662	0
1071.016	-11.02494
1071.371	-29.06698
1071.725	51.1219
1072.079	4.0097
1072.434	-22.05414
1072.788	-10.02407
1073.142	30.07402
1073.496	21.05006
1073.85	57.13191
1074.203	-2.0049
1074.557	7.01873
1074.911	48.11453
1075.265	3.00703
1075.618	10.02458
1075.971	-15.0361
1076.325	-16.04111
1076.678	-15.03473
1077.031	-34.0782
1077.385	18.03989
1077.738	-28.06417
1078.091	-23.05304
1078.444	50.11601
1078.796	-22.05466
1079.149	7.01753
1079.502	-8.0191
1079.855	-7.01649
1080.207	41.1011
1080.56	27.07001
1080.912	-13.032
1081.264	40.09643
1081.617	-21.05182
1081.969	-3.00763
1082.321	26.06372
1082.673	-4.00922
1083.025	-9.02158
1083.377	25.05391
1083.728	16.03755
1084.08	24.06015
1084.432	7.01701
1084.783	-7.01657
1085.135	2.00505
1085.486	-33.0767
1085.838	30.0741
1086.189	-25.06149
1086.54	10.02404
1086.891	-26.06659
1087.242	23.05623
1087.593	23.05623
1087.944	3.00685
1088.295	14.03203
1088.646	20.04871
1088.996	-51.12511
1089.347	10.0247
1089.698	-10.02389
1090.048	11.02874
1090.398	-11.0258
1090.749	-2.00483
1091.099	-14.03558
1091.449	16.04007
1091.799	-3.00758
1092.149	7.01719
1092.499	2.00492
1092.849	19.04852
1093.199	21.05287
1093.548	1.00242
1093.898	-1.00252
1094.248	24.0619
1094.597	-24.062
1094.947	-2.00538
1095.296	-31.07762
1095.645	35.09119
1095.994	-9.02184
1096.343	31.07821
1096.692	-24.06378
1097.041	-27.07395
1097.39	-1.00253
1097.739	-3.00786
1098.088	21.05648
1098.437	-29.07713
1098.785	25.06761
1099.134	38.10101
1099.482	-11.03052
1099.83	10.02643
1100.179	7.01837
1100.527	25.06664
1100.875	-24.06418
1101.223	1.00267
1101.571	32.0886
1101.919	-33.08736
1102.267	-2.00567
1102.615	1.00322
1102.962	17.05469
1103.31	4.01285
1103.658	11.03543
