Data from N2 R8 sample 12_Subt2__2__17-10-15-938.txt Node

Date: Fri Aug 29 17:10:15 PDT 2025
User: uwsun
Spectrometer: HDX01956
Trigger mode: 0
Integration Time (sec): 5.000000E-1
Scans to average: 1
Nonlinearity correction enabled: true
Boxcar width: 0
Storing dark spectrum: false
XAxis mode: Wavelengths
Number of Pixels in Spectrum: 2068
>>>>>Begin Spectral Data<<<<<
194.03	222.60162
194.578	234.7183
195.127	234.70715
195.676	251.75922
196.225	223.56937
196.773	246.64775
197.321	345.8727
197.87	497.11452
198.418	498.10051
198.966	476.06363
199.513	449.95817
200.061	436.95038
200.609	503.14831
201.156	436.80546
201.704	479.02601
202.251	473.07538
202.798	445.99811
203.345	498.04954
203.892	516.09946
204.438	501.01399
204.985	485.96447
205.532	513.14716
206.078	528.09094
206.624	473.98705
207.17	542.04979
207.716	480.98721
208.262	497.81322
208.808	440.92166
209.354	470.971
209.899	605.27963
210.445	517.07796
210.99	425.87627
211.535	554.08639
212.08	503.98722
212.625	517.09658
213.17	503.0854
213.715	427.80128
214.259	585.12757
214.804	552.14826
215.348	491.95003
215.892	520.05083
216.436	524.0226
216.98	570.04467
217.524	518.02859
218.068	545.15959
218.612	514.1023
219.155	536.05697
219.698	498.00583
220.242	525.11503
220.785	485.96582
221.328	485.03575
221.871	476.04261
222.414	436.94514
222.956	419.87088
223.499	429.83045
224.041	538.05943
224.583	518.94598
225.126	472.88464
225.668	423.89056
226.21	465.00497
226.751	378.71404
227.293	484.94343
227.835	444.93415
228.376	463.91944
228.918	474.03254
229.459	431.92694
230	440.9021
230.541	500.97832
231.082	430.90071
231.622	467.92089
232.163	448.93219
232.704	441.94232
233.244	456.97289
233.784	495.03841
234.324	408.76354
234.864	397.77807
235.404	433.89035
235.944	445.90884
236.484	502.06957
237.023	459.92553
237.563	445.87751
238.102	458.92542
238.641	483.04439
239.18	406.81508
239.719	506.07951
240.258	486.92393
240.797	485.98289
241.335	476.99662
241.874	416.67395
242.412	467.95507
242.95	445.90472
243.488	504.96702
244.026	434.85239
244.564	510.86981
245.102	457.86731
245.64	475.97759
246.177	465.88163
246.715	533.07444
247.252	505.97618
247.789	550.84613
248.326	410.84173
248.863	462.85052
249.4	467.89753
249.936	492.83864
250.473	447.88352
251.009	435.84408
251.546	527.95975
252.082	501.91377
252.618	488.90606
253.154	510.02257
253.69	439.8368
254.226	507.01116
254.761	475.894
255.297	476.86838
255.832	492.97543
256.367	476.94371
256.903	474.8678
257.438	520.01767
257.972	541.99075
258.507	470.89742
259.042	483.87156
259.576	446.79716
260.111	561.06619
260.645	498.89336
261.179	476.92783
261.713	538.97954
262.247	505.9687
262.781	441.7681
263.315	466.95928
263.849	526.09263
264.382	511.97548
264.915	527.01313
265.449	480.96943
265.982	536.00201
266.515	500.01404
267.048	499.86366
267.58	535.95951
268.113	479.85109
268.646	492.01051
269.178	495.9074
269.71	514.92017
270.243	545.01711
270.775	562.17637
271.307	570.1252
271.838	486.96759
272.37	521.05888
272.902	536.99769
273.433	474.85379
273.965	569.12927
274.496	505.0459
275.027	573.15893
275.558	566.11624
276.089	498.00353
276.62	527.11345
277.15	549.11386
277.681	582.01208
278.211	563.12931
278.741	509.90723
279.272	552.01365
279.802	534.09645
280.332	574.08697
280.861	595.15182
281.391	496.91633
281.921	567.10905
282.45	580.17874
282.98	605.28075
283.509	579.0364
284.038	514.95007
284.567	597.11712
285.096	607.17229
285.625	512.93975
286.153	541.01862
286.682	515.95026
287.21	507.99273
287.739	549.04081
288.267	543.0565
288.795	593.26516
289.323	593.08938
289.851	637.16862
290.378	581.02663
290.906	549.05805
291.433	527.0633
291.961	597.05387
292.488	593.17479
293.015	563.04506
293.542	609.21667
294.069	628.20683
294.596	613.20032
295.122	598.11927
295.649	605.03358
296.175	635.20419
296.702	621.18103
297.228	660.24712
297.754	618.0669
298.28	633.09838
298.806	652.20431
299.332	638.06585
299.857	688.16472
300.383	684.34117
300.908	594.11177
301.433	577.09027
301.958	674.18424
302.483	604.16677
303.008	652.24281
303.533	702.40829
304.058	667.19675
304.582	595.07387
305.107	602.21963
305.631	661.13798
306.155	675.16957
306.679	623.09586
307.203	639.11175
307.727	659.17388
308.251	652.22175
308.775	643.13408
309.298	676.19459
309.822	744.39106
310.345	740.27672
310.868	712.24593
311.391	744.34583
311.914	747.36605
312.437	788.28053
312.96	762.28128
313.482	739.25772
314.005	762.38477
314.527	692.34602
315.049	789.44084
315.571	730.12762
316.093	780.3731
316.615	807.35605
317.137	762.13797
317.659	831.41094
318.18	850.41882
318.702	790.26365
319.223	769.05169
319.744	821.23052
320.265	821.34966
320.786	828.38653
321.307	821.39391
321.828	880.29597
322.348	878.35397
322.869	906.3736
323.389	911.83389
323.909	898.3226
324.43	944.48012
324.95	904.3031
325.47	897.41467
325.989	937.37402
326.509	952.2466
327.029	1003.33025
327.548	988.30367
328.067	992.43599
328.587	1083.61565
329.106	982.30957
329.625	1058.73361
330.144	940.28067
330.662	1014.3427
331.181	1049.39636
331.7	1032.37492
332.218	1063.23518
332.736	1124.43528
333.255	1097.38464
333.773	1186.48419
334.291	1199.63707
334.808	1142.29521
335.326	1215.36618
335.844	1179.36455
336.361	1241.60317
336.879	1167.34547
337.396	1227.45468
337.913	1307.37929
338.43	1246.28598
338.947	1294.43381
339.464	1234.14416
339.981	1306.39198
340.497	1356.53727
341.014	1273.42589
341.53	1241.20871
342.046	1328.44283
342.562	1370.52307
343.078	1421.36477
343.594	1412.39155
344.11	1422.37104
344.626	1419.50239
345.141	1451.23709
345.657	1449.24233
346.172	1494.37739
346.687	1509.23153
347.202	1497.15378
347.717	1619.33805
348.232	1590.45596
348.747	1517.1818
349.261	1487.99015
349.776	1550.2178
350.29	1586.30393
350.805	1623.37521
351.319	1654.17695
351.833	1503.03462
352.347	1642.15653
352.861	1633.1091
353.374	1801.11547
353.888	1703.21717
354.401	1658.04849
354.915	1682.92362
355.428	1768.22516
355.941	1819.00929
356.454	1887.95123
356.967	1810.06701
357.48	1814.97909
357.993	1822.15753
358.505	1890.09078
359.018	1921.08726
359.53	1988.98806
360.042	1888.79173
360.554	1975.01543
361.066	1885.00037
361.578	1880.6953
362.09	1926.92052
362.602	1892.675
363.113	1944.78673
363.625	1958.6755
364.136	2089.58122
364.647	1917.65413
365.158	2169.65225
365.669	2197.7218
366.18	2151.67043
366.691	2126.47586
367.201	2124.67154
367.712	2049.51339
368.222	2136.47764
368.733	2161.27285
369.243	2263.24626
369.753	2330.3451
370.263	2319.41169
370.773	2303.48523
371.282	2413.25485
371.792	2266.08101
372.301	2448.1477
372.811	2528.33399
373.32	2412.71958
373.829	2568.81818
374.338	2692.55945
374.847	2671.56569
375.356	2757.51473
375.865	2899.10092
376.373	2972.1186
376.882	3148.26053
377.39	3205.04925
377.898	3144.95208
378.407	3307.70507
378.915	3566.57247
379.423	3748.54968
379.93	3665.53187
380.438	3831.52277
380.946	4108.62269
381.453	4287.78068
381.96	4236.95837
382.468	4532.70179
382.975	4988.37165
383.482	5269.64596
383.989	5316.34369
384.495	5405.83803
385.002	5584.40394
385.509	5995.04658
386.015	6363.17979
386.521	6711.15798
387.028	6907.46818
387.534	7196.66893
388.04	7343.07384
388.546	7311.58016
389.051	7598.31531
389.557	8334.1005
390.063	9442.82087
390.568	9590.94454
391.073	9746.43688
391.578	10085.83987
392.084	10323.23919
392.589	10264.96641
393.093	10939.97753
393.598	11961.76081
394.103	13401.9566
394.607	14766.93272
395.112	16017.13157
395.616	16702.32737
396.12	17639.99519
396.624	19484.85465
397.128	20871.67197
397.632	23511.21298
398.136	25103.23167
398.639	25121.69881
399.143	26888.9247
399.646	27736.43146
400.15	24832.73952
400.653	20124.16724
401.156	13866.23708
401.659	5169.95759
402.162	1054.15589
402.664	0
403.167	0
403.67	0
404.172	0
404.674	0
405.176	0
405.678	0
406.18	0
406.682	0
407.184	0
407.686	0
408.187	0
408.688	0
409.19	0
409.691	0
410.192	0
410.693	0
411.194	435.30976
411.694	4082.94878
412.195	8864.71461
412.696	12089.80453
413.196	12760.96929
413.696	12863.67595
414.196	13703.56671
414.696	17261.84252
415.196	21764.24417
415.696	29583.19008
416.196	36460.31858
416.695	40057.39798
417.195	34322.34695
417.694	32035.11613
418.194	30576.51059
418.693	27895.57372
419.192	26907.32322
419.691	26638.83638
420.19	26169.38587
420.688	25489.64098
421.187	24608.74075
421.685	23398.3735
422.184	21641.66463
422.682	18763.69321
423.18	15310.66185
423.678	13767.62754
424.176	12409.4893
424.674	11511.3009
425.172	11258.58571
425.669	10856.9168
426.167	10191.56241
426.664	9294.97206
427.161	8401.0173
427.659	7736.00504
428.156	7085.53912
428.652	6709.82777
429.149	6373.16102
429.646	6086.98736
430.143	5886.9608
430.639	5467.65033
431.135	5070.47511
431.632	4869.23614
432.128	4579.75091
432.624	4134.52763
433.12	3997.55734
433.616	3886.53207
434.111	3466.57518
434.607	3480.62434
435.103	3617.56837
435.598	3457.62691
436.093	3436.84838
436.588	3138.02214
437.083	2988.20011
437.578	2840.40149
438.073	2643.68169
438.568	2698.81606
439.062	2559.58886
439.557	2518.9563
440.051	2318.96572
440.546	2148.08157
441.04	2238.22376
441.534	2093.50559
442.028	2196.37861
442.522	2020.44491
443.015	1990.26463
443.509	2019.58889
444.002	1872.63277
444.496	1849.39034
444.989	1854.69287
445.482	1831.7499
445.975	1836.48731
446.468	1727.43712
446.961	1693.4583
447.454	1666.61506
447.947	1591.7102
448.439	1677.83492
448.931	1532.63684
449.424	1627.97581
449.916	1556.87675
450.408	1506.68858
450.9	1507.87019
451.392	1414.98111
451.884	1443.80967
452.375	1366.9454
452.867	1444.82684
453.358	1316.77436
453.849	1377.68098
454.341	1327.80254
454.832	1312.72023
455.323	1267.96799
455.814	1305.88901
456.304	1281.8998
456.795	1357.91019
457.285	1264.88402
457.776	1218.94155
458.266	1199.97471
458.756	1157.01882
459.247	1212.99866
459.737	1040.93697
460.226	1120.88268
460.716	960.93219
461.206	1029.00078
461.695	1005.09049
462.185	1061.01209
462.674	1030.9711
463.163	1018.90601
463.653	1052.83892
464.142	899.98045
464.63	933.05706
465.119	873.91327
465.608	909.94281
466.096	890.87318
466.585	916.99641
467.073	862.02246
467.561	897.06391
468.05	800.94094
468.538	841.07188
469.026	852.04311
469.513	708.75133
470.001	698.83621
470.489	760.954
470.976	768.94458
471.463	714.01215
471.951	698.01442
472.438	638.85731
472.925	624.83734
473.412	672.98551
473.899	645.86874
474.385	645.9601
474.872	591.82803
475.359	627.93495
475.845	548.67277
476.331	596.78804
476.817	605.93333
477.303	533.78786
477.789	541.84333
478.275	480.79088
478.761	472.76128
479.247	478.70712
479.732	472.79196
480.218	416.75966
480.703	433.74619
481.188	425.61121
481.673	467.72405
482.158	359.51623
482.643	462.836
483.128	378.60165
483.612	366.61034
484.097	407.71974
484.581	390.65217
485.066	331.58959
485.55	322.50779
486.034	297.46659
486.518	308.53115
487.002	282.51571
487.486	285.52371
487.969	321.58571
488.453	281.54551
488.936	268.4555
489.42	260.43736
489.903	271.53187
490.386	319.37309
490.869	313.51634
491.352	302.5769
491.835	268.42358
492.318	313.53704
492.8	230.36771
493.283	200.40597
493.765	257.49772
494.247	277.51131
494.73	178.314
495.212	234.45546
495.694	146.27537
496.175	95.18345
496.657	229.43628
497.139	215.29463
497.62	79.15409
498.102	147.299
498.583	155.32103
499.064	112.2043
499.545	139.26056
500.026	142.26033
500.507	158.30137
500.988	160.32953
501.469	56.1184
501.949	162.33335
502.43	65.12944
502.91	63.1086
503.39	132.27847
503.87	116.22696
504.35	127.25231
504.83	69.12711
505.31	64.13163
505.79	42.08557
506.269	91.18045
506.749	19.03711
507.228	-8.01619
507.707	72.13507
508.187	109.22161
508.666	68.14226
509.145	50.09973
509.623	44.08866
510.102	86.17808
510.581	109.22515
511.059	54.11622
511.538	81.18103
512.016	59.12154
512.494	75.15701
512.972	66.13562
513.45	0
513.928	55.11493
514.406	33.0682
514.884	48.10712
515.361	33.06865
515.839	76.14842
516.316	23.04823
516.793	60.13246
517.27	75.15805
517.747	-2.00452
518.224	15.03047
518.701	41.07944
519.178	0
519.654	52.10835
520.131	7.01525
520.607	15.0329
521.083	-13.02623
521.56	17.0353
522.036	27.05204
522.512	19.04153
522.987	-37.0778
523.463	7.01469
523.939	29.06283
524.414	8.01639
524.89	1.0021
525.365	-3.00602
525.84	-23.0483
526.315	-37.07958
526.79	-23.04625
527.265	16.03226
527.74	13.02806
528.215	13.02715
528.689	-9.0177
529.164	8.01544
529.638	10.02294
530.112	-40.08435
530.587	-21.03977
531.061	1.00214
531.534	-7.01521
532.008	-41.08845
532.482	8.01639
532.956	-6.01362
533.429	6.01298
533.903	8.01581
534.376	18.03535
534.849	-51.10695
535.322	25.0525
535.795	-49.10843
536.268	8.01716
536.741	-20.04329
537.213	6.01242
537.686	-46.101
538.158	-43.08651
538.631	-33.07272
539.103	-77.15648
539.575	35.06489
540.047	10.01965
540.519	17.03642
540.991	-14.03096
541.463	-13.02836
541.934	-60.12474
542.406	-58.12526
542.877	-29.05904
543.348	2.00435
543.82	8.01765
544.291	59.12247
544.762	-1.00212
545.233	9.02016
545.703	-15.02969
546.174	12.02492
546.645	-57.12228
547.115	78.16484
547.585	32.06525
548.056	-1.00213
548.526	22.04551
548.996	116.24214
549.466	122.25918
549.935	52.1071
550.405	87.16421
550.875	42.08685
551.344	77.16062
551.814	86.17106
552.283	113.21151
552.752	73.14618
553.221	47.08797
553.69	127.23959
554.159	84.17682
554.628	106.20091
555.096	166.35573
555.565	100.19084
556.033	155.3124
556.502	82.17329
556.97	102.19654
557.438	49.1028
557.906	35.07421
558.374	26.05343
558.842	3.00646
559.31	27.05437
559.777	-25.05472
560.245	-4.00856
560.712	31.0649
561.18	-46.09308
561.647	-32.06549
562.114	-20.04154
562.581	66.14632
563.048	12.02524
563.514	-26.05829
563.981	9.01882
564.448	-12.02468
564.914	8.01705
565.381	32.06641
565.847	21.04493
566.313	49.10358
566.779	26.0535
567.245	-15.03229
567.711	24.05239
568.176	0
568.642	12.02741
569.108	54.12002
569.573	102.21622
570.038	24.04616
570.504	51.10317
570.969	89.20047
571.434	85.16666
571.899	145.30556
572.363	85.17376
572.828	174.35158
573.293	154.31217
573.757	117.23939
574.222	119.23521
574.686	131.25905
575.15	114.24071
575.614	175.3519
576.078	180.36972
576.542	245.48221
577.006	257.4982
577.469	272.58287
577.933	221.42738
578.396	214.44412
578.86	219.44972
579.323	245.50402
579.786	246.45807
580.249	214.42327
580.712	193.41457
581.175	170.3695
581.637	190.38603
582.1	259.49295
582.563	287.5311
583.025	203.4306
583.487	197.34725
583.95	126.24022
584.412	193.35661
584.874	206.4382
585.336	179.37389
585.797	202.38268
586.259	176.36819
586.721	141.29412
587.182	240.49251
587.643	157.31731
588.105	146.308
588.566	156.29264
589.027	144.30779
589.488	90.18544
589.949	187.40082
590.41	119.20668
590.87	189.38268
591.331	201.38349
591.791	114.23574
592.252	114.23299
592.712	169.36083
593.172	116.23439
593.632	165.32261
594.092	142.28297
594.552	148.28422
595.011	142.28982
595.471	200.39447
595.931	168.33229
596.39	185.39088
596.849	168.3471
597.308	239.454
597.768	186.41767
598.227	193.41118
598.685	223.45152
599.144	196.4044
599.603	214.4461
600.062	190.3508
600.52	208.40658
600.978	292.5984
601.437	300.59282
601.895	215.39945
602.353	228.44378
602.811	266.51182
603.269	338.69142
603.727	307.63213
604.184	327.62693
604.642	331.69382
605.099	355.6997
605.557	407.83576
606.014	372.67208
606.471	442.91602
606.928	480.83407
607.385	522.02641
607.842	636.14599
608.299	672.23018
608.755	665.2618
609.212	640.1132
609.668	612.06213
610.125	733.37755
610.581	836.51954
611.037	799.40259
611.493	755.39183
611.949	674.28357
612.405	730.11374
612.861	837.51174
613.316	835.52118
613.772	883.52373
614.227	812.46985
614.683	914.45112
615.138	848.50867
615.593	897.56603
616.048	938.60218
616.503	935.74073
616.958	938.7761
617.412	959.69215
617.867	904.48781
618.321	995.49172
618.776	919.52473
619.23	964.6926
619.684	938.59446
620.138	1013.75061
620.592	908.69246
621.046	926.65969
621.5	893.67554
621.954	986.66461
622.407	931.57359
622.861	978.80521
623.314	950.64447
623.768	948.68356
624.221	898.33148
624.674	919.62814
625.127	903.63869
625.58	992.72011
626.033	958.61719
626.485	847.60235
626.938	927.71813
627.39	963.72396
627.843	979.7383
628.295	926.66734
628.747	1009.83985
629.199	985.7174
629.651	890.58929
630.103	1012.77156
630.555	985.58801
631.006	1032.85774
631.458	1069.9201
631.909	1092.90405
632.361	1128.9794
632.812	1158.98992
633.263	1175.85541
633.714	1188.85942
634.165	1282.28219
634.616	1268.21206
635.067	1342.11563
635.518	1424.40545
635.968	1465.95949
636.419	1555.24831
636.869	1572.5522
637.319	1612.48756
637.769	1654.41176
638.219	1839.80393
638.669	1774.73746
639.119	1978.98852
639.569	1936.90862
640.019	2172.86865
640.468	2232.74032
640.918	2300.11812
641.367	2404.81272
641.816	2456.81309
642.265	2511.9855
642.714	2670.01347
643.163	2698.98734
643.612	2861.21076
644.061	2911.55389
644.51	2968.93528
644.958	3160.71476
645.406	3169.20105
645.855	3188.3656
646.303	3346.05218
646.751	3356.86798
647.199	3442.85381
647.647	3465.91422
648.095	3532.87233
648.543	3577.24595
648.99	3601.11657
649.438	3666.01374
649.885	3718.34024
650.333	3701.90943
650.78	3687.17576
651.227	3732.21294
651.674	3690.80267
652.121	3645.25259
652.568	3682.22424
653.015	3770.507
653.461	3639.10158
653.908	3665.97047
654.354	3671.13725
654.801	3526.05127
655.247	3478.68826
655.693	3415.82237
656.139	3389.24522
656.585	3449.23939
657.031	3254.08428
657.477	3288.64883
657.922	3308.01224
658.368	3222.48005
658.813	3220.12063
659.259	3077.30693
659.704	3023.13658
660.149	3056.13889
660.594	3088.25172
661.039	2946.02419
661.484	2965.31267
661.929	2927.18343
662.373	2873.62474
662.818	2763.51312
663.262	2893.34673
663.707	2787.65329
664.151	2773.4358
664.595	2699.3436
665.039	2761.54996
665.483	2719.67528
665.927	2808.24037
666.371	2648.10552
666.814	2763.31893
667.258	2659.23122
667.701	2760.79636
668.145	2756.5676
668.588	2696.46792
669.031	2681.21018
669.474	2643.3507
669.917	2655.92229
670.36	2654.52383
670.803	2759.3967
671.245	2704.68476
671.688	2639.43693
672.13	2661.97532
672.573	2711.69864
673.015	2613.34175
673.457	2607.83807
673.899	2663.40879
674.341	2665.38448
674.783	2613.3307
675.225	2600.47347
675.666	2510.31205
676.108	2570.83213
676.549	2548.26673
676.991	2518.89647
677.432	2493.43786
677.873	2491.13028
678.314	2416.26617
678.755	2408.35874
679.196	2375.04305
679.637	2288.33768
680.078	2296.13036
680.518	2291.11246
680.959	2227.20475
681.399	2238.38063
681.839	2184.26093
682.28	2124.28563
682.72	2063.91166
683.16	2050.282
683.6	2044.89766
684.039	1991.51068
684.479	1939.13393
684.919	1910.8419
685.358	1900.25992
685.798	1867.37351
686.237	1849.00991
686.676	1812.81946
687.115	1876.91035
687.554	1694.80085
687.993	1741.58446
688.432	1740.69832
688.871	1606.55736
689.309	1696.82403
689.748	1663.34345
690.186	1673.8103
690.625	1608.67345
691.063	1624.77211
691.501	1537.79355
691.939	1533.81693
692.377	1528.73335
692.815	1435.56037
693.253	1498.65629
693.69	1470.33631
694.128	1505.68176
694.565	1445.56778
695.003	1410.73239
695.44	1400.4677
695.877	1354.39364
696.314	1370.18233
696.751	1393.37616
697.188	1300.28473
697.625	1380.38332
698.061	1246.3409
698.498	1254.38123
698.934	1258.37042
699.371	1145.15326
699.807	1200.24324
700.243	1159.23175
700.679	1141.05582
701.115	1185.21566
701.551	1105.1042
701.987	1095.98198
702.422	1069.06984
702.858	1082.09755
703.294	1011.88344
703.729	1044.10816
704.164	1010.01524
704.599	971.79003
705.035	936.74733
705.47	960.96016
705.904	972.88443
706.339	996.92278
706.774	917.81272
707.209	912.77215
707.643	889.82041
708.078	865.80789
708.512	780.70802
708.946	815.69429
709.38	778.60906
709.814	781.55221
710.248	787.67593
710.682	771.60203
711.116	733.53787
711.549	722.6591
711.983	644.334
712.416	673.42179
712.85	677.51189
713.283	668.41275
713.716	747.66009
714.149	739.5532
714.582	649.30271
715.015	626.42059
715.448	636.44972
715.881	627.23242
716.313	604.28114
716.746	548.1814
717.178	559.22961
717.61	548.27902
718.043	564.28854
718.475	615.34956
718.907	571.32572
719.339	548.13436
719.77	484.06417
720.202	490.15243
720.634	497.12
721.065	512.12066
721.497	472.07851
721.928	442.01672
722.359	419.95139
722.79	418.94315
723.221	496.16022
723.652	501.20229
724.083	440.9298
724.514	448.96411
724.945	351.78862
725.375	440.95625
725.806	459.07249
726.236	432.04176
726.666	421.93964
727.096	389.90651
727.526	373.9023
727.956	374.80765
728.386	393.91835
728.816	366.88287
729.246	393.90465
729.675	386.90147
730.105	364.85511
730.534	354.79128
730.964	388.93274
731.393	413.97112
731.822	382.92841
732.251	356.86362
732.68	381.8539
733.109	352.82918
733.537	362.83348
733.966	359.85108
734.395	347.76619
734.823	364.78303
735.251	337.77794
735.68	414.98086
736.108	326.79294
736.536	382.85596
736.964	367.81068
737.392	348.83344
737.82	340.7819
738.247	359.8208
738.675	363.82794
739.102	341.81559
739.53	342.83371
739.957	357.87724
740.384	421.98067
740.811	329.80128
741.238	351.81863
741.665	350.77459
742.092	364.82905
742.519	355.83836
742.945	328.75581
743.372	385.90495
743.798	409.99493
744.225	360.81596
744.651	407.96595
745.077	375.88969
745.503	379.87904
745.929	369.84264
746.355	439.02527
746.781	379.89294
747.207	368.82019
747.632	374.86591
748.058	419.98638
748.483	398.86609
748.908	390.91902
749.334	366.85645
749.759	396.88295
750.184	407.91441
750.609	429.99222
751.033	468.03022
751.458	474.98804
751.883	482.11067
752.307	417.9238
752.732	399.94223
753.156	446.03043
753.58	487.07235
754.005	444.05661
754.429	454.99631
754.853	465.07335
755.277	481.05557
755.7	498.14441
756.124	450.0434
756.548	409.91362
756.971	489.10733
757.394	516.22965
757.818	510.21487
758.241	492.15848
758.664	465.09502
759.087	520.06189
759.51	493.13764
759.933	494.09893
760.356	505.1995
760.778	532.20217
761.201	553.23115
761.623	534.19051
762.046	574.23965
762.468	555.21927
762.89	559.26249
763.312	566.26143
763.734	517.14566
764.156	568.27998
764.578	590.22744
765	576.27951
765.421	531.24051
765.843	581.39292
766.264	604.32067
766.686	585.33845
767.107	539.19696
767.528	545.2613
767.949	584.35353
768.37	548.23133
768.791	515.14785
769.212	480.11879
769.632	519.10849
770.053	551.33394
770.473	509.14147
770.894	590.34369
771.314	575.24897
771.734	504.08082
772.154	558.31309
772.575	565.1897
772.994	542.12092
773.414	537.18164
773.834	502.16005
774.254	531.19284
774.673	541.20688
775.093	477.09498
775.512	507.15141
775.931	473.11519
776.351	507.16117
776.77	490.10712
777.189	498.0918
777.607	498.17717
778.026	513.17728
778.445	425.99816
778.864	493.1723
779.282	521.15022
779.701	456.0715
780.119	457.07573
780.537	468.08478
780.955	518.21507
781.373	436.00769
781.791	405.85304
782.209	486.03228
782.627	405.00566
783.045	412.88818
783.462	415.99819
783.88	369.90671
784.297	402.95354
784.715	429.03159
785.132	414.94099
785.549	404.952
785.966	428.00755
786.383	379.88183
786.8	427.92662
787.217	385.86073
787.633	397.93388
788.05	417.92918
788.466	420.92792
788.883	395.95082
789.299	365.83283
789.715	372.85581
790.131	361.85219
790.547	355.8429
790.963	369.86803
791.379	349.83981
791.795	356.76945
792.21	326.7269
792.626	307.69769
793.041	347.81471
793.457	326.76974
793.872	276.62509
794.287	306.69894
794.702	298.70528
795.117	344.81317
795.532	293.70562
795.947	331.75984
796.362	312.71322
796.776	309.69313
797.191	291.68458
797.605	258.5848
798.02	308.71765
798.434	326.69073
798.848	281.66621
799.262	251.60289
799.676	274.64472
800.09	269.63875
800.504	253.59427
800.918	189.42885
801.331	286.72286
801.745	206.46182
802.158	231.56138
802.572	232.54697
802.985	271.63183
803.398	213.49525
803.811	256.63757
804.224	222.5382
804.637	228.52772
805.05	266.59435
805.462	230.54941
805.875	176.44788
806.288	141.33599
806.7	179.44153
807.112	212.47898
807.525	191.46157
807.937	180.43639
808.349	189.46379
808.761	183.44141
809.173	153.36556
809.584	165.4013
809.996	161.38791
810.408	140.3569
810.819	139.32307
811.231	161.40935
811.642	184.42943
812.053	256.58757
812.464	284.64817
812.875	301.73803
813.286	217.54428
813.697	235.533
814.108	136.32861
814.519	164.35934
814.929	199.49626
815.34	119.28628
815.75	135.33911
816.16	108.26753
816.571	141.3618
816.981	134.31299
817.391	146.34784
817.801	117.28818
818.211	145.34114
818.62	89.21363
819.03	117.28446
819.44	141.36382
819.849	115.28753
820.259	128.32436
820.668	68.16734
821.077	45.11227
821.486	85.20433
821.895	139.33933
822.304	83.21935
822.713	84.19821
823.122	77.19196
823.531	66.1567
823.939	49.11989
824.348	102.24664
824.756	109.27114
825.164	70.17619
825.573	42.1059
825.981	82.20298
826.389	88.22038
826.797	88.21966
827.205	44.10156
827.612	82.20194
828.02	16.03797
828.428	64.1631
828.835	78.20485
829.243	88.20909
829.65	80.19846
830.057	53.12905
830.464	11.02709
830.871	117.27773
831.278	74.17874
831.685	30.06756
832.092	44.10824
832.499	62.13596
832.905	41.10429
833.312	42.0964
833.718	57.14231
834.124	35.08058
834.531	75.18881
834.937	70.17953
835.343	52.12588
835.749	84.19574
836.155	47.12342
836.561	39.09642
836.966	54.1324
837.372	99.25047
837.777	31.0777
838.183	17.03823
838.588	59.14666
838.993	49.11971
839.399	45.11043
839.804	14.03444
840.209	20.05129
840.613	26.05836
841.018	47.11938
841.423	39.10046
841.828	50.12675
842.232	49.12176
842.637	36.08544
843.041	15.03876
843.445	11.02785
843.849	83.20474
844.253	67.15923
844.657	0
845.061	2.0046
845.465	20.04871
845.869	35.08183
846.272	4.00985
846.676	22.05364
847.079	11.02822
847.483	56.13989
847.886	64.15575
848.289	52.13892
848.692	35.08906
849.095	37.08932
849.498	53.13457
849.901	26.06011
850.304	-26.0632
850.707	18.04624
851.109	44.1117
851.512	46.11337
851.914	-20.05111
852.316	31.07882
852.718	-2.00522
853.121	1.00248
853.523	-36.08577
853.925	25.06558
854.326	-13.03293
854.728	20.05178
855.13	11.0286
855.531	20.04816
855.933	24.05803
856.334	-11.02777
856.736	-12.02729
857.137	-15.0354
857.538	44.11091
857.939	2.00499
858.34	70.17029
858.741	60.15678
859.142	-2.00486
859.542	0
859.943	23.05753
860.343	13.03246
860.744	41.10039
861.144	36.0882
861.544	-6.0146
861.945	54.13772
862.345	26.06398
862.745	4.01004
863.145	44.10551
863.544	13.03311
863.944	22.05235
864.344	32.07988
864.743	22.05496
865.143	26.06715
865.542	8.01874
865.941	8.01998
866.34	12.02901
866.74	30.08086
867.139	-10.02425
867.537	11.02826
867.936	7.01701
868.335	55.13999
868.734	66.16838
869.132	-6.01412
869.531	31.07537
869.929	-39.09065
870.327	-24.05843
870.726	92.22798
871.124	21.04945
871.522	21.05383
871.92	37.09161
872.318	43.10541
872.715	15.03742
873.113	-18.04448
873.511	26.06514
873.908	-51.13119
874.306	-14.03526
874.703	12.03027
875.1	57.1458
875.497	0
875.894	-32.07968
876.291	11.02722
876.688	17.04414
877.085	9.02179
877.482	6.01516
877.878	8.01943
878.275	-34.08775
878.671	26.05829
879.068	52.12565
879.464	32.0777
879.86	-37.08908
880.256	17.04226
880.652	7.01796
881.048	42.10435
881.444	3.00721
881.84	55.1398
882.236	22.05565
882.631	40.09847
883.027	29.07059
883.422	-43.11184
883.817	-12.03052
884.213	-3.00778
884.608	2.00495
885.003	18.04371
885.398	-11.02786
885.793	37.09318
886.188	10.02506
886.582	44.11308
886.977	53.12586
887.371	24.06103
887.766	-21.05294
888.16	19.04773
888.554	88.21631
888.949	43.10821
889.343	27.06631
889.737	-9.02423
890.131	12.03033
890.525	0
890.918	7.01777
891.312	43.10313
891.706	18.04751
892.099	45.1147
892.492	-19.04166
892.886	37.09083
893.279	3.00771
893.672	-13.03349
894.065	13.0328
894.458	5.01269
894.851	22.05424
895.244	-17.04396
895.637	33.07981
896.029	12.02957
896.422	-6.01483
896.814	3.00753
897.206	-2.00481
897.599	22.05474
897.991	-12.02938
898.383	13.03097
898.775	41.09281
899.167	-34.08066
899.559	25.06361
899.951	12.02852
900.342	58.1474
900.734	-43.10856
901.125	21.0554
901.517	-1.00248
901.908	43.10333
902.299	7.01726
902.69	6.01429
903.082	30.07298
903.473	-7.01696
903.863	1.00257
904.254	-27.06367
904.645	53.13184
905.036	-25.06142
905.426	24.05529
905.817	-38.09482
906.207	5.01202
906.597	-26.06175
906.987	35.091
907.378	37.09385
907.768	11.02928
908.158	-7.01726
908.547	-14.03658
908.937	29.07473
909.327	-26.06408
909.717	82.20713
910.106	-29.07075
910.495	26.06523
910.885	62.15678
911.274	10.02519
911.663	47.11942
912.052	55.13567
912.441	32.08167
912.83	-7.01626
913.219	27.07097
913.608	25.06156
913.997	-11.02789
914.385	-6.0145
914.774	31.07579
915.162	-16.03863
915.55	-5.01223
915.939	-6.0153
916.327	13.03268
916.715	-28.07236
917.103	33.08152
917.491	-10.02503
917.878	12.02973
918.266	19.04955
918.654	27.06928
919.041	-34.09005
919.429	-22.05268
919.816	45.11422
920.203	13.03176
920.591	18.04492
920.978	26.06398
921.365	6.01586
921.752	18.0432
922.139	15.03283
922.525	-37.09036
922.912	-15.03704
923.299	-6.01507
923.685	5.01315
924.072	2.00466
924.458	-19.04768
924.844	13.0324
925.231	-25.05907
925.617	32.08167
926.003	9.02317
926.389	-28.07163
926.774	9.02298
927.16	33.08224
927.546	-1.00258
927.931	46.11491
928.317	17.03944
928.702	24.05709
929.088	-39.09386
929.473	-13.03345
929.858	-47.11572
930.243	-21.0511
930.628	13.03186
931.013	-10.02506
931.398	26.06011
931.783	-13.0346
932.167	1.00247
932.552	26.06544
932.937	7.01751
933.321	17.04292
933.705	7.01779
934.09	52.1314
934.474	18.04303
934.858	0
935.242	-31.07302
935.626	0
936.009	-13.03494
936.393	26.06645
936.777	17.04379
937.16	-8.02102
937.544	8.01901
937.927	46.11682
938.311	40.09785
938.694	46.12175
939.077	-5.0121
939.46	45.11064
939.843	-8.01691
940.226	8.02068
940.609	-10.02324
940.991	11.0282
941.374	-29.07193
941.757	26.06445
942.139	-57.13086
942.522	35.08299
942.904	-3.00729
943.286	38.09677
943.668	23.05986
944.05	24.05941
944.432	-14.03496
944.814	46.11341
945.196	-30.07421
945.578	-37.08942
945.959	15.0354
946.341	39.09596
946.722	10.02366
947.104	-9.02176
947.485	-20.04719
947.866	-24.06127
948.247	22.05579
948.628	50.122
949.009	-37.0962
949.39	30.07497
949.771	9.02111
950.152	53.13002
950.532	-69.17345
950.913	7.01703
951.293	-17.04642
951.674	5.0122
952.054	-17.04264
952.434	0
952.814	-6.01443
953.194	43.11268
953.574	51.12562
953.954	-2.0048
954.334	31.07754
954.714	-4.00985
955.093	32.07895
955.473	-7.01769
955.853	8.02086
956.232	18.04959
956.611	42.10091
956.99	-12.0305
957.37	28.07163
957.749	36.08613
958.128	-3.00763
958.506	-23.06042
958.885	-9.02296
959.264	-4.0099
959.643	34.07764
960.021	-12.03007
960.4	-34.07839
960.778	28.06926
961.156	-17.04313
961.535	8.0188
961.913	16.0377
962.291	-32.08327
962.669	5.01277
963.047	16.04108
963.424	18.0462
963.802	0
964.18	44.11146
964.557	10.02322
964.935	47.11144
965.312	-3.00788
965.69	44.11031
966.067	11.02698
966.444	-16.03991
966.821	39.10074
967.198	-7.01717
967.575	32.07895
967.952	17.04032
968.329	11.02696
968.705	27.0582
969.082	7.01809
969.458	-3.00727
969.835	33.08059
970.211	25.06444
970.587	26.06502
970.963	13.03357
971.339	4.01053
971.715	29.07269
972.091	38.09379
972.467	20.05016
972.843	1.0025
973.219	67.16039
973.594	-3.00792
973.97	46.10959
974.345	-35.08513
974.721	15.03657
975.096	-3.00733
975.471	15.03583
975.846	44.10583
976.221	19.04852
976.596	-22.05346
976.971	50.12345
977.346	27.06315
977.72	20.05122
978.095	-6.01566
978.469	-5.01206
978.844	28.07068
979.218	-54.132
979.593	26.06259
979.967	13.03189
980.341	-17.03967
980.715	17.04309
981.089	-21.05324
981.463	-33.07704
981.837	-33.08188
982.21	55.12789
982.584	-14.03422
982.957	-26.06582
983.331	16.03808
983.704	-7.01738
984.078	-30.07502
984.451	64.15947
984.824	2.00491
985.197	6.01469
985.57	18.0454
985.943	34.08422
986.316	38.09358
986.688	12.02915
987.061	15.0354
987.434	19.04977
987.806	4.00979
988.179	-26.06225
988.551	32.08144
988.923	31.07661
989.295	25.06276
989.667	-23.05571
990.039	-9.02248
990.411	14.03246
990.783	64.14696
991.155	-51.12488
991.527	43.10603
991.898	-6.0151
992.27	2.00499
992.641	5.01265
993.012	52.12232
993.384	23.05514
993.755	31.0793
994.126	-28.06834
994.497	-12.02979
994.868	-1.00232
995.239	-5.01224
995.61	-11.02798
995.98	-1.00245
996.351	-3.0075
996.722	-30.07068
997.092	-9.02155
997.462	-59.14076
997.833	38.09029
998.203	41.09957
998.573	-6.01509
998.943	-17.04039
999.313	-5.01211
999.683	-14.03401
1000.053	-33.07719
1000.423	34.08287
1000.792	-29.07618
1001.162	-5.01243
1001.531	29.07177
1001.901	14.03512
1002.27	5.01128
1002.639	18.04624
1003.009	22.0526
1003.378	-22.05695
1003.747	-10.0239
1004.116	-15.03633
1004.485	-7.01691
1004.853	29.07374
1005.222	-15.03826
1005.591	72.17022
1005.959	-64.14755
1006.328	-30.06861
1006.696	-9.02195
1007.064	-30.07654
1007.433	28.07025
1007.801	22.05428
1008.169	7.01781
1008.537	3.00671
1008.905	-18.04249
1009.273	46.1137
1009.64	-9.02171
1010.008	-5.01204
1010.375	29.07069
1010.743	61.14055
1011.11	-2.00478
1011.478	32.07944
1011.845	11.02606
1012.212	12.02737
1012.579	-8.01985
1012.946	45.10719
1013.313	30.07167
1013.68	-1.00227
1014.047	-6.01445
1014.414	-19.04547
1014.78	25.06239
1015.147	38.0921
1015.513	-56.1376
1015.88	25.0642
1016.246	40.09891
1016.612	34.07807
1016.978	-20.04963
1017.344	21.05216
1017.71	27.06611
1018.076	36.08511
1018.442	69.17687
1018.808	24.06026
1019.174	22.05545
1019.539	35.0808
1019.905	12.0285
1020.27	-3.00747
1020.636	46.11035
1021.001	-6.01451
1021.366	-15.03646
1021.731	-2.00519
1022.096	-20.05106
1022.461	12.0286
1022.826	69.16335
1023.191	3.00793
1023.556	-1.00237
1023.92	49.12047
1024.285	28.0686
1024.649	-6.01485
1025.014	37.09184
1025.378	14.03541
1025.742	18.04495
1026.107	36.08164
1026.471	13.03056
1026.835	-10.02505
1027.199	-8.01946
1027.562	-15.0353
1027.926	-3.00741
1028.29	-9.02301
1028.654	-25.05836
1029.017	36.08869
1029.381	-36.08738
1029.744	17.04359
1030.107	65.15328
1030.471	29.06969
1030.834	33.07531
1031.197	60.14421
1031.56	35.08279
1031.923	0
1032.286	20.04723
1032.648	45.10768
1033.011	13.03005
1033.374	51.1198
1033.736	7.01853
1034.099	30.07336
1034.461	-8.02041
1034.823	-26.06561
1035.185	25.06318
1035.548	-22.05424
1035.91	12.02894
1036.272	-10.02303
1036.634	48.11742
1036.995	7.01658
1037.357	-34.08398
1037.719	8.0196
1038.08	13.03107
1038.442	5.01197
1038.803	23.05548
1039.165	-15.03827
1039.526	9.02191
1039.887	-15.03632
1040.248	13.03223
1040.609	44.1088
1040.97	-2.00493
1041.331	52.13154
1041.692	-55.13096
1042.053	27.06174
1042.413	36.08409
1042.774	23.05619
1043.134	41.09774
1043.495	39.09818
1043.855	0
1044.215	0
1044.576	-8.01933
1044.936	14.03232
1045.296	26.06514
1045.656	10.02471
1046.016	39.09429
1046.375	20.04876
1046.735	26.0592
1047.095	16.03768
1047.454	-18.03869
1047.814	2.00485
1048.173	39.09333
1048.533	-38.08855
1048.892	-45.1099
1049.251	-7.01774
1049.61	26.06427
1049.969	-23.05495
1050.328	-2.00438
1050.687	14.03427
1051.046	-17.04189
1051.405	29.07238
1051.763	-13.03025
1052.122	5.01256
1052.48	47.11525
1052.839	-13.03094
1053.197	15.03552
1053.555	51.11619
1053.914	-11.02719
1054.272	22.05344
1054.63	-15.0371
1054.988	-11.02642
1055.345	-16.03492
1055.703	-12.0292
1056.061	15.0388
1056.419	14.03644
1056.776	8.01954
1057.134	7.01633
1057.491	55.13751
1057.848	34.08484
1058.206	19.04493
1058.563	38.08393
1058.92	10.02322
1059.277	52.12815
1059.634	17.04023
1059.991	47.1126
1060.348	-31.07117
1060.704	-36.08715
1061.061	63.14591
1061.418	-11.02696
1061.774	42.10377
1062.131	34.09008
1062.487	-14.03312
1062.843	23.05759
1063.199	5.01253
1063.555	-16.03753
1063.911	37.09361
1064.267	24.05032
1064.623	-5.01226
1064.979	14.03338
1065.335	41.09811
1065.691	-15.03637
1066.046	-42.09408
1066.402	-2.00459
1066.757	37.09355
1067.112	56.1372
1067.468	7.01666
1067.823	13.03145
1068.178	6.01462
1068.533	8.01953
1068.888	2.00482
1069.243	1.00249
1069.598	28.06827
1069.952	-34.07782
1070.307	-19.04759
1070.662	-49.11846
1071.016	7.01581
1071.371	-13.02993
1071.725	33.07915
1072.079	20.04834
1072.434	-25.06156
1072.788	-21.05066
1073.142	25.06174
1073.496	-20.04805
1073.85	57.13191
1074.203	24.05847
1074.557	21.05607
1074.911	36.0861
1075.265	-12.02822
1075.618	13.03194
1075.971	9.02156
1076.325	5.0128
1076.678	17.03911
1077.031	-5.01143
1077.385	-7.01559
1077.738	-38.08726
1078.091	-28.06463
1078.444	-8.01877
1078.796	5.01236
1079.149	-1.00251
1079.502	-39.09365
1079.855	-23.05437
1080.207	19.04704
1080.56	23.05968
1080.912	-48.1189
1081.264	-1.00243
1081.617	27.06604
1081.969	-43.11018
1082.321	4.00984
1082.673	-38.0882
1083.025	21.05006
1083.377	-263.60207
1083.728	45.10501
1084.08	-28.07083
1084.432	5.01215
1084.783	20.0471
1085.135	-3.00758
1085.486	-18.04171
1085.838	-10.02488
1086.189	-10.02453
1086.54	26.06232
1086.891	-15.03834
1087.242	1.00245
1087.593	8.01961
1087.944	4.00913
1088.295	64.14496
1088.646	4.00977
1088.996	-15.03655
1089.347	26.06403
1089.698	-63.15202
1090.048	28.07294
1090.398	12.02802
1090.749	10.02409
1091.099	-21.05343
1091.449	3.00753
1091.799	21.05281
1092.149	-61.15169
1092.499	13.0319
1092.849	0
1093.199	34.08539
1093.548	11.0266
1093.898	-5.01262
1094.248	-2.00518
1094.597	-56.14548
1094.947	-3.00807
1095.296	14.03477
1095.645	9.02355
1095.994	7.01694
1096.343	-3.00761
1096.692	-19.05045
1097.041	6.01635
1097.39	26.06544
1097.739	-15.03939
1098.088	41.10991
1098.437	-18.04778
1098.785	33.08913
1099.134	64.16939
1099.482	15.04145
1099.83	-16.04248
1100.179	-28.07393
1100.527	13.03472
1100.875	-11.02935
1101.223	30.07985
1101.571	-9.02508
1101.919	-24.06344
1102.267	11.03113
1102.615	2.00643
1102.962	19.06111
1103.31	-7.02252
1103.658	12.03865
