Data from N2 R8 sample 9_Subt2__5__17-29-16-911.txt Node

Date: Fri Aug 29 17:29:16 PDT 2025
User: uwsun
Spectrometer: HDX01956
Trigger mode: 0
Integration Time (sec): 5.000000E-1
Scans to average: 1
Nonlinearity correction enabled: true
Boxcar width: 0
Storing dark spectrum: false
XAxis mode: Wavelengths
Number of Pixels in Spectrum: 2068
>>>>>Begin Spectral Data<<<<<
194.03	185.50436
194.578	202.62268
195.127	162.49433
195.676	202.61506
196.225	236.60118
196.773	213.56399
197.321	284.72623
197.87	471.06174
198.418	407.91815
198.966	381.86968
199.513	321.70404
200.061	336.74795
200.609	421.97874
201.156	294.56243
201.704	377.82685
202.251	371.86254
202.798	379.86163
203.345	430.92141
203.892	423.92107
204.438	382.79558
204.985	327.67422
205.532	385.88518
206.078	414.8787
206.624	365.77995
207.17	423.84392
207.716	406.84894
208.262	380.64207
208.808	337.72199
209.354	424.88501
209.899	441.96759
210.445	377.81186
210.99	367.76655
211.535	446.89828
212.08	466.92259
212.625	444.95838
213.17	463.00747
213.715	347.66399
214.259	442.88244
214.804	490.03311
215.348	378.75116
215.892	398.82816
216.436	477.94282
216.98	473.88936
217.524	369.75945
218.068	454.98667
218.612	465.00754
219.155	466.93554
219.698	435.89285
220.242	414.90205
220.785	367.75091
221.328	404.87952
221.871	373.83632
222.414	396.86577
222.956	349.73672
223.499	366.71917
224.041	393.80155
224.583	380.71817
225.126	359.69161
225.668	313.67492
226.21	294.65989
226.751	281.54342
227.293	398.79165
227.835	303.65729
228.376	385.77846
228.918	389.86429
229.459	347.75978
230	324.6817
230.541	384.77199
231.082	327.70057
231.622	347.70355
232.163	351.74614
232.704	367.79678
233.244	331.72536
233.784	447.94935
234.324	317.60658
234.864	327.65148
235.404	381.79261
235.944	382.79133
236.484	442.9557
237.023	391.80074
237.563	363.7296
238.102	405.82828
238.641	357.79419
239.18	383.77299
239.719	415.90442
240.258	396.76932
240.797	381.7905
241.335	418.88641
241.874	341.56411
242.412	389.80962
242.95	343.71357
243.488	388.76528
244.026	384.76309
244.564	401.70395
245.102	388.74874
245.64	404.84476
246.177	406.78085
246.715	406.84368
247.252	408.807
247.789	401.64396
248.326	376.77786
248.863	431.79961
249.4	405.78999
249.936	347.61457
250.473	390.78116
251.009	399.78088
251.546	430.80233
252.082	394.73806
252.618	393.74692
253.154	350.72894
253.69	401.77142
254.226	364.75135
254.761	394.75631
255.297	412.76378
255.832	364.74325
256.367	358.72934
256.903	408.75939
257.438	428.85727
257.972	393.74656
258.507	377.73607
259.042	402.74041
259.576	351.64273
260.111	404.79834
260.645	452.82041
261.179	385.76668
261.713	369.70062
262.247	416.81511
262.781	350.62425
263.315	377.79163
263.849	386.82821
264.382	431.83872
264.915	460.90005
265.449	359.74519
265.982	416.80201
266.515	453.93022
267.048	456.79823
267.58	394.73223
268.113	371.67764
268.646	400.8401
269.178	425.7928
269.71	392.7238
270.243	430.82661
270.775	415.89829
271.307	414.84841
271.838	497.98696
272.37	414.86337
272.902	465.88077
273.433	396.72753
273.965	401.82827
274.496	457.95832
275.027	396.83464
275.558	417.85243
276.089	378.7841
276.62	419.90772
277.15	426.88997
277.681	411.74806
278.211	448.92389
278.741	385.7082
279.272	385.73778
279.802	487.01035
280.332	411.81046
280.861	432.87008
281.391	417.78559
281.921	467.93647
282.45	502.03805
282.98	444.97437
283.509	514.93678
284.038	413.78265
284.567	463.89627
285.096	456.91377
285.625	412.77522
286.153	407.79276
286.682	451.84549
287.21	420.8393
287.739	426.83313
288.267	409.82243
288.795	469.02703
289.323	413.79412
289.851	478.91314
290.378	485.87965
290.906	422.83938
291.433	485.98963
291.961	414.76673
292.488	468.9556
293.015	420.80855
293.542	409.85616
294.069	466.93165
294.596	506.01547
295.122	471.91045
295.649	458.81439
296.175	471.93009
296.702	509.9957
297.228	483.95334
297.754	475.8523
298.28	509.91333
298.806	498.95643
299.332	433.76493
299.857	535.94422
300.383	560.12975
300.908	455.88205
301.433	519.99604
301.958	501.92118
302.483	447.89719
303.008	530.03973
303.533	501.05102
304.058	538.99843
304.582	448.84007
305.107	447.93901
305.631	579.01829
306.155	542.97332
306.679	508.92162
307.203	532.9529
307.727	549.00535
308.251	558.0695
308.775	550.9948
309.298	523.96212
309.822	585.13621
310.345	577.03813
310.868	565.02638
311.391	569.0746
311.914	574.09493
312.437	603.03015
312.96	551.9806
313.482	597.05442
314.005	578.09883
314.527	573.14569
315.049	642.21541
315.571	548.89248
316.093	623.14116
316.615	648.13548
317.137	580.91449
317.659	676.19521
318.18	639.1276
318.702	688.13201
319.223	655.92962
319.744	695.08063
320.265	617.07111
320.786	664.16114
321.307	654.15984
321.828	723.11513
322.348	683.11285
322.869	600.99317
323.389	432.48098
323.909	760.16587
324.43	747.23721
324.95	717.09287
325.47	729.20465
325.989	790.20991
326.509	767.06602
327.029	788.11892
327.548	782.10198
328.067	750.1661
328.587	735.21057
329.106	725.04827
329.625	831.44671
330.144	804.14319
330.662	760.09057
331.181	822.17552
331.7	850.19979
332.218	895.10355
332.736	898.23429
333.255	857.17039
333.773	835.17143
334.291	920.3684
334.808	845.0644
335.326	872.10667
335.844	901.14886
336.361	854.24677
336.879	920.15672
337.396	985.26889
337.913	950.14336
338.43	997.13114
338.947	1026.25172
339.464	993.01682
339.981	969.16853
340.497	1021.3013
341.014	948.19136
341.53	986.06252
342.046	955.18645
342.562	1078.32985
343.078	1059.17235
343.594	1100.22347
344.11	1117.21454
344.626	1127.32888
345.141	1148.11508
345.657	1244.16591
346.172	1185.23842
346.687	1141.09444
347.202	1136.0329
347.717	1187.18082
348.232	1224.29897
348.747	1173.06866
349.261	1145.90785
349.776	1194.10141
350.29	1270.19919
350.805	1382.29961
351.319	1308.09954
351.833	1178.95393
352.347	1295.07946
352.861	1292.04018
353.374	1357.05806
353.888	1280.11776
354.401	1381.01122
354.915	1277.88403
355.428	1395.1587
355.941	1367.9763
356.454	1472.95105
356.967	1424.03453
357.48	1460.96738
357.993	1485.12314
358.505	1403.05211
359.018	1501.07025
359.53	1489.99382
360.042	1529.82063
360.554	1520.01836
361.066	1475.99192
361.578	1465.73709
362.09	1525.93475
362.602	1469.72228
363.113	1613.82464
363.625	1517.73462
364.136	1671.67387
364.647	1678.69621
365.158	1641.75798
365.669	1715.81769
366.18	1717.76171
366.691	1659.5958
367.201	1590.7656
367.712	1697.59991
368.222	1651.60149
368.733	1647.43709
369.243	1778.4196
369.753	1793.52618
370.263	1820.57338
370.773	1769.64127
371.282	1830.47125
371.792	1790.27268
372.301	1940.35912
372.811	2041.52629
373.32	1960.94741
373.829	2042.07935
374.338	2133.86071
374.847	2070.88638
375.356	2176.83171
375.865	2258.46081
376.373	2339.47384
376.882	2491.63008
377.39	2478.45123
377.898	2504.29972
378.407	2608.03609
378.915	2836.83807
379.423	2851.85793
379.93	2931.73706
380.438	2960.69765
380.946	3220.58584
381.453	3258.58442
381.96	3400.6425
382.468	3514.87996
382.975	3970.13585
383.482	4122.67908
383.989	4054.38299
384.495	4144.1962
385.002	4230.54308
385.509	4603.40069
386.015	4907.52249
386.521	5130.33299
387.028	5205.02687
387.534	5468.74912
388.04	5727.61188
388.546	5682.81568
389.051	5901.37919
389.557	6231.41577
390.063	7428.92936
390.568	7571.85945
391.073	7580.29679
391.578	7764.94703
392.084	7962.29312
392.589	7622.37718
393.093	8178.9242
393.598	9323.52135
394.103	10092.07494
394.607	11192.24333
395.112	12275.9785
395.616	12753.0635
396.12	13424.67385
396.624	14905.81112
397.128	16053.44105
397.632	18325.7894
398.136	19910.07891
398.639	19328.69748
399.143	20545.04053
399.646	23410.49945
400.15	23884.92767
400.653	19704.20149
401.156	13866.23708
401.659	5169.95759
402.162	1054.15589
402.664	0
403.167	0
403.67	0
404.172	0
404.674	0
405.176	0
405.678	0
406.18	0
406.682	0
407.184	0
407.686	0
408.187	0
408.688	0
409.19	0
409.691	0
410.192	0
410.693	0
411.194	435.30976
411.694	4082.94878
412.195	8864.71461
412.696	12089.80453
413.196	12760.96929
413.696	12863.67595
414.196	13703.56671
414.696	17261.84252
415.196	21764.24417
415.696	29583.19008
416.196	36460.31858
416.695	33798.11948
417.195	26265.15531
417.694	25027.93433
418.194	24276.55907
418.693	21671.10793
419.192	21059.61294
419.691	21139.5088
420.19	20647.45779
420.688	20447.04714
421.187	19936.76164
421.685	19110.51723
422.184	17715.17462
422.682	15088.22105
423.18	12315.87012
423.678	10627.45701
424.176	9840.90565
424.674	9121.10628
425.172	8950.21711
425.669	8621.72118
426.167	7967.31016
426.664	7369.43212
427.161	6551.29351
427.659	6042.94255
428.156	5514.21925
428.652	5217.86921
429.149	4958.09947
429.646	4844.77931
430.143	4628.60236
430.639	4315.09003
431.135	3965.64742
431.632	3842.61042
432.128	3481.54647
432.624	3182.66843
433.12	3014.65259
433.616	2975.67708
434.111	2719.85392
434.607	2643.98567
435.103	2748.89516
435.598	2839.87865
436.093	2633.26359
436.588	2488.38037
437.083	2383.54083
437.578	2296.70563
438.073	2017.00374
438.568	2039.143
439.062	2000.88311
439.557	1931.22455
440.051	1795.19228
440.546	1644.27025
441.04	1635.4259
441.534	1732.59957
442.028	1685.5308
442.522	1588.54929
443.015	1564.39046
443.509	1546.67463
444.002	1385.68319
444.496	1394.48152
444.989	1425.73005
445.482	1338.76697
445.975	1319.56028
446.468	1378.49418
446.961	1326.50847
447.454	1302.63465
447.947	1263.70372
448.439	1240.80559
448.931	1197.63182
449.424	1150.8895
449.916	1203.8293
450.408	1169.66918
450.9	1121.80344
451.392	1055.8748
451.884	977.71339
452.375	943.80416
452.867	1151.77994
453.358	1079.72735
453.849	1037.63646
454.341	961.71057
454.832	959.6484
455.323	885.80764
455.814	962.77982
456.304	948.78585
456.795	974.79361
457.285	1050.81887
457.776	958.837
458.266	888.83057
458.756	927.90173
459.247	765.76659
459.737	769.77709
460.226	773.71472
460.716	805.83275
461.206	735.80429
461.695	750.89487
462.185	699.77128
462.674	676.73566
463.163	697.71095
463.653	708.66094
464.142	637.76538
464.63	713.8751
465.119	651.74161
465.608	641.73682
466.096	651.70305
466.585	678.80567
467.073	654.83488
467.561	681.87155
468.05	576.73303
468.538	570.79472
469.026	574.77266
469.513	586.65192
470.001	560.70424
470.489	500.68447
470.976	551.72965
471.463	517.77914
471.951	505.77844
472.438	483.68213
472.925	421.6028
473.412	507.78106
473.899	462.6597
474.385	430.68172
474.872	448.65622
475.359	383.61329
475.845	355.46574
476.331	406.57091
476.817	381.62646
477.303	362.56298
477.789	372.60842
478.275	338.57885
478.761	386.63769
479.247	307.47783
479.732	278.49119
480.218	301.56565
480.703	306.54519
481.188	305.45506
481.673	310.50273
482.158	220.3301
482.643	345.64291
483.128	207.34563
483.612	277.47322
484.097	230.42551
484.581	220.38505
485.066	208.3823
485.55	195.31879
486.034	211.33974
486.518	198.35148
487.002	242.44704
487.486	203.38072
487.969	121.23198
488.453	210.41458
488.936	152.26645
489.42	168.2897
489.903	153.30865
490.386	162.20052
490.869	147.25369
491.352	156.30855
491.835	177.2871
492.318	97.17608
492.8	147.24059
493.283	184.37486
493.765	120.24002
494.247	163.30948
494.73	112.20098
495.212	138.27474
495.694	52.10034
496.175	41.0802
496.657	138.26873
497.139	117.16546
497.62	48.09432
498.102	58.12037
498.583	68.14358
499.064	36.06693
499.545	66.12595
500.026	49.09194
500.507	45.08819
500.988	78.16361
501.469	11.02349
501.949	68.14289
502.43	23.04625
502.91	-14.02463
503.39	49.10526
503.87	-36.07298
504.35	34.06902
504.83	34.06318
505.31	12.02497
505.79	23.04706
506.269	-5.01014
506.749	-26.05133
507.228	-20.0406
507.707	39.07376
508.187	87.17777
508.666	-60.12908
509.145	-41.08351
509.623	-28.05736
510.102	29.06082
510.581	70.14586
511.059	10.02173
511.538	8.01815
512.016	-9.01882
512.494	13.02759
512.972	-18.03769
513.45	-80.16291
513.928	-33.07031
514.406	-83.17598
514.884	31.06943
515.361	-12.02522
515.839	-28.05603
516.316	-26.05512
516.793	-16.03589
517.27	32.06807
517.747	-53.1209
518.224	-20.04095
518.701	37.07176
519.178	-58.12751
519.654	-6.01266
520.131	-69.15275
520.607	-12.02647
521.083	-31.0628
521.56	19.03944
522.036	-91.18037
522.512	-2.00439
522.987	-76.16118
523.463	-49.10408
523.939	-20.04379
524.414	-18.03711
524.89	-7.01476
525.365	-32.0646
525.84	-84.17877
526.315	3.0064
526.79	6.01198
527.265	-13.02638
527.74	-40.08731
528.215	-38.08027
528.689	-80.15994
529.164	-9.01744
529.638	-31.07171
530.112	-71.15074
530.587	-87.16744
531.061	-53.11473
531.534	-38.08309
532.008	-14.03003
532.482	-71.14804
532.956	-115.26687
533.429	-63.1383
533.903	-38.0759
534.376	-62.12407
534.849	-64.1346
535.322	-40.0852
535.795	-57.12634
536.268	-68.14824
536.741	-41.08913
537.213	-81.17092
537.686	-106.23568
538.158	-47.09464
538.631	-66.14644
539.103	-90.18344
539.575	-38.07174
540.047	-59.11782
540.519	-49.10648
540.991	-30.06657
541.463	-18.03931
541.934	-75.15645
542.406	-86.18684
542.877	-63.12926
543.348	-50.10983
543.82	-29.06447
544.291	-45.09558
544.762	-38.08122
545.233	-83.18941
545.703	-77.15462
546.174	4.00832
546.645	-62.13315
547.115	-12.02586
547.585	-36.07454
548.056	-52.11211
548.526	-42.08814
548.996	-9.01931
549.466	14.03044
549.935	-33.06927
550.405	9.01731
550.875	27.05602
551.344	-42.08993
551.814	34.06845
552.283	16.03067
552.752	-25.0512
553.221	9.017
553.69	-10.0195
554.159	11.02353
554.628	-30.05875
555.096	21.04641
555.565	8.01561
556.033	-27.0567
556.502	11.02361
556.97	6.01183
557.438	-38.08126
557.906	11.02345
558.374	-40.08342
558.842	-32.06941
559.31	-47.09625
559.777	-87.19292
560.245	-52.11245
560.712	-51.1087
561.18	-128.26386
561.647	-68.1403
562.114	-123.26136
562.581	-76.17347
563.048	-46.09798
563.514	-81.18365
563.981	-71.15107
564.448	-95.19905
564.914	-74.1605
565.381	-29.061
565.847	-10.02154
566.313	-48.10362
566.779	-34.07091
567.245	-62.13482
567.711	-62.1378
568.176	-68.14175
568.642	-69.16019
569.108	-42.09521
569.573	3.0065
570.038	23.04424
570.504	-25.05145
570.969	-28.06458
571.434	-25.05029
571.899	9.01953
572.363	10.02079
572.828	27.0564
573.293	21.04386
573.757	8.01677
574.222	30.06053
574.686	6.01221
575.15	-4.00866
575.614	9.01879
576.078	19.04044
576.542	43.08866
577.006	41.08359
577.469	89.19826
577.933	44.0887
578.396	37.07982
578.86	77.16319
579.323	68.14547
579.786	69.13414
580.249	-24.05012
580.712	62.13694
581.175	17.03815
581.637	64.13377
582.1	45.09011
582.563	61.11927
583.025	26.05728
583.487	45.08248
583.95	7.01373
584.412	62.11832
584.874	19.04206
585.336	14.03031
585.797	1.00199
586.259	61.13086
586.721	12.02575
587.182	39.08367
587.643	52.10763
588.105	4.0087
588.566	35.06762
589.027	-6.01324
589.488	17.0356
589.949	57.1256
590.41	-2.00359
590.87	55.11478
591.331	57.11256
591.791	6.01271
592.252	-43.09101
592.712	33.07254
593.172	-15.03122
593.632	70.13995
594.092	39.07958
594.552	8.01588
595.011	19.03986
595.471	56.11419
595.931	65.13167
596.39	-1.0022
596.849	41.08712
597.308	80.15786
597.768	5.01164
598.227	9.01994
598.685	64.1343
599.144	19.04076
599.603	10.02179
600.062	4.00773
600.52	21.04287
600.978	43.09308
601.437	99.20486
601.895	27.05251
602.353	90.18093
602.811	86.17265
603.269	135.28886
603.727	101.21761
604.184	89.18045
604.642	36.08038
605.099	124.25768
605.557	172.37193
606.014	119.22891
606.471	115.25575
606.928	111.21178
607.385	190.40347
607.842	243.48255
608.299	319.63673
608.755	304.62835
609.212	210.40738
609.668	252.47975
610.125	305.63423
610.581	347.70967
611.037	306.60723
611.493	283.58403
611.949	188.40079
612.405	266.46238
612.861	333.67949
613.316	240.50363
613.772	273.5482
614.227	285.58578
614.683	293.54871
615.138	299.60817
615.593	320.64421
616.048	335.66556
616.503	358.76251
616.958	295.64675
617.412	358.73133
617.867	264.51238
618.321	323.58309
618.776	343.66015
619.23	306.6305
619.684	374.73316
620.138	353.71768
620.592	322.68792
621.046	322.66734
621.5	319.68373
621.954	359.70991
622.407	327.6439
622.861	282.61161
623.314	314.63592
623.768	294.61122
624.221	246.43782
624.674	266.55178
625.127	225.47914
625.58	274.56609
626.033	318.63075
626.485	258.55884
626.938	306.65544
627.39	271.57207
627.843	244.51632
628.295	271.57032
628.747	193.42493
629.199	300.61814
629.651	224.46923
630.103	222.46977
630.555	285.55116
631.006	247.53445
631.458	270.58483
631.909	261.55532
632.361	239.51758
632.812	251.53636
633.263	275.54763
633.714	269.53418
634.165	282.63244
634.616	266.58723
635.067	266.55055
635.518	318.69908
635.968	313.58038
636.419	297.59887
636.869	327.7175
637.319	299.64059
637.769	282.5868
638.219	332.73384
638.669	284.63116
639.119	315.71384
639.569	356.79016
640.019	400.84492
640.468	373.76491
640.918	410.90281
641.367	364.75236
641.816	430.87363
642.265	464.96892
642.714	414.87487
643.163	437.91355
643.612	447.97126
644.061	467.88759
644.51	480.9841
644.958	498.97995
645.406	517.10565
645.855	539.1801
646.303	554.15192
646.751	516.04798
647.199	626.24231
647.647	532.09135
648.095	576.16581
648.543	602.07905
648.99	602.26689
649.438	636.31095
649.885	645.40121
650.333	662.1
650.78	621.31982
651.227	626.33999
651.674	651.2923
652.121	589.27291
652.568	599.28847
653.015	674.49559
653.461	600.26268
653.908	637.3033
654.354	616.30151
654.801	585.21783
655.247	632.21745
655.693	608.41421
656.139	603.28374
656.585	610.29838
657.031	534.11766
657.477	568.09028
657.922	555.144
658.368	603.32819
658.813	583.21366
659.259	549.18584
659.704	533.12024
660.149	564.17848
660.594	586.24399
661.039	513.05966
661.484	572.23005
661.929	549.159
662.373	518.18949
662.818	555.24479
663.262	543.18237
663.707	597.35937
664.151	515.14832
664.595	528.15719
665.039	574.29088
665.483	556.2845
665.927	575.22087
666.371	441.94395
666.814	573.23617
667.258	513.10559
667.701	582.12903
668.145	598.34272
668.588	564.25541
669.031	520.11375
669.474	539.18258
669.917	550.10496
670.36	588.31808
670.803	573.25412
671.245	544.0391
671.688	604.329
672.13	507.03974
672.573	637.45463
673.015	602.30298
673.457	544.07579
673.899	587.28804
674.341	560.23001
674.783	592.28131
675.225	582.29767
675.666	547.19713
676.108	610.18739
676.549	594.27305
676.991	574.14478
677.432	587.04697
677.873	599.25089
678.314	603.30042
678.755	579.27952
679.196	552.15132
679.637	597.32319
680.078	563.20159
680.518	580.22909
680.959	566.23539
681.399	530.20785
681.839	576.27633
682.28	546.23335
682.72	538.12605
683.16	516.18441
683.6	549.14531
684.039	494.95057
684.479	499.1323
684.919	508.07629
685.358	532.24406
685.798	526.27216
686.237	534.18805
686.676	546.16197
687.115	557.19595
687.554	509.11572
687.993	497.01598
688.432	513.08003
688.871	503.05244
689.309	530.16353
689.748	543.03693
690.186	533.17185
690.625	463.01088
691.063	509.12743
691.501	510.16642
691.939	484.12149
692.377	532.19386
692.815	493.09194
693.253	504.1226
693.69	505.0235
694.128	485.09024
694.565	514.13214
695.003	510.1986
695.44	489.0655
695.877	446.97547
696.314	497.99018
696.751	549.14784
697.188	457.98115
697.625	563.18236
698.061	513.13631
698.498	552.22613
698.934	535.18561
699.371	464.01756
699.807	471.03792
700.243	449.01082
700.679	476.00265
701.115	543.17536
701.551	504.09894
701.987	544.12154
702.422	454.00729
702.858	449.00092
703.294	457.96889
703.729	486.1061
704.164	435.9849
704.599	476.98692
705.035	468.97553
705.47	447.01739
705.904	475.02881
706.339	521.11902
706.774	463.01131
707.209	466.00047
707.643	510.1327
708.078	463.0526
708.512	464.08271
708.946	512.13527
709.38	498.09363
709.814	506.06924
710.248	490.10982
710.682	506.11263
711.116	425.95327
711.549	550.30677
711.983	462.99722
712.416	522.13873
712.85	481.11694
713.283	518.13095
713.716	545.2613
714.149	524.15275
714.582	476.99485
715.015	520.20503
715.448	471.10874
715.881	524.05457
716.313	441.97003
716.746	455.00009
717.178	483.07908
717.61	512.20331
718.043	515.18801
718.475	488.09901
718.907	545.27176
719.339	420.89571
719.77	485.06615
720.202	508.19065
720.634	461.04635
721.065	546.18664
721.497	518.17286
721.928	505.14732
722.359	463.03985
722.79	494.09529
723.221	558.28964
723.652	551.3099
724.083	479.00169
724.514	538.1335
724.945	474.03603
725.375	477.02656
725.806	578.31951
726.236	569.33718
726.666	526.1465
727.096	540.21878
727.526	532.24601
727.956	495.03933
728.386	592.32706
728.816	557.29267
729.246	533.19048
729.675	542.2248
730.105	544.23082
730.534	535.14914
730.964	628.43837
731.393	620.39673
731.822	614.42482
732.251	606.39848
732.68	654.3813
733.109	619.37998
733.537	590.29436
733.966	667.48464
734.395	590.23452
734.823	642.29665
735.251	595.30069
735.68	693.55083
736.108	620.4223
736.536	676.42096
736.964	639.32923
737.392	679.52072
737.82	695.48241
738.247	693.47559
738.675	738.55347
739.102	672.50287
739.53	726.63971
739.957	752.70948
740.384	732.59814
740.811	760.69841
741.238	727.56748
741.665	750.51925
742.092	746.56551
742.519	753.63813
742.945	758.59421
743.372	795.71639
743.798	801.80219
744.225	803.65378
744.651	787.72806
745.077	779.70118
745.503	796.69107
745.929	871.78512
746.355	920.94704
746.781	865.84213
747.207	795.61308
747.632	833.75017
748.058	887.89472
748.483	939.80696
748.908	933.96298
749.334	935.94051
749.759	956.88243
750.184	918.84389
750.609	934.94058
751.033	996.95212
751.458	974.80408
751.883	1019.09647
752.307	944.85964
752.732	953.0034
753.156	1075.17334
753.58	1034.01665
754.005	1065.23134
754.429	981.91229
754.853	1023.09907
755.277	1024.99293
755.7	1092.21127
756.124	993.05476
756.548	1062.04894
756.971	1069.13565
757.394	1062.26451
757.818	1157.41261
758.241	1119.31277
758.664	1138.32859
759.087	1087.93858
759.51	1108.24372
759.933	1114.16075
760.356	1186.4465
760.778	1175.30791
761.201	1175.27988
761.623	1229.34771
762.046	1222.27554
762.468	1205.2874
762.89	1211.37209
763.312	1149.25252
763.734	1178.25276
764.156	1186.33554
764.578	1198.15835
765	1184.29901
765.421	1172.39287
765.843	1218.56389
766.264	1196.28946
766.686	1150.33207
767.107	1138.21368
767.528	1076.22725
767.949	1161.38263
768.37	1198.33394
768.791	1239.34984
769.212	1121.28295
769.632	1102.05853
770.053	1139.45019
770.473	1143.23024
770.894	1160.33747
771.314	1172.22406
771.734	1134.10392
772.154	1131.36353
772.575	1145.10603
772.994	1061.94268
773.414	1132.1812
773.834	1070.19319
774.254	1102.18601
774.673	1043.08553
775.093	1108.22235
775.512	1049.12069
775.931	1056.20713
776.351	1006.07292
776.77	999.02311
777.189	983.93701
777.607	1020.16645
778.026	967.01688
778.445	937.97743
778.864	990.1281
779.282	1005.99614
779.701	896.9259
780.119	858.86313
780.537	874.86412
780.955	932.00842
781.373	884.86268
781.791	869.64244
782.209	830.6325
782.627	858.95518
783.045	787.55834
783.462	821.81933
783.88	779.76552
784.297	802.75254
784.715	790.77055
785.132	762.60755
785.549	766.67524
785.966	747.65048
786.383	736.58927
786.8	772.55033
787.217	692.44697
787.633	704.55445
788.05	742.54
788.466	690.43642
788.883	697.57897
789.299	672.43609
789.715	667.44168
790.131	635.41685
790.547	603.36088
790.963	642.42747
791.379	615.40265
791.795	621.26421
792.21	572.20842
792.626	596.27294
793.041	597.33088
793.457	571.28177
793.872	548.17028
794.287	548.18847
794.702	550.23583
795.117	494.13158
795.532	535.22686
795.947	534.1738
796.362	526.14844
796.776	536.14412
797.191	440.00284
797.605	409.89853
798.02	460.03754
798.434	460.94608
798.848	446.02145
799.262	437.0102
799.676	426.97257
800.09	404.93423
800.504	406.92505
800.918	391.85068
801.331	391.9696
801.745	365.79143
802.158	385.90848
802.572	364.83607
802.985	338.77761
803.398	313.71334
803.811	362.88409
804.224	336.79703
804.637	300.68441
805.05	314.69464
805.462	303.71364
805.875	271.67799
806.288	274.63618
806.7	283.68464
807.112	308.68222
807.525	257.61331
807.937	241.57755
808.349	260.6296
808.761	259.61571
809.173	256.59956
809.584	275.655
809.996	161.38791
810.408	236.5914
810.819	215.49219
811.231	243.60883
811.642	229.52971
812.053	315.71442
812.464	322.72926
812.875	325.79332
813.286	220.55151
813.697	265.59737
814.108	240.56847
814.519	216.46807
814.929	191.47701
815.34	107.258
815.75	151.37821
816.16	169.41395
816.571	133.34175
816.981	190.4389
817.391	154.36633
817.801	106.26162
818.211	143.33657
818.62	129.30728
819.03	121.29396
819.44	157.40397
819.849	148.36782
820.259	137.34661
820.668	113.27576
821.077	127.31212
821.486	122.29122
821.895	157.38199
822.304	114.2997
822.713	90.21212
823.122	117.28956
823.531	127.29798
823.939	98.2376
824.348	131.31503
824.756	112.27845
825.164	156.38657
825.573	126.31292
825.981	130.31896
826.389	98.24498
826.797	67.16788
827.205	49.11299
827.612	83.20436
828.02	47.11088
828.428	97.24576
828.835	83.2178
829.243	101.23938
829.65	90.22286
830.057	102.24608
830.464	99.23988
830.871	69.16531
831.278	49.11891
831.685	65.14533
832.092	66.1617
832.499	31.06843
832.905	88.22197
833.312	87.19789
833.718	100.24771
834.124	63.14423
834.531	75.18881
834.937	54.13888
835.343	71.17126
835.749	71.16587
836.155	51.13383
836.561	43.10623
836.966	87.212
837.372	67.17048
837.777	-1.00252
838.183	59.13154
838.588	28.06999
838.993	102.24674
839.399	19.04685
839.804	14.03444
840.209	34.08698
840.613	27.06059
841.018	9.02301
841.423	29.07483
841.828	50.12675
842.232	92.22681
842.637	35.08308
843.041	15.03876
843.445	41.10325
843.849	22.05488
844.253	67.15923
844.657	18.04568
845.061	19.04353
845.465	36.08741
845.869	25.05857
846.272	22.05398
846.676	61.14764
847.079	14.03589
847.483	54.13494
847.886	63.15334
848.289	23.06174
848.692	30.0764
849.095	27.0653
849.498	84.21211
849.901	63.14458
850.304	33.07933
850.707	36.0922
851.109	83.20924
851.512	66.16206
851.914	-53.13624
852.316	-22.05646
852.718	22.05715
853.121	2.00495
853.523	37.08692
853.925	12.03155
854.326	16.04031
854.728	15.03887
855.13	44.11375
855.531	-42.10232
855.933	46.11077
856.334	10.02515
856.736	-22.05013
857.137	-25.05912
857.538	10.02536
857.939	2.00499
858.34	22.054
858.741	22.05786
859.142	32.07729
859.542	33.08742
859.943	5.01255
860.343	-15.03764
860.744	21.05161
861.144	2.00493
861.544	-61.14992
861.945	12.03083
862.345	-9.02229
862.745	34.08487
863.145	52.12451
863.544	16.04073
863.944	25.05946
864.344	34.08484
864.743	47.11687
865.143	30.07742
865.542	-21.04948
865.941	12.02995
866.34	17.04105
866.74	53.14232
867.139	-5.01212
867.537	14.03594
867.936	-4.00974
868.335	20.05122
868.734	22.05656
869.132	33.07707
869.531	18.04387
869.929	-25.05795
870.327	4.00969
870.726	48.1199
871.124	38.08918
871.522	12.03081
871.92	26.0645
872.318	43.10541
872.715	71.17533
873.113	-26.06434
873.511	0
873.908	3.00764
874.306	-25.06309
874.703	41.10288
875.1	35.08987
875.497	24.0579
875.894	-18.0447
876.291	3.00744
876.688	5.01301
877.085	8.01937
877.482	42.10541
877.878	-18.04394
878.275	26.0664
878.671	9.02025
879.068	16.03892
879.464	1.00244
879.86	13.031
880.256	50.12354
880.652	2.00513
881.048	19.0474
881.444	-13.03136
881.84	17.0435
882.236	15.03799
882.631	31.07644
883.027	4.00978
883.422	30.07705
883.817	-16.04072
884.213	-1.00259
884.608	-14.03477
885.003	-20.04891
885.398	7.01767
885.793	3.0076
886.188	-10.02515
886.582	61.15631
886.977	13.03111
887.371	8.0204
887.766	-8.02012
888.16	10.02516
888.554	36.08934
888.949	-5.01269
889.343	23.05653
889.737	-13.03502
890.131	11.02781
890.525	27.06938
890.918	-1.00254
891.312	3.00725
891.706	39.10258
892.099	56.14246
892.492	6.01309
892.886	36.08839
893.279	30.07675
893.672	9.02309
894.065	-1.00253
894.458	45.11337
894.851	30.07385
895.244	20.05138
895.637	54.13008
896.029	30.07369
896.422	29.07119
896.814	-2.00502
897.206	-19.04588
897.599	57.14091
897.991	-20.04904
898.383	8.01907
898.775	1.00228
899.167	-37.08783
899.559	5.01277
899.951	-8.01909
900.342	14.03586
900.734	-2.00501
901.125	39.10258
901.517	25.06169
901.908	31.07466
902.299	-15.03714
902.69	-10.02389
903.082	10.02442
903.473	8.01932
903.863	22.05644
904.254	1.00235
904.645	33.08239
905.036	-13.03187
905.426	39.08957
905.817	10.02474
906.207	-20.04833
906.597	-9.02131
906.987	30.07807
907.378	34.08628
907.768	71.18713
908.158	2.00492
908.547	-1.00261
908.937	48.12328
909.327	35.08529
909.717	29.07395
910.106	-3.00728
910.495	34.08518
910.885	62.15678
911.274	43.10767
911.663	30.07645
912.052	30.07434
912.441	-14.03602
912.83	-17.03958
913.219	41.10751
913.608	14.03454
913.997	-31.07888
914.385	11.02649
914.774	21.05144
915.162	15.036
915.55	32.07773
915.939	-12.03064
916.327	16.0402
916.715	-4.01029
917.103	51.12557
917.491	55.13602
917.878	45.1108
918.266	17.04435
918.654	32.08204
919.041	-31.08206
919.429	-21.05027
919.816	13.03318
920.203	-5.01226
920.591	64.15836
920.978	31.07622
921.365	54.14163
921.752	25.05992
922.139	-2.00439
922.525	-19.04625
922.912	33.08077
923.299	37.09221
923.685	4.01052
924.072	42.09706
924.458	21.05232
924.844	16.03985
925.231	36.08405
925.617	18.04605
926.003	39.0999
926.389	-22.05623
926.774	0
927.16	33.08224
927.546	-3.00773
927.931	36.09009
928.317	13.03018
928.702	42.09957
929.088	-7.01674
929.473	24.06136
929.858	-38.09341
930.243	-37.09029
930.628	-27.06665
931.013	-8.02004
931.398	43.09908
931.783	34.08978
932.167	-25.06199
932.552	15.03783
932.937	28.06979
933.321	-15.03809
933.705	36.091
934.09	81.20362
934.474	46.10938
934.858	-4.01047
935.242	-40.09438
935.626	11.02835
936.009	-10.02687
936.393	41.10451
936.777	3.00775
937.16	24.06273
937.544	-30.0718
937.927	-16.04108
938.311	50.12209
938.694	35.09281
939.077	-2.00484
939.46	33.08131
939.843	-19.04027
940.226	2.00517
940.609	-38.08879
940.991	-18.04637
941.374	-35.08691
941.757	40.09891
942.139	-74.17047
942.522	49.11587
942.904	-5.01215
943.286	28.07143
943.668	5.01305
944.05	23.05694
944.432	15.03726
944.814	12.02977
945.196	-33.08167
945.578	-38.09185
945.959	11.02598
946.341	60.14705
946.722	45.10575
947.104	17.0409
947.485	1.00235
947.866	-7.01782
948.247	-10.0255
948.628	6.01476
949.009	-27.07008
949.39	28.06999
949.771	42.09787
950.152	-5.0124
950.532	-39.09751
950.913	17.04127
951.293	8.02176
951.674	12.02924
952.054	-22.05523
952.434	-13.03264
952.814	32.07642
953.194	1.00264
953.574	54.13293
953.954	-12.02884
954.334	-6.01511
954.714	-51.12664
955.093	13.03219
955.473	-8.02022
955.853	6.01565
956.232	61.1669
956.611	74.17671
956.99	15.03794
957.37	18.04613
957.749	-8.0193
958.128	-12.03057
958.506	-17.04461
958.885	5.01272
959.264	-49.12229
959.643	1.0023
960.021	-1.0025
960.4	12.02741
960.778	38.09382
961.156	-26.06607
961.535	-9.02122
961.913	10.02359
962.291	-19.04933
962.669	-19.04872
963.047	26.06663
963.424	10.0257
963.802	11.02724
964.18	64.16155
964.557	15.0348
964.935	24.05716
965.312	22.05756
965.69	29.0729
966.067	-10.02463
966.444	21.05203
966.821	35.09047
967.198	16.03907
967.575	69.16908
967.952	68.15971
968.329	21.05138
968.705	29.06248
969.082	4.01034
969.458	-18.04374
969.835	31.07574
970.211	38.09773
970.587	11.02758
970.963	15.03872
971.339	-7.01846
971.715	42.10503
972.091	46.11337
972.467	2.00503
972.843	-2.00501
973.219	25.06033
973.594	-5.0132
973.97	57.13551
974.345	-7.01694
974.721	47.11389
975.096	-4.00978
975.471	3.00718
975.846	6.01454
976.221	-5.01282
976.596	20.04822
976.971	23.05707
977.346	18.04218
977.72	24.06142
978.095	-16.04182
978.469	7.01685
978.844	63.15803
979.218	-14.03397
979.593	29.06977
979.967	10.02454
980.341	32.07395
980.715	17.04309
981.089	-9.02277
981.463	0
981.837	-23.05696
982.21	60.13938
982.584	3.00731
982.957	13.03268
983.331	38.09005
983.704	11.02722
984.078	-1.00249
984.451	38.09513
984.824	-26.06422
985.197	5.01225
985.57	30.07551
985.943	35.08669
986.316	60.14716
986.688	11.02672
987.061	-28.06663
987.434	11.02886
987.806	16.03905
988.179	12.02852
988.551	25.0637
988.923	11.02728
989.295	17.04273
989.667	-47.11436
990.039	3.00748
990.411	-3.00698
990.783	-12.02797
991.155	-8.01943
991.527	58.14262
991.898	18.04511
992.27	-27.06773
992.641	51.12793
993.012	23.05441
993.384	-4.00964
993.755	13.03336
994.126	-16.03897
994.497	12.02966
994.868	-2.00464
995.239	38.0923
995.61	-13.03308
995.98	10.02447
996.351	-13.03256
996.722	-6.01407
997.092	-53.12799
997.462	-65.15525
997.833	66.15598
998.203	19.04633
998.573	-3.00754
998.943	-22.05231
999.313	-8.01938
999.683	-4.0097
1000.053	27.06241
1000.423	17.04156
1000.792	23.05988
1001.162	17.04209
1001.531	-24.05997
1001.901	-9.02267
1002.27	-8.0181
1002.639	19.04881
1003.009	33.07873
1003.378	-7.01808
1003.747	-17.04068
1004.116	17.04093
1004.485	-44.10704
1004.853	14.03569
1005.222	26.06584
1005.591	-9.02161
1005.959	-16.03653
1006.328	-23.05253
1006.696	-3.00731
1007.064	15.03796
1007.433	25.06276
1007.801	39.09592
1008.169	0
1008.537	8.01787
1008.905	3.00705
1009.273	22.05462
1009.64	-44.10684
1010.008	6.01442
1010.375	79.19078
1010.743	53.12231
1011.11	-19.04555
1011.478	-8.02001
1011.845	-1.00237
1012.212	-24.05513
1012.579	-23.05721
1012.946	43.10247
1013.313	-1.0024
1013.68	14.0317
1014.047	7.01681
1014.414	2.00477
1014.78	-14.03519
1015.147	28.06799
1015.513	6.01457
1015.88	42.10753
1016.246	47.11607
1016.612	4.00924
1016.978	14.03453
1017.344	20.04969
1017.71	54.13156
1018.076	17.04034
1018.442	31.07999
1018.808	21.05275
1019.174	-28.07121
1019.539	113.25682
1019.905	-16.03821
1020.27	-29.07259
1020.636	32.07697
1021.001	12.02893
1021.366	-30.07312
1021.731	24.06198
1022.096	-32.08187
1022.461	-8.01914
1022.826	0
1023.191	29.07633
1023.556	38.08925
1023.92	37.09117
1024.285	31.07591
1024.649	31.07622
1025.014	22.05476
1025.378	27.06814
1025.742	14.03498
1026.107	2.00457
1026.471	47.10976
1026.835	-1.0025
1027.199	-19.04632
1027.562	48.11159
1027.926	40.09796
1028.29	10.02548
1028.654	-9.02094
1029.017	-11.02733
1029.381	-40.09716
1029.744	22.05636
1030.107	5.01193
1030.471	-8.01936
1030.834	15.03435
1031.197	47.11324
1031.56	30.07104
1031.923	26.06747
1032.286	41.09642
1032.648	-3.00724
1033.011	-16.0372
1033.374	57.13374
1033.736	-20.05318
1034.099	-4.00984
1034.461	22.05583
1034.823	-8.02012
1035.185	26.0657
1035.548	36.08781
1035.91	1.00242
1036.272	22.05034
1036.634	30.07363
1036.995	18.04256
1037.357	2.00491
1037.719	18.04402
1038.08	11.0263
1038.442	-6.01439
1038.803	30.07227
1039.165	1.00254
1039.526	-20.04894
1039.887	33.07918
1040.248	6.0149
1040.609	36.08915
1040.97	6.01478
1041.331	20.05088
1041.692	-27.06394
1042.053	25.05719
1042.413	-13.03066
1042.774	22.05376
1043.134	56.13311
1043.495	8.02025
1043.855	-7.01715
1044.215	-4.01002
1044.576	-18.04357
1044.936	30.06903
1045.296	82.20335
1045.656	-6.01487
1046.016	9.02188
1046.375	-7.01715
1046.735	-51.11793
1047.095	5.0118
1047.454	37.07859
1047.814	25.06035
1048.173	14.03366
1048.533	-17.03945
1048.892	-29.07061
1049.251	15.03787
1049.61	-13.03236
1049.969	32.07565
1050.328	-24.05283
1050.687	-11.02705
1051.046	22.05382
1051.405	21.05249
1051.763	2.00464
1052.122	22.05512
1052.48	-15.03721
1052.839	-16.03811
1053.197	-14.03334
1053.555	8.01838
1053.914	29.07117
1054.272	-21.05142
1054.63	-22.05448
1054.988	-3.0072
1055.345	-54.11882
1055.703	37.08922
1056.061	-11.02858
1056.419	-1.00261
1056.776	26.0633
1057.134	2.00467
1057.491	26.06535
1057.848	21.05252
1058.206	9.02132
1058.563	-8.01784
1058.92	62.14248
1059.277	26.06438
1059.634	9.02133
1059.991	35.08404
1060.348	-28.06424
1060.704	-17.04101
1061.061	58.13446
1061.418	-6.01469
1061.774	-43.1079
1062.131	13.03456
1062.487	-27.06404
1062.843	36.08993
1063.199	-6.01506
1063.555	27.06281
1063.911	31.07852
1064.267	49.10217
1064.623	-23.05659
1064.979	62.14647
1065.335	23.05523
1065.691	-26.06318
1066.046	-31.06928
1066.402	4.00917
1066.757	15.03807
1067.112	15.03703
1067.468	-49.11784
1067.823	4.00969
1068.178	4.00975
1068.533	14.03415
1068.888	-20.0484
1069.243	-21.05247
1069.598	-26.06403
1069.952	-68.15671
1070.307	-36.09045
1070.662	-35.08439
1071.016	-47.10734
1071.371	-38.08792
1071.725	28.06722
1072.079	36.08676
1072.434	-3.00736
1072.788	-2.00481
1073.142	28.06911
1073.496	-11.02638
1073.85	16.03733
1074.203	36.08751
1074.557	15.04009
1074.911	4.00962
1075.265	-8.0188
1075.618	27.06616
1075.971	26.06209
1076.325	9.02302
1076.678	-5.01155
1077.031	-9.0206
1077.385	0
1077.738	-48.11044
1078.091	-30.06927
1078.444	8.01872
1078.796	-26.06464
1079.149	19.04749
1079.502	-35.08398
1079.855	2.0047
1080.207	61.14986
1080.56	5.01301
1080.912	13.03184
1081.264	-6.01459
1081.617	0
1081.969	-19.04848
1082.321	-6.01479
1082.673	-36.08353
1083.025	-18.04323
1083.377	36.07745
1083.728	30.07021
1084.08	-8.02016
1084.432	-3.0073
1084.783	38.08918
1085.135	-8.02024
1085.486	-30.06969
1085.838	5.01241
1086.189	-4.0098
1086.54	49.11694
1086.891	-8.02042
1087.242	4.00981
1087.593	33.08053
1087.944	-25.0574
1088.295	-1.00229
1088.646	13.0317
1088.996	-13.03167
1089.347	18.04439
1089.698	-32.07677
1090.048	81.20908
1090.398	6.01403
1090.749	14.0337
1091.099	-29.07389
1091.449	14.03507
1091.799	12.03023
1092.149	-45.11157
1092.499	-34.08416
1092.849	-8.02052
1093.199	-17.04309
1093.548	-12.02915
1093.898	-29.07353
1094.248	24.0619
1094.597	-15.03869
1094.947	-4.01076
1095.296	-1.00249
1095.645	56.14538
1095.994	20.04827
1096.343	-2.00508
1096.692	-17.04512
1097.041	-11.03005
1097.39	-7.01772
1097.739	6.0157
1098.088	54.14445
1098.437	-24.06378
1098.785	42.11328
1099.134	49.13002
1099.482	10.02765
1099.83	39.10258
1100.179	-2.00526
1100.527	10.02672
1100.875	-6.016
1101.223	10.02671
1101.571	8.02223
1101.919	-19.05018
1102.267	-20.05686
1102.615	-7.02254
1102.962	6.01933
1103.31	-1.00322
1103.658	5.01612
