Data from N2 R8 sample 3_Subt2__5__17-44-31-888.txt Node

Date: Fri Aug 29 17:44:31 PDT 2025
User: uwsun
Spectrometer: HDX01956
Trigger mode: 0
Integration Time (sec): 5.000000E-1
Scans to average: 1
Nonlinearity correction enabled: true
Boxcar width: 0
Storing dark spectrum: false
XAxis mode: Wavelengths
Number of Pixels in Spectrum: 2068
>>>>>Begin Spectral Data<<<<<
194.03	42.11712
194.578	39.12274
195.127	35.10859
195.676	47.14604
196.225	56.14717
196.773	40.10897
197.321	22.05883
197.87	165.39589
198.418	99.23736
198.966	65.1578
199.513	46.10673
200.061	40.09449
200.609	129.31715
201.156	58.1173
201.704	67.15653
202.251	99.2425
202.798	100.24016
203.345	158.35844
203.892	125.28939
204.438	112.24727
204.985	83.18052
205.532	78.19031
206.078	76.17319
206.624	76.17256
207.17	104.22287
207.716	43.09714
208.262	108.196
208.808	59.13399
209.354	93.20837
209.899	133.31071
210.445	71.16294
210.99	104.22989
211.535	148.31853
212.08	93.2002
212.625	136.31291
213.17	143.33289
213.715	40.08223
214.259	135.28874
214.804	121.27623
215.348	92.19502
215.892	136.2995
216.436	151.32128
216.98	161.32599
217.524	91.19901
218.068	157.36274
218.612	144.33397
219.155	85.18565
219.698	95.20995
220.242	141.325
220.785	73.15931
221.328	75.17467
221.871	125.29455
222.414	124.28667
222.956	35.07897
223.499	128.26564
224.041	137.29568
224.583	156.31102
225.126	90.18461
225.668	58.1319
226.21	96.22423
226.751	45.09195
227.293	52.11177
227.835	61.13915
228.376	150.31964
228.918	110.25855
229.459	65.15078
230	66.14675
230.541	102.21839
231.082	69.15606
231.622	117.2497
232.163	87.19557
232.704	95.21819
233.244	64.14814
233.784	111.25299
234.324	43.08774
234.864	65.1374
235.404	99.21889
235.944	118.25888
236.484	88.20466
237.023	107.23321
237.563	40.08639
238.102	90.1972
238.641	123.2869
239.18	59.12794
239.719	95.22107
240.258	80.16714
240.797	65.14437
241.335	140.3149
241.874	84.14887
242.412	82.18232
242.95	111.24285
243.488	116.24343
244.026	100.21189
244.564	70.13358
245.102	52.10845
245.64	131.29048
246.177	66.13734
246.715	98.21763
247.252	121.25543
247.789	167.28605
248.326	34.07572
248.863	54.10961
249.4	115.23978
249.936	59.11235
250.473	78.16751
251.009	82.17253
251.546	62.12625
252.082	126.25167
252.618	65.13342
253.154	113.24775
253.69	96.19825
254.226	101.22079
254.761	57.11832
255.297	80.16061
255.832	17.03745
256.367	68.14767
256.903	98.19647
257.438	88.19013
257.972	100.20354
258.507	50.1052
259.042	112.22132
259.576	15.0298
260.111	114.2406
260.645	109.21514
261.179	100.21235
261.713	78.15862
262.247	95.20028
262.781	23.0445
263.315	93.20751
263.849	152.34259
264.382	131.27314
264.915	112.23721
265.449	49.10875
265.982	129.26586
266.515	117.25847
267.048	42.08155
267.58	152.29952
268.113	69.13568
268.646	122.27193
269.178	35.07161
269.71	106.20976
270.243	91.18923
270.775	105.24231
271.307	111.24306
271.838	130.28027
272.37	122.27092
272.902	124.25446
273.433	98.19356
273.965	149.32516
274.496	115.25936
275.027	133.29651
275.558	80.17603
276.089	32.0715
276.62	117.26979
277.15	122.27205
277.681	158.30606
278.211	136.30012
278.741	57.11351
279.272	110.22482
279.802	123.27638
280.332	96.20332
280.861	144.30925
281.391	66.13507
281.921	117.2536
282.45	121.27199
282.98	135.31551
283.509	68.13797
284.038	96.19603
284.567	116.24321
285.096	118.25495
285.625	31.0638
286.153	51.10776
286.682	115.23349
287.21	81.17459
287.739	107.22509
288.267	93.20063
288.795	130.30555
289.323	68.14163
289.851	111.23093
290.378	118.23405
290.906	95.20336
291.433	137.30164
291.961	59.11897
292.488	54.12061
293.015	73.15228
293.542	98.21925
294.069	101.21901
294.596	169.36615
295.122	102.21461
295.649	108.20951
296.175	183.3858
296.702	123.26262
297.228	173.36633
297.754	88.17365
298.28	89.17698
298.806	101.21256
299.332	95.18266
299.857	104.20426
300.383	134.2972
300.908	65.13776
301.433	132.277
301.958	135.27109
302.483	98.21255
303.008	129.27746
303.533	104.23766
304.058	131.2678
304.582	83.16967
305.107	52.11874
305.631	116.22912
306.155	133.26399
306.679	86.17281
307.203	130.25701
307.727	167.33581
308.251	148.31222
308.775	107.21546
309.298	99.20155
309.822	169.3613
310.345	160.31914
310.868	120.24303
311.391	137.28654
311.914	155.3262
312.437	172.3284
312.96	135.2662
313.482	126.25027
314.005	126.26628
314.527	171.37428
315.049	133.28348
315.571	82.15109
316.093	154.31589
316.615	158.31295
317.137	78.14091
317.659	175.35028
318.18	153.30468
318.702	138.2622
319.223	143.236
319.744	122.22186
320.265	72.14328
320.786	116.23245
321.307	139.2799
321.828	151.27257
322.348	166.31017
322.869	113.21234
323.389	190.23136
323.909	143.25985
324.43	185.35451
324.95	195.3439
325.47	169.32306
325.989	137.25085
326.509	114.19217
327.029	118.20348
327.548	134.22823
328.067	133.24451
328.587	162.30976
329.106	149.25453
329.625	225.45495
330.144	139.23962
330.662	143.24533
331.181	192.3295
331.7	182.312
332.218	180.27906
332.736	206.34746
333.255	166.27846
333.773	212.35719
334.291	212.38377
334.808	192.29767
335.326	164.25994
335.844	177.28289
336.361	172.30453
336.879	124.19993
337.396	220.35856
337.913	219.33426
338.43	224.32982
338.947	205.32465
339.464	192.26268
339.981	179.27841
340.497	251.406
341.014	225.35509
341.53	187.26631
342.046	193.30511
342.562	305.48055
343.078	230.33762
343.594	228.34025
344.11	210.3111
344.626	216.34138
345.141	230.31324
345.657	289.38732
346.172	211.30924
346.687	196.26675
347.202	220.28475
347.717	236.33071
348.232	253.3747
348.747	229.29955
349.261	181.2151
349.776	235.31178
350.29	187.26262
350.805	285.40029
351.319	270.34305
351.833	202.24473
352.347	292.36434
352.861	248.30614
353.374	323.3879
353.888	275.35536
354.401	274.32317
354.915	145.16638
355.428	261.33934
355.941	261.30249
356.454	325.35682
356.967	332.38701
357.48	326.36226
357.993	264.33101
358.505	264.32012
359.018	336.39665
359.53	321.36292
360.042	267.27238
360.554	278.32378
361.066	295.33682
361.578	279.2654
362.09	301.32864
362.602	242.23109
363.113	322.32216
363.625	313.29283
364.136	322.28834
364.647	186.18007
365.158	353.33208
365.669	353.34831
366.18	284.27741
366.691	366.30031
367.201	312.29983
367.712	312.26505
368.222	322.27093
368.733	338.24141
369.243	312.2292
369.753	332.26673
370.263	384.31449
370.773	290.25988
371.282	304.23808
371.792	333.20822
372.301	395.27434
372.811	413.3368
373.32	298.13583
373.829	318.1794
374.338	335.14734
374.847	363.15479
375.356	411.1678
375.865	313.06683
376.373	353.08578
376.882	516.18103
377.39	462.11401
377.898	297.06014
378.407	468.99652
378.915	491.95779
379.423	430.98109
379.93	466.9327
380.438	389.9359
380.946	491.86571
381.453	485.84327
381.96	366.85876
382.468	415.79872
382.975	686.65181
383.482	684.62575
383.989	696.63108
384.495	673.6213
385.002	612.67193
385.509	576.68985
386.015	742.72171
386.521	822.70243
387.028	595.8237
387.534	768.9038
388.04	814.87223
388.546	587.05638
389.051	498.19192
389.557	621.44018
390.063	1273.3982
390.568	1086.47904
391.073	960.79545
391.578	1111.3688
392.084	938.56194
392.589	501.6938
393.093	377.61886
393.598	644.57863
394.103	967.71018
394.607	1294.26896
395.112	1258.17083
395.616	1414.48354
396.12	1133.28604
396.624	1260.51791
397.128	1473.21923
397.632	2118.52318
398.136	2277.91122
398.639	946.56649
399.143	-123.22559
399.646	283.30096
400.15	105.88506
400.653	-646.40236
401.156	-2163.37545
401.659	-3014.49449
402.162	-242.55065
402.664	-32.81902
403.167	0
403.67	0
404.172	0
404.674	0
405.176	0
405.678	0
406.18	0
406.682	0
407.184	0
407.686	0
408.187	0
408.688	0
409.19	0
409.691	0
410.192	0
410.693	0
411.194	435.30976
411.694	4082.94878
412.195	8864.71461
412.696	12089.80453
413.196	11837.36774
413.696	10195.88081
414.196	11628.69363
414.696	14338.41263
415.196	16142.41203
415.696	18876.22399
416.196	15905.17471
416.695	9795.43659
417.195	6363.8555
417.694	5921.6591
418.194	5998.54512
418.693	4938.63468
419.192	4899.32739
419.691	4792.35686
420.19	4708.72079
420.688	4965.19505
421.187	4876.05415
421.685	5222.01483
422.184	4788.12489
422.682	4311.04153
423.18	3047.20344
423.678	2475.63858
424.176	2335.29335
424.674	2168.40457
425.172	2279.09091
425.669	2169.54295
426.167	2155.78877
426.664	1839.03398
427.161	1564.59775
427.659	1443.3516
428.156	1285.41511
428.652	1290.29542
429.149	1124.37925
429.646	1096.3953
430.143	1081.44825
430.639	992.52584
431.135	906.64589
431.632	798.70225
432.128	646.84107
432.624	548.93057
433.12	349.92946
433.616	470.90271
434.111	307.97501
434.607	375.99659
435.103	435.97471
435.598	521.97212
436.093	485.0829
436.588	431.09127
437.083	463.12541
437.578	393.14633
438.073	242.12903
438.568	326.19649
439.062	301.12717
439.557	270.1755
440.051	208.12812
440.546	161.10565
441.04	175.13439
441.534	158.1448
442.028	244.20146
442.522	163.14019
443.015	169.1236
443.509	203.19002
444.002	124.12066
444.496	108.08739
444.989	128.12918
445.482	93.09855
445.975	61.05451
446.468	112.09153
446.961	152.12325
447.454	59.05669
447.947	16.0167
448.439	140.15214
448.931	75.07194
449.424	51.06252
449.916	106.11984
450.408	26.0265
450.9	-27.03199
451.392	-3.00381
451.884	0
452.375	-63.08033
452.867	28.03163
453.358	-41.04616
453.849	-36.0374
454.341	0
454.832	0
455.323	-50.06546
455.814	-33.04039
456.304	-23.02838
456.795	-48.05953
457.285	15.0181
457.776	57.07132
458.266	-93.12594
458.756	-33.04569
459.247	-109.15033
459.737	-115.16015
460.226	-59.07539
460.716	-8.01109
461.206	-64.09238
461.695	-79.1233
462.185	-40.05705
462.674	-63.08886
463.163	-53.0712
463.653	-5.00618
464.142	-99.15127
464.63	-67.10549
465.119	-133.19744
465.608	-87.12789
466.096	-56.07771
466.585	10.01483
467.073	-30.04747
467.561	-85.13794
468.05	13.0198
468.538	-54.09053
469.026	-104.17178
469.513	-90.12675
470.001	-137.21495
470.489	-109.17919
470.976	-58.09267
471.463	-79.14056
471.951	-32.05719
472.438	-154.26201
472.925	-151.25545
473.412	-93.16882
473.899	-108.18216
474.385	-116.21299
474.872	-144.24977
475.359	-127.23313
475.845	-95.14378
476.331	-81.13175
476.817	-108.2019
477.303	-129.22964
477.789	-100.18528
478.275	-154.29874
478.761	-128.24178
479.247	-102.17786
479.732	-173.34178
480.218	-133.2767
480.703	-81.15882
481.188	-129.21799
481.673	-154.28262
482.158	-164.2748
482.643	-115.23882
483.128	-164.30188
483.612	-130.24652
484.097	-58.11504
484.581	-126.24069
485.066	-124.24699
485.55	-178.32156
486.034	-168.29977
486.518	-160.31053
487.002	-155.31485
487.486	-165.33761
487.969	-163.33397
488.453	-165.35443
488.936	-194.37112
489.42	-131.24399
489.903	-122.26167
490.386	-143.19633
490.869	-178.33392
491.352	-134.28306
491.835	-146.25849
492.318	-186.36203
492.8	-139.24578
493.283	-140.30623
493.765	-223.48149
494.247	-156.31926
494.73	-159.30527
495.212	-135.28586
495.694	-201.41145
496.175	-232.48319
496.657	-184.38578
497.139	-169.26085
497.62	-240.50363
498.102	-227.50104
498.583	-202.45173
499.064	-216.42683
499.545	-147.29505
500.026	-188.37342
500.507	-180.37155
500.988	-159.35095
501.469	-193.43027
501.949	-191.42423
502.43	-277.59551
502.91	-236.43945
503.39	-174.39169
503.87	-250.53157
504.35	-160.33917
504.83	-226.44722
505.31	-174.37706
505.79	-198.4254
506.269	-225.47914
506.749	-256.5327
507.228	-222.47142
507.707	-212.42561
508.187	-199.43298
508.666	-215.47793
509.145	-248.52892
509.623	-211.45011
510.102	-199.43832
510.581	-132.28739
511.059	-227.51799
511.538	-188.44342
512.016	-217.47476
512.494	-162.3569
512.972	-200.43562
513.45	-300.64148
513.928	-262.5859
514.406	-270.59581
514.884	-202.47403
515.361	-209.45822
515.839	-231.484
516.316	-240.5325
516.793	-207.48244
517.27	-186.41441
517.747	-236.55813
518.224	-224.47981
518.701	-175.35661
519.178	-256.58616
519.654	-200.44006
520.131	-236.54059
520.607	-165.37561
521.083	-179.37488
521.56	-270.59656
522.036	-213.43424
522.512	-165.3747
522.987	-226.49497
523.463	-232.51239
523.939	-219.49954
524.414	-200.42915
524.89	-209.46015
525.365	-223.46992
525.84	-221.48432
526.315	-263.59311
526.79	-218.45807
527.265	-203.42985
527.74	-205.46307
528.215	-241.53171
528.689	-202.41528
529.164	-204.41371
529.638	-201.4806
530.112	-239.52598
530.587	-223.44325
531.061	-231.51903
531.534	-199.44989
532.008	-248.55871
532.482	-228.49197
532.956	-272.65071
533.429	-211.4776
533.903	-209.43403
534.376	-226.46944
534.849	-227.49453
535.322	-224.49617
535.795	-238.54736
536.268	-195.43653
536.741	-169.37739
537.213	-212.46019
537.686	-241.55082
538.158	-277.5873
538.631	-187.42534
539.103	-244.51474
539.575	-231.45679
540.047	-229.47535
540.519	-253.57359
540.991	-186.42607
541.463	-223.50804
541.934	-201.43101
542.406	-257.57863
542.877	-238.50759
543.348	-196.44374
543.82	-178.40791
544.291	-195.42771
544.762	-200.44246
545.233	-230.54036
545.703	-241.50227
546.174	-227.49642
546.645	-263.58923
547.115	-190.42508
547.585	-241.52191
548.056	-239.5359
548.526	-246.53945
548.996	-208.46534
549.466	-163.36775
549.935	-228.49914
550.405	-213.43167
550.875	-202.44054
551.344	-237.5288
551.814	-192.40665
552.283	-202.4076
552.752	-220.47043
553.221	-183.36204
553.69	-189.38426
554.159	-232.52224
554.628	-240.4934
555.096	-192.44316
555.565	-179.36476
556.033	-165.35703
556.502	-206.46277
556.97	-224.46549
557.438	-202.44726
557.906	-181.40185
558.374	-220.47715
558.842	-262.59604
559.31	-226.48158
559.777	-236.5395
560.245	-219.49046
560.712	-202.44465
561.18	-255.54066
561.647	-242.51881
562.114	-237.5161
562.581	-241.5683
563.048	-244.54205
563.514	-222.5177
563.981	-235.51783
564.448	-236.50988
564.914	-204.4547
565.381	-231.50752
565.847	-173.38569
566.313	-263.59383
566.779	-236.51425
567.245	-239.53921
567.711	-215.49299
568.176	-271.59038
568.642	-215.51348
569.108	-248.5856
569.573	-209.47307
570.038	-247.50607
570.504	-263.57028
570.969	-248.59693
571.434	-260.55138
571.899	-233.53168
572.363	-262.57768
572.828	-155.33682
573.293	-202.44278
573.757	-208.45689
574.222	-258.55502
574.686	-262.56581
575.15	-262.59869
575.614	-247.54495
576.078	-233.5231
576.542	-221.48269
577.006	-225.48643
577.469	-162.37957
577.933	-221.47267
578.396	-208.47225
578.86	-228.51534
579.323	-248.56671
579.786	-198.40944
580.249	-285.62957
580.712	-236.55359
581.175	-239.56446
581.637	-193.42635
582.1	-169.35519
582.563	-220.45881
583.025	-205.47345
583.487	-251.49448
583.95	-259.54002
584.412	-195.39537
584.874	-228.53065
585.336	-218.49535
585.797	-225.4708
586.259	-177.39918
586.721	-231.52159
587.182	-144.3211
587.643	-214.46928
588.105	-208.47282
588.566	-210.42958
589.027	-258.59927
589.488	-201.44124
589.949	-166.38285
590.41	-211.39866
590.87	-182.39978
591.331	-155.32131
591.791	-195.43113
592.252	-257.56938
592.712	-193.44432
593.172	-207.44924
593.632	-172.36317
594.092	-171.36558
594.552	-192.39899
595.011	-232.51368
595.471	-230.49947
595.931	-223.48149
596.39	-214.49158
596.849	-211.47293
597.308	-175.36602
597.768	-253.61898
598.227	-188.43359
598.685	-172.37973
599.144	-213.47977
599.603	-190.43156
600.062	-265.54516
600.52	-192.41091
600.978	-173.39175
601.437	-164.35934
601.895	-205.42078
602.353	-162.34461
602.811	-183.39021
603.269	-182.41607
603.727	-178.40643
604.184	-197.42553
604.642	-172.40048
605.099	-168.37183
605.557	-149.34426
606.014	-219.45561
606.471	-224.53303
606.928	-199.40828
607.385	-187.42965
607.842	-145.31402
608.299	-53.11493
608.755	-92.20702
609.212	-136.28565
609.668	-155.32433
610.125	-104.23594
610.581	-13.02875
611.037	-46.09879
611.493	-91.20355
611.949	-161.36917
612.405	-164.31769
612.861	-112.25161
613.316	-162.37005
613.772	-129.28307
614.227	-159.35946
614.683	-123.25407
615.138	-131.29254
615.593	-82.18035
616.048	-95.20767
616.503	-90.2103
616.958	-115.27382
617.412	-107.24161
617.867	-117.24775
618.321	-82.16341
618.776	-57.12028
619.23	-101.22713
619.684	-93.20244
620.138	-37.08191
620.592	-113.26409
621.046	-53.11904
621.5	-54.12504
621.954	-12.02579
622.407	-39.08341
622.861	-73.17028
623.314	-41.08978
623.768	-67.15049
624.221	-68.1309
624.674	-69.15383
625.127	-35.07874
625.58	4.00876
626.033	4.00852
626.485	-44.10144
626.938	-19.04355
627.39	6.0134
627.843	53.11684
628.295	-2.00446
628.747	36.08187
629.199	22.04816
629.651	-7.01541
630.103	35.07709
630.555	40.0819
631.006	26.05891
631.458	39.08864
631.909	70.15512
632.361	52.11711
632.812	39.08716
633.263	109.22545
633.714	80.16588
634.165	113.26223
634.616	98.22395
635.067	189.39793
635.518	199.44842
635.968	189.36129
636.419	173.35879
636.869	262.58276
637.319	204.44603
637.769	191.4055
638.219	300.66755
638.669	300.6645
639.119	329.74344
639.569	286.64405
640.019	404.85262
640.468	357.73475
640.918	384.85017
641.367	419.85536
641.816	395.80893
642.265	493.021
642.714	465.97165
643.163	534.09053
643.612	487.04722
644.061	505.95094
644.51	590.17784
644.958	591.13588
645.406	626.30765
645.855	640.37176
646.303	665.34901
646.751	606.20591
647.199	699.36385
647.647	689.36404
648.095	668.32394
648.543	704.22932
648.99	718.47291
649.438	789.57105
649.885	803.68635
650.333	787.26349
650.78	754.55659
651.227	780.61464
651.674	764.47714
652.121	778.61408
652.568	755.57015
653.015	830.78245
653.461	724.48256
653.908	799.5755
654.354	771.57429
654.801	750.50471
655.247	814.50045
655.693	742.68062
656.139	714.4838
656.585	752.55176
657.031	650.32604
657.477	685.27833
657.922	712.41654
658.368	735.57459
658.813	744.49403
659.259	708.47785
659.704	668.36281
660.149	683.38999
660.594	693.43723
661.039	669.33427
661.484	728.5136
661.929	670.37741
662.373	648.44975
662.818	611.35482
663.262	660.4019
663.707	621.40724
664.151	659.4262
664.595	614.32163
665.039	658.45461
665.483	697.56554
665.927	631.32364
666.371	596.23113
666.814	649.37761
667.258	620.30597
667.701	735.37454
668.145	673.48811
668.588	609.3431
669.031	651.35543
669.474	687.4609
669.917	641.26117
670.36	685.50522
670.803	684.4624
671.245	647.2055
671.688	668.45031
672.13	572.15611
672.573	687.55315
673.015	722.52309
673.457	648.25072
673.899	691.48343
674.341	648.39729
674.783	655.39882
675.225	670.46699
675.666	678.4433
676.108	673.29067
676.549	727.51387
676.991	653.27878
677.432	655.14807
677.873	686.40528
678.314	672.42804
678.755	656.42664
679.196	628.28805
679.637	680.48139
680.078	659.37758
680.518	677.40464
680.959	628.35296
681.399	610.36802
681.839	642.40326
682.28	623.38547
682.72	625.28334
683.16	611.37615
683.6	641.31032
684.039	611.14111
684.479	547.22933
684.919	541.13808
685.358	611.40695
685.798	636.50666
686.237	625.36462
686.676	590.24378
687.115	612.2987
687.554	624.33513
687.993	601.20011
688.432	592.22505
688.871	563.1626
689.309	572.24481
689.748	612.14948
690.186	650.39442
690.625	575.22617
691.063	582.26982
691.501	681.50456
691.939	640.43771
692.377	609.34534
692.815	583.26744
693.253	639.38404
693.69	573.14358
694.128	602.32127
694.565	626.34691
695.003	663.51222
695.44	623.31948
695.877	603.27317
696.314	631.2164
696.751	673.36899
697.188	663.35841
697.625	688.40558
698.061	661.41957
698.498	680.47075
698.934	679.46014
699.371	660.38851
699.807	663.40308
700.243	661.42444
700.679	687.38101
701.115	742.53863
701.551	678.42455
701.987	650.30863
702.422	705.48362
702.858	724.52331
703.294	696.39688
703.729	796.69914
704.164	699.49546
704.599	772.49334
705.035	716.40864
705.47	769.63757
705.904	769.5624
706.339	812.636
706.774	797.61935
707.209	754.51971
707.643	856.76579
708.078	816.72382
708.512	833.80384
708.946	870.78668
709.38	869.76099
709.814	862.68122
710.248	876.82968
710.682	903.82164
711.116	891.8048
711.549	969.11535
711.983	905.76646
712.416	974.9233
712.85	1003.08839
713.283	1023.9971
713.716	1072.22093
714.149	1066.0792
714.582	1065.93536
715.015	1112.2743
715.448	1142.33678
715.881	1140.97449
716.313	1072.04267
716.746	1175.19476
717.178	1131.19017
717.61	1191.42788
718.043	1227.42937
718.475	1240.3648
718.907	1312.59975
719.339	1252.18859
719.77	1273.33878
720.202	1285.55382
720.634	1329.48818
721.065	1360.44892
721.497	1389.59071
721.928	1422.63364
722.359	1438.58866
722.79	1494.63015
723.221	1532.85763
723.652	1576.00622
724.083	1501.4421
724.514	1578.57908
724.945	1573.65105
725.375	1626.65089
725.806	1758.06663
726.236	1733.15043
726.666	1756.84753
727.096	1793.02399
727.526	1822.19554
727.956	1845.75265
728.386	1894.12552
728.816	1873.22414
729.246	1955.10784
729.675	1952.16304
730.105	2051.24263
730.534	2089.03093
730.964	2124.42675
731.393	2144.35502
731.822	2238.55217
732.251	2257.52809
732.68	2313.17924
733.109	2253.36918
733.537	2333.30253
733.966	2422.49212
734.395	2456.12082
734.823	2550.03094
735.251	2501.35422
735.68	2670.63699
736.108	2657.69014
736.536	2666.28376
736.964	2749.20067
737.392	2754.64638
737.82	2846.40728
738.247	2970.40239
738.675	2987.39288
739.102	3005.66441
739.53	3034.79398
739.957	3155.87385
740.384	3217.59174
740.811	3217.77423
741.238	3354.49192
741.665	3386.14385
742.092	3470.32773
742.519	3470.56264
742.945	3403.3717
743.372	3692.51663
743.798	3769.78609
744.225	3751.20631
744.651	3790.58936
745.077	3884.50874
745.503	4019.2937
745.929	4011.16967
746.355	4061.43165
746.781	4115.37027
747.207	4014.99616
747.632	4192.19653
748.058	4342.31953
748.483	4463.65064
748.908	4515.19561
749.334	4665.02362
749.759	4573.75771
750.184	4674.77331
750.609	4802.95332
751.033	4902.60298
751.458	4948.20188
751.883	5005.90657
752.307	5007.49863
752.732	5098.90342
753.156	5210.75632
753.58	5365.37342
754.005	5342.91569
754.429	5374.28281
754.853	5474.6314
755.277	5562.23704
755.7	5679.53854
756.124	5647.55194
756.548	5803.12593
756.971	5758.37569
757.394	5904.73987
757.818	5962.6997
758.241	5977.57319
758.664	6078.48919
759.087	6169.58285
759.51	6198.32846
759.933	6223.06266
760.356	6282.53277
760.778	6434.15671
761.201	6468.07597
761.623	6493.0535
762.046	6547.89248
762.468	6590.96595
762.89	6629.14339
763.312	6597.07135
763.734	6700.95403
764.156	6746.121
764.578	6821.67106
765	6889.02689
765.421	6914.29348
765.843	6925.54381
766.264	6953.96526
766.686	6833.23243
767.107	6806.98391
767.528	6962.24495
767.949	7029.30229
768.37	7015.05984
768.791	7008.97105
769.212	6916.21118
769.632	6953.73303
770.053	7008.56496
770.473	7021.00075
770.894	7020.19624
771.314	6970.89233
771.734	6939.73695
772.154	6984.37349
772.575	7017.71519
772.994	6974.59416
773.414	7053.92515
773.834	7128.18061
774.254	6939.0377
774.673	6956.00739
775.093	6804.11637
775.512	6752.09107
775.931	6845.28744
776.351	6851.13523
776.77	6762.03479
777.189	6691.86539
777.607	6685.36656
778.026	6591.19783
778.445	6521.24236
778.864	6549.43655
779.282	6565.95741
779.701	6511.30694
780.119	6480.32976
780.537	6348.27288
780.955	6187.49201
781.373	6218.25155
781.791	6256.57987
782.209	6339.72381
782.627	6156.79742
783.045	5987.81572
783.462	6086.56105
783.88	5831.78529
784.297	5816.55519
784.715	5821.72178
785.132	5720.29636
785.549	5641.59473
785.966	5460.73772
786.383	5497.53358
786.8	5403.15065
787.217	5264.37229
787.633	5193.81538
788.05	5274.39052
788.466	5272.33534
788.883	5196.99813
789.299	4978.6529
789.715	4927.75453
790.131	4913.94631
790.547	4784.05632
790.963	4862.95964
791.379	4702.20065
791.795	4637.44721
792.21	4521.68317
792.626	4401.8561
793.041	4368.17686
793.457	4374.18589
793.872	4322.82708
794.287	4107.03746
794.702	4139.27393
795.117	3997.39312
795.532	3972.47024
795.947	3910.19432
796.362	3849.16168
796.776	3772.05721
797.191	3698.38853
797.605	3624.1092
798.02	3446.41087
798.434	3520.80838
798.848	3282.52034
799.262	3363.55964
799.676	3206.4687
800.09	3102.52832
800.504	3182.43243
800.918	3051.14662
801.331	2983.96682
801.745	2941.10247
802.158	2829.61351
802.572	2841.42802
802.985	2799.40214
803.398	2660.29831
803.811	2663.75816
804.224	2549.51939
804.637	2410.22259
805.05	2346.06161
805.462	2420.39692
805.875	2241.59962
806.288	2185.18488
806.7	2213.41512
807.112	2191.99964
807.525	2127.26875
807.937	2008.19418
808.349	2024.27222
808.761	1917.10478
809.173	1890.01581
809.584	1876.09382
809.996	1711.90549
810.408	1729.14625
810.819	1629.67268
811.231	1677.09524
811.642	1560.65368
812.053	1583.66802
812.464	1618.70188
812.875	1572.93393
813.286	1460.82549
813.697	1463.49097
814.108	1427.59804
814.519	1326.19567
814.929	1394.70769
815.34	1252.35564
815.75	1257.50615
816.16	1186.34642
816.571	1151.41697
816.981	1129.11584
817.391	1082.10749
817.801	1027.09596
818.211	1008.96824
818.62	970.93236
819.03	955.95127
819.44	1000.18353
819.849	981.05874
820.259	931.01267
820.668	890.85156
821.077	868.83534
821.486	901.82507
821.895	836.77072
822.304	804.85932
822.713	777.58297
823.122	746.62873
823.531	701.45708
823.939	712.52298
824.348	722.53773
824.756	668.4884
825.164	678.51568
825.573	629.415
825.981	616.37187
826.389	608.3758
826.797	592.33902
827.205	556.14992
827.612	564.26215
828.02	503.0789
828.428	476.12162
828.835	486.18454
829.243	469.03005
829.65	471.08205
830.057	499.11075
830.464	469.05464
830.871	452.00118
831.278	399.90415
831.685	412.855
832.092	445.01079
832.499	389.79412
832.905	385.91903
833.312	353.75953
833.718	390.91438
834.124	358.77079
834.531	367.87507
834.937	335.81894
835.343	358.81637
835.749	348.76856
836.155	298.74888
836.561	322.7544
836.966	288.67529
837.372	324.7866
837.777	250.60174
838.183	263.56152
838.588	232.55842
838.993	305.70941
839.399	227.5382
839.804	176.41995
840.209	196.4871
840.613	202.43699
841.018	198.48938
841.423	231.57501
841.828	211.5195
842.232	241.57777
842.637	241.54927
843.041	176.44201
843.445	191.468
843.849	149.36307
844.253	190.44082
844.657	185.45549
845.061	151.33678
845.465	166.3932
845.869	170.38691
846.272	141.33831
846.676	141.33612
847.079	136.34119
847.483	163.39925
847.886	190.45144
848.289	129.34022
848.692	104.26139
849.095	131.3106
849.498	176.43708
849.901	99.22555
850.304	155.36396
850.707	116.2929
851.109	129.32253
851.512	109.2655
851.914	50.12621
852.316	122.30519
852.718	51.13183
853.121	147.35445
853.523	103.23883
853.925	59.15387
854.326	92.22865
854.728	59.15171
855.13	81.20806
855.531	49.11735
855.933	147.34719
856.334	28.0702
856.736	61.13667
857.137	38.08876
857.538	67.16818
857.939	57.14086
858.34	89.21574
858.741	63.16453
859.142	72.17259
859.542	62.16344
859.943	59.14661
860.343	38.09444
860.744	91.22075
861.144	68.16561
861.544	16.03876
861.945	72.18304
862.345	81.1973
862.745	46.11458
863.145	65.15525
863.544	69.17401
863.944	28.06656
864.344	72.17842
864.743	72.17823
865.143	59.1515
865.542	46.10698
865.941	60.14847
866.34	78.18619
866.74	34.09158
867.139	0
867.537	55.14019
867.936	35.08462
868.335	67.17018
868.734	63.16081
869.132	26.0608
869.531	51.12353
869.929	10.02302
870.327	26.0627
870.726	31.07768
871.124	65.15174
871.522	21.05383
871.92	39.09652
872.318	33.08104
872.715	63.1558
873.113	40.09778
873.511	58.14446
873.908	4.01019
874.306	19.04757
874.703	54.13518
875.1	61.15592
875.497	27.0651
875.894	-10.0248
876.291	-11.02733
876.688	15.03896
877.085	23.05554
877.482	3.00758
877.878	-9.02193
878.275	12.03072
878.671	83.18389
879.068	64.15429
879.464	6.01464
879.86	3.00717
880.256	24.05958
880.652	35.08934
881.048	31.07717
881.444	47.11208
881.84	27.06897
882.236	58.14577
882.631	48.11799
883.027	61.14759
883.422	44.11273
883.817	-1.00254
884.213	16.04134
884.608	5.01237
885.003	17.04129
885.398	1.00253
885.793	13.03288
886.188	-49.1241
886.582	72.18414
886.977	40.09523
887.371	21.05343
887.766	-13.03273
888.16	65.16193
888.554	30.07453
888.949	1.00254
889.343	56.13679
889.737	-11.02962
890.131	12.03033
890.525	23.05914
890.918	3.00762
891.312	12.02895
891.706	35.09212
892.099	40.10205
892.492	16.03482
892.886	24.05906
893.279	-9.02318
893.672	7.01797
894.065	10.02524
894.458	45.11337
894.851	45.11047
895.244	24.06162
895.637	18.04366
896.029	4.00987
896.422	20.04918
896.814	6.01505
897.206	-2.00481
897.599	44.10904
897.991	-11.02692
898.383	9.02145
898.775	11.02505
899.167	-5.0118
899.559	0
899.951	66.15525
900.342	23.05881
900.734	-30.07556
901.125	19.05014
901.517	12.02968
901.908	47.11286
902.299	-1.00247
902.69	17.0404
903.082	8.01954
903.473	-19.04613
903.863	24.06155
904.254	-13.03057
904.645	36.08983
905.036	-63.15586
905.426	22.0507
905.817	27.06658
906.207	-4.00964
906.597	-61.14586
906.987	46.11937
907.378	19.04834
907.768	9.02397
908.158	24.05884
908.547	-4.01043
908.937	38.09776
909.327	49.11909
909.717	32.08155
910.106	4.0097
910.495	22.05523
910.885	18.04587
911.274	21.05279
911.663	47.11942
912.052	41.1014
912.441	20.05115
912.83	24.05542
913.219	21.05526
913.608	36.08846
913.997	-26.0661
914.385	37.08868
914.774	39.09521
915.162	-21.05075
915.55	11.02682
915.939	2.00509
916.327	-7.01766
916.715	-23.05939
917.103	37.09134
917.491	27.06712
917.878	33.08143
918.266	13.03394
918.654	23.05906
919.041	-10.02638
919.429	-6.01432
919.816	15.03827
920.203	-20.04916
920.591	6.015
920.978	45.11035
921.365	29.07638
921.752	-17.04107
922.139	15.03283
922.525	4.00969
922.912	10.02458
923.299	-6.01507
923.685	-16.04222
924.072	43.09935
924.458	18.04487
924.844	-12.03004
925.231	-12.02828
925.617	-30.0774
926.003	49.12529
926.389	-13.03317
926.774	60.15183
927.16	15.0375
927.546	7.01801
927.931	14.03517
928.317	16.03712
928.702	24.05709
929.088	-7.01674
929.473	2.00513
929.858	-13.03181
930.243	-13.03158
930.628	-20.04931
931.013	-9.02255
931.398	63.14458
931.783	32.08453
932.167	17.04183
932.552	32.08046
932.937	35.08713
933.321	14.03536
933.705	-9.02293
934.09	36.09123
934.474	19.04541
934.858	-8.02096
935.242	-15.03522
935.626	-20.05183
936.009	1.00268
936.393	29.07408
936.777	15.03865
937.16	17.04449
937.544	56.13183
937.927	-7.01794
938.311	45.10998
938.694	55.14535
939.077	19.04576
939.46	29.07151
939.843	0
940.226	3.00776
940.609	-43.10058
940.991	17.04353
941.374	-21.05201
941.757	26.06445
942.139	-4.00909
942.522	31.07356
942.904	6.01455
943.286	15.03836
943.668	24.06245
944.05	17.04214
944.432	7.01741
944.814	12.02977
945.196	-15.037
945.578	-42.1016
945.959	-3.0071
946.341	70.17124
946.722	42.09876
947.104	-11.0266
947.485	-11.02591
947.866	-29.0741
948.247	-8.0204
948.628	48.11716
949.009	-3.00775
949.39	9.02258
949.771	3.00704
950.152	-18.04474
950.532	-62.15566
950.913	31.07506
951.293	1.00272
951.674	-24.05886
952.054	-20.0502
952.434	46.11428
952.814	-13.03131
953.194	42.11008
953.574	26.06434
953.954	7.01676
954.334	15.03763
954.714	-45.11162
955.093	52.12782
955.473	2.00504
955.853	3.00783
956.232	43.11799
956.611	7.01693
956.99	11.02784
957.37	27.06909
957.749	-3.00723
958.128	7.01777
958.506	-28.07361
958.885	-7.01785
959.264	-26.06462
959.643	-10.02304
960.021	-27.06785
960.4	27.06149
960.778	65.15969
961.156	18.04539
961.535	53.12348
961.913	16.0377
962.291	-31.08066
962.669	-8.02047
963.047	6.01543
963.424	6.01543
963.802	-15.03733
964.18	6.0153
964.557	36.08316
964.935	21.05004
965.312	18.04713
965.69	21.05287
966.067	6.01473
966.444	20.04956
966.821	29.07504
967.198	44.10688
967.575	12.02972
967.952	10.02375
968.329	3.00736
968.705	26.05605
969.082	-11.02851
969.458	-55.13457
969.835	7.01718
970.211	-4.01036
970.587	44.10967
970.963	40.1028
971.339	-4.01054
971.715	41.10255
972.091	24.05939
972.467	44.10987
972.843	-19.04775
973.219	51.12246
973.594	-2.00528
973.97	48.11432
974.345	-11.02663
974.721	14.03413
975.096	14.03411
975.471	17.04059
975.846	8.01937
976.221	-2.00513
976.596	3.00726
976.971	9.02239
977.346	-16.03774
977.72	24.06142
978.095	-20.05231
978.469	11.02645
978.844	26.06565
979.218	-16.03884
979.593	-14.03396
979.967	-13.03204
980.341	-19.04435
980.715	27.06831
981.089	-21.05324
981.463	-2.00464
981.837	-26.06443
982.21	77.17826
982.584	20.04858
982.957	-39.09895
983.331	9.02145
983.704	23.0568
984.078	-47.11789
984.451	35.08767
984.824	-65.16169
985.197	1.00245
985.57	14.03534
985.943	52.12839
986.316	39.09603
986.688	20.04851
987.061	-9.02134
987.434	19.04977
987.806	-12.02944
988.179	-6.01431
988.551	59.14943
988.923	9.02233
989.295	19.04775
989.667	-63.15374
990.039	-7.01748
990.411	-13.0303
990.783	-7.0163
991.155	-40.09774
991.527	39.09624
991.898	-20.05047
992.27	-16.04005
992.641	43.10802
993.012	32.07557
993.384	-3.00723
993.755	29.07421
994.126	4.00971
994.497	-48.11995
994.868	-21.04893
995.239	-24.05897
995.61	-2.00508
995.98	-45.11125
996.351	-17.04261
996.722	-34.08016
997.092	5.01194
997.462	-39.09269
997.833	33.07849
998.203	3.00734
998.573	-15.03779
998.943	42.09864
999.313	9.02173
999.683	-2.00485
1000.053	26.06011
1000.423	24.0586
1000.792	14.03651
1001.162	4.00993
1001.531	-10.02493
1001.901	-6.01511
1002.27	32.0718
1002.639	4.0103
1003.009	-11.02646
1003.378	-12.03101
1003.747	25.05935
1004.116	0
1004.485	-4.00966
1004.853	15.03823
1005.222	41.10355
1005.591	36.0857
1005.959	-14.03195
1006.328	-22.05023
1006.696	-13.03173
1007.064	14.03544
1007.433	14.03521
1007.801	21.05182
1008.169	7.01781
1008.537	24.05343
1008.905	-38.09005
1009.273	25.06203
1009.64	-16.03865
1010.008	-8.01928
1010.375	59.14302
1010.743	55.12688
1011.11	18.04285
1011.478	-2.005
1011.845	23.05437
1012.212	-4.00915
1012.579	5.01237
1012.946	-2.00481
1013.313	7.0168
1013.68	6.01361
1014.047	-16.0386
1014.414	-24.05749
1014.78	-11.02763
1015.147	20.04864
1015.513	16.03879
1015.88	57.14555
1016.246	11.02734
1016.612	17.03917
1016.978	26.06398
1017.344	48.11864
1017.71	27.06611
1018.076	20.04743
1018.442	-1.00259
1018.808	-5.01262
1019.174	-9.02281
1019.539	50.11509
1019.905	-31.07424
1020.27	3.00747
1020.636	35.08414
1021.001	9.02171
1021.366	-13.03158
1021.731	14.03622
1022.096	-23.05875
1022.461	3.00716
1022.826	9.02155
1023.191	3.00793
1023.556	9.02126
1023.92	3.00744
1024.285	-16.03952
1024.649	-4.0099
1025.014	49.12136
1025.378	9.02279
1025.742	11.0275
1026.107	-15.03437
1026.471	37.08658
1026.835	13.03243
1027.199	-19.04632
1027.562	16.03743
1027.926	10.02463
1028.29	16.04072
1028.654	9.02087
1029.017	18.04449
1029.381	-45.10941
1029.744	17.04359
1030.107	22.05231
1030.471	-1.00242
1030.834	20.04576
1031.197	30.07252
1031.56	-20.04781
1031.923	14.03641
1032.286	55.129
1032.648	18.0433
1033.011	-20.04653
1033.374	-12.02854
1033.736	-32.08526
1034.099	37.09036
1034.461	-14.03575
1034.823	3.00753
1035.185	2.00508
1035.548	2.00491
1035.91	15.03616
1036.272	-2.0046
1036.634	14.03446
1036.995	20.04727
1037.357	5.01226
1037.719	39.095
1038.08	33.07858
1038.442	-8.01919
1038.803	40.09618
1039.165	-10.02549
1039.526	-7.01709
1039.887	-2.00483
1040.248	-38.0951
1040.609	30.07437
1040.97	6.01478
1041.331	7.01785
1041.692	-33.07824
1042.053	14.0321
1042.413	-34.08051
1042.774	41.09983
1043.134	36.0859
1043.495	12.03036
1043.855	0
1044.215	-9.02257
1044.576	-57.139
1044.936	17.03922
1045.296	45.11235
1045.656	9.02224
1046.016	33.07987
1046.375	-23.05653
1046.735	-10.02294
1047.095	-15.03554
1047.454	36.07648
1047.814	3.00727
1048.173	39.09333
1048.533	9.02078
1048.892	-32.07796
1049.251	27.06802
1049.61	29.07164
1049.969	17.04031
1050.328	-21.0462
1050.687	6.01471
1051.046	16.03918
1051.405	9.02254
1051.763	3.00696
1052.122	4.01005
1052.48	-27.06712
1052.839	24.05672
1053.197	36.08491
1053.555	70.15887
1053.914	23.05651
1054.272	60.1447
1054.63	-50.12445
1054.988	-12.02883
1055.345	9.01954
1055.703	8.0194
1056.061	20.05169
1056.419	-32.08396
1056.776	38.0923
1057.134	3.00701
1057.491	36.09032
1057.848	25.06248
1058.206	6.01422
1058.563	-21.04695
1058.92	23.05327
1059.277	21.05205
1059.634	46.10825
1059.991	26.06254
1060.348	-44.10128
1060.704	-56.13608
1061.061	35.08151
1061.418	-41.10106
1061.774	10.02485
1062.131	-15.04007
1062.487	-22.05213
1062.843	3.00754
1063.199	19.04749
1063.555	8.01868
1063.911	15.0381
1064.267	-7.01478
1064.623	-18.04425
1064.979	51.12074
1065.335	14.03367
1065.691	-14.03394
1066.046	-25.05581
1066.402	15.0343
1066.757	10.0254
1067.112	-7.01735
1067.468	-63.15191
1067.823	22.05314
1068.178	47.11367
1068.533	17.04144
1068.888	60.143
1069.243	-10.02493
1069.598	-48.11869
1069.952	-55.12642
1070.307	-9.0225
1070.662	-13.03122
1071.016	-62.14203
1071.371	0
1071.725	8.01928
1072.079	-11.02674
1072.434	-21.05167
1072.788	-17.04098
1073.142	22.05436
1073.496	30.07139
1073.85	8.01869
1074.203	33.08026
1074.557	23.06139
1074.911	48.11453
1075.265	44.10233
1075.618	38.09293
1075.971	-5.01201
1076.325	-21.054
1076.678	-25.05799
1077.031	-51.1177
1077.385	17.03768
1077.738	-8.01826
1078.091	-21.04841
1078.444	16.03737
1078.796	-10.02479
1079.149	-9.02261
1079.502	-21.05025
1079.855	1.00235
1080.207	30.07413
1080.56	-43.11284
1080.912	8.01961
1081.264	-3.00729
1081.617	-24.05926
1081.969	-7.01782
1082.321	-15.03704
1082.673	-54.12574
1083.025	0
1083.377	-7.0152
1083.728	19.04456
1084.08	8.02011
1084.432	-8.01949
1084.783	41.09616
1085.135	4.0101
1085.486	-51.11896
1085.838	-16.03985
1086.189	19.04635
1086.54	26.06232
1086.891	-33.08462
1087.242	-12.02953
1087.593	-12.02953
1087.944	-22.05048
1088.295	-7.01608
1088.646	8.01953
1088.996	-19.04633
1089.347	18.04439
1089.698	-36.08643
1090.048	27.07035
1090.398	54.12504
1090.749	6.01446
1091.099	-24.0611
1091.449	38.09479
1091.799	43.10771
1092.149	-50.12409
1092.499	41.10009
1092.849	-22.05658
1093.199	35.08789
1093.548	-9.02185
1093.898	21.05277
1094.248	19.04904
1094.597	-39.10102
1094.947	21.05624
1095.296	-7.01745
1095.645	31.08082
1095.994	19.04587
1096.343	32.08072
1096.692	10.02642
1097.041	-24.0657
1097.39	11.02776
1097.739	-8.02098
1098.088	47.12587
1098.437	-30.0798
1098.785	46.12398
1099.134	41.10893
1099.482	20.05522
1099.83	17.04488
1100.179	-50.13251
1100.527	20.05336
1100.875	-17.04541
1101.223	22.05864
1101.571	11.03056
1101.919	-3.0079
1102.267	13.03677
1102.615	-1.00322
1102.962	19.06111
1103.31	4.01285
1103.658	22.07077
