Data from N2 R8 sample 2_Subt2__1__17-42-30-392.txt Node

Date: Fri Aug 29 17:42:30 PDT 2025
User: uwsun
Spectrometer: HDX01956
Trigger mode: 0
Integration Time (sec): 5.000000E-1
Scans to average: 1
Nonlinearity correction enabled: true
Boxcar width: 0
Storing dark spectrum: false
XAxis mode: Wavelengths
Number of Pixels in Spectrum: 2068
>>>>>Begin Spectral Data<<<<<
194.03	141.38713
194.578	157.4868
195.127	152.46443
195.676	166.50787
196.225	193.49538
196.773	176.46892
197.321	219.56642
197.87	402.92075
198.418	354.80725
198.966	318.73511
199.513	258.57339
200.061	293.65805
200.609	354.83389
201.156	256.49424
201.704	240.54158
202.251	274.64924
202.798	330.75769
203.345	315.69176
203.892	352.77804
204.438	305.6461
204.985	301.62424
205.532	330.76709
206.078	321.69514
206.624	309.6683
207.17	368.74357
207.716	328.6977
208.262	313.53848
208.808	321.69009
209.354	315.67341
209.899	415.91554
210.445	328.71379
210.99	317.66946
211.535	407.82709
212.08	355.72109
212.625	374.81941
213.17	363.80821
213.715	285.55353
214.259	347.70806
214.804	386.83392
215.348	383.76021
215.892	357.74963
216.436	418.83763
216.98	395.75694
217.524	348.71961
218.068	340.75685
218.612	337.75157
219.155	325.67371
219.698	357.74567
220.242	336.74423
220.785	310.64248
221.328	309.68629
221.871	335.757
222.414	318.70671
222.956	255.5494
223.499	271.54444
224.041	325.67311
224.583	329.62954
225.126	313.60966
225.668	277.60192
226.21	322.71857
226.751	239.46685
227.293	309.62737
227.835	288.62675
228.376	313.64332
228.918	357.79847
229.459	251.56073
230	274.58285
230.541	341.69234
231.082	294.63437
231.622	359.72589
232.163	318.68085
232.704	295.65029
233.244	284.62854
233.784	334.72684
234.324	273.52795
234.864	302.60518
235.404	296.62745
235.944	272.57733
236.484	325.72032
237.023	307.64067
237.563	254.52336
238.102	351.72663
238.641	337.75282
239.18	245.51015
239.719	341.75483
240.258	342.67296
240.797	363.75618
241.335	278.60756
241.874	283.47567
242.412	280.5969
242.95	249.52886
243.488	307.61705
244.026	332.66775
244.564	336.59989
245.102	328.64207
245.64	291.62372
246.177	275.54559
246.715	357.74996
247.252	345.69246
247.789	394.63397
248.326	283.59766
248.863	322.61361
249.4	329.65333
249.936	354.62583
250.473	336.68141
251.009	290.5822
251.546	305.58673
252.082	322.61391
252.618	329.63503
253.154	331.69228
253.69	329.64388
254.226	346.71708
254.761	376.72489
255.297	319.60509
255.832	301.6234
256.367	334.68416
256.903	338.64004
257.438	371.7529
257.972	303.58822
258.507	286.57046
259.042	340.63595
259.576	282.52537
260.111	363.72422
260.645	358.66532
261.179	291.59217
261.713	336.6431
262.247	349.69467
262.781	307.55364
263.315	345.72955
263.849	389.8341
264.382	357.70695
264.915	339.68231
265.449	299.62896
265.982	334.6566
266.515	365.7644
267.048	340.61331
267.58	333.62825
268.113	315.5835
268.646	323.68991
269.178	312.59831
269.71	374.69367
270.243	338.66415
270.775	379.82668
271.307	344.71612
271.838	366.74903
272.37	324.6892
272.902	386.74524
273.433	336.6266
273.965	374.77719
274.496	375.80062
275.027	354.753
275.558	331.68983
276.089	345.72092
276.62	382.83411
277.15	341.72583
277.681	364.67041
278.211	344.726
278.741	308.57752
279.272	325.63183
279.802	384.81646
280.332	304.61454
280.861	372.75959
281.391	342.65616
281.921	374.7661
282.45	357.76352
282.98	365.81434
283.509	351.66612
284.038	335.64692
284.567	373.7376
285.096	380.77486
285.625	336.64403
286.153	334.66187
286.682	330.63712
287.21	388.78111
287.739	399.78531
288.267	366.74326
288.795	416.92292
289.323	343.67064
289.851	425.82231
290.378	348.65317
290.906	334.67797
291.433	421.87153
291.961	366.68595
292.488	391.81233
293.015	342.67075
293.542	400.83899
294.069	369.75432
294.596	416.85367
295.122	410.80412
295.649	428.76696
296.175	414.82846
296.702	433.86227
297.228	431.86108
297.754	358.66167
298.28	409.75274
298.806	433.84461
299.332	380.68057
299.857	419.76185
300.383	460.95077
300.908	351.69735
301.433	423.83059
301.958	468.86762
302.483	435.87552
303.008	468.93305
303.533	448.95251
304.058	463.87527
304.582	417.78791
305.107	461.96543
305.631	498.89565
306.155	425.78612
306.679	440.81204
307.203	477.86646
307.727	380.72661
308.251	465.91264
308.775	464.85763
309.298	445.83465
309.822	484.96405
310.345	501.92025
310.868	496.91817
311.391	500.96166
311.914	489.9534
312.437	573.98813
312.96	519.93128
313.482	451.82797
314.005	493.95801
314.527	415.86142
315.049	544.05417
315.571	522.85631
316.093	556.03537
316.615	571.02047
317.137	528.84493
317.659	571.03678
318.18	585.04663
318.702	541.92744
319.223	539.79284
319.744	561.90726
320.265	571.00314
320.786	528.95743
321.307	576.04189
321.828	585.93971
322.348	542.91895
322.869	589.97791
323.389	433.48191
323.909	591.95259
324.43	700.1742
324.95	621.97441
325.47	615.04789
325.989	683.07865
326.509	546.81326
327.029	592.89312
327.548	611.9083
328.067	662.05532
328.587	719.1894
329.106	662.97679
329.625	741.32029
330.144	672.99581
330.662	663.98096
331.181	689.02578
331.7	714.0506
332.218	738.96072
332.736	819.154
333.255	688.9917
333.773	743.0724
334.291	811.2455
334.808	763.98901
335.326	792.03243
335.844	734.98996
336.361	693.06118
336.879	807.05387
337.396	766.0595
337.913	787.00197
338.43	846.01362
338.947	837.08885
339.464	778.86661
339.981	825.04557
340.497	869.16451
341.014	870.12246
341.53	806.92991
342.046	883.12421
342.562	932.20792
343.078	894.05142
343.594	936.10528
344.11	920.07588
344.626	871.12184
345.141	954.00179
345.657	1008.04044
346.172	974.1027
346.687	990.00997
347.202	890.8978
347.717	993.06635
348.232	1078.20884
348.747	1051.00851
349.261	910.80494
349.776	1026.01535
350.29	981.04084
350.805	1093.15474
351.319	1039.98358
351.833	1014.88584
352.347	1050.97635
352.861	1023.93108
353.374	1147.98695
353.888	1073.02461
354.401	1121.93152
354.915	1105.83597
355.428	1145.06241
355.941	1182.92613
356.454	1174.88717
356.967	1212.9773
357.48	1153.89508
357.993	1217.04419
358.505	1165.97921
359.018	1273.01582
359.53	1236.94021
360.042	1339.80711
360.554	1270.96785
361.066	1206.93107
361.578	1239.72017
362.09	1256.8919
362.602	1249.70854
363.113	1220.7912
363.625	1239.71832
364.136	1351.6869
364.647	1186.68859
365.158	1399.75985
365.669	1386.81556
366.18	1382.76791
366.691	1382.61883
367.201	1300.7548
367.712	1351.62753
368.222	1379.62277
368.733	1364.4794
369.243	1425.48611
369.753	1484.5759
370.263	1506.6208
370.773	1514.67112
371.282	1497.53482
371.792	1452.35881
372.301	1604.44912
372.811	1638.6179
373.32	1483.13061
373.829	1558.25191
374.338	1743.03633
374.847	1797.00973
375.356	1797.00779
375.865	1846.68268
376.373	1905.70773
376.882	2063.8557
377.39	2086.66708
377.898	2005.57863
378.407	2058.3447
378.915	2366.08299
379.423	2361.11663
379.93	2414.98549
380.438	2485.91123
380.946	2639.77102
381.453	2634.74654
381.96	2796.68863
382.468	2842.76556
382.975	3186.78603
383.482	3361.06811
383.989	3319.91687
384.495	3387.39184
385.002	3510.3366
385.509	3625.50177
386.015	3908.53382
386.521	4253.40885
387.028	4321.66079
387.534	4536.5512
388.04	4827.33333
388.546	4698.47481
389.051	4796.41442
389.557	5148.55388
390.063	6132.43427
390.568	6236.16487
391.073	6276.97578
391.578	6438.87046
392.084	6415.69544
392.589	6448.30554
393.093	6694.64374
393.598	7389.41567
394.103	8502.01701
394.607	9200.72335
395.112	10086.08819
395.616	10700.85783
396.12	11293.05799
396.624	12496.05532
397.128	13743.74083
397.632	15447.98766
398.136	16512.60269
398.639	15878.65225
399.143	16675.1329
399.646	19148.06686
400.15	21476.09993
400.653	19134.25878
401.156	13615.14813
401.659	5169.95759
402.162	1054.15589
402.664	0
403.167	0
403.67	0
404.172	0
404.674	0
405.176	0
405.678	0
406.18	0
406.682	0
407.184	0
407.686	0
408.187	0
408.688	0
409.19	0
409.691	0
410.192	0
410.693	0
411.194	435.30976
411.694	4082.94878
412.195	8864.71461
412.696	12089.80453
413.196	12760.96929
413.696	12863.67595
414.196	13703.56671
414.696	17261.84252
415.196	21764.24417
415.696	29583.19008
416.196	36460.31858
416.695	28487.2216
417.195	21849.5482
417.694	20401.34249
418.194	19644.89405
418.693	17852.69785
419.192	17240.56668
419.691	16624.93248
420.19	16783.31988
420.688	16716.50022
421.187	16376.6315
421.685	15438.86314
422.184	14451.12647
422.682	12765.0134
423.18	10239.94132
423.678	8812.12139
424.176	8164.09778
424.674	7528.17465
425.172	7655.71302
425.669	7275.37138
426.167	6713.5671
426.664	6143.51597
427.161	5506.17984
427.659	5094.5343
428.156	4578.37823
428.652	4440.33003
429.149	4126.76719
429.646	3995.55736
430.143	3805.8976
430.639	3606.71368
431.135	3269.58396
431.632	3183.5947
432.128	2968.67802
432.624	2676.88858
433.12	2471.87819
433.616	2493.88545
434.111	2284.08219
434.607	2204.2292
435.103	2237.17111
435.598	2166.24349
436.093	2133.54509
436.588	1919.69194
437.083	1936.77812
437.578	1899.90462
438.073	1620.1586
438.568	1702.26544
439.062	1584.05812
439.557	1565.33645
440.051	1403.30048
440.546	1326.33874
441.04	1301.47173
441.534	1361.63249
442.028	1323.56768
442.522	1203.56613
443.015	1233.43253
443.509	1210.66529
444.002	1163.66301
444.496	1092.48458
444.989	1140.69779
445.482	1175.74179
445.975	1090.54724
446.468	1104.49488
446.961	1021.49541
447.454	1051.60414
447.947	1056.6665
448.439	1000.73877
448.931	914.5749
449.424	954.81019
449.916	971.75424
450.408	922.61044
450.9	900.7209
451.392	906.80433
451.884	922.69252
452.375	745.69418
452.867	883.68768
453.358	833.63895
453.849	768.54819
454.341	777.62969
454.832	771.57617
455.323	723.70725
455.814	792.69499
456.304	716.65956
456.795	711.65346
457.285	764.68147
457.776	726.70201
458.266	631.65666
458.756	704.74946
459.247	658.68852
459.737	610.65677
460.226	649.63284
460.716	555.63239
461.206	577.67001
461.695	595.74967
462.185	562.65279
462.674	579.65383
463.163	550.59478
463.653	554.55214
464.142	531.66233
464.63	545.70865
465.119	498.59994
465.608	505.60993
466.096	545.61298
466.585	548.68189
467.073	465.63214
467.561	475.65084
468.05	503.65617
468.538	490.70061
469.026	438.61596
469.513	423.50004
470.001	449.58642
470.489	419.58865
470.976	362.50964
471.463	455.69841
471.951	427.67327
472.438	329.48731
472.925	294.43771
473.412	380.60727
473.899	359.52917
474.385	328.53523
474.872	330.5009
475.359	334.54227
475.845	277.37295
476.331	314.45445
476.817	280.47333
477.303	293.46485
477.789	266.44794
478.275	249.43662
478.761	253.43338
479.247	245.38823
479.732	215.38612
480.218	178.34464
480.703	223.40585
481.188	275.41402
481.673	199.33282
482.158	180.27334
482.643	243.4643
483.128	169.28512
483.612	177.31052
484.097	199.37101
484.581	153.27251
485.066	189.34904
485.55	124.20675
486.034	155.25354
486.518	150.26959
487.002	145.27436
487.486	94.18104
487.969	64.12439
488.453	91.18468
488.936	104.18461
489.42	39.06957
489.903	127.25773
490.386	86.10932
490.869	192.32737
491.352	128.25484
491.835	87.1447
492.318	66.12075
492.8	99.1642
493.283	64.13395
493.765	61.12368
494.247	121.23209
494.73	69.12519
495.212	64.12961
495.694	28.05434
496.175	-23.04567
496.657	89.17533
497.139	69.09906
497.62	-22.04394
498.102	50.10395
498.583	53.11228
499.064	-64.12196
499.545	9.01741
500.026	51.09565
500.507	14.02764
500.988	22.04672
501.469	-33.07113
501.949	26.05514
502.43	-56.11466
502.91	-55.09781
503.39	26.05613
503.87	-43.0873
504.35	-7.01434
504.83	-27.05094
505.31	-3.00626
505.79	-63.13142
506.269	68.13557
506.749	-80.15994
507.228	-37.0754
507.707	-71.1379
508.187	70.14358
508.666	-62.13344
509.145	-66.1352
509.623	-31.06354
510.102	-69.14783
510.581	2.00423
511.059	-78.17264
511.538	-27.06169
512.016	-8.01673
512.494	-52.11192
512.972	-43.09053
513.45	-143.29538
513.928	-79.16999
514.406	-89.18895
514.884	-30.06803
515.361	-66.14034
515.839	-91.18476
516.316	-12.02536
516.793	-27.06069
517.27	-25.05384
517.747	-66.15095
518.224	-41.08435
518.701	-74.14733
519.178	-51.11196
519.654	-57.12165
520.131	-62.13705
520.607	-48.10668
521.083	-79.16179
521.56	-84.17838
522.036	-53.10412
522.512	-9.01979
522.987	-96.20448
523.463	-83.1776
523.939	-47.10348
524.414	-46.09542
524.89	-90.1932
525.365	-86.17577
525.84	-122.26178
526.315	-90.19578
526.79	-89.18169
527.265	-79.16274
527.74	-100.22105
528.215	-91.19446
528.689	-70.13962
529.164	-49.09585
529.638	-73.17028
530.112	-86.18318
530.587	-136.26483
531.061	-83.18083
531.534	-37.08088
532.008	-85.1851
532.482	-72.15016
532.956	-119.27637
533.429	-64.14053
533.903	-77.15519
534.376	-92.18538
534.849	-88.18606
535.322	-90.19379
535.795	-127.2856
536.268	-113.24869
536.741	-105.23138
537.213	-86.18167
537.686	-106.23568
538.158	-144.29644
538.631	-82.18255
539.103	-122.25047
539.575	-91.17404
540.047	-112.22641
540.519	-74.16166
540.991	-92.20676
541.463	-66.14559
541.934	-74.15433
542.406	-61.13182
542.877	-138.28793
543.348	-92.20388
543.82	-56.12519
544.291	-42.08915
544.762	-127.27668
545.233	-71.16163
545.703	-111.22465
546.174	-47.09887
546.645	-109.23646
547.115	-57.12402
547.585	-56.11648
548.056	-139.30527
548.526	-58.12214
548.996	-53.11478
549.466	12.0261
549.935	-37.07773
550.405	-45.08769
550.875	-25.05247
551.344	-59.12679
551.814	-16.03258
552.283	-17.03284
552.752	-34.06977
553.221	-31.05914
553.69	12.02328
554.159	-9.01933
554.628	-31.06073
555.096	-27.06027
555.565	-17.03336
556.033	49.10117
556.502	14.03003
556.97	-58.11606
557.438	-45.09637
557.906	-32.06884
558.374	-133.28311
558.842	-93.20433
559.31	-46.09419
559.777	-114.25421
560.245	-41.08845
560.712	-100.21541
561.18	-80.16313
561.647	-117.24406
562.114	-116.24611
562.581	-102.23403
563.048	-99.2133
563.514	-126.28828
563.981	-87.18575
564.448	-140.29625
564.914	-118.25833
565.381	-96.20493
565.847	-71.15494
566.313	-92.20048
566.779	-86.18143
567.245	-105.2304
567.711	-83.18527
568.176	-140.29651
568.642	-119.27899
569.108	-145.33555
569.573	-81.17857
570.038	-95.18795
570.504	-141.29778
570.969	-83.19353
571.434	-103.21094
571.899	-118.26302
572.363	-88.18695
572.828	-55.11697
573.293	-92.19698
573.757	-114.24546
574.222	-153.32171
574.686	-155.32706
575.15	-72.15823
575.614	-85.18117
576.078	-117.25641
576.542	-132.28287
577.006	-127.2688
577.469	-44.10071
577.933	-131.27472
578.396	-69.15224
578.86	-53.11552
579.323	-88.19461
579.786	-115.23338
580.249	-113.24064
580.712	-70.15887
581.175	-105.24154
581.637	-54.11582
582.1	-121.25162
582.563	-101.20506
583.025	-100.22613
583.487	-137.26265
583.95	-150.30518
584.412	-72.14188
584.874	-99.22455
585.336	-75.16548
585.797	-109.22222
586.259	-65.14323
586.721	-72.15729
587.182	-30.06532
587.643	-84.17915
588.105	-137.30695
588.566	-81.16085
589.027	-94.21126
589.488	-101.21705
589.949	-54.12176
590.41	-94.17251
590.87	-88.18948
591.331	-71.14442
591.791	-97.21007
592.252	-94.20118
592.712	-90.20293
593.172	-116.24687
593.632	-69.1424
594.092	-83.17406
594.552	-90.18277
595.011	-118.25506
595.471	-89.18747
595.931	-59.12291
596.39	-118.26585
596.849	-105.23021
597.308	-90.18469
597.768	-98.23285
598.227	-25.05578
598.685	-29.06211
599.144	-89.19538
599.603	-65.14389
600.062	-86.16978
600.52	-62.12896
600.978	-92.2049
601.437	-59.12641
601.895	-71.14132
602.353	-75.15652
602.811	-73.15194
603.269	-67.14962
603.727	-62.13825
604.184	-121.25711
604.642	-97.22251
605.099	-81.17602
605.557	-26.0586
606.014	-123.25042
606.471	-130.30377
606.928	-81.16175
607.385	-61.13662
607.842	-8.01682
608.299	75.15819
608.755	35.07671
609.212	20.04056
609.668	-29.05899
610.125	42.09245
610.581	41.08966
611.037	2.00425
611.493	-72.16042
611.949	-38.08498
612.405	-67.12677
612.861	-7.01539
613.316	-73.16376
613.772	-27.05797
614.227	-53.11723
614.683	20.03999
615.138	-29.06339
615.593	-61.13357
616.048	-21.04519
616.503	-17.03915
616.958	-60.14136
617.412	-48.10708
617.867	-72.15096
618.321	12.02339
618.776	-69.14598
619.23	-49.10902
619.684	-2.00427
620.138	5.01097
620.592	-8.01831
621.046	2.00444
621.5	-69.16025
621.954	-2.00429
622.407	2.00424
622.861	-36.08336
623.314	-2.00434
623.768	-24.05343
624.221	-22.04188
624.674	-13.02865
625.127	-77.17472
625.58	-2.00439
626.033	-2.00426
626.485	-39.08982
626.938	-47.10834
627.39	-22.04942
627.843	-9.0201
628.295	-23.05153
628.747	-14.03216
629.199	4.00879
629.651	-52.11557
630.103	-52.11663
630.555	-51.10657
631.006	-17.03886
631.458	-24.05524
631.909	41.09141
632.361	-32.0733
632.812	-68.15533
633.263	-20.04256
633.714	6.01265
634.165	7.01658
634.616	-22.05149
635.067	21.04585
635.518	-5.01174
635.968	23.04574
636.419	-16.03458
636.869	-18.04236
637.319	-31.07114
637.769	-17.03773
638.219	52.12165
638.669	-23.05437
639.119	-5.01207
639.569	-2.00477
640.019	29.06623
640.468	-1.00222
640.918	31.07367
641.367	29.06444
641.816	68.14956
642.265	18.0413
642.714	19.04362
643.163	26.0593
643.612	-12.02861
644.061	23.04845
644.51	19.04301
644.958	33.07205
645.406	21.04979
645.855	28.06799
646.303	81.18641
646.751	5.01135
647.199	72.16155
647.647	0
648.095	41.09326
648.543	136.27341
648.99	71.16704
649.438	103.23798
649.885	96.2331
650.333	115.22026
650.78	103.24384
651.227	151.35678
651.674	107.23964
652.121	88.21078
652.568	65.15602
653.015	106.26315
653.461	110.25673
653.908	111.25442
654.354	104.24463
654.801	84.19458
655.247	110.23878
655.693	99.25359
656.139	92.21784
656.585	81.19242
657.031	54.12519
657.477	39.08453
657.922	116.26305
658.368	122.29611
658.813	126.28933
659.259	70.1669
659.704	27.06315
660.149	76.17619
660.594	105.24655
661.039	91.20607
661.484	125.295
661.929	73.17041
662.373	73.18278
662.818	91.22381
663.262	62.14896
663.707	72.18148
664.151	122.29456
664.595	60.14465
665.039	113.27843
665.483	107.26955
665.927	130.30317
666.371	57.13212
666.814	114.27045
667.258	84.19798
667.701	150.32145
668.145	148.36339
668.588	103.25145
669.031	106.24769
669.474	110.26348
669.917	149.3275
670.36	141.3455
670.803	137.32783
671.245	150.31436
671.688	158.38061
672.13	92.20668
672.573	152.38133
673.015	177.41837
673.457	115.25065
673.899	148.35517
674.341	103.24826
674.783	121.28855
675.225	137.33395
675.666	116.27732
676.108	149.32227
676.549	185.43202
676.991	126.27782
677.432	128.25579
677.873	186.42453
678.314	166.39199
678.755	165.39664
679.196	134.30585
679.637	180.43409
680.078	146.34021
680.518	191.43971
680.959	152.3613
681.399	197.47984
681.839	164.39506
682.28	166.40456
682.72	133.30375
683.16	169.41548
683.6	192.43291
684.039	188.38842
684.479	125.30561
684.919	117.26947
685.358	183.45786
685.798	175.45185
686.237	167.40038
686.676	205.4693
687.115	185.42964
687.554	170.39988
687.993	181.39717
688.432	161.36576
688.871	174.39121
689.309	184.43398
689.748	135.28374
690.186	184.43483
690.625	206.4751
691.063	172.40836
691.501	224.54264
691.939	195.47851
692.377	180.43376
692.815	200.4708
693.253	176.4193
693.69	174.37996
694.128	212.50409
694.565	202.47477
695.003	217.53997
695.44	203.46995
695.877	187.43137
696.314	184.39328
696.751	219.49207
697.188	235.52867
697.625	269.60242
698.061	192.45443
698.498	252.5955
698.934	284.6633
699.371	238.5478
699.807	257.59282
700.243	212.50138
700.679	266.58723
701.115	306.69697
701.551	274.62762
701.987	333.7202
702.422	274.6319
702.858	239.55701
703.294	294.64551
703.729	319.7519
704.164	319.73933
704.599	266.5774
705.035	269.58553
705.47	290.68237
705.904	309.69427
706.339	362.80548
706.774	324.7299
707.209	291.64954
707.643	364.8344
708.078	365.84792
708.512	331.79409
708.946	388.88405
709.38	340.77283
709.814	374.81457
710.248	392.90721
710.682	383.86544
711.116	357.81196
711.549	399.97714
711.983	434.94241
712.416	426.94982
712.85	459.07039
713.283	433.96402
713.716	490.14616
714.149	525.15472
714.582	484.00792
715.015	511.18625
715.448	534.24191
715.881	513.035
716.313	548.17635
716.746	511.11023
717.178	538.18855
717.61	581.34737
718.043	585.33095
718.475	590.30142
718.907	658.50171
719.339	609.24368
719.77	574.23859
720.202	649.47967
720.634	617.35679
721.065	671.42003
721.497	730.58235
721.928	653.43964
722.359	665.43246
722.79	676.44278
723.221	791.74412
723.652	852.90875
724.083	753.4805
724.514	832.64105
724.945	755.55343
725.375	759.53575
725.806	840.81708
726.236	891.96303
726.666	964.90797
727.096	883.85448
727.526	949.04031
727.956	947.79274
728.386	997.04839
728.816	1015.14137
729.246	962.95982
729.675	1022.08339
730.105	1091.19371
730.534	1090.06305
730.964	1117.30658
731.393	1252.45658
731.822	1165.40794
732.251	1246.50873
732.68	1302.3631
733.109	1322.52038
733.537	1304.43348
733.966	1320.54192
734.395	1366.37392
734.823	1397.34121
735.251	1386.52753
735.68	1468.76331
736.108	1538.88147
736.536	1523.61309
736.964	1563.59454
737.392	1621.93218
737.82	1647.799
738.247	1666.80972
738.675	1774.90089
739.102	1786.08685
739.53	1798.18072
739.957	1835.26401
740.384	1951.18143
740.811	1986.33237
741.238	2010.16882
741.665	2020.94444
742.092	2106.13472
742.519	2047.25621
742.945	2176.19528
743.372	2262.39583
743.798	2235.58191
744.225	2344.22622
744.651	2335.50691
745.077	2434.51837
745.503	2469.41362
745.929	2536.34126
746.355	2532.55062
746.781	2580.53832
747.207	2560.2178
747.632	2554.42699
748.058	2742.62278
748.483	2806.15941
748.908	2868.61686
749.334	2965.55347
749.759	2950.29815
750.184	2921.35513
750.609	3102.56114
751.033	3169.31181
751.458	3271.97204
751.883	3274.60775
752.307	3267.26051
752.732	3280.64928
753.156	3423.55788
753.58	3495.27872
754.005	3549.73969
754.429	3532.19101
754.853	3680.51727
755.277	3621.21349
755.7	3697.52645
756.124	3731.51348
756.548	3693.19578
756.971	3880.34877
757.394	3971.73338
757.818	4028.70056
758.241	4057.57278
758.664	4011.55227
759.087	4115.60481
759.51	4252.33531
759.933	4205.09033
760.356	4396.51071
760.778	4354.18686
761.201	4391.09022
761.623	4517.00649
762.046	4455.8718
762.468	4556.90994
762.89	4522.13704
763.312	4591.01213
763.734	4616.88327
764.156	4742.01491
764.578	4670.52446
765	4720.93178
765.421	4660.28249
765.843	4854.46843
766.264	4718.86008
766.686	4853.09547
767.107	4802.82822
767.528	4892.10172
767.949	4883.17891
768.37	4834.91084
768.791	4885.77226
769.212	4756.13379
769.632	4795.52719
770.053	4911.47243
770.473	4902.79913
770.894	4900.04105
771.314	4874.68182
771.734	4892.47804
772.154	4884.26043
772.575	4935.4183
772.994	4957.25436
773.414	4970.66349
773.834	4889.02548
774.254	4954.81545
774.673	4860.83202
775.093	4854.95489
775.512	4789.95445
775.931	4880.14603
776.351	4853.98321
776.77	4780.89529
777.189	4764.69602
777.607	4752.2765
778.026	4813.03089
778.445	4728.10892
778.864	4722.33367
779.282	4712.80913
779.701	4569.26255
780.119	4641.2398
780.537	4554.18125
780.955	4521.36792
781.373	4499.13998
781.791	4363.49827
782.209	4517.59793
782.627	4495.6814
783.045	4338.67421
783.462	4339.48562
783.88	4314.60182
784.297	4224.40839
784.715	4130.61511
785.132	4123.15203
785.549	4080.42372
785.966	4127.44833
786.383	4034.31073
786.8	3939.93322
787.217	3968.0622
787.633	3917.46483
788.05	3874.12371
788.466	3917.05263
788.883	3807.67348
789.299	3769.25303
789.715	3705.34163
790.131	3657.52375
790.547	3612.56923
790.963	3523.54336
791.379	3494.68388
791.795	3432.99391
792.21	3329.17187
792.626	3371.25952
793.041	3266.54307
793.457	3247.55542
793.872	3218.22463
794.287	3139.32479
794.702	3033.54367
795.117	2995.59199
795.532	2966.64682
795.947	2971.39268
796.362	2878.34115
796.776	2937.22863
797.191	2761.47332
797.605	2693.21193
798.02	2619.40748
798.434	2599.923
798.848	2491.43651
799.262	2514.48557
799.676	2519.39653
800.09	2419.40488
800.504	2337.29619
800.918	2268.03036
801.331	2259.68298
801.745	2175.95074
802.158	2124.33259
802.572	2182.21768
802.985	2078.13983
803.398	2123.09996
803.811	2003.38898
804.224	1981.21151
804.637	1868.92605
805.05	1844.7961
805.462	1833.03284
805.875	1693.12798
806.288	1664.80182
806.7	1625.92765
807.112	1647.63881
807.525	1611.84093
807.937	1555.78541
808.349	1496.76981
808.761	1469.67213
809.173	1428.57189
809.584	1413.62272
809.996	1321.47437
810.408	1250.54658
810.819	1313.3394
811.231	1225.51299
811.642	1238.28503
812.053	1211.24335
812.464	1293.3473
812.875	1278.55569
813.286	1153.39263
813.697	1168.14366
814.108	1104.17173
814.519	1048.8674
814.929	1030.17164
815.34	949.91802
815.75	938.00673
816.16	934.95692
816.571	942.068
816.981	863.72336
817.391	842.73378
817.801	798.7137
818.211	783.60966
818.62	798.65267
819.03	789.67219
819.44	724.67362
819.849	753.66029
820.259	743.67165
820.668	669.45956
821.077	674.48505
821.486	644.38035
821.895	686.50016
822.304	601.44528
822.713	588.24878
823.122	594.33809
823.531	517.11804
823.939	553.22301
824.348	548.21068
824.756	490.13138
825.164	516.1915
825.573	464.07846
825.981	489.11719
826.389	487.12867
826.797	460.06789
827.205	433.92162
827.612	437.003
828.02	400.87857
828.428	431.02425
828.835	412.01769
829.243	364.81866
829.65	334.78985
830.057	361.82802
830.464	331.76683
830.871	340.7722
831.278	338.77544
831.685	333.70325
832.092	388.89332
832.499	270.56608
832.905	298.72322
833.312	267.58512
833.718	308.73373
834.124	258.56743
834.531	303.73136
834.937	264.65391
835.343	318.73102
835.749	271.60815
836.155	218.55573
836.561	201.48207
836.966	236.55899
837.372	240.59186
837.777	214.51861
838.183	170.37028
838.588	188.45629
838.993	175.41748
839.399	194.46289
839.804	145.34804
840.209	151.37835
840.613	143.31326
841.018	180.44636
841.423	199.49824
841.828	140.3492
842.232	202.48788
842.637	171.39525
843.041	111.28203
843.445	125.31004
843.849	118.2892
844.253	189.43858
844.657	118.29412
845.061	150.33462
845.465	151.35871
845.869	116.2669
846.272	92.2228
846.676	143.34075
847.079	90.22766
847.483	169.41349
847.886	164.39162
848.289	106.28064
848.692	97.2441
849.095	103.24553
849.498	159.39609
849.901	102.23225
850.304	104.24663
850.707	124.31266
851.109	122.30541
851.512	76.18626
851.914	38.09612
852.316	73.18423
852.718	50.12926
853.121	63.15432
853.523	51.11948
853.925	79.20533
854.326	55.13761
854.728	66.1695
855.13	59.15213
855.531	64.15283
855.933	73.17489
856.334	69.17171
856.736	60.13446
857.137	98.2262
857.538	32.08083
857.939	32.07944
858.34	71.17269
858.741	71.18517
859.142	60.14415
859.542	60.15822
859.943	68.16869
860.343	21.05235
860.744	50.12222
861.144	78.1896
861.544	15.03635
861.945	45.11495
862.345	64.15639
862.745	40.09974
863.145	87.20692
863.544	76.19143
863.944	48.11366
864.344	84.2077
864.743	62.15375
865.143	67.1718
865.542	5.01172
865.941	46.11412
866.34	71.16971
866.74	54.14498
867.139	59.14124
867.537	7.01799
867.936	46.11098
868.335	45.11474
868.734	22.05656
869.132	20.04683
869.531	60.14509
869.929	53.12095
870.327	17.04107
870.726	81.20113
871.124	22.05179
871.522	73.18542
871.92	51.12594
872.318	13.03204
872.715	82.20209
873.113	42.10263
873.511	53.13213
873.908	17.04321
874.306	0
874.703	40.10039
875.1	68.1736
875.497	0
875.894	-13.03226
876.291	50.12286
876.688	6.01561
877.085	29.06995
877.482	38.09544
877.878	23.05571
878.275	29.07402
878.671	54.12037
879.068	56.13521
879.464	14.03411
879.86	40.0949
880.256	41.10147
880.652	8.02052
881.048	60.14858
881.444	19.04555
881.84	39.09941
882.236	18.04557
882.631	29.07154
883.027	63.15237
883.422	43.11018
883.817	-12.03052
884.213	0
884.608	-28.06972
885.003	23.05579
885.398	48.12029
885.793	27.06812
886.188	34.08484
886.582	73.18666
886.977	59.13995
887.371	48.12155
887.766	-20.05041
888.16	28.07022
888.554	97.23804
888.949	43.10821
889.343	46.11257
889.737	-20.05394
890.131	10.02529
890.525	41.1051
890.918	-4.01017
891.312	44.10551
891.706	2.00529
892.099	53.1349
892.492	0
892.886	59.14425
893.279	42.10723
893.672	32.08178
894.065	53.13275
894.458	19.04809
894.851	70.17105
895.244	14.03601
895.637	33.07981
896.029	18.04431
896.422	43.10529
896.814	22.05502
897.206	-19.04588
897.599	70.17264
897.991	7.01708
898.383	47.11122
898.775	-13.02975
899.167	12.02822
899.559	37.09394
899.951	47.11097
900.342	26.06645
900.734	-10.0251
901.125	34.08951
901.517	46.11307
901.908	26.06268
902.299	18.0443
902.69	-3.00716
903.082	74.17853
903.473	-46.11224
903.863	6.01544
904.254	40.0931
904.645	40.09974
905.036	-13.03187
905.426	52.11912
905.817	8.0198
906.207	-23.05561
906.597	-27.06414
906.987	41.10649
907.378	56.14156
907.768	11.02928
908.158	21.05152
908.547	-23.06019
908.937	41.10543
909.327	35.08529
909.717	32.08155
910.106	-2.00485
910.495	38.09513
910.885	22.05603
911.274	1.00252
911.663	41.10429
912.052	50.12345
912.441	-1.00257
912.83	19.04392
913.219	-7.01851
913.608	16.03946
913.997	-6.0152
914.385	38.09106
914.774	1.00246
915.162	-12.02895
915.55	7.01708
915.939	-12.03064
916.327	39.09758
916.715	-5.01287
917.103	90.22
917.491	49.12131
917.878	14.03467
918.266	19.04955
918.654	-6.01548
919.041	-10.02638
919.429	-20.04787
919.816	28.07128
920.203	-17.04177
920.591	8.02
920.978	27.06643
921.365	51.13383
921.752	21.05037
922.139	-3.00659
922.525	-11.02673
922.912	16.03929
923.299	-4.01004
923.685	9.02365
924.072	17.03948
924.458	6.01499
924.844	12.02991
925.231	-33.07809
925.617	-24.06185
926.003	32.08207
926.389	3.00763
926.774	23.05858
927.16	22.05494
927.546	-15.03873
927.931	34.08512
928.317	22.05098
928.702	71.16737
929.088	-14.03353
929.473	41.10451
929.858	-47.11572
930.243	-30.07312
930.628	15.03674
931.013	-34.08558
931.398	15.03475
931.783	19.0503
932.167	13.03201
932.552	16.04034
932.937	31.07723
933.321	35.08808
933.705	34.08598
934.09	35.08871
934.474	50.1188
934.858	3.00785
935.242	-3.00703
935.626	15.03864
936.009	24.06412
936.393	32.0817
936.777	2.00517
937.16	44.11462
937.544	29.06863
937.927	6.01534
938.311	55.13417
938.694	41.10861
939.077	18.04336
939.46	65.15922
939.843	-7.0148
940.226	20.05158
940.609	4.00927
940.991	-12.03088
941.374	-4.00988
941.757	31.07678
942.139	-12.0273
942.522	7.01669
942.904	22.05318
943.286	54.13713
943.668	37.09607
944.05	-11.0274
944.432	-31.07765
944.814	0
945.196	-35.08665
945.578	-8.01923
945.959	6.01419
946.341	42.10328
946.722	50.11738
947.104	21.05048
947.485	23.05382
947.866	-13.03312
948.247	14.03555
948.628	39.09535
949.009	11.02836
949.39	19.04757
949.771	13.03047
950.152	20.04936
950.532	-53.13285
950.913	27.06542
951.293	5.01361
951.674	-22.05394
952.054	-22.05523
952.434	18.04495
952.814	9.02159
953.194	23.06048
953.574	49.12074
953.954	-1.0024
954.334	17.04263
954.714	0
955.093	46.1132
955.473	5.01261
955.853	35.09084
956.232	11.03034
956.611	31.07464
956.99	-27.0688
957.37	3.00771
957.749	-11.02655
958.128	-12.03057
958.506	-14.03672
958.885	42.10617
959.264	0
959.643	37.08443
960.021	17.04238
960.4	-13.02985
960.778	55.13537
961.156	-26.06607
961.535	30.07021
961.913	44.1031
962.291	-1.00259
962.669	10.02551
963.047	38.09718
963.424	28.07174
963.802	24.0593
964.18	48.12151
964.557	65.14929
964.935	0
965.312	38.09916
965.69	37.09288
966.067	-2.00492
966.444	30.07421
966.821	37.09561
967.198	10.02445
967.575	-18.04482
967.952	24.05685
968.329	30.07328
968.705	-10.02173
969.082	6.01551
969.458	-50.12222
969.835	-4.00984
970.211	3.00776
970.587	24.06004
970.963	16.04129
971.339	16.04202
971.715	20.05021
972.091	1.00248
972.467	17.04266
972.843	-7.01755
973.219	80.19104
973.594	-9.02378
973.97	37.0883
974.345	23.05533
974.721	27.06567
975.096	-8.01957
975.471	2.00479
975.846	48.11537
976.221	0
976.596	-17.04127
976.971	25.06201
977.346	9.02113
977.72	26.06652
978.095	41.10612
978.469	14.03365
978.844	40.10075
979.218	-9.02182
979.593	29.06977
979.967	-14.03452
980.341	-31.07254
980.715	30.07586
981.089	10.02521
981.463	-20.04657
981.837	-8.01976
982.21	53.12329
982.584	-26.0637
982.957	10.02515
983.331	26.06175
983.704	-1.00248
984.078	11.0273
984.451	28.07022
984.824	-7.01723
985.197	25.06101
985.57	25.06298
985.943	63.15523
986.316	75.18344
986.688	16.03884
987.061	30.0706
987.434	5.01313
987.806	4.00979
988.179	-10.02387
988.551	10.02555
988.923	16.03965
989.295	47.11751
989.667	-36.08741
990.039	2.00499
990.411	1.00232
990.783	13.03016
991.155	-7.017
991.527	66.16206
991.898	19.04761
992.27	6.01496
992.641	55.13786
993.012	42.09899
993.384	40.09559
993.755	14.03592
994.126	-8.01945
994.497	-6.01488
994.868	-11.02558
995.239	37.08989
995.61	10.02534
995.98	5.01225
996.351	25.06219
996.722	-7.01642
997.092	-4.00957
997.462	-54.1287
997.833	43.10207
998.203	17.04147
998.573	-32.08086
998.943	18.04247
999.313	-3.00726
999.683	-5.01212
1000.053	30.0693
1000.423	38.09255
1000.792	8.02088
1001.162	-8.0199
1001.531	44.1086
1001.901	37.09244
1002.27	-16.03625
1002.639	40.10237
1003.009	16.0383
1003.378	-6.01549
1003.747	9.02143
1004.116	-3.00725
1004.485	4.00964
1004.853	43.10906
1005.222	-2.00509
1005.591	23.05489
1005.959	-33.07561
1006.328	-15.0342
1006.696	-21.05132
1007.064	4.01014
1007.433	33.08272
1007.801	32.07881
1008.169	5.01273
1008.537	-12.02691
1008.905	-29.0686
1009.273	16.03977
1009.64	-30.07265
1010.008	14.0336
1010.375	47.11419
1010.743	55.12688
1011.11	-1.00239
1011.478	3.00749
1011.845	-1.00237
1012.212	-17.039
1012.579	36.08859
1012.946	11.02637
1013.313	36.0859
1013.68	41.09232
1014.047	-31.075
1014.414	-21.05027
1014.78	0
1015.147	55.13287
1015.513	15.03637
1015.88	75.1909
1016.246	63.15512
1016.612	3.00693
1016.978	8.01975
1017.344	-17.04252
1017.71	48.11707
1018.076	39.09215
1018.442	-3.00779
1018.808	10.02517
1019.174	14.03534
1019.539	82.18754
1019.905	15.03561
1020.27	3.00747
1020.636	32.07697
1021.001	25.06012
1021.366	22.0531
1021.731	20.05169
1022.096	-33.08444
1022.461	21.04997
1022.826	3.00719
1023.191	19.05009
1023.556	-25.05944
1023.92	6.01487
1024.285	11.02703
1024.649	-13.03222
1025.014	38.0943
1025.378	28.07065
1025.742	11.0275
1026.107	-6.01372
1026.471	26.06097
1026.835	13.03243
1027.199	-37.0905
1027.562	16.03743
1027.926	5.01232
1028.29	-12.03069
1028.654	10.02318
1029.017	-9.02236
1029.381	-15.03626
1029.744	-12.03093
1030.107	41.09714
1030.471	37.08878
1030.834	8.01835
1031.197	41.0989
1031.56	6.01427
1031.923	29.07522
1032.286	18.04252
1032.648	27.06483
1033.011	-50.11702
1033.374	23.05432
1033.736	16.04229
1034.099	2.00492
1034.461	-33.08456
1034.823	5.01255
1035.185	15.03798
1035.548	25.0611
1035.91	5.01207
1036.272	44.10023
1036.634	57.13921
1036.995	-20.04763
1037.357	-15.03692
1037.719	21.05132
1038.08	35.08331
1038.442	6.01436
1038.803	-2.00485
1039.165	25.06334
1039.526	-1.00244
1039.887	30.07202
1040.248	-22.0549
1040.609	51.12594
1040.97	8.01969
1041.331	10.02549
1041.692	-27.06394
1042.053	27.06174
1042.413	-30.07098
1042.774	34.0829
1043.134	40.09537
1043.495	46.11566
1043.855	33.08026
1044.215	5.01251
1044.576	6.01446
1044.936	6.01387
1045.296	42.10492
1045.656	44.10804
1046.016	17.04127
1046.375	18.0439
1046.735	-1.00229
1047.095	4.00944
1047.454	-30.06465
1047.814	5.01212
1048.173	-5.01207
1048.533	2.00462
1048.892	-24.05838
1049.251	26.06551
1049.61	57.14009
1049.969	26.06154
1050.328	-25.05504
1050.687	2.00491
1051.046	11.02696
1051.405	17.04252
1051.763	-3.00697
1052.122	-11.02772
1052.48	-1.00247
1052.839	12.02843
1053.197	13.0308
1053.555	47.10717
1053.914	51.12465
1054.272	48.11602
1054.63	-3.0074
1054.988	-17.04088
1055.345	26.05625
1055.703	34.08203
1056.061	7.01813
1056.419	2.00522
1056.776	5.01222
1057.134	20.04655
1057.491	8.02017
1057.848	-6.01508
1058.206	-2.00475
1058.563	33.07296
1058.92	20.04635
1059.277	17.04217
1059.634	61.14313
1059.991	33.07927
1060.348	15.03412
1060.704	-27.06525
1061.061	26.06066
1061.418	8.01954
1061.774	-9.02245
1062.131	2.00533
1062.487	2.00472
1062.843	66.16397
1063.199	-11.02764
1063.555	26.06049
1063.911	4.01018
1064.267	13.02732
1064.623	-8.01963
1064.979	34.08076
1065.335	11.02647
1065.691	26.06256
1066.046	1.00222
1066.402	-27.06226
1066.757	71.17842
1067.112	55.13477
1067.468	-12.02866
1067.823	-18.0438
1068.178	-6.01466
1068.533	0
1068.888	7.01685
1069.243	18.04465
1069.598	22.0537
1069.952	-32.07322
1070.307	-2.00499
1070.662	-30.07227
1071.016	-24.05456
1071.371	-24.05538
1071.725	40.09581
1072.079	27.06518
1072.434	-20.0492
1072.788	-7.01684
1073.142	47.1156
1073.496	21.05006
1073.85	-32.07536
1074.203	20.04876
1074.557	-1.00268
1074.911	26.0623
1075.265	-3.00704
1075.618	36.08807
1075.971	-9.02164
1076.325	-43.11099
1076.678	-38.08838
1077.031	-3.00686
1077.385	38.08386
1077.738	7.01593
1078.091	-38.08789
1078.444	-2.00469
1078.796	-9.02231
1079.149	1.00251
1079.502	9.02141
1079.855	34.07948
1080.207	61.14986
1080.56	12.03119
1080.912	31.07568
1081.264	39.09404
1081.617	21.05142
1081.969	-3.00763
1082.321	17.04173
1082.673	-40.09288
1083.025	0
1083.377	9.01947
1083.728	-4.00942
1084.08	8.02011
1084.432	16.03881
1084.783	-3.0071
1085.135	-37.09411
1085.486	-28.06502
1085.838	-6.01492
1086.189	13.03175
1086.54	45.10748
1086.891	9.02291
1087.242	-8.01967
1087.593	38.09265
1087.944	24.05456
1088.295	24.0548
1088.646	13.0317
1088.996	-4.00973
1089.347	1.00247
1089.698	-26.0623
1090.048	56.14518
1090.398	35.08135
1090.749	31.07438
1091.099	-10.0254
1091.449	20.05005
1091.799	22.05531
1092.149	-71.17688
1092.499	1.00246
1092.849	8.02047
1093.199	72.17959
1093.548	-8.01942
1093.898	5.0126
1094.248	6.01552
1094.597	-48.12452
1094.947	6.01611
1095.296	24.0595
1095.645	29.07563
1095.994	-5.01212
1096.343	0
1096.692	-5.01324
1097.041	-49.13467
1097.39	13.0328
1097.739	16.04179
1098.088	42.11257
1098.437	-27.07178
1098.785	40.10792
1099.134	35.09309
1099.482	41.11282
1099.83	14.03698
1100.179	-23.06068
1100.527	11.02939
1100.875	1.00266
1101.223	11.02937
1101.571	18.04995
1101.919	-15.03959
1102.267	15.04242
1102.615	-3.00965
1102.962	14.04506
1103.31	-6.0193
1103.658	14.04508
