Data from N2 R8 sample 11_Subt2__5__17-09-44-438.txt Node

Date: Fri Aug 29 17:09:44 PDT 2025
User: uwsun
Spectrometer: HDX01956
Trigger mode: 0
Integration Time (sec): 5.000000E-1
Scans to average: 1
Nonlinearity correction enabled: true
Boxcar width: 0
Storing dark spectrum: false
XAxis mode: Wavelengths
Number of Pixels in Spectrum: 2068
>>>>>Begin Spectral Data<<<<<
194.03	138.37907
194.578	151.46856
195.127	143.43746
195.676	147.45087
196.225	154.39798
196.773	171.45597
197.321	249.64066
197.87	336.7798
198.418	317.72829
198.966	291.67631
199.513	240.53538
200.061	278.62629
200.609	308.73204
201.156	255.49243
201.704	234.52868
202.251	312.73383
202.798	307.70814
203.345	327.7163
203.892	299.66822
204.438	299.63422
204.985	282.58732
205.532	294.68827
206.078	296.64443
206.624	312.67436
207.17	322.65749
207.716	291.62399
208.262	295.50995
208.808	267.58068
209.354	284.61121
209.899	380.84447
210.445	307.67107
210.99	306.64779
211.535	309.64198
212.08	351.71362
212.625	318.70495
213.17	373.82875
213.715	249.48777
214.259	365.74174
214.804	334.72962
215.348	312.62955
215.892	301.63986
216.436	353.71801
216.98	376.72384
217.524	308.64261
218.068	371.82054
218.612	362.80314
219.155	295.61563
219.698	332.6973
220.242	301.67158
220.785	301.62508
221.328	270.60454
221.871	283.64628
222.414	269.60391
222.956	206.4485
223.499	282.5651
224.041	275.57593
224.583	302.58165
225.126	268.5276
225.668	240.52563
226.21	269.60688
226.751	272.52715
227.293	310.62926
227.835	281.61243
228.376	304.6261
228.918	287.65119
229.459	263.58607
230	262.55878
230.541	275.56675
231.082	273.59171
231.622	286.58796
232.163	265.57388
232.704	255.56684
233.244	241.53817
233.784	316.6903
234.324	233.45491
234.864	225.45891
235.404	297.62943
235.944	295.62301
236.484	302.67255
237.023	268.56413
237.563	283.5793
238.102	241.5112
238.641	317.71107
239.18	279.57655
239.719	290.64878
240.258	267.53467
240.797	283.60002
241.335	259.56831
241.874	300.50191
242.412	320.67624
242.95	227.48445
243.488	267.5416
244.026	246.50459
244.564	334.59663
245.102	295.58198
245.64	304.64975
246.177	285.56411
246.715	304.64609
247.252	304.61595
247.789	338.55248
248.326	265.56186
248.863	275.53003
249.4	339.67162
249.936	228.41632
250.473	328.6664
251.009	293.58782
251.546	281.54368
252.082	296.5679
252.618	245.48243
253.154	224.4796
253.69	317.62215
254.226	334.69407
254.761	320.62522
255.297	244.4713
255.832	238.49988
256.367	310.63845
256.903	294.5627
257.438	342.69865
257.972	291.56654
258.507	285.5686
259.042	292.55265
259.576	289.53747
260.111	313.63172
260.645	341.6364
261.179	336.67673
261.713	327.62723
262.247	315.63196
262.781	264.48133
263.315	318.67643
263.849	327.71055
264.382	287.57765
264.915	318.64313
265.449	241.51343
265.982	316.62385
266.515	316.66896
267.048	281.51454
267.58	292.55644
268.113	278.51972
268.646	324.6919
269.178	289.55729
269.71	293.55441
270.243	309.61132
270.775	328.72318
271.307	354.7353
271.838	364.74528
272.37	301.64348
272.902	323.63303
273.433	314.58877
273.965	336.70414
274.496	389.82799
275.027	287.6194
275.558	325.67823
276.089	268.56959
276.62	325.71822
277.15	371.78453
277.681	376.69043
278.211	308.65516
278.741	306.57405
279.272	304.59396
279.802	351.75166
280.332	329.66126
280.861	349.71634
281.391	260.50871
281.921	383.78293
282.45	377.8028
282.98	355.79368
283.509	296.56928
284.038	351.67522
284.567	384.75739
285.096	287.5976
285.625	323.62106
286.153	316.62883
286.682	270.52878
287.21	335.68264
287.739	343.684
288.267	354.72086
288.795	362.81216
289.323	349.6814
289.851	368.72174
290.378	350.6566
290.906	344.69667
291.433	376.78622
291.961	370.69276
292.488	373.77805
293.015	344.67435
293.542	360.76177
294.069	342.7034
294.596	379.78424
295.122	369.73071
295.649	356.64975
296.175	407.81577
296.702	412.82446
297.228	385.77739
297.754	387.71009
298.28	325.61075
298.806	407.7988
299.332	331.60029
299.857	430.77967
300.383	405.84741
300.908	368.72822
301.433	373.74105
301.958	403.75922
302.483	419.84643
303.008	444.89014
303.533	436.92942
304.058	387.7452
304.582	343.65983
305.107	370.79046
305.631	424.77702
306.155	343.64744
306.679	407.75734
307.203	395.73245
307.727	448.84255
308.251	454.89336
308.775	427.79653
309.298	453.84798
309.822	422.85268
310.345	432.80726
310.868	400.75819
311.391	484.93447
311.914	414.82155
312.437	456.81084
312.96	412.75959
313.482	391.72864
314.005	447.87814
314.527	461.94707
315.049	524.02018
315.571	419.70703
316.093	495.93715
316.615	449.82886
317.137	506.81477
317.659	550.00388
318.18	546.98806
318.702	505.87405
319.223	466.70073
319.744	548.88947
320.265	472.85193
320.786	460.84853
321.307	538.98401
321.828	545.88535
322.348	551.93194
322.869	503.85486
323.389	597.62316
323.909	530.86896
324.43	602.03645
324.95	605.95368
325.47	494.87024
325.989	561.91803
326.509	550.81823
327.029	605.90921
327.548	552.8352
328.067	600.97451
328.587	666.11763
329.106	569.86327
329.625	716.28388
330.144	582.88592
330.662	631.94264
331.181	704.04344
331.7	662.99053
332.218	649.87011
332.736	682.00212
333.255	616.90768
333.773	736.06457
334.291	702.11226
334.808	717.94375
335.326	697.93836
335.844	689.94289
336.361	654.01283
336.879	732.98075
337.396	763.05636
337.913	743.96102
338.43	796.97153
338.947	810.06318
339.464	723.82213
339.981	761.9864
340.497	826.12233
341.014	761.01773
341.53	736.87106
342.046	870.11252
342.562	841.12306
343.078	877.03773
343.594	876.05668
344.11	935.08752
344.626	877.12731
345.141	892.96021
345.657	894.96542
346.172	893.04135
346.687	879.9375
347.202	884.89392
347.717	906.00562
348.232	974.13456
348.747	922.93349
349.261	926.81322
349.776	952.97139
350.29	943.01531
350.805	1084.14923
351.319	1007.96625
351.833	980.86931
352.347	974.9354
352.861	1012.9255
353.374	1078.95677
353.888	1095.03599
354.401	1024.88971
354.915	989.79215
355.428	1062.02055
355.941	1068.88363
356.454	1197.89417
356.967	1049.91222
357.48	1086.87092
357.993	1105.99697
358.505	1076.9418
359.018	1180.98401
359.53	1191.92627
360.042	1186.78021
360.554	1210.9496
361.066	1199.92885
361.578	1201.7143
362.09	1199.87687
362.602	1192.70024
363.113	1193.78543
363.625	1211.71411
364.136	1275.68156
364.647	1250.69753
365.158	1301.75104
365.669	1285.80222
366.18	1338.76398
366.691	1308.61799
367.201	1291.75367
367.712	1294.62586
368.222	1252.61889
368.733	1296.48355
369.243	1387.48969
369.753	1408.58082
370.263	1479.62257
370.773	1460.67311
371.282	1377.54447
371.792	1400.36757
372.301	1513.46497
372.811	1434.63478
373.32	1487.12941
373.829	1574.24759
374.338	1646.07301
374.847	1599.08509
375.356	1690.0502
375.865	1708.75084
376.373	1836.74222
376.882	1944.91241
377.39	1826.79822
377.898	1858.65607
378.407	2108.31638
378.915	2040.26664
379.423	2275.16487
379.93	2349.0209
380.438	2299.00897
380.946	2475.84383
381.453	2581.76725
381.96	2599.74183
382.468	2731.77286
382.975	3124.77681
383.482	3192.99625
383.989	3183.8756
384.495	3220.28171
385.002	3174.95093
385.509	3540.38398
386.015	3798.27699
386.521	3997.73398
387.028	4140.09201
387.534	4148.13923
388.04	4514.0977
388.546	4369.98547
389.051	4327.96897
389.557	4926.13889
390.063	5872.3968
390.568	5717.86008
391.073	5701.76601
391.578	6039.0387
392.084	6310.59487
392.589	5833.50159
393.093	5961.81517
393.598	6929.25895
394.103	7650.88441
394.607	8618.2546
395.112	9282.62284
395.616	9757.99438
396.12	10217.92586
396.624	11209.00993
397.128	12313.30972
397.632	13893.58004
398.136	15187.3789
398.639	14367.26195
399.143	15141.38894
399.646	16977.62372
400.15	18818.46827
400.653	18728.67491
401.156	13307.20156
401.659	5169.95759
402.162	1054.15589
402.664	0
403.167	0
403.67	0
404.172	0
404.674	0
405.176	0
405.678	0
406.18	0
406.682	0
407.184	0
407.686	0
408.187	0
408.688	0
409.19	0
409.691	0
410.192	0
410.693	0
411.194	435.30976
411.694	4082.94878
412.195	8864.71461
412.696	12089.80453
413.196	12760.96929
413.696	12863.67595
414.196	13703.56671
414.696	17261.84252
415.196	21764.24417
415.696	29583.19008
416.196	36460.31858
416.695	28088.60547
417.195	21486.14973
417.694	19848.81489
418.194	19480.4698
418.693	17375.90884
419.192	16781.87505
419.691	16760.038
420.19	16362.761
420.688	16171.65141
421.187	15844.63406
421.685	15285.17613
422.184	14548.36637
422.682	12395.71028
423.18	9823.0784
423.678	8402.97049
424.176	7775.66013
424.674	7254.37925
425.172	7341.74334
425.669	6822.75387
426.167	6597.77554
426.664	5769.51321
427.161	5305.36477
427.659	4843.82128
428.156	4466.10804
428.652	4158.92958
429.149	4010.63565
429.646	3843.41127
430.143	3723.85794
430.639	3521.69328
431.135	3266.58429
431.632	3106.60821
432.128	2837.72798
432.624	2572.94153
433.12	2347.9404
433.616	2292.98865
434.111	2093.18926
434.607	2024.33137
435.103	2171.20844
435.598	2123.26791
436.093	2075.57669
436.588	1906.69857
437.083	1858.81597
437.578	1749.97035
438.073	1516.19006
438.568	1529.31168
439.062	1569.06339
439.557	1520.34642
440.051	1432.29471
440.546	1288.34377
441.04	1234.47403
441.534	1225.62578
442.028	1260.56699
442.522	1180.56452
443.015	1145.43413
443.509	1204.66452
444.002	1106.65297
444.496	1067.48251
444.989	1090.68692
445.482	1065.71521
445.975	1008.53492
446.468	1054.49036
446.961	1027.49619
447.454	864.55542
447.947	881.61319
448.439	926.71026
448.931	799.53667
449.424	961.81349
449.916	875.7122
450.408	873.59396
450.9	814.67939
451.392	810.75024
451.884	816.64626
452.375	688.65701
452.867	818.6577
453.358	711.57916
453.849	784.55484
454.341	693.58457
454.832	696.54032
455.323	736.71605
455.814	703.64199
456.304	749.67999
456.795	656.61755
457.285	755.67617
457.776	710.69119
458.266	628.65432
458.756	647.70424
459.247	586.63084
459.737	526.58499
460.226	560.56663
460.716	513.59373
461.206	614.70329
461.695	559.71307
462.185	553.64446
462.674	521.60121
463.163	564.6066
463.653	506.51438
464.142	426.55088
464.63	528.69047
465.119	470.57189
465.608	452.55629
466.096	426.50081
466.585	478.60935
467.073	402.55772
467.561	461.63451
468.05	456.60427
468.538	432.62887
469.026	441.61959
469.513	375.45107
470.001	394.52412
470.489	353.50632
470.976	423.58405
471.463	362.57089
471.951	322.52308
472.438	360.52821
472.925	316.46733
473.412	318.51716
473.899	302.4529
474.385	304.4994
474.872	259.40145
475.359	259.42938
475.845	221.30305
476.331	345.49453
476.817	252.42923
477.303	251.40301
477.789	215.36709
478.275	177.31624
478.761	204.35404
479.247	234.37197
479.732	180.32617
480.218	165.32046
480.703	179.32941
481.188	156.24327
481.673	156.26398
482.158	70.10979
482.643	212.40811
483.128	142.24133
483.612	183.32054
484.097	168.31562
484.581	157.27934
485.066	105.19799
485.55	118.19707
486.034	116.19182
486.518	94.17138
487.002	87.16695
487.486	83.16028
487.969	72.13967
488.453	91.18468
488.936	71.12711
489.42	94.1653
489.903	74.152
490.386	86.10932
490.869	78.13709
491.352	74.14918
491.835	55.09228
492.318	33.06088
492.8	28.04735
493.283	11.02329
493.765	33.06734
494.247	84.16256
494.73	27.04951
495.212	38.07742
495.694	21.04083
496.175	-43.08579
496.657	84.16568
497.139	62.08921
497.62	-19.03792
498.102	0
498.583	-7.01502
499.064	-50.09495
499.545	52.09957
500.026	-7.01332
500.507	-37.07392
500.988	-39.08392
501.469	-1.00214
501.949	2.00426
502.43	-51.1043
502.91	-64.11408
503.39	-13.0283
503.87	-70.143
504.35	-74.15392
504.83	-78.149
505.31	-21.04402
505.79	-80.16751
506.269	-43.08794
506.749	-112.22558
507.228	-110.22788
507.707	-29.05576
508.187	-24.05028
508.666	-83.17944
509.145	-120.24882
509.623	-71.14685
510.102	-66.14131
510.581	-15.03185
511.059	-84.18615
511.538	-38.08701
512.016	-18.03772
512.494	-34.07289
512.972	-76.16118
513.45	-129.26562
513.928	-107.23163
514.406	-135.28949
514.884	-75.17163
515.361	-39.08244
515.839	-98.19929
516.316	-55.11733
516.793	-91.20724
517.27	-82.17876
517.747	-98.22557
518.224	-72.14916
518.701	-77.15341
519.178	-105.23312
519.654	-94.20222
520.131	-95.21145
520.607	-53.11792
521.083	-112.23109
521.56	-100.21309
522.036	-77.15212
522.512	-55.12211
522.987	-128.27454
523.463	-123.26546
523.939	-98.21808
524.414	-82.17147
524.89	-74.15831
525.365	-109.22394
525.84	-143.30823
526.315	-57.12313
526.79	-58.11757
527.265	-117.24308
527.74	-70.15377
528.215	-105.22506
528.689	-125.25252
529.164	-103.20406
529.638	-89.20825
530.112	-180.39123
530.587	-125.24278
531.061	-154.34056
531.534	-91.2012
532.008	-135.29711
532.482	-114.23997
532.956	-86.19843
533.429	-150.33531
533.903	-126.25682
534.376	-121.24545
534.849	-108.22934
535.322	-134.29125
535.795	-100.22364
536.268	-103.22621
536.741	-95.2089
537.213	-115.24447
537.686	-130.29049
538.158	-147.30282
538.631	-92.20524
539.103	-200.41784
539.575	-63.11967
540.047	-160.32701
540.519	-92.20175
540.991	-42.09342
541.463	-94.20857
541.934	-110.23124
542.406	-153.33714
542.877	-124.25791
543.348	-100.22197
543.82	-98.22097
544.291	-111.23916
544.762	-144.31485
545.233	-101.23132
545.703	-111.22465
546.174	-63.13299
546.645	-129.28104
547.115	-102.22406
547.585	-86.18007
548.056	-105.22895
548.526	-81.17144
548.996	-63.13673
549.466	-45.09908
549.935	-67.14169
550.405	-46.08966
550.875	-54.11407
551.344	-62.13332
551.814	-56.11508
552.283	-50.09736
552.752	-67.13852
553.221	-99.192
553.69	-35.06866
554.159	-41.08868
554.628	-43.08447
555.096	-53.11894
555.565	21.04084
556.033	-15.03142
556.502	-48.10433
556.97	-64.12825
557.438	-61.13109
557.906	-99.21605
558.374	-94.19839
558.842	-121.26741
559.31	-111.23062
559.777	-160.36017
560.245	-106.23186
560.712	-137.29745
561.18	-153.31717
561.647	-121.25263
562.114	-108.22874
562.581	-109.25044
563.048	-102.21991
563.514	-162.37333
563.981	-113.24263
564.448	-150.31811
564.914	-107.23371
565.381	-61.12922
565.847	-81.17714
566.313	-121.26529
566.779	-135.28786
567.245	-58.12601
567.711	-117.263
568.176	-136.28779
568.642	-128.30062
569.108	-142.32841
569.573	-150.33545
570.038	-87.1718
570.504	-125.26307
570.969	-103.2411
571.434	-119.24459
571.899	-89.19719
572.363	-66.13954
572.828	-89.19068
573.293	-80.17085
573.757	-41.08689
574.222	-119.24834
574.686	-104.21699
575.15	-64.14041
575.614	-92.19639
576.078	-88.19168
576.542	-58.1223
577.006	-71.14843
577.469	-9.02046
577.933	-108.22534
578.396	-60.13213
578.86	-88.19322
579.323	-55.12079
579.786	-50.09996
580.249	-86.18207
580.712	-51.1153
581.175	-79.18079
581.637	-47.10066
582.1	-46.09406
582.563	-63.1268
583.025	-86.19391
583.487	-56.10526
583.95	-106.21349
584.412	-74.14588
584.874	-66.1487
585.336	-43.09424
585.797	-40.08027
586.259	-30.06562
586.721	-56.12193
587.182	1.00216
587.643	-43.09089
588.105	-79.17489
588.566	-30.05886
589.027	-76.17017
589.488	-60.1278
589.949	-50.11265
590.41	-72.1314
590.87	-59.12624
591.331	-11.02207
591.791	-60.12891
592.252	-76.16202
592.712	-48.1073
593.172	-42.08794
593.632	43.08651
594.092	-5.0103
594.552	39.07687
595.011	-28.05936
595.471	20.04112
595.931	1.00206
596.39	30.06554
596.849	10.02139
597.308	52.10329
597.768	53.12226
598.227	73.15958
598.685	104.21632
599.144	46.09811
599.603	141.2987
600.062	82.1555
600.52	62.12539
600.978	101.21593
601.437	156.31869
601.895	136.25765
602.353	164.32407
602.811	188.36854
603.269	205.43199
603.727	192.40558
604.184	213.41962
604.642	227.48676
605.099	321.63774
605.557	321.67196
606.014	299.55026
606.471	319.6793
606.928	368.65839
607.385	453.90671
607.842	544.00294
608.299	608.13073
608.755	616.18259
609.212	496.89663
609.668	560.98656
610.125	654.25266
610.581	765.41524
611.037	739.31739
611.493	706.31727
611.949	676.28677
612.405	733.11734
612.861	833.50604
613.316	764.41655
613.772	878.51709
614.227	867.54773
614.683	928.46755
615.138	929.61865
615.593	898.56737
616.048	912.56849
616.503	921.72055
616.958	929.76288
617.412	957.68949
617.867	960.55584
618.321	987.48322
618.776	973.59071
619.23	1016.75999
619.684	1043.72364
620.138	1052.79948
620.592	1002.82475
621.046	996.75351
621.5	958.7691
621.954	1027.71487
622.407	968.61999
622.861	1010.84956
623.314	933.62222
623.768	955.69296
624.221	989.42676
624.674	933.64701
625.127	995.76405
625.58	1014.74817
626.033	1000.66917
626.485	993.81243
626.938	988.80374
627.39	969.73206
627.843	955.70609
628.295	996.76172
628.747	1010.84121
629.199	999.73548
629.651	1036.78149
630.103	1047.81625
630.555	1074.68882
631.006	996.80923
631.458	1085.94097
631.909	1157.98345
632.361	1157.01391
632.812	1178.0125
633.263	1219.90109
633.714	1271.94266
634.165	1329.33775
634.616	1310.26063
635.067	1435.20351
635.518	1528.5105
635.968	1556.02046
636.419	1535.23266
636.869	1593.57154
637.319	1678.54118
637.769	1760.4863
638.219	1829.7966
638.669	1872.80931
639.119	1994.999
639.569	2029.96763
640.019	2176.87034
640.468	2224.73769
640.918	2343.13495
641.367	2367.80411
641.816	2459.81364
642.265	2586.99862
642.714	2718.01767
643.163	2797.99207
643.612	2836.20965
644.061	2946.54863
644.51	3095.92028
644.958	3104.72623
645.406	3167.20131
645.855	3319.34772
646.303	3380.04404
646.751	3429.8474
647.199	3485.84054
647.647	3529.89429
648.095	3632.83772
648.543	3712.18639
648.99	3742.06837
649.438	3789.96759
649.885	3747.33068
650.333	3831.84476
650.78	3782.14222
651.227	3851.16936
651.674	3798.75924
652.121	3823.19129
652.568	3765.19577
653.015	3820.49057
653.461	3774.0537
653.908	3672.96797
654.354	3702.12665
654.801	3586.03261
655.247	3679.61355
655.693	3561.79879
656.139	3532.20981
656.585	3547.21368
657.031	3507.02253
657.477	3405.61355
657.922	3455.97443
658.368	3414.45214
658.813	3436.07398
659.259	3370.26759
659.704	3306.09689
660.149	3258.11142
660.594	3208.23873
661.039	3188.99585
661.484	3143.30433
661.929	3165.16651
662.373	3064.63929
662.818	3061.5389
663.262	3077.3466
663.707	3140.68533
664.151	3047.45428
664.595	2962.36827
665.039	3088.57899
665.483	3105.72619
665.927	3067.24092
666.371	2995.11907
666.814	3130.32556
667.258	3043.25222
667.701	3107.76158
668.145	3169.59719
668.588	3102.50311
669.031	3069.22356
669.474	3102.38512
669.917	3127.90063
670.36	3140.57535
670.803	3122.41155
671.245	3094.64254
671.688	3107.48279
672.13	2988.97616
672.573	3143.75472
673.015	3138.38023
673.457	3063.82175
673.899	3187.43966
674.341	3079.41867
674.783	3058.37222
675.225	3152.53402
675.666	3026.38292
676.108	3034.82366
676.549	3045.31841
676.991	3014.90699
677.432	2959.4014
677.873	2894.18336
678.314	2946.36552
678.755	2926.4757
679.196	2928.12178
679.637	2840.50594
680.078	2766.2504
680.518	2764.23187
680.959	2788.37751
681.399	2756.57458
681.839	2686.45442
682.28	2612.50799
682.72	2573.0953
683.16	2579.55348
683.6	2643.1026
684.039	2486.64588
684.479	2476.43749
684.919	2400.07942
685.358	2484.63802
685.798	2403.7799
686.237	2407.34586
686.676	2397.13784
687.115	2388.18803
687.554	2314.20968
687.993	2273.86712
688.432	2253.00289
688.871	2273.97412
689.309	2150.15627
689.748	2225.61742
690.186	2208.19699
690.625	2164.07697
691.063	2178.19256
691.501	2227.37248
691.939	2076.31501
692.377	2185.27877
692.815	2066.11226
693.253	2160.20349
693.69	2057.75079
694.128	2020.14001
694.565	2000.06413
695.003	2035.3746
695.44	1970.97798
695.877	1909.90716
696.314	1904.59358
696.751	2031.89929
697.188	1885.82662
697.625	1961.88706
698.061	1848.97518
698.498	1937.08747
698.934	1862.0055
699.371	1798.85681
699.807	1811.89146
700.243	1768.92114
700.679	1730.6641
701.115	1767.84417
701.551	1669.75541
701.987	1733.64329
702.422	1697.80662
702.858	1698.82128
703.294	1624.57756
703.729	1605.8332
704.164	1573.73789
704.599	1537.44166
705.035	1564.47722
705.47	1541.73782
705.904	1490.5379
706.339	1517.56976
706.774	1526.59408
707.209	1505.51934
707.643	1477.6276
708.078	1456.64905
708.512	1372.631
708.946	1447.58978
709.38	1424.52446
709.814	1393.37995
710.248	1410.59976
710.682	1309.39678
711.116	1345.44451
711.549	1297.63709
711.983	1300.30251
712.416	1302.37499
712.85	1311.54556
713.283	1228.28112
713.716	1251.48958
714.149	1239.3192
714.582	1209.11696
715.015	1286.52813
715.448	1247.49189
715.881	1230.07939
716.313	1164.16935
716.746	1119.1186
717.178	1155.22403
717.61	1190.42639
718.043	1129.28579
718.475	1131.21301
718.907	1168.39112
719.339	1033.90932
719.77	1054.04121
720.202	1091.26484
720.634	1007.03286
721.065	1032.01179
721.497	1017.06898
721.928	1004.05033
722.359	971.95537
722.79	951.9098
723.221	1042.17592
723.652	1001.17242
724.083	923.74298
724.514	956.83137
724.945	950.86972
725.375	929.80737
725.806	970.03875
726.236	935.03934
726.666	945.87859
727.096	898.8798
727.526	881.9232
727.956	888.705
728.386	883.86179
728.816	873.90012
729.246	948.93739
729.675	875.84411
730.105	933.94494
730.534	862.72255
730.964	942.02048
731.393	922.94958
731.822	908.98507
732.251	922.99451
732.68	930.84659
733.109	885.8652
733.537	877.80874
733.966	803.73737
734.395	872.71201
734.823	902.71447
735.251	910.85799
735.68	913.95112
736.108	847.85519
736.536	856.7287
736.964	820.63777
737.392	878.88639
737.82	905.84319
738.247	902.83416
738.675	913.84856
739.102	830.7962
739.53	912.98209
739.957	888.96334
740.384	902.89897
740.811	928.00064
741.238	874.8255
741.665	898.75815
742.092	889.8073
742.519	844.80088
742.945	881.8032
743.372	920.9335
743.798	942.05678
744.225	900.81351
744.651	933.98615
745.077	942.98669
745.503	934.9251
745.929	962.93147
746.355	1023.11505
746.781	940.96949
747.207	836.68056
747.632	943.93368
748.058	959.01515
748.483	955.83077
748.908	972.02599
749.334	1007.05508
749.759	954.87936
750.184	964.91596
750.609	1063.14415
751.033	991.94459
751.458	1041.89642
751.883	1082.19497
752.307	1051.01752
752.732	997.07588
753.156	1060.15027
753.58	1111.12789
754.005	1136.34325
754.429	1072.04366
754.853	1118.24553
755.277	1069.05707
755.7	1111.24011
756.124	1069.17494
756.548	1113.12151
756.971	1148.25214
757.394	1183.45711
757.818	1131.37183
758.241	1152.36361
758.664	1154.3529
759.087	1107.96421
759.51	1188.36237
759.933	1210.29414
760.356	1229.51107
760.778	1237.39477
761.201	1232.35854
761.623	1206.31639
762.046	1198.24388
762.468	1312.42687
762.89	1206.36504
763.312	1243.38364
763.734	1200.28283
764.156	1211.37098
764.578	1289.26942
765	1264.40837
765.421	1179.40339
765.843	1293.67747
766.264	1298.42463
766.686	1184.38265
767.107	1238.35191
767.528	1112.28348
767.949	1235.49278
768.37	1203.34095
768.791	1285.41027
769.212	1182.37428
769.632	1220.21375
770.053	1227.59015
770.473	1242.36749
770.894	1304.54208
771.314	1241.31614
771.734	1222.21851
772.154	1182.44257
772.575	1271.26542
772.994	1164.07558
773.414	1198.27243
773.834	1174.35064
774.254	1178.29598
774.673	1211.32879
775.093	1168.31074
775.512	1095.1907
775.931	1092.26442
776.351	1136.27339
776.77	1107.1873
777.189	1098.10444
777.607	1077.25947
778.026	1061.16741
778.445	984.05375
778.864	1075.26908
779.282	1035.04001
779.701	1041.16666
780.119	1032.15691
780.537	944.98309
780.955	1065.23036
781.373	1049.12936
781.791	994.82202
782.209	1093.0171
782.627	1007.22418
783.045	938.79251
783.462	964.07127
783.88	918.02031
784.297	892.91238
784.715	875.92697
785.132	936.89991
785.549	844.81564
785.966	907.93746
786.383	885.85053
786.8	864.69867
787.217	820.66651
787.633	771.67874
788.05	858.73512
788.466	867.73455
788.883	875.9109
789.299	788.64211
789.715	795.67173
790.131	836.78842
790.547	799.73165
790.963	775.67604
791.379	750.66435
791.795	786.54077
792.21	763.54526
792.626	745.54039
793.041	730.58302
793.457	730.58571
793.872	725.48963
794.287	658.39401
794.702	707.53799
795.117	676.49257
795.532	644.44493
795.947	746.56758
796.362	705.48166
796.776	723.48151
797.191	627.37592
797.605	584.23381
798.02	578.27279
798.434	622.23091
798.848	540.21383
799.262	584.31125
799.676	595.31
800.09	572.27639
800.504	554.22242
800.918	530.11711
801.331	602.43264
801.745	531.10868
802.158	550.254
802.572	562.23751
802.985	528.16643
803.398	498.09042
803.811	572.3398
804.224	513.17305
804.637	417.9288
805.05	442.95161
805.462	455.03772
805.875	408.99528
806.288	354.80888
806.7	439.02848
807.112	451.96911
807.525	381.88753
807.937	390.90795
808.349	409.96247
808.761	416.95892
809.173	355.81524
809.584	380.88676
809.996	327.76296
810.408	340.83594
810.819	315.70658
811.231	336.82763
811.642	338.76486
812.053	375.84011
812.464	398.8874
812.875	453.07704
813.286	326.80153
813.697	384.8445
814.108	298.69791
814.519	253.54392
814.929	283.69493
815.34	248.58196
815.75	231.5702
816.16	232.56159
816.571	286.71512
816.981	269.61159
817.391	263.61246
817.801	196.47571
818.211	225.52108
818.62	173.4086
819.03	244.57906
819.44	223.56717
819.849	235.57474
820.259	203.50752
820.668	181.43609
821.077	157.3837
821.486	210.4928
821.895	186.45009
822.304	171.44519
822.713	155.36069
823.122	172.42138
823.531	149.34809
823.939	176.42043
824.348	161.38497
824.756	167.41102
825.164	159.39379
825.573	114.28374
825.981	167.40693
826.389	152.37624
826.797	105.26129
827.205	103.23495
827.612	144.35056
828.02	109.25405
828.428	136.34218
828.835	99.25908
829.243	124.29259
829.65	81.20091
830.057	123.29557
830.464	112.27072
830.871	129.30551
831.278	115.27561
831.685	122.26957
832.092	121.29341
832.499	115.24937
832.905	98.24675
833.312	120.27113
833.718	83.20624
834.124	80.18252
834.531	53.13395
834.937	99.25261
835.343	89.21395
835.749	102.23684
836.155	78.20374
836.561	47.11602
836.966	73.17835
837.372	60.15286
837.777	35.08767
838.183	82.18194
838.588	42.10473
838.993	89.21582
839.399	45.11043
839.804	-10.02471
840.209	31.07935
840.613	15.03375
841.018	80.20201
841.423	59.15145
841.828	31.07885
842.232	86.21226
842.637	41.09721
843.041	31.07988
843.445	60.15058
843.849	35.0871
844.253	45.1074
844.657	-8.0204
845.061	60.13634
845.465	-3.00734
845.869	25.05857
846.272	22.05398
846.676	28.06819
847.079	56.14251
847.483	59.1473
847.886	102.24646
848.289	24.06441
848.692	31.07893
849.095	38.09171
849.498	89.22453
849.901	36.08306
850.304	17.04099
850.707	87.22082
851.109	72.18187
851.512	22.05446
851.914	18.04569
852.316	31.07882
852.718	23.05974
853.121	58.1422
853.523	6.01418
853.925	15.03941
854.326	8.02019
854.728	24.06209
855.13	-17.04441
855.531	-4.00968
855.933	45.10838
856.334	30.07518
856.736	29.0654
857.137	-1.00235
857.538	8.02029
857.939	-6.015
858.34	59.14382
858.741	19.04999
859.142	51.12274
859.542	22.05838
859.943	54.13431
860.343	-46.11607
860.744	57.13915
861.144	32.07846
861.544	-14.03411
861.945	45.11495
862.345	30.07377
862.745	14.03507
863.145	87.20692
863.544	47.119
863.944	19.04524
864.344	31.0774
864.743	53.13165
865.143	26.06715
865.542	8.01874
865.941	49.12149
866.34	40.09618
866.74	12.03244
867.139	-8.0194
867.537	8.02056
867.936	25.06055
868.335	21.05377
868.734	39.09997
869.132	-5.01176
869.531	34.08262
869.929	5.01152
870.327	-10.02428
870.726	54.13475
871.124	37.08685
871.522	-28.07239
871.92	26.0645
872.318	46.1127
872.715	29.07217
873.113	52.12683
873.511	48.11977
873.908	-26.06659
874.306	10.02508
874.703	8.02019
875.1	77.19627
875.497	-18.04377
875.894	14.03457
876.291	2.00496
876.688	18.04673
877.085	58.13914
877.482	41.10292
877.878	9.02186
878.275	9.02305
878.671	48.10712
879.068	44.10648
879.464	29.07046
879.86	-5.01197
880.256	59.14554
880.652	-4.01028
881.048	12.02998
881.444	28.06702
881.84	-27.06962
882.236	32.0808
882.631	28.06908
883.027	31.07543
883.422	1.00258
883.817	-36.09194
884.213	4.01036
884.608	-5.0124
885.003	15.03644
885.398	-6.01518
885.793	14.0354
886.188	-6.01508
886.582	35.09009
886.977	24.05731
887.371	24.06103
887.766	-35.08846
888.16	37.09264
888.554	36.08934
888.949	50.12567
889.343	54.13195
889.737	-2.00538
890.131	5.01265
890.525	26.06682
890.918	35.08839
891.312	5.01208
891.706	30.07903
892.099	35.08937
892.492	14.03048
892.886	10.02467
893.279	12.0308
893.672	8.02053
894.065	16.04034
894.458	30.07578
894.851	55.13477
895.244	17.0437
895.637	8.01944
896.029	19.04676
896.422	22.05408
896.814	21.05252
897.206	-47.1141
897.599	51.12622
897.991	21.0511
898.383	18.04284
898.775	-16.03664
899.167	6.01412
899.559	41.10403
899.951	-18.04303
900.342	39.09944
900.734	-49.12384
901.125	9.02379
901.517	6.01486
901.908	46.11048
902.299	-25.06201
902.69	-3.00716
903.082	30.07298
903.473	-7.01696
903.863	11.02828
904.254	-9.02115
904.645	23.05753
905.036	-26.06389
905.426	27.06216
905.817	-5.0124
906.207	-8.01929
906.597	-36.08567
906.987	33.08583
907.378	9.02294
907.768	1.00267
908.158	13.03194
908.547	-15.0392
908.937	11.02843
909.327	12.02937
909.717	54.13708
910.106	5.01212
910.495	15.03771
910.885	38.0965
911.274	-9.02275
911.663	32.08152
912.052	56.13811
912.441	-12.03086
912.83	32.07377
913.219	14.03688
913.608	38.09334
913.997	-16.0406
914.385	55.13136
914.774	6.01474
915.162	9.02163
915.55	18.04384
915.939	-3.00765
916.327	2.00504
916.715	-12.03093
917.103	48.11825
917.491	28.06959
917.878	20.04947
918.266	55.14256
918.654	13.03344
919.041	8.02104
919.429	1.00238
919.816	40.10162
920.203	-30.07388
920.591	38.09448
920.978	1.00247
921.365	8.02115
921.752	9.02164
922.139	33.07196
922.525	-17.04136
922.912	27.06616
923.299	-15.03773
923.685	2.00526
924.072	29.06719
924.458	13.03243
924.844	-12.03004
925.231	-15.03537
925.617	-21.05409
926.003	4.01031
926.389	8.02034
926.774	18.04589
927.16	27.06736
927.546	-4.01031
927.931	23.05769
928.317	34.0786
928.702	3.00717
929.088	-20.04796
929.473	-16.04119
929.858	-3.00733
930.243	-13.03158
930.628	12.02941
931.013	-4.01001
931.398	36.08306
931.783	15.03973
932.167	47.115
932.552	38.09544
932.937	40.09949
933.321	1.00253
933.705	2.00509
934.09	46.11636
934.474	40.09523
934.858	-38.10007
935.242	12.02803
935.626	-8.02069
936.009	-13.03494
936.393	-14.03603
936.777	-40.10405
937.16	36.09391
937.544	55.1295
937.927	-6.01538
938.311	36.08813
938.694	42.11124
939.077	-20.04853
939.46	48.11795
939.843	21.04412
940.226	-10.02592
940.609	-9.02091
940.991	15.03842
941.374	-20.04953
941.757	29.07185
942.139	0
942.522	38.09005
942.904	28.0676
943.286	49.12455
943.668	27.07022
944.05	12.02977
944.432	-5.01247
944.814	27.0668
945.196	-34.08416
945.578	-37.08942
945.959	30.0706
946.341	29.07148
946.722	50.11738
947.104	21.05048
947.485	-7.01648
947.866	4.01016
948.247	-12.03061
948.628	34.08321
949.009	-11.02847
949.39	26.06502
949.771	24.05612
950.152	7.01732
950.532	-21.05233
950.913	14.03401
951.293	-3.00817
951.674	27.0656
952.054	-19.04768
952.434	15.03748
952.814	-4.00962
953.194	24.0631
953.574	69.16939
953.954	31.0739
954.334	11.02761
954.714	17.04169
955.093	25.06176
955.473	8.02016
955.853	38.09858
956.232	50.13704
956.611	21.05066
956.99	13.03289
957.37	22.05634
957.749	10.02404
958.128	-4.01018
958.506	1.00262
958.885	27.06843
959.264	-19.04716
959.643	65.14749
960.021	-2.005
960.4	-18.04137
960.778	37.09137
961.156	-2.00506
961.535	-22.05201
961.913	30.07049
962.291	30.07724
962.669	-32.08224
963.047	-11.02837
963.424	11.02827
963.802	22.05438
964.18	12.03057
964.557	38.08775
964.935	20.04767
965.312	-3.00788
965.69	25.06289
966.067	41.10002
966.444	21.05203
966.821	34.0879
967.198	26.06337
967.575	14.03466
967.952	18.04269
968.329	31.07571
968.705	39.08385
969.082	29.07465
969.458	-45.1099
969.835	5.01227
970.211	-8.02074
970.587	10.02508
970.963	22.05672
971.339	-3.0079
971.715	-8.02019
972.091	12.02976
972.467	35.08754
972.843	-7.01755
973.219	32.07712
973.594	-3.00792
973.97	14.03356
974.345	-10.02421
974.721	9.02196
975.096	24.05836
975.471	18.04297
975.846	9.02179
976.221	21.0536
976.596	-10.02424
976.971	31.07681
977.346	23.05384
977.72	-3.00771
978.095	25.06489
978.469	61.1453
978.844	14.03543
979.218	-34.0828
979.593	3.00725
979.967	11.02699
980.341	-29.06783
980.715	-7.01782
981.089	15.03779
981.463	-36.08409
981.837	0
982.21	45.10484
982.584	26.06308
982.957	-23.05819
983.331	4.00954
983.704	11.02722
984.078	10.02483
984.451	80.19875
984.824	-28.06918
985.197	26.06344
985.57	35.08802
985.943	13.03233
986.316	59.14473
986.688	12.02915
987.061	6.01419
987.434	21.05499
987.806	11.02687
988.179	-8.01909
988.551	28.07131
988.923	15.03718
989.295	19.04775
989.667	-24.05814
990.039	-17.04252
990.411	7.01625
990.783	4.0093
991.155	-40.09774
991.527	51.12557
991.898	19.04761
992.27	-5.01249
992.641	45.113
993.012	35.0826
993.384	5.01203
993.755	-6.01545
994.126	8.0194
994.497	7.01732
994.868	-7.01626
995.239	-10.02451
995.61	-14.03563
995.98	-9.0221
996.351	5.01248
996.722	-5.01172
997.092	-24.05764
997.462	-32.07595
997.833	58.13728
998.203	-10.02452
998.573	-8.02013
998.943	-7.0166
999.313	7.01691
999.683	-14.03401
1000.053	21.0486
1000.423	48.11668
1000.792	54.13985
1001.162	13.03221
1001.531	52.12815
1001.901	-24.06062
1002.27	-10.02263
1002.639	-14.03617
1003.009	32.07636
1003.378	12.03088
1003.747	-6.01433
1004.116	-7.01693
1004.485	17.04088
1004.853	12.0306
1005.222	24.0608
1005.591	36.0857
1005.959	-29.06639
1006.328	-51.11713
1006.696	-3.00731
1007.064	5.01268
1007.433	28.07025
1007.801	45.11055
1008.169	7.01781
1008.537	51.1129
1008.905	-14.03302
1009.273	33.08176
1009.64	-67.16338
1010.008	-5.01204
1010.375	59.14302
1010.743	32.07416
1011.11	-1.00239
1011.478	38.09424
1011.845	-11.02617
1012.212	-76.1764
1012.579	-22.05472
1012.946	6.0144
1013.313	8.01919
1013.68	8.01813
1014.047	-32.07744
1014.414	7.01667
1014.78	-15.03771
1015.147	27.06557
1015.513	-30.07336
1015.88	74.18839
1016.246	1.00249
1016.612	4.00924
1016.978	-18.04465
1017.344	23.05711
1017.71	2.00492
1018.076	-13.03103
1018.442	26.06715
1018.808	3.00756
1019.174	-2.00506
1019.539	57.13102
1019.905	11.02613
1020.27	-4.00997
1020.636	47.11273
1021.001	10.02412
1021.366	34.08187
1021.731	6.01554
1022.096	-11.02804
1022.461	-3.00717
1022.826	-18.04333
1023.191	25.06585
1023.556	26.06121
1023.92	39.09606
1024.285	42.10263
1024.649	25.06153
1025.014	26.06467
1025.378	-8.02032
1025.742	56.13887
1026.107	14.03189
1026.471	32.07495
1026.835	-18.04516
1027.199	-35.08557
1027.562	-5.01175
1027.926	-9.02224
1028.29	-2.00511
1028.654	24.05549
1029.017	26.06417
1029.381	13.03126
1029.744	43.10976
1030.107	48.11357
1030.471	0
1030.834	17.03892
1031.197	22.05326
1031.56	-6.01431
1031.923	47.12153
1032.286	-1.00237
1032.648	33.07915
1033.011	-28.06525
1033.374	67.1569
1033.736	-41.10941
1034.099	0
1034.461	-18.046
1034.823	28.06997
1035.185	50.1258
1035.548	11.02695
1035.91	6.01449
1036.272	2.00459
1036.634	34.08339
1036.995	3.00711
1037.357	-50.12386
1037.719	-18.04431
1038.08	7.01675
1038.442	-7.01679
1038.803	29.06987
1039.165	-5.01274
1039.526	-13.03177
1039.887	-8.01934
1040.248	23.05692
1040.609	-2.00499
1040.97	-6.01481
1041.331	1.00255
1041.692	-42.09976
1042.053	14.0321
1042.413	-7.01649
1042.774	22.05376
1043.134	60.14251
1043.495	39.09818
1043.855	21.05119
1044.215	2.00501
1044.576	-2.00483
1044.936	1.00231
1045.296	25.06264
1045.656	14.03457
1046.016	45.10867
1046.375	17.04147
1046.735	-19.04366
1047.095	-3.00709
1047.454	-10.02146
1047.814	24.05795
1048.173	29.06953
1048.533	-4.00926
1048.892	-15.03643
1049.251	16.04039
1049.61	-27.06739
1049.969	-12.02861
1050.328	23.05013
1050.687	-14.03445
1051.046	1.00246
1051.405	17.04252
1051.763	-11.02559
1052.122	-6.01511
1052.48	15.037
1052.839	-7.01664
1053.197	-16.03812
1053.555	31.07091
1053.914	36.08823
1054.272	25.06069
1054.63	-31.07689
1054.988	-42.10148
1055.345	-29.06348
1055.703	2.00485
1056.061	12.03106
1056.419	10.02605
1056.776	29.07056
1057.134	18.04191
1057.491	22.05533
1057.848	28.06994
1058.206	-28.06681
1058.563	-27.06044
1058.92	-9.02098
1059.277	30.07423
1059.634	-5.01188
1059.991	8.01931
1060.348	16.03639
1060.704	-15.03617
1061.061	65.15048
1061.418	15.03659
1061.774	32.07921
1062.131	-12.03204
1062.487	34.0797
1062.843	2.00503
1063.199	11.02753
1063.555	-8.01874
1063.911	7.0178
1064.267	-4.00844
1064.623	-31.07638
1064.979	45.10666
1065.335	40.09574
1065.691	19.04578
1066.046	23.05083
1066.402	-65.15102
1066.757	7.01779
1067.112	27.0665
1067.468	-21.05023
1067.823	27.06515
1068.178	43.10408
1068.533	2.00489
1068.888	41.09808
1069.243	10.02484
1069.598	-15.03687
1069.952	-74.17074
1070.307	-11.02751
1070.662	-6.01439
1071.016	-16.03631
1071.371	-17.03917
1071.725	22.05288
1072.079	-12.02918
1072.434	-8.01964
1072.788	-18.04339
1073.142	66.16176
1073.496	-26.06254
1073.85	-11.0258
1074.203	-16.03927
1074.557	15.04009
1074.911	43.1027
1075.265	21.04906
1075.618	32.07834
1075.971	10.02395
1076.325	-8.02052
1076.678	-42.09776
1077.031	-8.0183
1077.385	11.02441
1077.738	-24.05496
1078.091	-4.00919
1078.444	-2.00469
1078.796	-1.00247
1079.149	12.03003
1079.502	-41.09849
1079.855	53.12343
1080.207	92.22472
1080.56	11.0286
1080.912	-17.04187
1081.264	-30.07328
1081.617	-26.06422
1081.969	-2.00509
1082.321	-5.01232
1082.673	-64.14931
1083.025	21.05006
1083.377	-201.45441
1083.728	46.10732
1084.08	18.04516
1084.432	-1.00243
1084.783	14.03301
1085.135	5.01262
1085.486	-19.04404
1085.838	9.02232
1086.189	-17.04175
1086.54	28.06709
1086.891	-12.03066
1087.242	-10.0246
1087.593	27.06596
1087.944	35.07939
1088.295	-8.01838
1088.646	3.00733
1088.996	-37.09053
1089.347	1.00247
1089.698	-4.00954
1090.048	19.04957
1090.398	41.09518
1090.749	16.0385
1091.099	17.04296
1091.449	18.04506
1091.799	27.06782
1092.149	-21.05184
1092.499	5.01229
1092.849	10.02557
1093.199	20.05036
1093.548	-25.06087
1093.898	12.0302
1094.248	40.10287
1094.597	-47.12191
1094.947	12.03219
1095.296	-6.01496
1095.645	49.12736
1095.994	18.04346
1096.343	34.08573
1096.692	-12.03182
1097.041	16.04352
1097.39	28.07045
1097.739	14.03658
1098.088	38.10192
1098.437	6.01586
1098.785	35.09451
1099.134	39.10365
1099.482	34.09366
1099.83	25.06591
1100.179	-11.02896
1100.527	41.10901
1100.875	3.00799
1101.223	12.03204
1101.571	1.00278
1101.919	-30.07938
1102.267	-8.0227
1102.615	2.00643
1102.962	15.04827
1103.31	11.03532
1103.658	13.04186
