Data from N2 R8 sample 12_Subt2__0__17-10-13-937.txt Node

Date: Fri Aug 29 17:10:13 PDT 2025
User: uwsun
Spectrometer: HDX01956
Trigger mode: 0
Integration Time (sec): 5.000000E-1
Scans to average: 1
Nonlinearity correction enabled: true
Boxcar width: 0
Storing dark spectrum: false
XAxis mode: Wavelengths
Number of Pixels in Spectrum: 2068
>>>>>Begin Spectral Data<<<<<
194.03	239.6459
194.578	242.74207
195.127	206.6249
195.676	227.68886
196.225	261.66192
196.773	275.72055
197.321	375.94349
197.87	505.13063
198.418	521.1459
198.966	492.09583
199.513	423.90778
200.061	459.99563
200.609	537.21767
201.156	417.77402
201.704	450.97174
202.251	540.21135
202.798	458.0225
203.345	491.03635
203.892	477.0248
204.438	512.03369
204.985	459.9183
205.532	489.0988
206.078	492.02461
206.624	528.08655
207.17	550.06328
207.716	517.05264
208.262	511.83287
208.808	438.91787
209.354	474.97838
209.899	579.23151
210.445	500.04638
210.99	488.99191
211.535	551.08126
212.08	569.09772
212.625	528.11727
213.17	535.14667
213.715	441.82469
214.259	504.99175
214.804	574.18827
215.348	516.99243
215.892	507.02756
216.436	617.17797
216.98	544.00344
217.524	489.97922
218.068	540.15018
218.612	557.18362
219.155	491.98004
219.698	514.03441
220.242	495.05806
220.785	476.94988
221.328	430.93095
221.871	460.01089
222.414	469.00758
222.956	414.86145
223.499	424.82175
224.041	467.93647
224.583	470.86872
225.126	486.90774
225.668	444.93045
226.21	447.97167
226.751	392.73795
227.293	488.95032
227.835	415.87871
228.376	472.93534
228.918	516.11421
229.459	426.91717
230	449.91868
230.541	473.93141
231.082	488.00724
231.622	488.95756
232.163	461.95646
232.704	463.98461
233.244	452.96519
233.784	493.03466
234.324	400.75005
234.864	392.76917
235.404	448.91808
235.944	440.89965
236.484	493.05241
237.023	471.9471
237.563	427.84557
238.102	498.99701
238.641	454.98961
239.18	445.88534
239.719	479.02778
240.258	489.92895
240.797	476.96664
241.335	453.95329
241.874	509.80313
242.412	458.93857
242.95	426.86984
243.488	525.00055
244.026	475.92391
244.564	485.83272
245.102	430.82143
245.64	510.03954
246.177	532.99221
246.715	515.04238
247.252	491.9523
247.789	540.83318
248.326	462.93735
248.863	404.75456
249.4	497.94829
249.936	539.90718
250.473	494.96567
251.009	451.87179
251.546	506.9264
252.082	542.97832
252.618	474.88313
253.154	437.8925
253.69	458.86899
254.226	400.81898
254.761	454.85888
255.297	442.81328
255.832	469.93483
256.367	447.89222
256.903	465.85325
257.438	526.02797
257.972	479.8909
258.507	430.829
259.042	468.84773
259.576	494.87206
260.111	501.96752
260.645	512.91517
261.179	561.06982
261.713	547.99366
262.247	497.9552
262.781	449.78039
263.315	490.00142
263.849	483.01274
264.382	548.03511
264.915	587.11245
265.449	515.03
265.982	524.98407
266.515	508.02842
267.048	552.942
267.58	418.7722
268.113	507.89431
268.646	538.09374
269.178	518.94407
269.71	563.99522
270.243	500.945
270.775	537.13015
271.307	561.10973
271.838	524.03229
272.37	548.10702
272.902	552.0218
273.433	486.87272
273.965	560.1137
274.496	540.10979
275.027	513.0516
275.558	558.1025
276.089	515.03381
276.62	580.21142
277.15	553.12097
277.681	556.9749
278.211	615.21902
278.741	501.89481
279.272	545.00253
279.802	545.11631
280.332	587.10812
280.861	537.05373
281.391	523.95971
281.921	532.04907
282.45	593.20164
282.98	579.23258
283.509	511.93202
284.038	547.00117
284.567	600.12191
285.096	538.05595
285.625	582.04795
286.153	576.07535
286.682	575.04352
287.21	571.09948
287.739	563.06376
288.267	568.09867
288.795	612.30039
289.323	535.99854
289.851	574.06949
290.378	660.14261
290.906	548.05637
291.433	631.24321
291.961	567.00861
292.488	620.22064
293.015	517.97211
293.542	563.13659
294.069	610.17725
294.596	637.24034
295.122	673.23667
295.649	642.08607
296.175	703.31134
296.702	652.23077
297.228	671.26454
297.754	607.05093
298.28	617.07508
298.806	656.2105
299.332	654.08787
299.857	650.11155
300.383	668.31469
300.908	624.1594
301.433	655.21439
301.958	710.23591
302.483	643.23067
303.008	733.37011
303.533	659.33499
304.058	674.20717
304.582	637.13753
305.107	683.35845
305.631	703.19694
306.155	664.15382
306.679	670.16427
307.203	717.22215
307.727	669.18865
308.251	659.23276
308.775	656.15314
309.298	707.23944
309.822	714.34474
310.345	740.27672
310.868	746.29394
311.391	740.33994
311.914	682.26738
312.437	738.21586
312.96	731.23938
313.482	775.30639
314.005	730.33725
314.527	804.52272
315.049	785.43496
315.571	714.108
316.093	802.40382
316.615	784.32554
317.137	788.16773
317.659	835.41622
318.18	839.40462
318.702	887.38035
319.223	882.16293
319.744	823.23278
320.265	829.35983
320.786	835.39561
321.307	862.44757
321.828	924.34284
322.348	872.34705
322.869	895.36129
323.389	890.82216
323.909	930.35661
324.43	949.48584
324.95	916.31556
325.47	930.45302
325.989	942.37927
326.509	918.21556
327.029	993.32127
327.548	1010.32312
328.067	1029.47285
328.587	1020.55007
329.106	1001.32669
329.625	1112.79521
330.144	1053.38315
330.662	1025.35241
331.181	1043.39107
331.7	1088.42328
332.218	1069.23947
332.736	1077.39693
333.255	1063.35716
333.773	1144.45206
334.291	1212.64801
334.808	1096.26405
335.326	1229.37481
335.844	1215.38801
336.361	1249.60925
336.879	1222.38095
337.396	1286.49297
337.913	1229.3361
338.43	1256.29122
338.947	1310.44294
339.464	1264.15704
339.981	1253.36262
340.497	1364.54184
341.014	1267.42231
341.53	1311.24041
342.046	1365.46245
342.562	1451.56517
343.078	1320.3208
343.594	1417.39366
344.11	1530.41041
344.626	1394.49004
345.141	1414.22563
345.657	1523.26284
346.172	1516.38471
346.687	1470.2214
347.202	1465.14661
347.717	1578.32859
348.232	1547.4424
348.747	1521.18265
349.261	1504.99228
349.776	1531.21373
350.29	1506.28382
350.805	1710.39304
351.319	1626.17352
351.833	1586.04451
352.347	1635.15573
352.861	1669.11214
353.374	1672.11109
353.888	1701.21697
354.401	1750.05074
354.915	1701.92313
355.428	1764.2249
355.941	1828.00877
356.454	1826.95711
356.967	1834.06619
357.48	1878.9738
357.993	1879.15679
358.505	1837.0932
359.018	1874.09029
359.53	1942.99417
360.042	1985.77292
360.554	2002.01178
361.066	1885.00037
361.578	1963.67691
362.09	1949.91715
362.602	1992.65133
363.113	1997.77572
363.625	1982.66965
364.136	2078.58461
364.647	1882.66195
365.158	2109.6704
365.669	2131.74098
366.18	2122.67907
366.691	2178.45718
367.201	2072.68634
367.712	2175.47034
368.222	2218.44759
368.733	2143.28018
369.243	2228.26136
369.753	2313.35233
370.263	2398.37826
370.773	2298.48718
371.282	2362.27802
371.792	2315.05766
372.301	2457.14333
372.811	2633.28375
373.32	2532.6537
373.829	2495.85741
374.338	2767.51695
374.847	2748.52209
375.356	2830.47328
375.865	2984.05537
376.373	2987.1105
376.882	3167.25013
377.39	3227.03799
377.898	3150.9491
378.407	3424.66297
378.915	3605.56399
379.423	3709.55647
379.93	3871.51889
380.438	3967.53037
380.946	4098.61954
381.453	4157.71611
381.96	4479.15072
382.468	4520.68674
382.975	5131.62797
383.482	5310.74284
383.989	5409.55543
384.495	5480.05014
385.002	5571.35595
385.509	5947.8485
386.015	6446.64846
386.521	6844.97713
387.028	7046.41485
387.534	7347.81951
388.04	7575.87708
388.546	7418.47827
389.051	7831.52563
389.557	8542.34401
390.063	9728.2711
390.568	9920.08502
391.073	9863.9731
391.578	10270.32022
392.084	10293.83122
392.589	10228.4487
393.093	10756.31234
393.598	12207.28954
394.103	13481.02391
394.607	15047.24759
395.112	16044.41732
395.616	16860.80647
396.12	18077.54356
396.624	19603.84402
397.128	21339.32249
397.632	24031.48757
398.136	26334.54065
398.639	25818.0917
399.143	27598.11664
399.646	27844.49381
400.15	24878.82726
400.653	20124.16724
401.156	13866.23708
401.659	5169.95759
402.162	1054.15589
402.664	0
403.167	0
403.67	0
404.172	0
404.674	0
405.176	0
405.678	0
406.18	0
406.682	0
407.184	0
407.686	0
408.187	0
408.688	0
409.19	0
409.691	0
410.192	0
410.693	0
411.194	435.30976
411.694	4082.94878
412.195	8864.71461
412.696	12089.80453
413.196	12760.96929
413.696	12863.67595
414.196	13703.56671
414.696	17261.84252
415.196	21764.24417
415.696	29583.19008
416.196	36460.31858
416.695	40057.39798
417.195	34031.24203
417.694	32383.717
418.194	30741.23793
418.693	28180.79055
419.192	27148.54033
419.691	26740.13069
420.19	26319.14014
420.688	25534.1017
421.187	24763.1846
421.685	23505.23745
422.184	21520.65471
422.682	18801.0971
423.18	15537.78355
423.678	13683.40483
424.176	12495.73071
424.674	11744.54484
425.172	11425.8123
425.669	10991.59508
426.167	10346.32422
426.664	9295.98199
427.161	8428.23946
427.659	7895.05886
428.156	7225.35283
428.652	6773.10107
429.149	6462.50076
429.646	6149.19692
430.143	5881.94793
430.639	5597.91206
431.135	5215.6641
431.632	5056.44639
432.128	4638.78569
432.624	4281.54985
433.12	3841.53726
433.616	3887.53215
434.111	3660.53822
434.607	3541.60683
435.103	3551.58353
435.598	3502.61364
436.093	3380.87319
436.588	3262.95948
437.083	3052.16514
437.578	2891.37261
438.073	2609.70061
438.568	2671.83089
439.062	2595.56864
439.557	2442.99546
440.051	2415.91642
440.546	2186.06419
441.04	2171.25236
441.534	2239.45317
442.028	2148.39706
442.522	2075.42618
443.015	1999.26124
443.509	2107.56213
444.002	1902.6259
444.496	1896.37584
444.989	1920.67909
445.482	1883.74078
445.975	1821.49119
446.468	1817.41343
446.961	1723.45138
447.454	1670.61446
447.947	1559.7122
448.439	1620.83732
448.931	1562.63429
449.424	1640.97621
449.916	1592.8774
450.408	1484.68929
450.9	1520.87085
451.392	1480.99148
451.884	1531.81283
452.375	1413.95374
452.867	1437.82634
453.358	1314.77411
453.849	1339.67947
454.341	1381.80885
454.832	1302.71927
455.323	1333.98546
455.814	1382.90282
456.304	1348.91374
456.795	1304.89987
457.285	1321.89625
457.776	1314.96836
458.266	1225.98364
458.756	1149.01537
459.247	1152.97595
459.737	1096.96318
460.226	1098.8746
460.716	1082.99765
461.206	1031.00189
461.695	1056.12363
462.185	1022.99145
462.674	1015.96307
463.163	989.89158
463.653	977.8075
464.142	957.01997
464.63	910.03977
465.119	950.96373
465.608	901.93748
466.096	908.88419
466.585	881.9712
467.073	894.04833
467.561	918.08067
468.05	847.97933
468.538	885.11125
469.026	798.99632
469.513	766.79441
470.001	783.90965
470.489	845.02896
470.976	781.9562
471.463	779.08208
471.951	735.0562
472.438	667.88779
472.925	595.80602
473.412	704.02127
473.899	686.91163
474.385	653.96967
474.872	582.81774
475.359	606.90934
475.845	562.68655
476.331	549.73723
476.817	537.84491
477.303	521.77292
477.789	533.83278
478.275	456.75632
478.761	506.80831
479.247	466.69187
479.732	507.84259
480.218	475.85449
480.703	453.7765
481.188	435.62365
481.673	455.70792
482.158	385.54914
482.643	428.78119
483.128	351.56299
483.612	409.67402
484.097	378.6735
484.581	375.62966
485.066	354.62681
485.55	293.46592
486.034	314.49087
486.518	307.52957
487.002	325.5879
487.486	317.57782
487.969	337.61242
488.453	295.57077
488.936	266.45234
489.42	295.49151
489.903	295.57569
490.386	290.34281
490.869	251.42118
491.352	289.5538
491.835	264.41774
492.318	220.38688
492.8	226.36173
493.283	257.51488
493.765	206.40382
494.247	219.41012
494.73	213.37231
495.212	212.4148
495.694	169.31695
496.175	141.26927
496.657	255.48274
497.139	204.28056
497.62	145.27839
498.102	159.32253
498.583	198.40614
499.064	110.20075
499.545	119.22417
500.026	157.28674
500.507	134.25709
500.988	166.34142
501.469	153.3166
501.949	142.29351
502.43	17.03423
502.91	66.11369
503.39	151.31722
503.87	72.14234
504.35	144.28495
504.83	115.2094
505.31	82.16797
505.79	37.07547
506.269	104.20561
506.749	62.11987
507.228	46.09197
507.707	123.22783
508.187	84.17176
508.666	41.08629
509.145	60.1194
509.623	9.01828
510.102	52.1085
510.581	77.16019
511.059	25.05414
511.538	57.12803
512.016	59.12154
512.494	72.15083
512.972	63.12955
513.45	-39.07868
513.928	51.10667
514.406	-19.03972
514.884	35.07832
515.361	56.11591
515.839	-4.00796
516.316	43.08978
516.793	50.11062
517.27	59.12477
517.747	44.0984
518.224	49.09876
518.701	33.06406
519.178	-15.03268
519.654	45.09391
520.131	8.01743
520.607	36.07861
521.083	20.04004
521.56	-15.03137
522.036	49.09394
522.512	44.09568
522.987	-12.02509
523.463	-13.0274
523.939	28.06068
524.414	53.10751
524.89	13.02729
525.365	32.06365
525.84	-69.14636
526.315	2.00427
526.79	24.04774
527.265	-13.02638
527.74	-33.07193
528.215	-11.0231
528.689	-29.05729
529.164	15.0289
529.638	-17.03922
530.112	-58.12279
530.587	-24.04549
531.061	-19.04083
531.534	6.013
532.008	-21.04511
532.482	-14.02882
532.956	-16.0364
533.429	-49.10725
533.903	-1.00198
534.376	-2.00395
534.849	3.00622
535.322	-4.00845
535.795	6.01312
536.268	-66.14382
536.741	4.00861
537.213	47.09639
537.686	-60.13213
538.158	-54.10891
538.631	39.08464
539.103	-39.07857
539.575	-5.00936
540.047	-35.0695
540.519	23.04921
540.991	43.09396
541.463	-13.02836
541.934	-23.04742
542.406	-46.09909
542.877	-55.11264
543.348	40.0862
543.82	17.03743
544.291	26.05437
544.762	-11.02337
545.233	-17.03828
545.703	-6.01185
546.174	27.05587
546.645	-43.09197
547.115	51.10842
547.585	34.0693
548.056	-6.01281
548.526	11.02281
548.996	80.16833
549.466	139.2942
549.935	69.14157
550.405	74.14012
550.875	107.21804
551.344	91.18923
551.814	86.17106
552.283	124.23147
552.752	89.17756
553.221	43.08056
553.69	94.17877
554.159	121.25263
554.628	128.2413
555.096	137.29543
555.565	118.2242
556.033	155.3124
556.502	75.15874
556.97	51.09948
557.438	33.06948
557.906	64.13484
558.374	43.08802
558.842	17.03649
559.31	65.12974
559.777	-29.06353
560.245	33.07006
560.712	-10.02112
561.18	4.008
561.647	-34.06962
562.114	6.01239
562.581	21.04699
563.048	-13.02749
563.514	21.04662
563.981	-42.0888
564.448	-35.07236
564.914	31.06573
565.381	38.07876
565.847	45.09579
566.313	25.05312
566.779	73.14862
567.245	12.02568
567.711	50.10854
568.176	45.09145
568.642	51.11558
569.108	17.03807
569.573	121.25543
570.038	120.22544
570.504	45.09116
570.969	95.21373
571.434	96.18774
571.899	129.2728
572.363	126.25518
572.828	219.43794
573.293	161.32584
573.757	193.38809
574.222	183.35627
574.686	109.21665
575.15	165.34449
575.614	201.40176
576.078	185.37956
576.542	249.48962
577.006	263.5091
577.469	254.54642
577.933	162.31772
578.396	264.54176
578.86	240.49051
579.323	207.42949
579.786	194.36591
580.249	141.28366
580.712	163.3524
581.175	182.39457
581.637	223.44966
582.1	228.43722
582.563	206.38892
583.025	146.31355
583.487	242.42155
583.95	177.33327
584.412	241.43995
584.874	209.4443
585.336	169.35378
585.797	182.34648
586.259	208.43205
586.721	146.30421
587.182	207.42796
587.643	208.41546
588.105	153.32228
588.566	185.34456
589.027	157.33463
589.488	109.22363
589.949	200.42748
590.41	127.22011
590.87	184.37298
591.331	147.28414
591.791	198.40173
592.252	107.21903
592.712	185.39362
593.172	154.30846
593.632	203.39333
594.092	128.2559
594.552	160.30638
595.011	131.26804
595.471	185.36617
595.931	156.30942
596.39	166.3522
596.849	148.30715
597.308	192.3689
597.768	151.34152
598.227	217.45989
598.685	208.4226
599.144	213.43779
599.603	197.41221
600.062	188.34728
600.52	224.4362
600.978	232.4819
601.437	292.5781
601.895	250.46043
602.353	294.56325
602.811	296.56544
603.269	344.70273
603.727	303.62446
604.184	282.54653
604.642	344.71899
605.099	325.64509
605.557	385.79451
606.014	436.77486
606.471	432.8973
606.928	432.76018
607.385	461.92102
607.842	612.10941
608.299	670.22713
608.755	653.24261
609.212	664.14773
609.668	688.17039
610.125	774.44012
610.581	801.46869
611.037	806.41232
611.493	764.40529
611.949	713.34515
612.405	780.1727
612.861	819.48594
613.316	815.49217
613.772	835.45905
614.227	798.4496
614.683	921.45936
615.138	802.4436
615.593	914.58867
616.048	889.53818
616.503	982.80719
616.958	936.77317
617.412	883.58852
617.867	887.46661
618.321	966.46065
618.776	940.55069
619.23	942.66337
619.684	1048.72955
620.138	1017.75568
620.592	929.7227
621.046	945.68559
621.5	942.74642
621.954	949.61799
622.407	908.54414
622.861	891.67999
623.314	918.60237
623.768	907.62764
624.221	904.33798
624.674	886.58295
625.127	925.66936
625.58	937.64808
626.033	947.60332
626.485	876.64561
626.938	928.71956
627.39	945.69946
627.843	901.63174
628.295	952.70291
628.747	1002.83027
629.199	937.65409
629.651	941.65858
630.103	964.70851
630.555	1021.62961
631.006	1067.90379
631.458	1023.85886
631.909	1057.85976
632.361	1056.8875
632.812	1137.9646
633.263	1148.82657
633.714	1235.90727
634.165	1252.24571
634.616	1294.24231
635.067	1392.16377
635.518	1383.36151
635.968	1420.92663
636.419	1476.18462
636.869	1577.55684
637.319	1644.514
637.769	1659.41547
638.219	1771.75251
638.669	1830.77945
639.119	1906.93891
639.569	1985.94054
640.019	2056.81459
640.468	2129.70303
640.918	2278.10901
641.367	2356.80138
641.816	2496.81995
642.265	2511.9855
642.714	2629.00879
643.163	2740.99004
643.612	2771.20507
644.061	2846.56206
644.51	2958.93611
644.958	3089.72906
645.406	3205.19614
645.855	3317.34806
646.303	3321.05784
646.751	3293.88397
647.199	3434.8562
647.647	3491.90631
648.095	3489.88607
648.543	3617.22883
648.99	3641.10363
649.438	3655.01757
649.885	3716.34089
650.333	3632.94226
650.78	3711.16759
651.227	3708.22113
651.674	3562.84917
652.121	3618.26086
652.568	3694.22028
653.015	3690.53129
653.461	3639.10158
653.908	3612.98886
654.354	3480.1944
654.801	3486.06293
655.247	3480.68758
655.693	3465.81545
656.139	3454.23021
656.585	3386.25374
657.031	3285.07823
657.477	3243.66093
657.922	3205.03287
658.368	3224.47986
658.813	3190.12541
659.259	3059.30792
659.704	3110.1286
660.149	3046.13972
660.594	3019.25581
661.039	2858.02685
661.484	2955.31263
661.929	2865.1828
662.373	2858.62266
662.818	2847.52579
663.262	2816.34103
663.707	2746.6446
664.151	2698.42282
664.595	2697.34326
665.039	2715.5406
665.483	2631.65041
665.927	2752.23517
666.371	2679.10961
666.814	2734.31505
667.258	2652.23002
667.701	2750.79642
668.145	2745.5654
668.588	2608.44683
669.031	2658.20659
669.474	2669.35607
669.917	2679.92417
670.36	2732.54191
670.803	2691.38516
671.245	2679.68474
671.688	2666.44324
672.13	2571.96418
672.573	2670.68718
673.015	2644.34868
673.457	2629.83996
673.899	2592.39171
674.341	2598.36902
674.783	2589.32499
675.225	2511.44565
675.666	2481.30302
676.108	2517.82523
676.549	2560.26979
676.991	2498.89301
677.432	2523.43904
677.873	2460.12195
678.314	2371.24922
678.755	2405.35754
679.196	2408.05321
679.637	2284.33569
680.078	2311.1365
680.518	2303.11735
680.959	2191.18616
681.399	2252.3884
681.839	2159.24656
682.28	2078.25558
682.72	2091.92654
683.16	2021.26101
683.6	2002.87371
684.039	1986.50846
684.479	1949.1416
684.919	1872.81595
685.358	1936.29098
685.798	1861.36764
686.237	1865.0229
686.676	1835.83692
687.115	1819.867
687.554	1807.89793
687.993	1756.59537
688.432	1685.65348
688.871	1629.57753
689.309	1677.80649
689.748	1652.33573
690.186	1669.80654
690.625	1586.65234
691.063	1570.7177
691.501	1566.82584
691.939	1584.8743
692.377	1507.71
692.815	1525.65941
693.253	1453.60586
693.69	1450.31732
694.128	1406.56799
694.565	1395.5103
695.003	1395.71283
695.44	1365.42748
695.877	1322.35611
696.314	1395.20675
696.751	1378.35981
697.188	1274.25394
697.625	1348.34739
698.061	1279.38377
698.498	1327.47593
698.934	1225.32658
699.371	1156.16817
699.807	1222.27218
700.243	1084.12434
700.679	1178.1028
701.115	1147.16439
701.551	1057.03587
701.987	1104.99376
702.422	1080.08573
702.858	994.96832
703.294	1029.90853
703.729	976.00113
704.164	1025.03816
704.599	991.81787
705.035	938.75021
705.47	918.8921
705.904	903.77919
706.339	953.85852
706.774	855.71446
707.209	857.68686
707.643	864.77912
708.078	850.78239
708.512	789.72448
708.946	800.66862
709.38	810.66335
709.814	815.60709
710.248	786.67416
710.682	723.5182
711.116	732.53611
711.549	739.69243
711.983	710.44927
712.416	738.53714
712.85	762.67209
713.283	638.35806
713.716	745.65633
714.149	653.39815
714.582	594.20724
715.015	657.48166
715.448	646.46957
715.881	627.23242
716.313	590.25521
716.746	589.25879
717.178	584.27796
717.61	560.30399
718.043	545.24983
718.475	568.25858
718.907	568.31953
719.339	469.98956
719.77	450.99833
720.202	490.15243
720.634	490.10577
721.065	476.04962
721.497	509.15456
721.928	452.0377
722.359	436.98657
722.79	484.07531
723.221	481.12837
723.652	525.25423
724.083	440.9298
724.514	424.91718
724.945	400.88965
725.375	409.89475
725.806	412.97348
726.236	443.06612
726.666	389.87397
727.096	432.99816
727.526	390.94039
727.956	345.74966
728.386	385.90108
728.816	357.86263
729.246	379.87487
729.675	342.80563
730.105	408.95021
730.534	365.81401
730.964	381.91713
731.393	408.9603
731.822	366.8922
732.251	372.89971
732.68	387.86627
733.109	342.8072
733.537	334.77332
733.966	344.81789
734.395	324.71885
734.823	393.84013
735.251	347.79943
735.68	383.91286
736.108	348.84295
736.536	340.76845
736.964	315.70339
737.392	361.86242
737.82	357.8182
738.247	335.76963
738.675	386.8763
739.102	319.76618
739.53	379.9175
739.957	373.91383
740.384	417.97212
740.811	359.86942
741.238	346.80776
741.665	335.74372
742.092	363.82694
742.519	348.82294
742.945	343.78801
743.372	361.85252
743.798	356.87462
744.225	379.8557
744.651	355.85101
745.077	364.86543
745.503	342.79905
745.929	374.85319
746.355	430.00598
746.781	371.87545
747.207	379.84278
747.632	355.82502
748.058	449.04867
748.483	428.92543
748.908	378.89283
749.334	408.94685
749.759	403.89725
750.184	391.88135
750.609	422.97739
751.033	464.02226
751.458	465.97122
751.883	461.06663
752.307	385.8586
752.732	421.98993
753.156	459.05779
753.58	491.08027
754.005	501.17948
754.429	448.98439
754.853	471.08593
755.277	523.13779
755.7	479.10484
756.124	473.09185
756.548	491.0762
756.971	558.24614
757.394	524.24683
757.818	447.07738
758.241	546.27235
758.664	520.21169
759.087	462.95747
759.51	524.20184
759.933	533.17626
760.356	544.28258
760.778	543.22432
761.201	580.28414
761.623	577.2751
762.046	583.2567
762.468	596.29821
762.89	639.41991
763.312	602.3318
763.734	531.17331
764.156	578.29989
764.578	599.2437
765	546.22031
765.421	569.31951
765.843	631.49854
766.264	667.43923
766.686	600.36868
767.107	579.27526
767.528	537.24473
767.949	530.24132
768.37	590.31444
768.791	605.32369
769.212	555.27482
769.632	534.13689
770.053	573.38153
770.473	577.27616
770.894	583.3296
771.314	578.25469
771.734	518.10755
772.154	572.34241
772.575	562.18415
772.994	458.96656
773.414	567.23992
773.834	548.25496
774.254	498.12614
774.673	558.2405
775.093	518.17952
775.512	442.01672
775.931	518.21081
776.351	495.13637
776.77	486.09896
777.189	501.09769
777.607	473.12338
778.026	475.09821
778.445	474.10045
778.864	522.23446
779.282	499.10662
779.701	512.19021
780.119	472.10787
780.537	457.06154
780.955	459.08882
781.373	481.10197
781.791	426.89312
782.209	465.99402
782.627	463.13783
783.045	451.9641
783.462	412.99154
783.88	438.06023
784.297	429.0101
784.715	433.04043
785.132	407.92639
785.549	403.94983
785.966	425.00105
786.383	410.9481
786.8	413.89892
787.217	390.87101
787.633	368.87056
788.05	437.9697
788.466	443.97402
788.883	392.94414
789.299	416.93941
789.715	370.85155
790.131	379.89155
790.547	421.98684
790.963	365.85929
791.379	393.93776
791.795	370.79731
792.21	375.82766
792.626	390.87137
793.041	407.94434
793.457	357.83785
793.872	312.70144
794.287	304.69465
794.702	306.72309
795.117	319.75774
795.532	314.75318
795.947	371.84481
796.362	365.82544
796.776	323.72244
797.191	297.69788
797.605	251.56975
798.02	301.70231
798.434	290.6193
798.848	273.64824
799.262	265.63482
799.676	322.75056
800.09	281.66569
800.504	263.61656
800.918	250.56022
801.331	264.66988
801.745	243.54061
802.158	294.70602
802.572	264.61854
802.985	315.72803
803.398	243.56165
803.811	270.67072
804.224	249.60058
804.637	195.4543
805.05	227.5113
805.462	237.56537
805.875	153.39094
806.288	187.44166
806.7	216.52916
807.112	174.39618
807.525	191.46157
807.937	141.34434
808.349	222.54143
808.761	166.40169
809.173	186.44159
809.584	192.4646
809.996	160.38557
810.408	165.41878
810.819	134.31176
811.231	130.33235
811.642	176.41141
812.053	246.56576
812.464	293.6675
812.875	311.76113
813.286	204.51288
813.697	238.53947
814.108	184.44055
814.519	129.28474
814.929	159.39939
815.34	89.21533
815.75	117.29485
816.16	155.38065
816.571	157.40172
816.981	115.26961
817.391	120.28732
817.801	102.25193
818.211	141.33199
818.62	88.21127
819.03	127.30819
819.44	151.38894
819.849	136.33874
820.259	110.27964
820.668	68.16734
821.077	77.19099
821.486	119.28422
821.895	125.30595
822.304	107.28163
822.713	80.18891
823.122	73.18212
823.531	111.26125
823.939	66.16098
824.348	84.20381
824.756	102.25405
825.164	82.20595
825.573	73.18305
825.981	68.16876
826.389	105.26214
826.797	39.09821
827.205	52.11984
827.612	65.16057
828.02	42.09918
828.428	68.17317
828.835	82.21521
829.243	91.2161
829.65	54.1346
830.057	59.1435
830.464	80.19454
830.871	90.21475
831.278	54.13092
831.685	53.1188
832.092	63.15443
832.499	37.08157
832.905	73.18463
833.312	56.12818
833.718	86.21358
834.124	61.13971
834.531	56.14146
834.937	49.12613
835.343	64.15458
835.749	81.18886
836.155	37.09732
836.561	58.14289
836.966	32.07878
837.372	80.20309
837.777	57.14221
838.183	54.12051
838.588	39.0973
838.993	54.13181
839.399	22.05422
839.804	-11.02718
840.209	54.13767
840.613	25.05613
841.018	33.08403
841.423	54.13873
841.828	44.11166
842.232	90.22196
842.637	54.12772
843.041	8.0207
843.445	59.1481
843.849	29.07225
844.253	20.04796
844.657	0
845.061	34.07767
845.465	39.09464
845.869	27.06323
846.272	31.07593
846.676	-5.01225
847.079	20.05122
847.483	76.18916
847.886	72.17495
848.289	34.0911
848.692	38.09664
849.095	27.0653
849.498	106.2666
849.901	0
850.304	33.07933
850.707	33.08456
851.109	39.09909
851.512	15.03718
851.914	-1.00255
852.316	50.1267
852.718	-3.00783
853.121	27.06658
853.523	3.00709
853.925	-3.00791
854.326	-12.03039
854.728	0
855.13	17.04415
855.531	24.05775
855.933	25.06044
856.334	12.03017
856.736	-11.02501
857.137	-6.01414
857.538	47.1184
857.939	20.04976
858.34	15.03687
858.741	52.13606
859.142	18.04359
859.542	32.08478
859.943	53.13184
860.343	-3.00751
860.744	27.06628
861.144	26.06382
861.544	-5.01216
861.945	28.07174
862.345	3.00741
862.745	44.10963
863.145	70.16703
863.544	-8.02045
863.944	39.09251
864.344	47.117
864.743	31.07731
865.143	29.07486
865.542	-11.02587
865.941	-1.0025
866.34	51.12237
866.74	32.08622
867.139	-15.03641
867.537	20.05129
867.936	-27.06604
868.335	20.05122
868.734	7.01804
869.132	24.05615
869.531	36.08744
869.929	14.0322
870.327	-3.00727
870.726	12.03017
871.124	24.05648
871.522	23.05894
871.92	45.11125
872.318	30.07372
872.715	55.13622
873.113	34.08321
873.511	-10.02521
873.908	-24.06144
874.306	11.02758
874.703	42.10537
875.1	60.15339
875.497	-4.0097
875.894	-35.08719
876.291	-2.00496
876.688	43.11115
877.085	16.03869
877.482	32.08046
877.878	-16.03904
878.275	7.01794
878.671	4.00901
879.068	37.08965
879.464	41.09938
879.86	1.00239
880.256	65.16016
880.652	35.08934
881.048	27.06726
881.444	23.0551
881.84	12.03073
882.236	30.07578
882.631	33.08134
883.027	44.1068
883.422	16.04119
883.817	18.04553
884.213	21.05421
884.608	-3.00744
885.003	32.0775
885.398	20.05038
885.793	17.04296
886.188	-27.06812
886.582	41.10543
886.977	-1.0024
887.371	-13.03328
887.766	-7.0176
888.16	14.0352
888.554	50.12377
888.949	30.07567
889.343	27.06631
889.737	-39.10551
890.131	5.01265
890.525	14.03606
890.918	4.01016
891.312	20.04818
891.706	21.0554
892.099	55.13994
892.492	6.01309
892.886	41.10058
893.279	15.03848
893.672	27.06906
894.065	-15.03803
894.458	18.04557
894.851	41.10073
895.244	14.03601
895.637	6.01459
896.029	-5.01236
896.422	23.05653
896.814	20.05003
897.206	-18.04346
897.599	86.21148
897.991	4.00976
898.383	6.01431
898.775	12.02732
899.167	-28.06635
899.559	35.0889
899.951	23.05456
900.342	54.13733
900.734	-46.1162
901.125	48.12606
901.517	-3.00744
901.908	44.10571
902.299	10.02464
902.69	-12.02868
903.082	30.07298
903.473	-9.02181
903.863	19.04877
904.254	-19.04474
904.645	57.14169
905.036	-49.12092
905.426	19.04381
905.817	20.04938
906.207	-5.01205
906.597	17.04004
906.987	-2.00523
907.378	2.0051
907.768	9.02397
908.158	31.07591
908.547	7.01823
908.937	16.04132
909.327	18.044
909.717	60.15215
910.106	6.01454
910.495	38.09513
910.885	51.12922
911.274	10.02519
911.663	22.05615
912.052	15.03727
912.441	31.07913
912.83	1.00232
913.219	53.1387
913.608	24.0591
913.997	-16.0406
914.385	32.07677
914.774	43.1049
915.162	-4.00964
915.55	42.10183
915.939	28.07098
916.327	75.18643
916.715	4.01028
917.103	61.14992
917.491	37.09181
917.878	30.07407
918.266	0
918.654	41.10495
919.041	-14.03696
919.429	-13.03107
919.816	-16.04105
920.203	28.06822
920.591	27.06726
920.978	49.12007
921.365	45.1182
921.752	20.04798
922.139	3.00658
922.525	11.02662
922.912	19.04663
923.299	14.03504
923.685	31.08115
924.072	30.06949
924.458	29.07214
924.844	-1.0025
925.231	10.02347
925.617	4.01026
926.003	28.07186
926.389	-2.00509
926.774	10.02553
927.16	32.07976
927.546	43.10991
927.931	60.1495
928.317	34.0786
928.702	39.09251
929.088	-50.12059
929.473	-2.00514
929.858	-33.08104
930.243	20.04829
930.628	-23.05674
931.013	-9.02255
931.398	22.0509
931.783	54.14211
932.167	19.04673
932.552	79.19695
932.937	32.0797
933.321	-17.04318
933.705	12.03046
934.09	73.18377
934.474	53.12586
934.858	9.02351
935.242	-26.06118
935.626	-3.00775
936.009	9.0241
936.393	24.06136
936.777	15.03865
937.16	39.10168
937.544	34.08038
937.927	19.04848
938.311	54.13176
938.694	25.0664
939.077	26.06254
939.46	38.09355
939.843	49.1023
940.226	17.04387
940.609	14.03238
940.991	-39.10084
941.374	-32.07941
941.757	29.07185
942.139	28.06319
942.522	-19.04552
942.904	-12.02919
943.286	77.19474
943.668	-1.00261
944.05	45.11096
944.432	8.0199
944.814	3.00745
945.196	-17.04195
945.578	-15.0361
945.959	38.08928
946.341	96.23371
946.722	21.04958
947.104	40.09581
947.485	24.05615
947.866	-5.01272
948.247	4.01018
948.628	29.07104
949.009	0
949.39	-1.00251
949.771	40.09325
950.152	-13.03228
950.532	-46.11516
950.913	0
951.293	-13.03548
951.674	32.07767
952.054	-18.04516
952.434	25.06235
952.814	35.08353
953.194	55.14383
953.574	21.05201
953.954	11.02632
954.334	38.09492
954.714	-18.04443
955.093	18.04452
955.473	-6.01516
955.853	38.09858
956.232	28.07701
956.611	44.10567
956.99	3.0076
957.37	13.03335
957.749	34.08138
958.128	-5.01272
958.506	23.05994
958.885	34.08607
959.264	7.01729
959.643	9.02065
960.021	-9.02254
960.4	-16.03676
960.778	15.03719
961.156	18.04539
961.535	40.09343
961.913	-10.02368
962.291	-8.02073
962.669	19.0484
963.047	20.05131
963.424	3.00772
963.802	-2.00497
964.18	58.14656
964.557	29.06709
964.935	25.05953
965.312	16.04191
965.69	36.09038
966.067	38.09275
966.444	-2.00498
966.821	34.0879
967.198	25.06094
967.575	26.06422
967.952	39.09211
968.329	-33.08155
968.705	64.13685
969.082	27.06952
969.458	-31.07551
969.835	19.04652
970.211	20.0516
970.587	26.06502
970.963	11.02841
971.339	22.05772
971.715	18.04521
972.091	2.00497
972.467	9.02262
972.843	9.0225
973.219	38.09147
973.594	2.00527
973.97	42.10014
974.345	-11.02663
974.721	16.039
975.096	-30.07369
975.471	13.03106
975.846	48.11537
976.221	16.04088
976.596	26.06261
976.971	27.06695
977.346	-7.01648
977.72	26.06652
978.095	5.01302
978.469	1.00241
978.844	62.15555
979.218	-46.11228
979.593	-4.00968
979.967	6.01474
980.341	-15.03499
980.715	0
981.089	12.03025
981.463	-19.04423
981.837	-26.06443
982.21	14.03282
982.584	14.03404
982.957	-1.00252
983.331	12.02858
983.704	12.02969
984.078	-7.01743
984.451	69.17177
984.824	-11.02709
985.197	32.07799
985.57	37.09301
985.943	7.01743
986.316	56.13745
986.688	-12.02928
987.061	3.0071
987.434	34.08884
987.806	-7.01716
988.179	-17.04063
988.551	29.07384
988.923	33.08152
989.295	19.04775
989.667	-28.06789
990.039	13.03234
990.411	-39.09136
990.783	12.02784
991.155	-32.07808
991.527	67.16448
991.898	14.03511
992.27	15.03734
992.641	37.09304
993.012	30.07087
993.384	-18.04349
993.755	1.00257
994.126	-35.08554
994.497	24.05919
994.868	22.05082
995.239	-11.02696
995.61	-3.00762
995.98	-13.03195
996.351	-3.0075
996.722	-32.07542
997.092	4.00956
997.462	-23.05449
997.833	27.06429
998.203	13.03174
998.573	-26.06563
998.943	8.01891
999.313	33.07933
999.683	-17.04132
1000.053	42.09679
1000.423	18.044
1000.792	31.0806
1001.162	3.00745
1001.531	-19.04744
1001.901	10.02511
1002.27	-27.06132
1002.639	13.03343
1003.009	21.05021
1003.378	26.06675
1003.747	10.02381
1004.116	-40.09734
1004.485	31.07435
1004.853	33.08385
1005.222	-4.01018
1005.591	62.14686
1005.959	-37.08484
1006.328	-32.07322
1006.696	12.02915
1007.064	10.02533
1007.433	48.11999
1007.801	17.04198
1008.169	10.02543
1008.537	43.09535
1008.905	-18.04249
1009.273	19.0472
1009.64	-27.06535
1010.008	14.0336
1010.375	39.09489
1010.743	103.23533
1011.11	1.00239
1011.478	-8.02001
1011.845	6.01423
1012.212	-38.08754
1012.579	-36.08977
1012.946	-2.00481
1013.313	43.10247
1013.68	11.02492
1014.047	-25.06042
1014.414	7.01667
1014.78	-9.0226
1015.147	20.04864
1015.513	2.00486
1015.88	67.17078
1016.246	61.15025
1016.612	62.14157
1016.978	53.12977
1017.344	-18.04503
1017.71	91.22017
1018.076	-3.00715
1018.442	30.07742
1018.808	-2.00504
1019.174	38.09551
1019.539	78.17853
1019.905	-5.01191
1020.27	-8.01995
1020.636	31.07458
1021.001	33.07924
1021.366	-33.08047
1021.731	22.05684
1022.096	7.01779
1022.461	-16.03834
1022.826	2.0048
1023.191	-28.07441
1023.556	7.01654
1023.92	40.09851
1024.285	18.04418
1024.649	-8.01981
1025.014	17.04235
1025.378	12.03037
1025.742	58.14378
1026.107	5.01141
1026.471	32.07495
1026.835	17.04238
1027.199	-21.05121
1027.562	13.03043
1027.926	0
1028.29	2.0051
1028.654	13.03012
1029.017	18.04449
1029.381	-7.0169
1029.744	25.06402
1030.107	36.08537
1030.471	6.01448
1030.834	13.02979
1031.197	23.05567
1031.56	-26.06223
1031.923	10.02602
1032.286	43.10109
1032.648	11.02649
1033.011	-31.07228
1033.374	40.09416
1033.736	-26.06921
1034.099	23.05632
1034.461	-10.02552
1034.823	-16.0403
1035.185	11.02787
1035.548	12.0294
1035.91	-1.00242
1036.272	26.05944
1036.634	26.06386
1036.995	12.0284
1037.357	10.0245
1037.719	9.02205
1038.08	1.0024
1038.442	3.00718
1038.803	5.0121
1039.165	3.00763
1039.526	9.02191
1039.887	1.00241
1040.248	-35.08754
1040.609	-15.03749
1040.97	17.04178
1041.331	19.04834
1041.692	-25.05918
1042.053	33.07537
1042.413	24.05619
1042.774	47.11431
1043.134	36.0859
1043.495	-1.00254
1043.855	38.09234
1044.215	16.03994
1044.576	-50.12177
1044.936	20.04611
1045.296	61.15185
1045.656	22.05424
1046.016	38.09189
1046.375	7.01711
1046.735	-29.06677
1047.095	7.01651
1047.454	-16.03438
1047.814	-2.00485
1048.173	62.14771
1048.533	19.04378
1048.892	-21.05106
1049.251	30.07554
1049.61	7.01736
1049.969	-6.01429
1050.328	30.06529
1050.687	-22.05422
1051.046	-6.01475
1051.405	26.06492
1051.763	-65.15281
1052.122	4.01005
1052.48	4.00989
1052.839	-12.02856
1053.197	-3.00713
1053.555	70.15887
1053.914	39.09553
1054.272	5.01218
1054.63	1.00247
1054.988	-39.09418
1055.345	-10.0218
1055.703	8.0194
1056.061	-39.10182
1056.419	20.05201
1056.776	33.08023
1057.134	-11.02576
1057.491	26.06535
1057.848	7.01755
1058.206	10.02369
1058.563	31.06857
1058.92	43.09919
1059.277	55.13547
1059.634	33.07785
1059.991	1.00242
1060.348	-72.16665
1060.704	-10.02409
1061.061	23.05369
1061.418	-28.06885
1061.774	0
1062.131	-7.01867
1062.487	8.01885
1062.843	15.03761
1063.199	-16.04024
1063.555	-20.04695
1063.911	-8.0204
1064.267	4.00842
1064.623	-28.06895
1064.979	46.10901
1065.335	39.09336
1065.691	36.08646
1066.046	-14.03118
1066.402	-25.05763
1066.757	30.07594
1067.112	30.07385
1067.468	-42.10087
1067.823	8.01937
1068.178	-4.00977
1068.533	-18.04416
1068.888	33.07906
1069.243	35.08656
1069.598	-6.01472
1069.952	-35.08013
1070.307	-27.06773
1070.662	-11.0264
1071.016	-52.11888
1071.371	-14.03224
1071.725	15.0361
1072.079	-14.03406
1072.434	-15.03687
1072.788	-1.0024
1073.142	12.0297
1073.496	-56.13546
1073.85	-20.04699
1074.203	-7.01715
1074.557	68.18016
1074.911	12.02883
1075.265	-15.03529
1075.618	50.122
1075.971	30.07158
1076.325	-11.02824
1076.678	-34.07901
1077.031	-50.11537
1077.385	-5.01113
1077.738	-14.03199
1078.091	-55.12763
1078.444	24.05597
1078.796	-9.02231
1079.149	17.0425
1079.502	-37.08881
1079.855	-26.06149
1080.207	8.01985
1080.56	-3.00782
1080.912	19.04649
1081.264	-4.00972
1081.617	-4.00984
1081.969	22.05573
1082.321	15.03684
1082.673	-50.11633
1083.025	-30.07221
1083.377	-236.53733
1083.728	6.01411
1084.08	23.05765
1084.432	17.04122
1084.783	51.11938
1085.135	24.06039
1085.486	-49.11425
1085.838	5.01241
1086.189	-18.04421
1086.54	26.06232
1086.891	-15.03834
1087.242	15.03673
1087.593	-14.03446
1087.944	4.00913
1088.295	17.03887
1088.646	-37.09107
1088.996	5.01214
1089.347	22.05422
1089.698	-39.09368
1090.048	26.06775
1090.398	21.04895
1090.749	-5.01208
1091.099	-24.0611
1091.449	36.08983
1091.799	-10.02529
1092.149	-66.16427
1092.499	30.07339
1092.849	-13.03338
1093.199	-3.00758
1093.548	16.03866
1093.898	25.06278
1094.248	14.03617
1094.597	-51.13237
1094.947	23.06158
1095.296	3.00747
1095.645	64.16591
1095.994	33.07945
1096.343	0
1096.692	-49.13075
1097.041	-6.01638
1097.39	51.12779
1097.739	-22.05784
1098.088	64.17092
1098.437	-39.1039
1098.785	14.03793
1099.134	7.0187
1099.482	8.02213
1099.83	7.01851
1100.179	-15.03952
1100.527	14.03739
1100.875	1.00266
1101.223	47.12475
1101.571	21.05824
1101.919	-17.04488
1102.267	4.01133
1102.615	2.00643
1102.962	16.05148
1103.31	0
1103.658	12.03865
