Data from N2 R8 sample 4_Subt2__2__17-44-50-379.txt Node

Date: Fri Aug 29 17:44:50 PDT 2025
User: uwsun
Spectrometer: HDX01956
Trigger mode: 0
Integration Time (sec): 5.000000E-1
Scans to average: 1
Nonlinearity correction enabled: true
Boxcar width: 0
Storing dark spectrum: false
XAxis mode: Wavelengths
Number of Pixels in Spectrum: 2068
>>>>>Begin Spectral Data<<<<<
194.03	68.18886
194.578	51.16027
195.127	59.18248
195.676	71.21993
196.225	88.23002
196.773	92.24853
197.321	62.1647
197.87	147.35391
198.418	135.32144
198.966	92.22221
199.513	96.22053
200.061	69.16209
200.609	116.28588
201.156	40.08123
201.704	100.23211
202.251	111.27128
202.798	100.24016
203.345	133.30326
203.892	101.23494
204.438	135.29661
204.985	53.11601
205.532	102.24776
206.078	113.25557
206.624	57.12992
207.17	115.24586
207.716	87.19476
208.262	89.1623
208.808	87.19645
209.354	110.24559
209.899	165.38305
210.445	110.25046
210.99	98.2169
211.535	192.40931
212.08	150.31894
212.625	146.33525
213.17	156.36222
213.715	32.06591
214.259	120.25749
214.804	180.40602
215.348	120.25282
215.892	112.24789
216.436	139.29652
216.98	130.26509
217.524	102.22255
218.068	182.41841
218.612	179.41225
219.155	78.17062
219.698	106.23373
220.242	127.29355
220.785	138.29701
221.328	117.27022
221.871	148.34718
222.414	137.31591
222.956	52.11692
223.499	116.24138
224.041	98.21328
224.583	160.31869
225.126	84.17254
225.668	108.24312
226.21	127.29483
226.751	56.11414
227.293	108.22934
227.835	110.24843
228.376	157.33405
228.918	177.41058
229.459	81.1873
230	85.18825
230.541	138.29317
231.082	159.35301
231.622	96.20582
232.163	115.25702
232.704	101.23169
233.244	116.26572
233.784	136.30841
234.324	33.06749
234.864	141.29308
235.404	114.25126
235.944	110.24173
236.484	115.26602
237.023	136.29459
237.563	158.33259
238.102	112.24426
238.641	143.33224
239.18	42.09141
239.719	118.27334
240.258	140.2886
240.797	98.21618
241.335	121.27322
241.874	101.17821
242.412	63.14063
242.95	93.20425
243.488	140.29223
244.026	141.29608
244.564	98.18575
245.102	74.15357
245.64	180.39506
246.177	117.2407
246.715	142.31245
247.252	115.24309
247.789	161.27622
248.326	93.20459
248.863	102.20478
249.4	98.20511
249.936	151.2811
250.473	74.15906
251.009	117.24428
251.546	121.24309
252.082	100.20095
252.618	112.22745
253.154	55.12206
253.69	87.18003
254.226	129.28032
254.761	105.21562
255.297	101.20178
255.832	74.16105
256.367	146.31179
256.903	97.19451
257.438	120.25749
257.972	96.19558
258.507	101.21012
259.042	117.23093
259.576	76.14884
260.111	116.24472
260.645	172.33446
261.179	101.21443
261.713	123.24756
262.247	132.27602
262.781	63.12072
263.315	100.22281
263.849	120.27223
264.382	149.30943
264.915	115.24341
265.449	57.12629
265.982	161.32942
266.515	118.26062
267.048	127.2416
267.58	133.26325
268.113	75.14726
268.646	105.23487
269.178	93.18779
269.71	131.25771
270.243	146.29988
270.775	145.33195
271.307	165.35718
271.838	213.45102
272.37	145.32045
272.902	102.21036
273.433	115.22623
273.965	111.24419
274.496	117.26376
275.027	155.34399
275.558	141.30627
276.089	62.13768
276.62	178.40545
277.15	137.30455
277.681	174.33577
278.211	118.26138
278.741	76.15067
279.272	121.24668
279.802	105.2368
280.332	106.22401
280.861	124.26745
281.391	121.24455
281.921	158.33947
282.45	129.2895
282.98	170.39457
283.509	130.26002
284.038	141.28497
284.567	122.25545
285.096	140.30105
285.625	111.22434
286.153	106.22126
286.682	128.25911
287.21	116.24816
287.739	136.28426
288.267	148.31551
288.795	129.30326
289.323	103.21285
289.851	181.37068
290.378	137.27053
290.906	121.25756
291.433	136.2995
291.961	141.27895
292.488	130.2858
293.015	100.20735
293.542	129.28676
294.069	96.20839
294.596	138.30097
295.122	162.33635
295.649	128.24712
296.175	162.34311
296.702	136.28955
297.228	185.39071
297.754	86.16978
298.28	104.20609
298.806	96.20226
299.332	117.22377
299.857	86.16962
300.383	180.39539
300.908	83.17521
301.433	116.24429
301.958	165.32904
302.483	115.24852
303.008	198.41954
303.533	177.39852
304.058	176.35611
304.582	110.22349
305.107	127.2856
305.631	156.30523
306.155	87.17454
306.679	86.17281
307.203	134.26467
307.727	139.28131
308.251	200.4171
308.775	123.24676
309.298	153.30766
309.822	183.39004
310.345	155.30952
310.868	169.33842
311.391	146.30476
311.914	138.29151
312.437	177.33753
312.96	115.22783
313.482	136.2695
314.005	174.36385
314.527	150.32977
315.049	184.38783
315.571	130.23665
316.093	203.41178
316.615	142.28231
317.137	164.28976
317.659	167.33488
318.18	199.39204
318.702	184.34568
319.223	246.39442
319.744	186.33275
320.265	95.18803
320.786	168.3326
321.307	199.39517
321.828	206.36663
322.348	212.39162
322.869	193.35553
323.389	177.21653
323.909	164.29642
324.43	232.43952
324.95	186.3288
325.47	171.32673
325.989	226.40452
326.509	198.32615
327.029	195.32935
327.548	179.30117
328.067	195.35291
328.587	198.37529
329.106	195.32899
329.625	241.48551
330.144	150.25783
330.662	215.36175
331.181	216.3683
331.7	232.39239
332.218	222.33995
332.736	216.36334
333.255	187.31189
333.773	238.39816
334.291	317.5585
334.808	219.33685
335.326	252.38934
335.844	220.3473
336.361	206.3615
336.879	249.38731
337.396	278.44574
337.913	258.38924
338.43	243.35572
338.947	290.44806
339.464	197.26908
339.981	231.35384
340.497	223.36356
341.014	231.36393
341.53	200.28366
342.046	259.40169
342.562	257.41053
343.078	253.36876
343.594	279.40994
344.11	269.39136
344.626	286.44292
345.141	251.3395
345.657	357.46773
346.172	249.36068
346.687	314.41094
347.202	335.41671
347.717	288.3969
348.232	280.41129
348.747	299.3819
349.261	285.32588
349.776	327.42058
350.29	256.35164
350.805	337.46552
351.319	366.44968
351.833	252.29984
352.347	223.28499
352.861	322.38712
353.374	362.42863
353.888	313.39924
354.401	333.38428
354.915	309.33288
355.428	305.39065
355.941	312.35476
356.454	427.45037
356.967	348.40327
357.48	462.48678
357.993	342.41717
358.505	343.40417
359.018	391.45231
359.53	379.41911
360.042	404.38908
360.554	369.41535
361.066	343.38457
361.578	343.31724
362.09	338.36372
362.602	342.31249
363.113	408.39362
363.625	397.35776
364.136	416.35666
364.647	331.30064
365.158	422.38505
365.669	511.47097
366.18	456.41315
366.691	440.34808
367.201	375.35063
367.712	387.31711
368.222	372.30554
368.733	387.26907
369.243	416.28881
369.753	469.35145
370.263	478.37366
370.773	482.39464
371.282	406.30167
371.792	360.22144
372.301	423.28923
372.811	516.39979
373.32	403.1688
373.829	437.22749
374.338	474.18557
374.847	525.19459
375.356	444.17622
375.865	465.07735
376.373	523.09917
376.882	628.19703
377.39	572.12136
377.898	487.07021
378.407	527.98782
378.915	723.89792
379.423	650.93557
379.93	743.84724
380.438	587.87763
380.946	747.76104
381.453	699.74938
381.96	582.75751
382.468	581.70951
382.975	780.59909
383.482	937.48302
383.989	908.51077
384.495	959.46677
385.002	719.62126
385.509	866.55704
386.015	977.67859
386.521	959.67886
387.028	1064.80211
387.534	1014.94289
388.04	1304.97622
388.546	893.17647
389.051	959.54247
389.557	1041.93046
390.063	1645.10827
390.568	1486.33184
391.073	1432.05578
391.578	1379.153
392.084	1383.15426
392.589	981.61679
393.093	868.00661
393.598	1250.46487
394.103	1610.87702
394.607	1715.39871
395.112	2011.35934
395.616	2009.62636
396.12	1912.68488
396.624	1966.6145
397.128	2389.54293
397.632	3352.6699
398.136	3172.22828
398.639	2144.29599
399.143	1160.06742
399.646	1818.56154
400.15	1549.45256
400.653	1030.58373
401.156	-25.41648
401.659	-841.00416
402.162	-43.8408
402.664	0
403.167	0
403.67	0
404.172	0
404.674	0
405.176	0
405.678	0
406.18	0
406.682	0
407.184	0
407.686	0
408.187	0
408.688	0
409.19	0
409.691	0
410.192	0
410.693	0
411.194	435.30976
411.694	4082.94878
412.195	8864.71461
412.696	12089.80453
413.196	12760.96929
413.696	12446.77917
414.196	13257.00554
414.696	16789.7127
415.196	19551.22092
415.696	21888.9199
416.196	18885.03332
416.695	11910.93637
417.195	7925.21645
417.694	7417.77267
418.194	7464.73982
418.693	6029.02331
419.192	6089.37755
419.691	5628.44187
420.19	6132.37916
420.688	6063.14996
421.187	5965.81304
421.685	5847.77349
422.184	5770.65194
422.682	5020.60891
423.18	3771.68241
423.678	2931.10239
424.176	2841.55525
424.674	2610.97832
425.172	2603.97856
425.669	2630.42888
426.167	2558.35534
426.664	2305.40708
427.161	1945.69027
427.659	1744.30445
428.156	1550.3611
428.652	1531.18569
429.149	1423.22912
429.646	1485.19855
430.143	1374.28308
430.639	1126.45027
431.135	1140.52157
431.632	1100.54588
432.128	990.69442
432.624	756.86855
433.12	674.81893
433.616	597.86055
434.111	597.90966
434.607	437.98878
435.103	667.92307
435.598	586.95901
436.093	651.07909
436.588	623.09537
437.083	581.13553
437.578	582.17994
438.073	352.1736
438.568	410.2343
439.062	415.15894
439.557	388.23488
440.051	340.19262
440.546	240.15025
441.04	271.19785
441.534	299.25679
442.028	343.26965
442.522	279.2269
443.015	221.15713
443.509	218.20271
444.002	230.21368
444.496	175.13691
444.989	229.22144
445.482	150.15533
445.975	159.13571
446.468	204.1592
446.961	237.18413
447.454	182.16559
447.947	108.10854
448.439	208.22002
448.931	76.07287
449.424	119.14234
449.916	150.16675
450.408	84.08357
450.9	61.06994
451.392	69.08549
451.884	125.13428
452.375	51.06247
452.867	143.15448
453.358	12.01323
453.849	42.04224
454.341	128.13778
454.832	33.03455
455.323	-19.02461
455.814	89.1042
456.304	59.07067
456.795	32.03857
457.285	59.07005
457.776	104.12799
458.266	30.03898
458.756	43.05807
459.247	-41.0553
459.737	-33.04474
460.226	-35.04435
460.716	-5.00692
461.206	-26.03708
461.695	-13.0199
462.185	-10.01413
462.674	37.05053
463.163	-17.02257
463.653	11.01351
464.142	-61.09215
464.63	-8.01238
465.119	-64.09301
465.608	-81.11885
466.096	-41.05662
466.585	-14.02092
467.073	7.01096
467.561	-11.01748
468.05	-59.09182
468.538	-21.03489
469.026	-42.06818
469.513	-52.07234
470.001	-64.09829
470.489	-8.01278
470.976	-31.04915
471.463	-47.08293
471.951	-17.03026
472.438	-76.12658
472.925	-100.16683
473.412	-50.08977
473.899	-74.12365
474.385	-47.0848
474.872	-66.11211
475.359	-80.14511
475.845	-89.13446
476.331	-12.01914
476.817	-74.13717
477.303	-51.08895
477.789	-52.09519
478.275	-144.27868
478.761	-77.14362
479.247	-87.1511
479.732	-150.29474
480.218	-113.23404
480.703	-74.14486
481.188	-121.20403
481.673	-94.1699
482.158	-177.29765
482.643	-76.15646
483.128	-154.28276
483.612	-108.2037
484.097	-105.21055
484.581	-88.16655
485.066	-116.23062
485.55	-155.27836
486.034	-148.26272
486.518	-159.30852
487.002	-184.37623
487.486	-168.34398
487.969	-161.32972
488.453	-129.27495
488.936	-170.32332
489.42	-192.36303
489.903	-115.24628
490.386	-109.14799
490.869	-108.1991
491.352	-118.24839
491.835	-83.14454
492.318	-157.30347
492.8	-117.20569
493.283	-139.30398
493.765	-199.42746
494.247	-99.19999
494.73	-143.27349
495.212	-118.24894
495.694	-195.39863
496.175	-255.53381
496.657	-155.3229
497.139	-149.22863
497.62	-231.48378
498.102	-213.46876
498.583	-182.40533
499.064	-180.35269
499.545	-196.39785
500.026	-128.25068
500.507	-169.34799
500.988	-162.3578
501.469	-185.41176
501.949	-200.44505
502.43	-231.4917
502.91	-236.43945
503.39	-141.31526
503.87	-190.39871
504.35	-156.3304
504.83	-177.34623
505.31	-193.41993
505.79	-208.44785
506.269	-169.35551
506.749	-240.49763
507.228	-197.41605
507.707	-211.42351
508.187	-179.38781
508.666	-234.52221
509.145	-218.46191
509.623	-237.50842
510.102	-198.43603
510.581	-108.23394
511.059	-213.48468
511.538	-174.40928
512.016	-204.44509
512.494	-191.42335
512.972	-186.40393
513.45	-288.61422
513.928	-255.56943
514.406	-287.63558
514.884	-195.45698
515.361	-222.48805
515.839	-193.40098
516.316	-204.44924
516.793	-203.47275
517.27	-154.34084
517.747	-164.38245
518.224	-230.4933
518.701	-179.36509
519.178	-243.55495
519.654	-196.4309
520.131	-208.47378
520.607	-202.46327
521.083	-238.50495
521.56	-233.51084
522.036	-209.4257
522.512	-150.3396
522.987	-192.41749
523.463	-212.46627
523.939	-162.36527
524.414	-186.3979
524.89	-214.47165
525.365	-202.42371
525.84	-247.54427
526.315	-240.5387
526.79	-161.33405
527.265	-200.42322
527.74	-216.48901
528.215	-183.39885
528.689	-255.5305
529.164	-189.38198
529.638	-199.47564
530.112	-212.46391
530.587	-218.4328
531.061	-242.54497
531.534	-206.46638
532.008	-259.5848
532.482	-220.47389
532.956	-240.57066
533.429	-170.38159
533.903	-200.41451
534.376	-183.37647
534.849	-234.51054
535.322	-194.42704
535.795	-216.49458
536.268	-224.50444
536.741	-200.44948
537.213	-203.43981
537.686	-262.60134
538.158	-273.57832
538.631	-182.41355
539.103	-263.55713
539.575	-191.37415
540.047	-183.37596
540.519	-185.41363
540.991	-179.40946
541.463	-219.49853
541.934	-225.48497
542.406	-209.46594
542.877	-214.45403
543.348	-180.40619
543.82	-195.44838
544.291	-187.40947
544.762	-185.408
545.233	-214.50121
545.703	-187.38505
546.174	-238.52169
546.645	-263.58923
547.115	-224.50465
547.585	-200.42933
548.056	-233.52181
548.526	-221.48208
548.996	-143.31564
549.466	-147.33057
549.935	-178.38557
550.405	-199.40201
550.875	-206.44964
551.344	-165.36267
551.814	-166.34958
552.283	-194.39073
552.752	-166.35081
553.221	-238.47693
553.69	-155.31269
554.159	-198.44261
554.628	-187.37985
555.096	-164.37643
555.565	-185.3775
556.033	-153.33021
556.502	-161.35834
556.97	-171.35115
557.438	-186.41046
557.906	-159.35139
558.374	-224.48624
558.842	-212.47742
559.31	-175.36878
559.777	-235.53711
560.245	-203.45313
560.712	-241.53483
561.18	-215.45187
561.647	-195.41381
562.114	-247.53902
562.581	-208.48735
563.048	-192.42193
563.514	-236.55186
563.981	-202.44203
564.448	-214.46017
564.914	-196.43615
565.381	-189.41158
565.847	-197.44137
566.313	-193.42956
566.779	-226.49141
567.245	-251.56767
567.711	-229.52656
568.176	-239.51714
568.642	-246.59099
569.108	-237.55843
569.573	-196.44247
570.038	-183.36951
570.504	-231.49748
570.969	-201.4795
571.434	-243.51342
571.899	-212.48172
572.363	-229.50143
572.828	-183.40003
573.293	-211.46338
573.757	-218.47986
574.222	-213.45378
574.686	-247.5317
575.15	-230.52219
575.614	-216.47347
576.078	-200.44597
576.542	-187.40549
577.006	-204.43905
577.469	-147.34342
577.933	-242.51993
578.396	-180.40636
578.86	-173.38665
579.323	-257.58833
579.786	-208.43109
580.249	-240.52518
580.712	-213.4974
581.175	-215.50542
581.637	-176.38742
582.1	-168.35301
582.563	-192.39793
583.025	-234.54353
583.487	-249.49031
583.95	-256.53341
584.412	-192.38902
584.874	-140.32018
585.336	-218.49535
585.797	-231.484
586.259	-180.40619
586.721	-226.50978
587.182	-160.35796
587.643	-165.35809
588.105	-220.50131
588.566	-219.44891
589.027	-219.50477
589.488	-207.45498
589.949	-219.5104
590.41	-219.41459
590.87	-176.38612
591.331	-181.37739
591.791	-197.43573
592.252	-233.51363
592.712	-178.40856
593.172	-180.3884
593.632	-127.26551
594.092	-191.4101
594.552	-205.42724
595.011	-223.49283
595.471	-212.45862
595.931	-181.38729
596.39	-196.44861
596.849	-165.36633
597.308	-188.39434
597.768	-208.50464
598.227	-179.41209
598.685	-208.46266
599.144	-185.41432
599.603	-161.36354
600.062	-238.48664
600.52	-252.54631
600.978	-192.43645
601.437	-178.39116
601.895	-208.42723
602.353	-132.27896
602.811	-177.37693
603.269	-171.39006
603.727	-230.53065
604.184	-237.51632
604.642	-234.55147
605.099	-189.42013
605.557	-175.40642
606.014	-196.40567
606.471	-243.58035
606.928	-223.46
607.385	-236.54753
607.842	-160.34761
608.299	-131.28879
608.755	-92.20702
609.212	-123.2576
609.668	-220.46697
610.125	-118.26846
610.581	-95.21373
611.037	-96.20839
611.493	-147.33261
611.949	-191.44059
612.405	-180.35001
612.861	-147.33261
613.316	-147.33477
613.772	-176.39002
614.227	-153.34548
614.683	-137.28387
615.138	-187.42242
615.593	-179.40171
616.048	-129.28402
616.503	-152.35949
616.958	-184.4439
617.412	-195.44821
617.867	-210.45371
618.321	-116.23299
618.776	-201.43752
619.23	-139.31502
619.684	-109.23807
620.138	-97.21742
620.592	-137.32169
621.046	-108.24531
621.5	-117.2743
621.954	-130.28652
622.407	-91.19682
622.861	-105.24646
623.314	-85.18785
623.768	-139.31681
624.221	-133.26004
624.674	-98.2198
625.127	-107.24427
625.58	-85.18974
626.033	-43.09249
626.485	-108.25216
626.938	-45.10368
627.39	-83.18879
627.843	-45.10124
628.295	-40.08993
628.747	-78.18147
629.199	-86.19257
629.651	-97.2176
630.103	-91.20573
630.555	-104.21988
631.006	-69.15936
631.458	-33.0761
631.909	-18.04062
632.361	-54.12425
632.812	-61.13915
633.263	-59.12663
633.714	-22.04666
634.165	-4.0095
634.616	-40.09394
635.067	30.06537
635.518	16.0374
635.968	-10.02004
636.419	-1.00215
636.869	40.09306
637.319	20.04543
637.769	46.10075
638.219	95.22037
638.669	38.08876
639.119	84.19928
639.569	54.12737
640.019	91.20523
640.468	85.18565
640.918	130.30305
641.367	105.22963
641.816	135.29274
642.265	111.24993
642.714	164.36555
643.163	161.35715
643.612	181.41553
644.061	112.23129
644.51	178.38985
644.958	204.42922
645.406	159.36693
645.855	229.53497
646.303	236.52624
646.751	258.55574
647.199	249.53831
647.647	250.54637
648.095	256.55688
648.543	321.6178
648.99	277.62544
649.438	333.73405
649.885	304.70917
650.333	310.56578
650.78	289.65945
651.227	314.71836
651.674	304.65313
652.121	298.68505
652.568	324.73915
653.015	335.79665
653.461	310.69494
653.908	366.79579
654.354	290.65733
654.801	281.6254
655.247	323.66927
655.693	341.83608
656.139	306.69443
656.585	287.65462
657.031	260.57807
657.477	270.55632
657.922	300.6548
658.368	331.77169
658.813	346.75935
659.259	290.66213
659.704	298.6598
660.149	309.68315
660.594	298.67326
661.039	307.66454
661.484	335.75823
661.929	286.63956
662.373	302.72467
662.818	340.7975
663.262	282.64906
663.707	305.73646
664.151	292.68225
664.595	247.57429
665.039	275.65726
665.483	269.65787
665.927	290.65492
666.371	272.60349
666.814	252.58187
667.258	227.52008
667.701	379.77195
668.145	298.71127
668.588	256.60706
669.031	202.46309
669.474	243.56722
669.917	287.61249
670.36	251.60243
670.803	324.74749
671.245	335.67332
671.688	332.77326
672.13	263.57004
672.573	337.81708
673.015	302.69647
673.457	312.65154
673.899	312.72525
674.341	296.68725
674.783	328.75099
675.225	292.69108
675.666	293.67666
676.108	267.56289
676.549	322.73163
676.991	266.56928
677.432	309.59156
677.873	345.76209
678.314	324.74154
678.755	342.79435
679.196	271.6014
679.637	354.82546
680.078	303.68414
680.518	347.77387
680.959	263.61173
681.399	289.69177
681.839	333.77635
682.28	310.73509
682.72	285.63089
683.16	291.69921
683.6	345.75349
684.039	276.55896
684.479	285.67595
684.919	245.54981
685.358	339.82409
685.798	322.81005
686.237	342.79246
686.676	354.78605
687.115	327.73802
687.554	308.70492
687.993	291.62372
688.432	306.67468
688.871	322.70192
689.309	318.73044
689.748	345.6915
690.186	346.79188
690.625	353.79018
691.063	307.70983
691.501	357.84308
691.939	345.82295
692.377	315.73959
692.815	336.76992
693.253	371.85061
693.69	343.72214
694.128	332.77113
694.565	364.82838
695.003	362.87685
695.44	387.86306
695.877	360.8017
696.314	431.87186
696.751	391.84743
697.188	338.74429
697.625	433.93684
698.061	335.77086
698.498	393.90321
698.934	389.88973
699.371	382.85385
699.807	455.00595
700.243	414.94061
700.679	422.90114
701.115	440.97494
701.551	459.01016
701.987	433.91642
702.422	466.03139
702.858	418.93969
703.294	490.02949
703.729	522.17954
704.164	520.15495
704.599	483.99987
705.035	491.0164
705.47	549.22425
705.904	502.08115
706.339	545.16462
706.774	575.2267
707.209	553.16541
707.643	598.30423
708.078	611.34808
708.512	567.2967
708.946	603.31209
709.38	613.31411
709.814	634.30272
710.248	678.47766
710.682	642.37191
711.116	614.32163
711.549	715.6453
711.983	695.42342
712.416	759.57357
712.85	732.61631
713.283	783.61471
713.716	819.79309
714.149	811.67775
714.582	797.54582
715.015	830.80612
715.448	864.87934
715.881	845.57676
716.313	841.69256
716.746	909.80946
717.178	888.81958
717.61	922.99451
718.043	971.03594
718.475	968.9676
718.907	1015.14883
719.339	957.80202
719.77	1009.97623
720.202	1046.19293
720.634	1100.17395
721.065	1073.07169
721.497	1144.26108
721.928	1155.27915
722.359	1116.17181
722.79	1196.26643
723.221	1229.4615
723.652	1335.69366
724.083	1246.16897
724.514	1322.31153
724.945	1304.35484
725.375	1306.31556
725.806	1406.67581
726.236	1440.80907
726.666	1482.58334
727.096	1491.71638
727.526	1484.82871
727.956	1553.51481
728.386	1665.91711
728.816	1658.01264
729.246	1626.82114
729.675	1730.97312
730.105	1740.98886
730.534	1730.77858
730.964	1867.22212
731.393	1911.18383
731.822	1931.32313
732.251	1962.31803
732.68	2026.02946
733.109	2070.25752
733.537	2079.16614
733.966	2118.32677
734.395	2226.03787
734.823	2264.95126
735.251	2307.27872
735.68	2401.53721
736.108	2416.59673
736.536	2443.22753
736.964	2410.12977
737.392	2561.59159
737.82	2608.36709
738.247	2724.3797
738.675	2737.37266
739.102	2833.64508
739.53	2856.77126
739.957	2973.86048
740.384	3000.5947
740.811	3083.77398
741.238	3092.51597
741.665	3141.18698
742.092	3241.36968
742.519	3310.58802
742.945	3382.37581
743.372	3419.58015
743.798	3525.84179
744.225	3561.26652
744.651	3665.62566
745.077	3704.56681
745.503	3757.3921
745.929	3846.23622
746.355	3933.48214
746.781	4044.40036
747.207	4015.99571
747.632	4112.23305
748.058	4211.38125
748.483	4369.70105
748.908	4510.19822
749.334	4447.13971
749.759	4509.79259
750.184	4634.79548
750.609	4744.98564
751.033	4845.63532
751.458	4943.20471
751.883	4957.93379
752.307	5037.48163
752.732	5047.93239
753.156	5143.79422
753.58	5316.40014
754.005	5348.91232
754.429	5360.29035
754.853	5435.65263
755.277	5546.24523
755.7	5558.60163
756.124	5719.51522
756.548	5719.16522
756.971	5878.31897
757.394	5925.72972
757.818	5994.68474
758.241	5959.58148
758.664	6007.52023
759.087	6032.62572
759.51	6242.31217
759.933	6284.04279
760.356	6474.46706
760.778	6360.17832
761.201	6467.07623
761.623	6578.03487
762.046	6531.89555
762.468	6589.96613
762.89	6616.14599
763.312	6680.05654
763.734	6738.94948
764.156	6817.11235
764.578	6780.67173
765	6890.02684
765.421	6796.30775
765.843	6846.55579
766.264	6786.97286
766.686	6834.23231
767.107	6888.97893
767.528	6926.24732
767.949	6996.30364
768.37	6930.0607
768.791	6779.97863
769.212	6859.2162
769.632	6800.73106
770.053	6973.56861
770.473	6865.00278
770.894	6949.19863
771.314	6963.89215
771.734	6791.73619
772.154	6832.39022
772.575	6880.70684
772.994	6801.58452
773.414	6860.92252
773.834	6821.19114
774.254	6738.05343
774.673	6740.02179
775.093	6599.1495
775.512	6542.12927
775.931	6675.31556
776.351	6525.1912
776.77	6560.06817
777.189	6470.90301
777.607	6344.46284
778.026	6308.27751
778.445	6205.34332
778.864	6234.54222
779.282	6266.03464
779.701	6095.4521
780.119	6146.44596
780.537	5991.41044
780.955	5940.59948
781.373	5925.37155
781.791	5802.7345
782.209	5826.90013
782.627	5855.94023
783.045	5679.94657
783.462	5564.81833
783.88	5539.9391
784.297	5505.7163
784.715	5316.99346
785.132	5277.52961
785.549	5167.85493
785.966	5190.8886
786.383	5031.79318
786.8	5007.36867
787.217	4873.59258
787.633	4819.02754
788.05	4722.70172
788.466	4752.62835
788.883	4647.30503
789.299	4639.8436
789.715	4492.99519
790.131	4446.20082
790.547	4316.30188
790.963	4350.23399
791.379	4161.46953
791.795	4156.70496
792.21	4010.94121
792.626	3889.09796
793.041	3887.38924
793.457	3857.41168
793.872	3837.05151
794.287	3677.20935
794.702	3661.4527
795.117	3483.55188
795.532	3451.6206
795.947	3434.34392
796.362	3353.30763
796.776	3324.18838
797.191	3198.48996
797.605	3016.22673
798.02	3038.45684
798.434	2893.93328
798.848	2911.52772
799.262	2797.55868
799.676	2773.4567
800.09	2710.49368
800.504	2612.39021
800.918	2554.11734
801.331	2508.82254
801.745	2411.0377
802.158	2325.44884
802.572	2334.29285
802.985	2261.24112
803.398	2190.13587
803.811	2197.53172
804.224	2037.25275
804.637	2006.02203
805.05	1974.88307
805.462	1990.15629
805.875	1858.29598
806.288	1763.89143
806.7	1818.11805
807.112	1711.69334
807.525	1722.9515
807.937	1651.88645
808.349	1592.87876
808.761	1573.78782
809.173	1479.62983
809.584	1494.71847
809.996	1416.59149
810.408	1413.77373
810.819	1365.40012
811.231	1297.61808
811.642	1258.31056
812.053	1218.25246
812.464	1280.33121
812.875	1312.60336
813.286	1238.52097
813.697	1214.20282
814.108	1137.21955
814.519	1102.93666
814.929	1043.19285
815.34	1001.99925
815.75	981.07947
816.16	997.05847
816.571	977.12924
816.981	958.87137
817.391	919.85987
817.801	800.71726
818.211	846.71473
818.62	804.66288
819.03	801.69322
819.44	771.76574
819.849	753.66029
820.259	735.65634
820.668	661.44453
821.077	658.45461
821.486	662.41348
821.895	667.4644
822.304	624.49411
822.713	582.23763
823.122	591.33214
823.531	576.23017
823.939	535.18757
824.348	538.19103
824.756	514.18123
825.164	569.30024
825.573	485.1227
825.981	480.09858
826.389	463.07804
826.797	444.03393
827.205	418.8926
827.612	441.01139
828.02	374.82597
828.428	423.00674
828.835	379.94397
829.243	402.89706
829.65	383.8971
830.057	367.84077
830.464	340.78627
830.871	362.81849
831.278	359.82014
831.685	334.70521
832.092	332.77295
832.499	311.64613
832.905	331.79832
833.312	283.61809
833.718	280.67062
834.124	268.58818
834.531	326.78344
834.937	311.76367
835.343	238.55588
835.749	268.60179
836.155	262.66268
836.561	243.57813
836.966	235.55673
837.372	225.55641
837.777	189.46018
838.183	188.40792
838.588	221.53306
838.993	218.51577
839.399	213.50637
839.804	162.38758
840.209	187.4655
840.613	175.38077
841.018	193.47746
841.423	191.47891
841.828	168.41691
842.232	172.41778
842.637	152.35266
843.041	112.28452
843.445	167.41102
843.849	109.26759
844.253	175.40722
844.657	87.21807
845.061	163.36264
845.465	150.3564
845.869	144.32946
846.272	118.28436
846.676	124.29656
847.079	99.25003
847.483	149.36591
847.886	143.34284
848.289	96.25459
848.692	105.26385
849.095	122.28977
849.498	180.44669
849.901	97.22108
850.304	94.22335
850.707	95.24078
851.109	111.27843
851.512	75.18385
851.914	65.16363
852.316	66.16677
852.718	44.11387
853.121	76.18571
853.523	51.11948
853.925	46.12024
854.326	58.14504
854.728	43.11088
855.13	90.23082
855.531	45.10785
855.933	104.24768
856.334	44.10999
856.736	16.03618
857.137	34.07948
857.538	41.1034
857.939	24.05967
858.34	70.17029
858.741	75.19547
859.142	66.15839
859.542	65.17126
859.943	54.13431
860.343	29.07219
860.744	67.16326
861.144	23.05648
861.544	-10.02434
861.945	39.09972
862.345	51.12492
862.745	38.09479
863.145	87.20692
863.544	41.10392
863.944	56.13239
864.344	58.1441
864.743	89.21962
865.143	53.13624
865.542	21.04908
865.941	86.21179
866.34	39.09379
866.74	63.16889
867.139	38.09133
867.537	72.18297
867.936	40.09661
868.335	46.11727
868.734	-7.01809
869.132	52.12098
869.531	33.0802
869.929	22.05052
870.327	49.11766
870.726	59.14709
871.124	48.11243
871.522	66.16784
871.92	52.12839
872.318	71.17314
872.715	70.17289
873.113	7.01722
873.511	39.09747
873.908	-10.02554
874.306	40.09978
874.703	25.06291
875.1	41.10517
875.497	27.0651
875.894	-27.06717
876.291	53.13016
876.688	40.10345
877.085	15.03628
877.482	69.17233
877.878	-24.05865
878.275	11.02817
878.671	28.06275
879.068	86.20646
879.464	31.07529
879.86	9.02148
880.256	35.08672
880.652	-5.01285
881.048	47.11666
881.444	42.10026
881.84	26.06642
882.236	40.10086
882.631	59.14473
883.027	4.00978
883.422	19.04889
883.817	-2.00508
884.213	-11.02855
884.608	-15.03726
885.003	33.0799
885.398	-17.0431
885.793	-4.01015
886.188	-13.03271
886.582	56.14362
886.977	24.05731
887.371	3.00766
887.766	-27.06814
888.16	-6.01514
888.554	51.12622
888.949	45.1132
889.343	33.08095
889.737	-31.08376
890.131	-4.01014
890.525	47.12035
890.918	38.09592
891.312	45.10789
891.706	44.11564
892.099	48.12228
892.492	29.06294
892.886	10.02467
893.279	-15.03868
893.672	20.05122
894.065	40.10043
894.458	18.04557
894.851	50.12263
895.244	4.01031
895.637	29.07019
896.029	32.07857
896.422	10.02464
896.814	-22.05545
897.206	-36.08722
897.599	44.10904
897.991	8.01951
898.383	-9.02153
898.775	-12.02746
899.167	-38.09022
899.559	-21.05387
899.951	14.03327
900.342	5.01283
900.734	-40.10093
901.125	47.12346
901.517	-4.00992
901.908	17.04105
902.299	-14.03466
902.69	9.02142
903.082	30.07298
903.473	-24.05832
903.863	0
904.254	17.03975
904.645	37.09231
905.036	-17.0417
905.426	-1.00232
905.817	-13.03229
906.207	8.01923
906.597	-2.00473
906.987	28.07289
907.378	0
907.768	0
908.158	-1.00246
908.547	-33.08651
908.937	32.08241
909.327	9.02204
909.717	17.04344
910.106	-11.02674
910.495	42.10507
910.885	28.07123
911.274	-5.01263
911.663	48.12194
912.052	42.10385
912.441	-12.03086
912.83	-29.06767
913.219	10.02636
913.608	-13.03223
913.997	-22.05589
914.385	10.02409
914.774	-16.03946
915.162	-16.03863
915.55	-24.05891
915.939	-28.07168
916.327	6.0151
916.715	-10.02576
917.103	5.01242
917.491	33.08194
917.878	34.08388
918.266	11.02873
918.654	-3.00774
919.041	19.04987
919.429	-35.08401
919.816	42.10666
920.203	-5.01226
920.591	3.00751
920.978	26.06398
921.365	19.05013
921.752	26.0623
922.139	-27.05962
922.525	40.09629
922.912	11.02703
923.299	4.01003
923.685	17.04461
924.072	26.06028
924.458	9.02247
924.844	-30.07535
925.231	31.07245
925.617	-22.05668
926.003	23.05908
926.389	14.03555
926.774	30.07632
927.16	30.0748
927.546	-19.04909
927.931	18.04519
928.317	27.06251
928.702	19.04524
929.088	-27.06483
929.473	23.05881
929.858	-26.06377
930.243	-37.09029
930.628	-21.05178
931.013	1.0025
931.398	43.09908
931.783	2.00531
932.167	1.00247
932.552	-5.01265
932.937	19.04744
933.321	-4.01014
933.705	-28.07158
934.09	30.0761
934.474	18.04303
934.858	25.06513
935.242	-17.03993
935.626	8.02063
936.009	-23.06192
936.393	1.00257
936.777	9.02322
937.16	24.06273
937.544	61.14346
937.927	-11.02822
938.311	43.10513
938.694	35.09281
939.077	22.05296
939.46	15.03708
939.843	32.06706
940.226	-28.07281
940.609	-32.07469
940.991	10.02564
941.374	-21.05201
941.757	16.03974
942.139	0
942.522	44.10415
942.904	24.05799
943.286	46.11698
943.668	26.06764
944.05	-1.00249
944.432	27.06692
944.814	12.02977
945.196	-41.10162
945.578	-40.09672
945.959	24.05654
946.341	25.06167
946.722	22.05193
947.104	-12.02903
947.485	4.00939
947.866	19.04814
948.247	-17.04341
948.628	14.03439
949.009	-19.04925
949.39	2.00502
949.771	39.09093
950.152	-6.01488
950.532	-38.09499
950.913	22.05336
951.293	-1.00272
951.674	-17.04164
952.054	2.005
952.434	0
952.814	-14.03373
953.194	67.17486
953.574	4.00994
953.954	-16.03849
954.334	4.01005
954.714	-16.03948
955.093	22.05438
955.473	-1.00252
955.853	13.03387
956.232	34.09343
956.611	43.10329
956.99	9.02279
957.37	10.02566
957.749	-4.00964
958.128	1.00254
958.506	23.05994
958.885	9.02288
959.264	-26.06462
959.643	-33.07637
960.021	28.06967
960.4	-8.01835
960.778	33.08155
961.156	19.0479
961.535	-6.01414
961.913	-1.00236
962.291	-18.04673
962.669	4.01022
963.047	25.06408
963.424	25.06408
963.802	11.02724
964.18	51.12903
964.557	46.10605
964.935	22.05241
965.312	-6.01577
965.69	30.0754
966.067	50.12177
966.444	43.10611
966.821	37.09561
967.198	34.08274
967.575	59.14484
967.952	15.03559
968.329	27.06599
968.705	-26.05668
969.082	-1.00259
969.458	-22.0535
969.835	41.09998
970.211	-22.05717
970.587	11.02758
970.963	32.08236
971.339	-5.01318
971.715	12.03017
972.091	28.06923
972.467	38.09499
972.843	-15.03767
973.219	41.09864
973.594	-26.06888
973.97	15.03595
974.345	-6.01451
974.721	36.08741
975.096	31.07529
975.471	20.04772
975.846	0
976.221	-19.04884
976.596	21.05062
976.971	31.07681
977.346	5.01175
977.72	-17.04382
978.095	-4.01043
978.469	-14.03383
978.844	2.00507
979.218	-2.00484
979.593	-1.00242
979.967	-15.03699
980.341	15.03478
980.715	30.07586
981.089	28.07037
981.463	27.06228
981.837	-11.02718
982.21	34.07939
982.584	26.06308
982.957	-21.05311
983.331	16.03808
983.704	31.07644
984.078	-7.01743
984.451	80.19875
984.824	-14.0345
985.197	25.06101
985.57	6.01517
985.943	33.08176
986.316	21.05188
986.688	17.04125
987.061	40.09394
987.434	20.05238
987.806	0
988.179	-26.06225
988.551	27.06877
988.923	37.09134
989.295	24.06026
989.667	-38.0923
990.039	1.00249
990.411	1.00232
990.783	-6.01397
991.155	-24.05847
991.527	80.19592
991.898	-5.01258
992.27	-10.02501
992.641	29.07303
993.012	28.06617
993.384	-2.00482
993.755	3.00771
994.126	-7.01702
994.497	-11.0273
994.868	9.02084
995.239	3.00733
995.61	8.02028
995.98	-15.03688
996.351	-24.06023
996.722	-51.12064
997.092	-43.10364
997.462	-35.08312
997.833	35.08321
998.203	21.05119
998.573	9.02258
998.943	-31.07384
999.313	10.02414
999.683	-32.07799
1000.053	-2.00465
1000.423	-3.00736
1000.792	11.0287
1001.162	6.01488
1001.531	11.02731
1001.901	3.00754
1002.27	-24.05447
1002.639	1.00258
1003.009	46.10947
1003.378	2.00516
1003.747	34.08057
1004.116	-55.13422
1004.485	-7.01691
1004.853	-9.02304
1005.222	23.05827
1005.591	9.02154
1005.959	-28.06409
1006.328	-31.07091
1006.696	-9.02195
1007.064	13.03291
1007.433	25.06276
1007.801	44.10812
1008.169	49.12375
1008.537	32.07112
1008.905	-29.0686
1009.273	42.10389
1009.64	-68.16585
1010.008	10.02402
1010.375	58.14062
1010.743	71.16326
1011.11	-37.08901
1011.478	-16.04007
1011.845	9.02133
1012.212	-29.06669
1012.579	-6.01488
1012.946	18.0431
1013.313	11.02637
1013.68	-5.01136
1014.047	-28.06771
1014.414	-18.04307
1014.78	-11.02763
1015.147	56.13526
1015.513	12.02912
1015.88	12.03088
1016.246	23.05705
1016.612	42.09629
1016.978	3.00741
1017.344	-15.0375
1017.71	26.06368
1018.076	11.02613
1018.442	13.03365
1018.808	-7.01767
1019.174	2.00506
1019.539	71.16274
1019.905	-13.03103
1020.27	6.01492
1020.636	20.04822
1021.001	41.0983
1021.366	-23.05598
1021.731	31.07996
1022.096	-4.01018
1022.461	2.00478
1022.826	7.01677
1023.191	9.02377
1023.556	10.02361
1023.92	-17.0423
1024.285	0
1024.649	12.02961
1025.014	22.05476
1025.378	-26.06624
1025.742	17.04246
1026.107	2.00457
1026.471	13.03056
1026.835	-15.03761
1027.199	-3.00729
1027.562	-34.08032
1027.926	9.02217
1028.29	0
1028.654	24.05549
1029.017	20.04942
1029.381	-9.02173
1029.744	-9.02318
1030.107	55.12995
1030.471	-2.00483
1030.834	6.01377
1031.197	29.07011
1031.56	5.0119
1031.923	-12.03134
1032.286	24.05663
1032.648	16.0385
1033.011	-6.01392
1033.374	26.06137
1033.736	-40.10672
1034.099	-5.01231
1034.461	1.00255
1034.823	-27.06814
1035.185	37.09331
1035.548	-39.09645
1035.91	-25.06071
1036.272	22.05034
1036.634	17.04183
1036.995	14.03312
1037.357	2.00491
1037.719	-21.05173
1038.08	14.03346
1038.442	-7.01679
1038.803	20.04827
1039.165	-32.0819
1039.526	-9.02198
1039.887	1.00241
1040.248	-40.10014
1040.609	-3.00748
1040.97	-6.01481
1041.331	25.06354
1041.692	-17.04018
1042.053	-12.02765
1042.413	29.06783
1042.774	28.06834
1043.134	25.05978
1043.495	-2.00507
1043.855	18.0439
1044.215	-7.01755
1044.576	-21.05087
1044.936	28.06445
1045.296	33.08257
1045.656	-20.04969
1046.016	18.04369
1046.375	28.06817
1046.735	-30.06908
1047.095	-12.02841
1047.454	-5.01072
1047.814	3.00727
1048.173	37.08857
1048.533	-35.08151
1048.892	-5.01212
1049.251	11.02779
1049.61	-24.05987
1049.969	17.04031
1050.328	-8.01755
1050.687	-18.04433
1051.046	19.04651
1051.405	26.06492
1051.763	-69.16234
1052.122	-29.07332
1052.48	-17.04218
1052.839	27.06377
1053.197	-1.00238
1053.555	14.03213
1053.914	30.07361
1054.272	4.00975
1054.63	-22.05448
1054.988	16.03824
1055.345	-29.06348
1055.703	34.08203
1056.061	-26.06773
1056.419	7.01824
1056.776	41.09953
1057.134	-9.02107
1057.491	-7.0177
1057.848	12.03006
1058.206	0
1058.563	-37.083
1058.92	-5.01164
1059.277	27.06685
1059.634	44.10358
1059.991	-11.02664
1060.348	-7.01599
1060.704	-3.00722
1061.061	34.0792
1061.418	-4.00979
1061.774	-5.01246
1062.131	21.05576
1062.487	37.08668
1062.843	24.06008
1063.199	25.06242
1063.555	-33.07767
1063.911	18.04569
1064.267	23.04823
1064.623	0
1064.979	27.06422
1065.335	77.18299
1065.691	31.07452
1066.046	3.00666
1066.402	-31.07154
1066.757	39.09857
1067.112	40.09829
1067.468	-2.00477
1067.823	6.01454
1068.178	3.00732
1068.533	27.06569
1068.888	7.01685
1069.243	1.00249
1069.598	-7.01718
1069.952	-69.15904
1070.307	-15.03754
1070.662	2.00479
1071.016	-18.04087
1071.371	-19.0438
1071.725	15.0361
1072.079	-4.00971
1072.434	-13.03194
1072.788	15.03594
1073.142	27.06665
1073.496	-5.01198
1073.85	39.09058
1074.203	2.00489
1074.557	18.04809
1074.911	10.02404
1075.265	1.00235
1075.618	40.09778
1075.971	23.05495
1076.325	-22.05658
1076.678	4.00923
1077.031	-26.0597
1077.385	-12.02676
1077.738	-7.01597
1078.091	-21.04841
1078.444	38.08838
1078.796	-4.00991
1079.149	11.02753
1079.502	-50.12031
1079.855	-14.03303
1080.207	-3.00746
1080.56	-25.0654
1080.912	13.03184
1081.264	-22.05366
1081.617	-23.05678
1081.969	-1.00254
1082.321	23.0564
1082.673	8.0184
1083.025	10.02389
1083.377	42.09024
1083.728	22.05157
1084.08	-47.11929
1084.432	15.03639
1084.783	30.07051
1085.135	22.05537
1085.486	-89.20915
1085.838	-22.05486
1086.189	9.022
1086.54	33.079
1086.891	-29.07431
1087.242	12.0294
1087.593	19.04649
1087.944	-5.01143
1088.295	27.06161
1088.646	21.05113
1088.996	-15.03655
1089.347	19.04685
1089.698	-49.11793
1090.048	28.07294
1090.398	15.035
1090.749	5.01206
1091.099	-10.0254
1091.449	23.05753
1091.799	-23.05829
1092.149	-60.14917
1092.499	-40.09912
1092.849	14.03578
1093.199	42.10533
1093.548	-22.05354
1093.898	-3.00757
1094.248	15.03875
1094.597	-53.13761
1094.947	19.0509
1095.296	-35.0877
1095.645	35.09119
1095.994	-31.07554
1096.343	28.07068
1096.692	-4.01059
1097.041	-14.03826
1097.39	21.0529
1097.739	13.03397
1098.088	32.08591
1098.437	-16.04246
1098.785	31.08376
1099.134	34.09044
1099.482	32.08818
1099.83	18.04751
1100.179	-18.04745
1100.527	-15.04025
1100.875	-12.03203
1101.223	30.07985
1101.571	2.00556
1101.919	-39.10334
1102.267	12.03395
1102.615	-4.01287
1102.962	9.02898
1103.31	-6.0193
1103.658	13.04186
