Data from N2 R8 sample 11_Subt2__0__17-09-39-438.txt Node

Date: Fri Aug 29 17:09:39 PDT 2025
User: uwsun
Spectrometer: HDX01956
Trigger mode: 0
Integration Time (sec): 5.000000E-1
Scans to average: 1
Nonlinearity correction enabled: true
Boxcar width: 0
Storing dark spectrum: false
XAxis mode: Wavelengths
Number of Pixels in Spectrum: 2068
>>>>>Begin Spectral Data<<<<<
194.03	137.37639
194.578	161.49894
195.127	120.36821
195.676	150.45989
196.225	147.38035
196.773	164.43782
197.321	206.534
197.87	340.78845
198.418	309.71105
198.966	314.72644
199.513	266.59018
200.061	257.58147
200.609	318.75435
201.156	248.47972
201.704	280.62667
202.251	279.66045
202.798	322.74051
203.345	349.76093
203.892	310.69123
204.438	378.78795
204.985	282.58732
205.532	294.68827
206.078	337.72729
206.624	324.69849
207.17	389.78222
207.716	333.70757
208.262	339.57916
208.808	264.57452
209.354	301.64543
209.899	394.87304
210.445	286.62795
210.99	302.63989
211.535	348.71671
212.08	327.66846
212.625	361.7931
213.17	358.7979
213.715	307.59314
214.259	366.7436
214.804	391.84382
215.348	350.70006
215.892	354.74383
216.436	398.80124
216.98	370.71332
217.524	319.66394
218.068	346.76925
218.612	354.78671
219.155	349.71958
219.698	360.75143
220.242	364.80153
220.785	322.66555
221.328	305.67797
221.871	359.80725
222.414	344.76036
222.956	276.59196
223.499	294.58751
224.041	320.6635
224.583	344.65586
225.126	297.5807
225.668	285.61824
226.21	300.67253
226.751	263.5108
227.293	305.61981
227.835	269.58777
228.376	294.60686
228.918	351.78603
229.459	227.50963
230	280.59483
230.541	282.58026
231.082	263.57125
231.622	335.68109
232.163	278.60036
232.704	271.6004
233.244	272.60349
233.784	313.68419
234.324	273.52795
234.864	278.56018
235.404	267.56956
235.944	278.58929
236.484	343.75736
237.023	293.61335
237.563	263.5408
238.102	285.59872
238.641	308.69216
239.18	226.47258
239.719	294.65718
240.258	311.61643
240.797	336.70414
241.335	320.69312
241.874	291.48805
242.412	257.55061
242.95	295.62027
243.488	286.57762
244.026	260.53162
244.564	315.56545
245.102	294.58015
245.64	323.68752
246.177	295.58253
246.715	347.73057
247.252	314.63475
247.789	320.52569
248.326	273.57781
248.863	324.61712
249.4	339.67162
249.936	303.54278
250.473	313.6381
251.009	259.52369
251.546	297.57244
252.082	337.64017
252.618	271.53036
253.154	328.68646
253.69	350.68157
254.226	286.60069
254.761	332.64682
255.297	320.60684
255.832	253.52962
256.367	299.61732
256.903	300.57335
257.438	386.78066
257.972	321.62048
258.507	264.52927
259.042	326.61188
259.576	324.59733
260.111	316.63733
260.645	324.60722
261.179	322.65063
261.713	339.64837
262.247	326.65236
262.781	289.52357
263.315	303.64663
263.849	302.65972
264.382	361.7142
264.915	308.62434
265.449	298.62699
265.982	341.66926
266.515	329.6945
267.048	374.66879
267.58	366.68493
268.113	329.60731
268.646	308.66001
269.178	312.59831
269.71	356.66325
270.243	356.69655
270.775	353.77422
271.307	352.73147
271.838	401.81415
272.37	347.73442
272.902	366.71001
273.433	314.58877
273.965	349.72928
274.496	373.79669
275.027	351.74711
275.558	324.67629
276.089	278.58955
276.62	372.81399
277.15	337.71794
277.681	374.6871
278.211	354.74547
278.741	296.55666
279.272	386.73952
279.802	319.68786
280.332	340.68164
280.861	394.80049
281.391	325.62611
281.921	332.68653
282.45	388.82424
282.98	409.90419
283.509	352.66785
284.038	352.67698
284.567	364.72132
285.096	356.72989
285.625	368.69992
286.153	313.6233
286.682	368.70401
287.21	316.64671
287.739	358.71142
288.267	357.72648
288.795	426.94314
289.323	277.55007
289.851	371.72711
290.378	353.66174
290.906	397.79426
291.433	383.79961
291.961	348.65511
292.488	401.83125
293.015	311.61441
293.542	337.71669
294.069	375.76554
294.596	408.83876
295.122	365.72347
295.649	419.75256
296.175	421.8411
296.702	432.86048
297.228	412.82675
297.754	406.7414
298.28	392.72453
298.806	415.81296
299.332	392.6999
299.857	396.72423
300.383	417.8702
300.908	366.7246
301.433	436.8535
301.958	437.8164
302.483	385.78381
303.008	445.89194
303.533	458.97165
304.058	427.81432
304.582	381.72623
305.107	342.73508
305.631	480.86726
306.155	448.82391
306.679	412.76569
307.203	390.72407
307.727	445.83753
308.251	440.86866
308.775	383.72224
309.298	368.70333
309.822	423.85451
310.345	500.91864
310.868	431.81078
311.391	485.93617
311.914	461.90479
312.437	544.94534
312.96	473.85875
313.482	478.87159
314.005	451.88516
314.527	504.02356
315.049	532.03382
315.571	441.73972
316.093	547.02085
316.615	487.89048
317.137	565.89467
317.659	541.99125
318.18	547.98962
318.702	566.96383
319.223	536.78915
319.744	510.83661
320.265	492.8835
320.786	538.97308
321.307	553.00606
321.828	546.88672
322.348	572.96198
322.869	566.94565
323.389	620.64122
323.909	547.8926
324.43	669.13156
324.95	574.91286
325.47	606.03501
325.989	579.94275
326.509	609.88994
327.029	665.98152
327.548	630.93119
328.067	670.06567
328.587	693.1545
329.106	640.95062
329.625	727.29997
330.144	647.966
330.662	639.9523
331.181	683.01867
331.7	672.0013
332.218	680.90243
332.736	699.02184
333.255	666.9665
333.773	777.10984
334.291	745.16607
334.808	742.96857
335.326	763.00421
335.844	750.00527
336.361	772.15505
336.879	787.03457
337.396	777.07098
337.913	806.01958
338.43	855.02114
338.947	788.04181
339.464	776.86504
339.981	790.01311
340.497	889.18361
341.014	813.06893
341.53	865.97643
342.046	847.09149
342.562	930.20613
343.078	873.03447
343.594	908.08296
344.11	854.02254
344.626	872.12276
345.141	887.95667
345.657	951.00384
346.172	926.06698
346.687	923.96761
347.202	901.90483
347.717	1018.08272
348.232	1021.16918
348.747	992.97605
349.261	977.83833
349.776	1027.01593
350.29	992.04802
350.805	1153.1899
351.319	1115.02123
351.833	1014.88584
352.347	1009.95479
352.861	1077.95718
353.374	1069.95258
353.888	1094.03548
354.401	1094.92056
354.915	1101.83461
355.428	1171.07448
355.941	1202.93266
356.454	1200.89505
356.967	1109.93836
357.48	1235.92046
357.993	1204.03911
358.505	1147.97209
359.018	1276.01676
359.53	1274.95092
360.042	1298.80135
360.554	1326.9827
361.066	1195.92757
361.578	1254.72224
362.09	1228.88479
362.602	1245.70802
363.113	1272.80101
363.625	1333.72892
364.136	1312.68459
364.647	1282.70106
365.158	1441.76189
365.669	1408.81764
366.18	1433.77103
366.691	1310.61805
367.201	1312.75623
367.712	1417.62716
368.222	1418.62213
368.733	1389.47726
369.243	1381.49018
369.753	1516.57293
370.263	1468.62318
370.773	1465.67299
371.282	1527.53125
371.792	1437.36147
372.301	1612.44754
372.811	1606.62196
373.32	1556.10769
373.829	1569.24896
374.338	1689.05713
374.847	1849.98746
375.356	1738.03163
375.865	1921.64408
376.373	1926.69704
376.882	2093.8409
377.39	2081.66971
377.898	2019.57109
378.407	2145.29538
378.915	2277.13257
379.423	2377.10771
379.93	2484.94864
380.438	2512.89763
380.946	2703.74469
381.453	2647.7416
381.96	2850.67698
382.468	2983.76616
382.975	3215.79119
383.482	3381.07807
383.989	3357.93073
384.495	3511.48856
385.002	3537.37234
385.509	3783.73998
386.015	3907.53142
386.521	4265.44253
387.028	4325.67382
387.534	4576.70828
388.04	4908.67525
388.546	4762.78335
389.051	4790.38101
389.557	5273.37795
390.063	6163.68528
390.568	6261.38343
391.073	6276.97578
391.578	6456.03945
392.084	6479.36846
392.589	6162.08628
393.093	6377.7634
393.598	7526.27311
394.103	8206.78211
394.607	9278.85775
395.112	9886.25514
395.616	10380.53842
396.12	10732.30806
396.624	11993.08993
397.128	13085.13218
397.632	14798.77793
398.136	16115.82601
398.639	15380.02944
399.143	16033.3989
399.646	18517.95892
400.15	19954.3945
400.653	18951.76231
401.156	13493.33491
401.659	5169.95759
402.162	1054.15589
402.664	0
403.167	0
403.67	0
404.172	0
404.674	0
405.176	0
405.678	0
406.18	0
406.682	0
407.184	0
407.686	0
408.187	0
408.688	0
409.19	0
409.691	0
410.192	0
410.693	0
411.194	435.30976
411.694	4082.94878
412.195	8864.71461
412.696	12089.80453
413.196	12760.96929
413.696	12863.67595
414.196	13703.56671
414.696	17261.84252
415.196	21764.24417
415.696	29583.19008
416.196	36460.31858
416.695	29040.35179
417.195	22701.33196
417.694	21089.56459
418.194	20225.03028
418.693	18373.85792
419.192	17761.72461
419.691	17615.94561
420.19	17212.88905
420.688	17229.93977
421.187	16860.03186
421.685	16140.35008
422.184	15100.28604
422.682	12938.49194
423.18	10356.59469
423.678	8980.27884
424.176	8393.79516
424.674	7672.68594
425.172	7582.00469
425.669	7200.75604
426.167	6881.74971
426.664	6113.34731
427.161	5529.27699
427.659	4997.2486
428.156	4619.48079
428.652	4353.1976
429.149	4295.98174
429.646	4096.66602
430.143	3823.90699
430.639	3720.74882
431.135	3362.57601
431.632	3172.59645
432.128	2937.68932
432.624	2591.93171
433.12	2468.87966
433.616	2532.86633
434.111	2205.12618
434.607	2049.3172
435.103	2316.1267
435.598	2188.231
436.093	2150.53576
436.588	2105.59397
437.083	1900.79576
437.578	1888.90965
438.073	1613.16085
438.568	1720.25993
439.062	1622.0444
439.557	1593.32979
440.051	1452.2905
440.546	1379.33053
441.04	1283.47258
441.534	1392.63253
442.028	1382.56633
442.522	1242.56815
443.015	1316.42717
443.509	1270.67176
444.002	1194.66762
444.496	1128.48692
444.989	1067.68137
445.482	1145.73532
445.975	1042.54053
446.468	1126.4964
446.961	1075.50169
447.454	1022.59809
447.947	934.63153
448.439	928.71108
448.931	1001.59789
449.424	944.8054
449.916	984.75942
450.408	919.60948
450.9	857.70082
451.392	859.77871
451.884	841.6579
452.375	716.67559
452.867	866.68014
453.358	759.60399
453.849	797.56011
454.341	792.6372
454.832	753.56794
455.323	712.6997
455.814	757.67486
456.304	710.65576
456.795	661.62091
457.285	702.64368
457.776	766.72821
458.266	690.70116
458.756	682.73232
459.247	661.69083
459.737	560.61474
460.226	566.57129
460.716	591.66437
461.206	526.62228
461.695	551.70478
462.185	588.67646
462.674	542.62058
463.163	555.59902
463.653	442.46115
464.142	603.73335
464.63	537.70013
465.119	473.57493
465.608	504.60894
466.096	521.5913
466.585	518.65131
467.073	515.68875
467.561	472.64735
468.05	497.64965
468.538	549.77056
469.026	467.65072
469.513	438.51494
470.001	434.56969
470.489	438.61164
470.976	404.56122
471.463	356.5624
471.951	407.64542
472.438	382.55672
472.925	317.46867
473.412	380.60727
473.899	404.58735
474.385	331.53967
474.872	308.47057
475.359	329.53491
475.845	314.41763
476.331	321.46358
476.817	267.45294
477.303	227.36696
477.789	243.41177
478.275	201.35689
478.761	294.49808
479.247	270.42478
479.732	249.44328
480.218	234.44699
480.703	221.40241
481.188	196.30209
481.673	234.3876
482.158	172.26181
482.643	213.40994
483.128	131.2233
483.612	173.30382
484.097	201.37455
484.581	178.31498
485.066	141.26353
485.55	119.19869
486.034	107.17737
486.518	49.09035
487.002	77.14812
487.486	63.12224
487.969	94.18139
488.453	155.30996
488.936	72.12887
489.42	137.2382
489.903	99.2022
490.386	100.1265
490.869	87.15255
491.352	146.28945
491.835	123.20254
492.318	71.12974
492.8	101.16743
493.283	75.15659
493.765	0
494.247	89.17203
494.73	50.09116
495.212	101.20281
495.694	17.03308
496.175	-29.05767
496.657	106.20799
497.139	60.08639
497.62	-62.12499
498.102	13.02725
498.583	6.01284
499.064	-54.10265
499.545	6.01162
500.026	19.03592
500.507	9.01779
500.988	10.02129
501.469	-8.01715
501.949	14.02977
502.43	-34.06927
502.91	-48.0852
503.39	5.01084
503.87	-22.04445
504.35	51.10312
504.83	-89.17046
505.31	-25.05245
505.79	-77.16112
506.269	-3.00608
506.749	-59.11738
507.228	-52.10633
507.707	-63.12212
508.187	-37.07773
508.666	-81.17504
509.145	-81.16649
509.623	-67.13846
510.102	-48.10237
510.581	-9.01908
511.059	-33.07235
511.538	-52.11941
512.016	-19.03983
512.494	-31.06642
512.972	-33.06933
513.45	-95.19412
513.928	-77.16562
514.406	-99.21064
514.884	-34.07717
515.361	-30.06329
515.839	-68.13734
516.316	-81.17377
516.793	-75.17025
517.27	-63.13679
517.747	-79.18115
518.224	-107.2234
518.701	-72.14328
519.178	-86.19018
519.654	-87.18688
520.131	-105.23419
520.607	-92.20634
521.083	-75.15346
521.56	-93.19788
522.036	-57.11208
522.512	-55.12211
522.987	-132.28336
523.463	-86.18414
523.939	-41.09016
524.414	-45.09333
524.89	-123.26592
525.365	-97.19874
525.84	-139.29935
526.315	-110.24031
526.79	-88.17961
527.265	-94.1943
527.74	-120.26637
528.215	-80.17055
528.689	-143.29007
529.164	-78.15363
529.638	-74.17264
530.112	-125.26851
530.587	-116.22481
531.061	-105.22982
531.534	-99.21925
532.008	-110.24082
532.482	-67.13958
532.956	-137.3193
533.429	-100.22124
533.903	-126.25682
534.376	-111.22465
534.849	-82.17314
535.322	-112.24229
535.795	-109.24422
536.268	-60.13058
536.741	-115.25394
537.213	-101.21406
537.686	-136.30427
538.158	-142.29219
538.631	-92.20524
539.103	-131.2695
539.575	-75.14288
540.047	-92.18513
540.519	-94.20622
540.991	-86.19304
541.463	-81.17924
541.934	-111.2334
542.406	-96.20901
542.877	-101.209
543.348	-60.13208
543.82	-76.1706
544.291	-67.14299
544.762	-91.19674
545.233	-94.21498
545.703	-137.27892
546.174	-69.14585
546.645	-78.16809
547.115	-58.12623
547.585	-65.13547
548.056	-96.20892
548.526	-49.10299
548.996	-42.09074
549.466	6.01307
549.935	-66.13954
550.405	-58.11337
550.875	-45.09487
551.344	-44.09425
551.814	-26.05307
552.283	5.00961
552.752	-47.09673
553.221	-45.08615
553.69	11.02134
554.159	-2.00429
554.628	-36.0706
555.096	-67.15079
555.565	-12.02352
556.033	5.01043
556.502	-62.13516
556.97	-52.10391
557.438	-77.16604
557.906	-60.12986
558.374	-89.18763
558.842	-112.24706
559.31	-112.23275
559.777	-140.31386
560.245	-40.08628
560.712	-78.16722
561.18	-128.26386
561.647	-149.31302
562.114	-125.26573
562.581	-136.31416
563.048	-110.23756
563.514	-89.20211
563.981	-102.21849
564.448	-76.15857
564.914	-117.25609
565.381	-96.20493
565.847	-62.13505
566.313	-105.22943
566.779	-55.11524
567.245	-81.17684
567.711	-112.25151
568.176	-146.30963
568.642	-130.30543
569.108	-83.18971
569.573	-107.23717
570.038	-84.16576
570.504	-79.16457
570.969	-93.21727
571.434	-99.20256
571.899	-87.19268
572.363	-96.2043
572.828	-40.08479
573.293	-32.06763
573.757	-104.22345
574.222	-36.07374
574.686	-88.18296
575.15	-88.19404
575.614	-109.23353
576.078	-102.22283
576.542	-25.05234
577.006	-52.10825
577.469	-8.01818
577.933	-49.1009
578.396	-39.08551
578.86	-30.06507
579.323	-37.08095
579.786	-98.19811
580.249	-68.14339
580.712	-83.18887
581.175	-87.19941
581.637	-44.09417
582.1	-30.06112
582.563	-53.10643
583.025	-56.1255
583.487	-44.08246
583.95	-98.19702
584.412	-14.02721
584.874	-47.10548
585.336	-1.00217
585.797	-65.13119
586.259	-19.04146
586.721	-41.08898
587.182	-43.09388
587.643	-28.05899
588.105	-81.17939
588.566	-16.03129
589.027	-72.16109
589.488	-38.08055
589.949	29.06428
590.41	-37.06693
590.87	44.09205
591.331	-32.06451
591.791	-17.03619
592.252	-65.13824
592.712	16.03529
593.172	-70.14748
593.632	29.05853
594.092	-43.08938
594.552	-21.04197
595.011	-34.07217
595.471	11.02266
595.931	24.04907
596.39	21.04596
596.849	68.14364
597.308	71.1404
597.768	25.05799
598.227	70.15312
598.685	107.22241
599.144	88.18597
599.603	124.26366
600.062	105.19799
600.52	56.11341
600.978	156.32953
601.437	148.30289
601.895	162.30495
602.353	194.38066
602.811	152.3005
603.269	177.37529
603.727	238.49767
604.184	213.41962
604.642	265.56358
605.099	243.49157
605.557	334.69716
606.014	384.69164
606.471	356.75198
606.928	364.65191
607.385	426.858
607.842	547.00773
608.299	647.19178
608.755	638.21843
609.212	635.10594
609.668	616.06796
610.125	713.34647
610.581	785.44508
611.037	825.43851
611.493	761.40081
611.949	742.39005
612.405	759.1482
612.861	865.5513
613.316	768.42257
613.772	863.49703
614.227	895.58633
614.683	933.47337
615.138	963.66307
615.593	928.60713
616.048	980.65534
616.503	1078.93681
616.958	996.85956
617.412	1037.79316
617.867	945.53789
618.321	1070.56878
618.776	1010.63445
619.23	1004.74465
619.684	1049.73073
620.138	1100.85779
620.592	1029.86129
621.046	985.73905
621.5	1040.88171
621.954	1027.71487
622.407	1018.68078
622.861	986.81638
623.314	1073.79784
623.768	1022.7807
624.221	978.41561
624.674	1009.74644
625.127	963.72131
625.58	1054.7981
626.033	983.64832
626.485	919.70835
626.938	988.80374
627.39	1011.78786
627.843	1036.81275
628.295	1029.80471
628.747	1040.88171
629.199	1049.79864
629.651	912.61947
630.103	1016.77673
630.555	1086.70189
631.006	1115.96519
631.458	1110.97311
631.909	1154.97986
632.361	1136.98933
632.812	1168.00065
633.263	1187.86803
633.714	1287.95804
634.165	1386.40255
634.616	1389.34787
635.067	1461.2268
635.518	1478.46114
635.968	1526.00084
636.419	1534.23187
636.869	1644.61699
637.319	1706.56287
637.769	1700.44519
638.219	1881.83386
638.669	1738.70914
639.119	2029.02061
639.569	1990.94369
640.019	2040.80636
640.468	2214.73433
640.918	2330.13
641.367	2351.80011
641.816	2495.81979
642.265	2481.97924
642.714	2631.00904
643.163	2725.9892
643.612	2781.20594
644.061	2856.56094
644.51	2973.93484
644.958	3113.72448
645.406	3120.2067
645.855	3234.36029
646.303	3303.06174
646.751	3355.86825
647.199	3478.84275
647.647	3461.91542
648.095	3594.85129
648.543	3561.25266
648.99	3635.10561
649.438	3735.98832
649.885	3651.3611
650.333	3760.88051
650.78	3747.15495
651.227	3804.18715
651.674	3777.76797
652.121	3782.20641
652.568	3740.2046
653.015	3752.51268
653.461	3685.08599
653.908	3772.93037
654.354	3718.12105
654.801	3491.06151
655.247	3578.6528
655.693	3542.80243
656.139	3452.2307
656.585	3467.23497
657.031	3366.06035
657.477	3353.62989
657.922	3400.98956
658.368	3403.45422
658.813	3354.09414
659.259	3265.28652
659.704	3148.12391
660.149	3176.12499
660.594	3126.2484
661.039	3136.00454
661.484	3157.30296
661.929	3071.17674
662.373	3086.6396
662.818	3022.53849
663.262	2993.34901
663.707	2963.67858
664.151	2960.45317
664.595	2937.36768
665.039	2998.5773
665.483	2959.71762
665.927	3048.24214
666.371	2905.12214
666.814	3032.33117
667.258	2923.2548
667.701	3045.77223
668.145	3076.59916
668.588	2994.50322
669.031	2978.22807
669.474	2993.38803
669.917	2993.91875
670.36	3062.57647
670.803	3074.41386
671.245	3075.64633
671.688	3056.48402
672.13	2976.97716
672.573	3095.75401
673.015	3052.38479
673.457	2969.83414
673.899	3017.44698
674.341	3080.41863
674.783	2943.37268
675.225	3049.53637
675.666	2923.3816
676.108	2882.83933
676.549	3002.31966
676.991	3013.9071
677.432	2866.41751
677.873	2928.18342
678.314	2876.36237
678.755	2889.47296
679.196	2805.12027
679.637	2821.50347
680.078	2776.25142
680.518	2776.23304
680.959	2719.36746
681.399	2620.54153
681.839	2695.45633
682.28	2548.48844
682.72	2538.08829
683.16	2567.54956
683.6	2547.08589
684.039	2480.64519
684.479	2449.42728
684.919	2357.0654
685.358	2466.6302
685.798	2341.74441
686.237	2370.33076
686.676	2353.12251
687.115	2323.16332
687.554	2274.19202
687.993	2311.8795
688.432	2257.0045
688.871	2188.93953
689.309	2172.16835
689.748	2203.61092
690.186	2183.18381
690.625	2191.09054
691.063	2119.15912
691.501	2081.28156
691.939	2133.35356
692.377	2133.24803
692.815	2115.14188
693.253	2084.15826
693.69	2074.75887
694.128	1979.11133
694.565	2015.07412
695.003	1968.32123
695.44	1958.96995
695.877	1998.96631
696.314	1910.59693
696.751	1948.84955
697.188	1891.83074
697.625	1971.89336
698.061	1819.95159
698.498	1874.0385
698.934	1803.95768
699.371	1786.84711
699.807	1774.86112
700.243	1737.89367
700.679	1671.61625
701.115	1706.79172
701.551	1678.7636
701.987	1692.61093
702.422	1631.7451
702.858	1626.75351
703.294	1605.5608
703.729	1613.84155
704.164	1576.741
704.599	1542.44621
705.035	1530.44627
705.47	1551.74863
705.904	1459.50529
706.339	1498.55025
706.774	1512.57972
707.209	1475.48881
707.643	1477.6276
708.078	1457.65022
708.512	1420.69214
708.946	1466.61127
709.38	1374.46672
709.814	1388.37451
710.248	1360.53832
710.682	1437.54826
711.116	1299.3879
711.549	1346.70664
711.983	1283.28222
712.416	1405.49765
712.85	1302.53341
713.283	1284.3526
713.716	1336.60704
714.149	1277.36834
714.582	1238.15159
715.015	1274.5115
715.448	1233.47179
715.881	1177.01775
716.313	1164.16935
716.746	1164.18002
717.178	1128.1859
717.61	1143.35509
718.043	1196.38489
718.475	1181.28396
718.907	1160.37898
719.339	1066.9543
719.77	1061.05139
720.202	1079.24585
720.634	1121.20472
721.065	1105.11738
721.497	1033.09399
721.928	1037.10211
722.359	968.95066
722.79	947.90351
723.221	1070.22071
723.652	1064.27853
724.083	988.83642
724.514	994.8869
724.945	983.91982
725.375	974.87487
725.806	1052.17171
726.236	981.11908
726.666	922.84259
727.096	942.95288
727.526	927.00231
727.956	954.80294
728.386	980.02106
728.816	932.00158
729.246	957.95183
729.675	990.03262
730.105	964.99585
730.534	970.89038
730.964	979.08331
731.393	997.07221
731.822	992.12876
732.251	920.99103
732.68	943.86679
733.109	941.95903
733.537	910.86302
733.966	900.90718
734.395	962.84908
734.823	937.76601
735.251	911.85962
735.68	967.04087
736.108	945.02563
736.536	920.83096
736.964	891.75059
737.392	930.97591
737.82	1006.00077
738.247	973.94686
738.675	949.90578
739.102	937.98174
739.53	962.06696
739.957	898.98134
740.384	1036.11579
740.811	972.07599
741.238	975.99126
741.665	951.83885
742.092	985.9591
742.519	968.00874
742.945	984.96753
743.372	986.04071
743.798	977.1176
744.225	957.90335
744.651	1035.15321
745.077	969.02996
745.503	1021.06211
745.929	1063.08359
746.355	1055.1658
746.781	1030.11393
747.207	894.77338
747.632	1022.05709
748.058	1035.13894
748.483	1078.00466
748.908	1041.13702
749.334	1083.17262
749.759	1036.00056
750.184	1027.01004
750.609	1103.20471
751.033	1181.21358
751.458	1161.05059
751.883	1134.27355
752.307	1106.09545
752.732	1077.20311
753.156	1178.32624
753.58	1191.23783
754.005	1196.43425
754.429	1104.08861
754.853	1184.34246
755.277	1166.19233
755.7	1188.35365
756.124	1185.34824
756.548	1145.16586
756.971	1184.30335
757.394	1223.51785
757.818	1251.55492
758.241	1258.52025
758.664	1243.48389
759.087	1229.1118
759.51	1296.5134
759.933	1271.37462
760.356	1294.6055
760.778	1322.50829
761.201	1322.47685
761.623	1313.45814
762.046	1339.42257
762.468	1304.41679
762.89	1363.5757
763.312	1345.517
763.734	1334.45673
764.156	1307.50188
764.578	1339.32738
765	1346.51457
765.421	1307.58803
765.843	1356.76894
766.264	1281.40274
766.686	1312.56372
767.107	1265.3877
767.528	1277.52619
767.949	1300.58546
768.37	1310.48546
768.791	1340.48006
769.212	1243.46224
769.632	1236.23385
770.053	1306.70978
770.473	1294.43608
770.894	1295.52984
771.314	1275.35996
771.734	1274.283
772.154	1270.57341
772.575	1231.21634
772.994	1242.17103
773.414	1274.37267
773.834	1257.46928
774.254	1191.31427
774.673	1232.35741
775.093	1178.32516
775.512	1209.35597
775.931	1249.50047
776.351	1187.34786
776.77	1118.20343
777.189	1133.1535
777.607	1168.40183
778.026	1202.37813
778.445	1101.23913
778.864	1170.41883
779.282	1104.14131
779.701	1108.27221
780.119	1067.213
780.537	1047.14839
780.955	1093.27502
781.373	1031.1013
781.791	995.8234
782.209	1098.02384
782.627	1025.25552
783.045	947.80581
783.462	1006.14222
783.88	1013.18548
784.297	959.02485
784.715	978.10587
785.132	980.96945
785.549	916.94026
785.966	954.01559
786.383	963.97915
786.8	954.83631
787.217	925.83538
787.633	878.86862
788.05	990.94217
788.466	872.74256
788.883	897.9499
789.299	878.79341
789.715	851.76763
790.131	805.73355
790.547	822.77283
790.963	899.89306
791.379	808.77159
791.795	833.61498
792.21	774.56364
792.626	815.65897
793.041	796.70207
793.457	796.705
793.872	804.62283
794.287	727.51722
794.702	812.72733
795.117	696.53037
795.532	674.50302
795.947	756.58513
796.362	751.56251
796.776	750.52756
797.191	654.42711
797.605	617.29423
798.02	710.52066
798.434	639.25959
798.848	654.43614
799.262	635.41101
799.676	628.3732
800.09	602.33512
800.504	584.28064
800.918	582.21292
801.331	603.43474
801.745	530.10683
802.158	536.22548
802.572	581.27432
802.985	586.2791
803.398	472.03904
803.811	539.27054
804.224	527.20173
804.637	459.01143
805.05	479.02115
805.462	515.16062
805.875	420.02001
806.288	437.98179
806.7	459.07123
807.112	485.03262
807.525	452.03604
807.937	382.89073
808.349	419.98408
808.761	395.91433
809.173	415.94154
809.584	418.96813
809.996	351.81508
810.408	327.80591
810.819	362.80415
811.231	380.92838
811.642	368.82765
812.053	395.88126
812.464	412.91595
812.875	400.96267
813.286	407.98562
813.697	402.88074
814.108	297.6957
814.519	291.62049
814.929	294.72047
815.34	327.75546
815.75	269.65934
816.16	275.66027
816.571	285.71275
816.981	258.58789
817.391	241.56366
817.801	207.50137
818.211	221.51223
818.62	213.49916
819.03	249.59035
819.44	265.66896
819.849	219.5372
820.259	224.55789
820.668	161.38937
821.077	201.4872
821.486	197.46347
821.895	219.52664
822.304	198.51309
822.713	133.31084
823.122	178.43559
823.531	134.31397
823.939	176.42043
824.348	190.45179
824.756	119.29548
825.164	186.45837
825.573	125.31049
825.981	170.414
826.389	130.32309
826.797	130.32203
827.205	122.27722
827.612	148.36003
828.02	105.24492
828.428	169.42268
828.835	145.37647
829.243	91.2161
829.65	117.28829
830.057	75.18187
830.464	84.20411
830.871	127.30089
831.278	93.22382
831.685	107.23717
832.092	85.20751
832.499	113.24514
832.905	103.25911
833.312	109.24683
833.718	139.34186
834.124	95.21609
834.531	105.2629
834.937	97.24759
835.343	64.15458
835.749	119.27539
836.155	79.20632
836.561	102.24924
836.966	83.2024
837.372	102.25792
837.777	90.22319
838.183	73.16228
838.588	80.1981
838.993	82.1991
839.399	33.08116
839.804	37.09063
840.209	55.14019
840.613	71.1579
841.018	102.25654
841.423	91.23228
841.828	77.19426
842.232	148.3611
842.637	58.13707
843.041	40.10291
843.445	26.06565
843.849	22.05488
844.253	86.20363
844.657	32.081
845.061	56.12735
845.465	31.07534
845.869	30.07021
846.272	3.00739
846.676	18.04392
847.079	0
847.483	61.15224
847.886	75.18214
848.289	48.12832
848.692	64.16201
849.095	72.17266
849.498	114.28631
849.901	33.07619
850.304	63.15059
850.707	60.15302
851.109	65.16439
851.512	34.08398
851.914	-21.05368
852.316	42.10658
852.718	-19.04971
853.121	30.07393
853.523	20.04714
853.925	-32.08475
854.326	10.02522
854.728	11.02852
855.13	3.00781
855.531	-24.05827
855.933	44.10599
856.334	-1.00252
856.736	-33.07537
857.137	-19.04488
857.538	21.05315
857.939	18.0448
858.34	61.14864
858.741	8.02109
859.142	41.09886
859.542	18.0478
859.943	11.02757
860.343	5.0125
860.744	41.10039
861.144	27.06626
861.544	-38.09299
861.945	24.06153
862.345	22.05418
862.745	32.07991
863.145	83.19756
863.544	45.11397
863.944	47.11131
864.344	52.12933
864.743	65.1611
865.143	18.04655
865.542	-6.0141
865.941	2.005
866.34	52.12474
866.74	45.12099
867.139	11.02657
867.537	41.10476
867.936	-22.05376
868.335	30.0767
868.734	37.09488
869.132	23.05382
869.531	82.19746
869.929	4.00922
870.327	8.01936
870.726	25.06271
871.124	30.07051
871.522	3.00771
871.92	38.09406
872.318	-13.0322
872.715	47.11658
873.113	48.11716
873.511	31.07759
873.908	-15.03834
874.306	14.03509
874.703	35.08792
875.1	41.10517
875.497	31.07469
875.894	-1.00248
876.291	25.06171
876.688	1.0026
877.085	30.07235
877.482	11.02776
877.878	11.0267
878.275	13.03328
878.671	21.04713
879.068	6.01462
879.464	11.02681
879.86	-8.01915
880.256	40.09901
880.652	25.06393
881.048	32.07965
881.444	51.12153
881.84	5.01282
882.236	23.05817
882.631	13.03216
883.027	2.00489
883.422	18.04633
883.817	26.06568
884.213	16.04134
884.608	-17.04224
885.003	16.03886
885.398	-31.07879
885.793	8.02025
886.188	-12.03019
886.582	96.24448
886.977	23.05493
887.371	13.03312
887.766	-48.12159
888.16	20.05023
888.554	40.0992
888.949	25.06312
889.343	19.04673
889.737	-26.07019
890.131	32.0806
890.525	20.05145
890.918	3.00762
891.312	76.18114
891.706	11.02907
892.099	37.09444
892.492	-8.0175
892.886	16.03943
893.279	28.07166
893.672	-12.03091
894.065	16.04034
894.458	20.05061
894.851	62.15173
895.244	28.07184
895.637	5.01216
896.029	1.00247
896.422	-15.03712
896.814	-2.00502
897.206	-6.01445
897.599	94.23081
897.991	4.00976
898.383	-10.02393
898.775	25.05677
899.167	-12.02835
899.559	66.16671
899.951	47.11097
900.342	19.04862
900.734	-34.0857
901.125	47.12346
901.517	-45.11247
901.908	53.12712
902.299	-5.01236
902.69	-11.02628
903.082	22.0536
903.473	-22.05344
903.863	38.09722
904.254	-41.09695
904.645	52.12938
905.036	-11.02695
905.426	87.19789
905.817	10.02474
906.207	-14.03379
906.597	-14.03318
906.987	42.10907
907.378	17.04327
907.768	17.04521
908.158	8.01967
908.547	-5.01304
908.937	-31.08071
909.327	17.04156
909.717	34.08662
910.106	-27.06584
910.495	16.04021
910.885	27.0687
911.274	11.0277
911.663	20.05106
912.052	8.0199
912.441	-3.0077
912.83	11.02547
913.219	63.16459
913.608	31.07624
913.997	-19.04824
914.385	12.0289
914.774	8.01964
915.162	-13.03137
915.55	32.07773
915.939	-29.07426
916.327	27.0677
916.715	-16.04126
917.103	25.06185
917.491	43.10658
917.878	31.07653
918.266	12.03133
918.654	32.08204
919.041	2.00527
919.429	11.02617
919.816	26.06621
920.203	11.02688
920.591	28.06974
920.978	41.10062
921.365	10.02642
921.752	4.00962
922.139	0
922.525	-6.01457
922.912	22.05396
923.299	2.00502
923.685	5.01315
924.072	24.05566
924.458	-13.03259
924.844	-48.12094
925.231	-25.05907
925.617	9.02306
926.003	28.07186
926.389	-9.02295
926.774	4.01022
927.16	47.11683
927.546	8.02057
927.931	-3.00756
928.317	-12.028
928.702	11.02623
929.088	-39.09386
929.473	0
929.858	-2.00488
930.243	11.0266
930.628	-26.06417
931.013	-16.04014
931.398	33.07619
931.783	11.02916
932.167	-5.01235
932.552	19.04788
932.937	30.07475
933.321	-11.02791
933.705	4.01017
934.09	50.12639
934.474	48.1141
934.858	25.06513
935.242	-11.02581
935.626	32.08218
936.009	-4.01074
936.393	4.01026
936.777	35.08987
937.16	0
937.544	5.01189
937.927	-16.04108
938.311	16.03932
938.694	58.1532
939.077	8.01931
939.46	11.02721
939.843	59.12291
940.226	3.00776
940.609	-14.03256
940.991	-5.01285
941.374	-14.03463
941.757	9.02238
942.139	44.09897
942.522	-9.02152
942.904	-13.03163
943.286	39.0993
943.668	13.03389
944.05	2.00497
944.432	1.00249
944.814	-9.02241
945.196	-59.14671
945.578	-33.07969
945.959	35.08228
946.341	49.12034
946.722	13.03074
947.104	9.02168
947.485	10.02346
947.866	-35.08953
948.247	-16.04085
948.628	30.07347
949.009	7.01806
949.39	31.07745
949.771	22.05147
950.152	32.07881
950.532	-32.07991
950.913	21.05094
951.293	-8.02182
951.674	1.00244
952.054	4.01
952.434	1.0025
952.814	-11.02648
953.194	27.07095
953.574	50.12318
953.954	-27.06508
954.334	23.05761
954.714	-3.00738
955.093	21.05192
955.473	-2.00505
955.853	17.04426
956.232	44.12071
956.611	15.03622
956.99	10.02531
957.37	5.01284
957.749	15.03603
958.128	-41.10499
958.506	-5.01309
958.885	16.04063
959.264	-18.04467
959.643	5.01148
960.021	-21.05271
960.4	-28.06448
960.778	5.01242
961.156	-27.06863
961.535	-3.00707
961.913	37.08681
962.291	-17.04412
962.669	-15.03844
963.047	10.0257
963.424	15.03852
963.802	-2.00497
964.18	47.119
964.557	-14.03266
964.935	22.05241
965.312	11.02884
965.69	47.11777
966.067	10.02454
966.444	26.06436
966.821	36.09304
967.198	14.0342
967.575	30.07404
967.952	11.02612
968.329	34.08299
968.705	32.0689
969.082	24.06183
969.458	-66.16182
969.835	16.0392
970.211	7.0181
970.587	15.03759
970.963	36.09259
971.339	20.05249
971.715	26.06521
972.091	22.05446
972.467	2.00503
972.843	9.0225
973.219	20.04831
973.594	0
973.97	57.13551
974.345	-32.07779
974.721	28.06809
975.096	4.00976
975.471	0
975.846	-11.02673
976.221	-12.03081
976.596	5.01209
976.971	21.05213
977.346	10.02347
977.72	18.04612
978.095	-35.09178
978.469	65.15471
978.844	27.06817
979.218	-25.06078
979.593	3.00725
979.967	45.10974
980.341	9.02089
980.715	17.04309
981.089	-12.03038
981.463	58.13297
981.837	-36.08937
982.21	19.04449
982.584	-13.03177
982.957	-27.06836
983.331	-1.00239
983.704	-2.00496
984.078	-12.02991
984.451	49.12242
984.824	-9.02216
985.197	18.04398
985.57	34.08552
985.943	44.1088
986.316	41.10091
986.688	11.02672
987.061	1.00237
987.434	17.04455
987.806	6.01467
988.179	-6.01431
988.551	10.02555
988.923	1.00248
989.295	42.10511
989.667	-49.11927
990.039	-3.00748
990.411	-3.00698
990.783	0
991.155	-29.07072
991.527	74.18143
991.898	46.1147
992.27	-46.11578
992.641	36.09055
993.012	32.07557
993.384	8.01924
993.755	33.08438
994.126	21.05079
994.497	-14.03477
994.868	11.02547
995.239	-8.0196
995.61	-2.00508
995.98	-17.04181
996.351	19.04732
996.722	-26.06121
997.092	-19.04559
997.462	-39.09269
997.833	30.07139
998.203	-11.02697
998.573	1.00251
998.943	2.00473
999.313	23.0554
999.683	13.03142
1000.053	39.08993
1000.423	17.04156
1000.792	29.07543
1001.162	-16.03985
1001.531	7.01739
1001.901	1.00251
1002.27	-3.00678
1002.639	3.00773
1003.009	21.05021
1003.378	15.03858
1003.747	11.02618
1004.116	-18.04362
1004.485	11.02648
1004.853	36.09142
1005.222	31.07843
1005.591	11.02631
1005.959	-51.11727
1006.328	-24.05482
1006.696	-33.08083
1007.064	29.07321
1007.433	33.08272
1007.801	48.11786
1008.169	23.05836
1008.537	-38.08568
1008.905	11.02582
1009.273	10.02488
1009.64	12.02883
1010.008	1.00241
1010.375	61.14781
1010.743	39.09025
1011.11	3.00716
1011.478	-21.05264
1011.845	2.00475
1012.212	-1.00229
1012.579	14.03459
1012.946	43.10247
1013.313	80.18928
1013.68	45.10124
1014.047	-29.07014
1014.414	-28.06712
1014.78	-3.00753
1015.147	38.0921
1015.513	23.05569
1015.88	30.07697
1016.246	43.10627
1016.612	29.06666
1016.978	16.03945
1017.344	13.03234
1017.71	33.08071
1018.076	37.08746
1018.442	48.12349
1018.808	24.06026
1019.174	37.09301
1019.539	87.19877
1019.905	-20.0478
1020.27	-40.10032
1020.636	41.09845
1021.001	40.09592
1021.366	-17.04133
1021.731	-14.03639
1022.096	-15.03826
1022.461	-23.05519
1022.826	5.01198
1023.191	3.00793
1023.556	8.0189
1023.92	25.06174
1024.285	15.03684
1024.649	17.0419
1025.014	28.06961
1025.378	2.00507
1025.742	16.03997
1026.107	58.13094
1026.471	52.12132
1026.835	-11.02756
1027.199	-30.07328
1027.562	21.04908
1027.926	4.00986
1028.29	-11.02813
1028.654	16.03705
1029.017	4.00991
1029.381	-7.0169
1029.744	18.04615
1030.107	28.0665
1030.471	0
1030.834	0
1031.197	34.08212
1031.56	12.02851
1031.923	-43.11291
1032.286	41.09642
1032.648	31.07438
1033.011	-23.05354
1033.374	52.12213
1033.736	-31.08258
1034.099	19.04656
1034.461	9.02289
1034.823	22.05504
1035.185	23.05815
1035.548	1.00245
1035.91	-6.01452
1036.272	36.08214
1036.634	50.12227
1036.995	-3.00712
1037.357	-40.09891
1037.719	-26.0641
1038.08	45.1069
1038.442	-25.06017
1038.803	45.1081
1039.165	2.00509
1039.526	-18.04403
1039.887	11.0265
1040.248	-47.11781
1040.609	-7.01747
1040.97	20.04913
1041.331	-19.04867
1041.692	-51.12134
1042.053	-15.03459
1042.413	17.03986
1042.774	20.04889
1043.134	35.08353
1043.495	2.00507
1043.855	5.01222
1044.215	35.08707
1044.576	-21.05087
1044.936	-13.03017
1045.296	45.11235
1045.656	23.05669
1046.016	24.05819
1046.375	13.03174
1046.735	-8.01834
1047.095	6.01416
1047.454	12.02563
1047.814	-20.04869
1048.173	46.10993
1048.533	11.02539
1048.892	-42.10252
1049.251	40.10053
1049.61	-16.03985
1049.969	3.00713
1050.328	11.02404
1050.687	17.0416
1051.046	3.00736
1051.405	-3.00753
1051.763	-65.15281
1052.122	17.04263
1052.48	5.01236
1052.839	8.01896
1053.197	-9.02141
1053.555	42.09586
1053.914	15.03691
1054.272	26.06311
1054.63	-13.03214
1054.988	-2.0048
1055.345	12.02604
1055.703	66.15827
1056.061	12.03106
1056.419	0
1056.776	33.08023
1057.134	-18.04221
1057.491	26.06535
1057.848	16.04005
1058.206	-29.06921
1058.563	-24.0537
1058.92	-5.01164
1059.277	3.00746
1059.634	-26.06204
1059.991	24.05775
1060.348	-52.11988
1060.704	-19.04585
1061.061	53.12299
1061.418	-8.0196
1061.774	9.02237
1062.131	-26.06957
1062.487	-29.06881
1062.843	2.00503
1063.199	-39.0985
1063.555	-25.05875
1063.911	15.0381
1064.267	20.04197
1064.623	-19.04671
1064.979	49.11605
1065.335	-39.09475
1065.691	37.08885
1066.046	18.03982
1066.402	-22.05068
1066.757	-3.00764
1067.112	22.05424
1067.468	-18.04303
1067.823	28.06755
1068.178	23.05588
1068.533	-19.04663
1068.888	42.10045
1069.243	-11.02743
1069.598	16.0391
1069.952	-50.11481
1070.307	-44.11071
1070.662	-18.04326
1071.016	-38.08663
1071.371	-15.03455
1071.725	53.12664
1072.079	20.04834
1072.434	-27.0665
1072.788	-5.01202
1073.142	36.08872
1073.496	10.02389
1073.85	25.05822
1074.203	10.02443
1074.557	26.06937
1074.911	50.11926
1075.265	42.09772
1075.618	34.08321
1075.971	21.0502
1076.325	-35.09022
1076.678	-28.06499
1077.031	-20.04587
1077.385	4.00889
1077.738	-10.02283
1078.091	-71.16529
1078.444	20.04668
1078.796	-21.05216
1079.149	25.06242
1079.502	-9.02149
1079.855	-21.04962
1080.207	19.04704
1080.56	-30.07855
1080.912	10.02451
1081.264	6.01456
1081.617	3.00737
1081.969	6.01524
1082.321	24.05884
1082.673	-24.05555
1083.025	33.07849
1083.377	-221.50166
1083.728	39.09111
1084.08	14.03515
1084.432	-18.04394
1084.783	26.06116
1085.135	-37.09411
1085.486	-42.09779
1085.838	25.0618
1086.189	0
1086.54	21.05039
1086.891	-4.0102
1087.242	-22.05424
1087.593	33.08053
1087.944	-2.00457
1088.295	27.06161
1088.646	-21.05153
1088.996	-18.04389
1089.347	13.03209
1089.698	-33.07918
1090.048	27.07035
1090.398	12.02802
1090.749	12.0289
1091.099	-25.06366
1091.449	-8.02012
1091.799	25.06282
1092.149	-11.0271
1092.499	-11.02711
1092.849	32.08152
1093.199	35.08789
1093.548	-15.03646
1093.898	35.08773
1094.248	-5.01296
1094.597	-70.18228
1094.947	-2.00538
1095.296	-50.12562
1095.645	6.01571
1095.994	0
1096.343	18.04552
1096.692	-34.0905
1097.041	-1.00273
1097.39	-17.04312
1097.739	-7.01836
1098.088	21.05648
1098.437	-30.0798
1098.785	53.14269
1099.134	20.05332
1099.482	10.02765
1099.83	26.06854
1100.179	-7.01842
1100.527	17.04538
1100.875	-11.02935
1101.223	-7.01875
1101.571	0
1101.919	-51.13541
1102.267	25.07059
1102.615	-3.00965
1102.962	11.03541
1103.31	0
1103.658	8.02578
