Data from N2 R8 sample 11_Subt2__1__17-09-40-439.txt Node

Date: Fri Aug 29 17:09:40 PDT 2025
User: uwsun
Spectrometer: HDX01956
Trigger mode: 0
Integration Time (sec): 5.000000E-1
Scans to average: 1
Nonlinearity correction enabled: true
Boxcar width: 0
Storing dark spectrum: false
XAxis mode: Wavelengths
Number of Pixels in Spectrum: 2068
>>>>>Begin Spectral Data<<<<<
194.03	159.43529
194.578	149.46247
195.127	148.45245
195.676	147.45087
196.225	171.44061
196.773	169.45079
197.321	251.64558
197.87	348.80572
198.418	326.74761
198.966	326.7524
199.513	270.59856
200.061	334.74381
200.609	347.81852
201.156	207.40434
201.704	284.63509
202.251	310.72942
202.798	317.72974
203.345	336.73461
203.892	311.69331
204.438	352.73799
204.985	334.68757
205.532	316.73658
206.078	313.67898
206.624	324.69849
207.17	336.6839
207.716	345.73115
208.262	299.51631
208.808	329.70607
209.354	310.66344
209.899	398.88116
210.445	314.68536
210.99	291.61806
211.535	356.73187
212.08	359.72855
212.625	337.74411
213.17	366.81438
213.715	281.54629
214.259	385.77881
214.804	361.78409
215.348	330.66312
215.892	339.71467
216.436	428.85568
216.98	349.67623
217.524	323.67166
218.068	367.81237
218.612	348.77434
219.155	310.64477
219.698	326.6856
220.242	363.7995
220.785	321.66364
221.328	297.66128
221.871	323.73167
222.414	292.65244
222.956	285.61007
223.499	302.60237
224.041	332.68653
224.583	295.56913
225.126	270.53129
225.668	273.59373
226.21	303.67883
226.751	268.51989
227.293	305.61981
227.835	283.61652
228.376	303.62418
228.918	343.76938
229.459	281.62385
230	273.58085
230.541	309.63195
231.082	288.62222
231.622	322.6566
232.163	275.59426
232.704	294.64823
233.244	243.54241
233.784	298.65347
234.324	259.50256
234.864	280.56395
235.404	299.63339
235.944	300.63287
236.484	329.72858
237.023	308.64261
237.563	286.58505
238.102	305.63791
238.641	322.72154
239.18	252.52391
239.719	294.65718
240.258	292.58135
240.797	275.58408
241.335	312.67695
241.874	296.49576
242.412	274.58488
242.95	231.49256
243.488	250.50909
244.026	313.6323
244.564	331.59173
245.102	298.58749
245.64	293.62774
246.177	276.54744
246.715	349.73445
247.252	302.61218
247.789	354.57605
248.326	263.55787
248.863	293.56228
249.4	311.62018
249.936	272.49114
250.473	266.54808
251.009	288.57846
251.546	269.52196
252.082	334.63494
252.618	323.62435
253.154	336.70196
253.69	298.58749
254.226	305.63791
254.761	333.64862
255.297	266.51108
255.832	261.5454
256.367	313.6442
256.903	333.63134
257.438	325.66648
257.972	296.57559
258.507	302.60013
259.042	310.58414
259.576	304.56326
260.111	345.69118
260.645	344.64152
261.179	318.64313
261.713	324.62193
262.247	302.6077
262.781	265.48303
263.315	280.60053
263.849	332.72065
264.382	373.73587
264.915	341.68601
265.449	309.64856
265.982	321.63298
266.515	330.69646
267.048	324.58684
267.58	366.68493
268.113	272.50926
268.646	315.67399
269.178	278.53749
269.71	422.77335
270.243	329.64784
270.775	314.69435
271.307	350.72764
271.838	366.74903
272.37	361.76171
272.902	361.70115
273.433	299.56272
273.965	353.73698
274.496	310.67118
275.027	371.78624
275.558	364.75303
276.089	259.55154
276.62	391.85213
277.15	349.74156
277.681	334.61978
278.211	363.7629
278.741	333.62055
279.272	354.68345
279.802	331.7119
280.332	320.64451
280.861	384.78195
281.391	349.66846
281.921	372.76234
282.45	415.8764
282.98	386.85745
283.509	376.70921
284.038	318.6166
284.567	414.81081
285.096	349.71667
285.625	313.60328
286.153	365.71805
286.682	338.65131
287.21	343.69767
287.739	367.72777
288.267	359.73021
288.795	402.89447
289.323	333.65263
289.851	363.71277
290.378	389.72276
290.906	368.74118
291.433	394.82057
291.961	375.70125
292.488	396.8218
293.015	350.68514
293.542	397.83325
294.069	372.75993
294.596	402.82755
295.122	391.77029
295.649	377.68442
296.175	354.71824
296.702	364.7365
297.228	435.86827
297.754	454.81901
298.28	391.72286
298.806	418.81826
299.332	371.66599
299.857	395.72258
300.383	422.87966
300.908	379.74806
301.433	420.82529
301.958	457.84955
302.483	409.82812
303.008	442.88654
303.533	489.02851
304.058	511.95468
304.582	380.7245
305.107	427.90095
305.631	475.85932
306.155	351.66124
306.679	359.67598
307.203	392.72743
307.727	452.84924
308.251	392.78262
308.775	402.75454
309.298	380.72415
309.822	457.91599
310.345	422.79052
310.868	483.897
311.391	526.00367
311.914	444.87492
312.437	520.90935
312.96	476.86354
313.482	415.76877
314.005	466.91136
314.527	457.9397
315.049	565.08947
315.571	463.77197
316.093	504.95209
316.615	460.84683
317.137	499.80509
317.659	582.05384
318.18	542.98182
318.702	591.99965
319.223	572.83295
319.744	479.79252
320.265	505.90382
320.786	444.8223
321.307	553.00606
321.828	582.93568
322.348	603.0042
322.869	499.84898
323.389	615.63733
323.909	590.95125
324.43	687.15642
324.95	543.87118
325.47	606.03501
325.989	618.99532
326.509	570.84288
327.029	593.89436
327.548	633.93477
328.067	574.93906
328.587	694.15586
329.106	625.93253
329.625	730.30434
330.144	627.94175
330.662	654.97027
331.181	674.00793
331.7	650.97607
332.218	774.99547
332.736	756.08616
333.255	724.03092
333.773	691.01321
334.291	802.23489
334.808	720.94675
335.326	730.97224
335.844	708.96298
336.361	739.1165
336.879	732.98075
337.396	838.13277
337.913	791.00571
338.43	850.01697
338.947	802.05545
339.464	770.86029
339.981	825.04557
340.497	862.15775
341.014	863.11603
341.53	850.96487
342.046	890.13044
342.562	883.16308
343.078	884.04339
343.594	926.09738
344.11	921.07666
344.626	922.16733
345.141	945.9965
345.657	947.00117
346.172	973.10198
346.687	863.92617
347.202	930.92294
347.717	947.03498
348.232	978.13757
348.747	950.95096
349.261	857.77617
349.776	956.9739
350.29	1025.06901
350.805	1119.17031
351.319	1109.01837
351.833	988.87327
352.347	1058.98041
352.861	1009.92397
353.374	1153.98942
353.888	1112.04453
354.401	1085.91679
354.915	1122.8416
355.428	1126.05327
355.941	1108.89958
356.454	1218.90025
356.967	1149.95436
357.48	1183.90489
357.993	1207.0403
358.505	1145.97129
359.018	1273.01582
359.53	1264.9482
360.042	1214.78625
360.554	1174.93748
361.066	1154.91377
361.578	1249.72157
362.09	1300.90204
362.602	1193.70041
363.113	1213.78975
363.625	1276.72313
364.136	1355.68709
364.647	1235.69566
365.158	1338.75504
365.669	1388.81576
366.18	1332.76336
366.691	1396.61864
367.201	1366.76156
367.712	1346.62746
368.222	1369.6228
368.733	1351.48038
369.243	1453.48301
369.753	1485.57582
370.263	1530.61891
370.773	1527.67041
371.282	1559.52695
371.792	1401.36741
372.301	1550.459
372.811	1670.61333
373.32	1517.12019
373.829	1581.24567
374.338	1689.05713
374.847	1637.07165
375.356	1743.02965
375.865	1778.71676
376.373	1971.67388
376.882	2028.87272
377.39	2132.64263
377.898	1946.61012
378.407	2086.32885
378.915	2251.14717
379.423	2402.09382
379.93	2365.01226
380.438	2370.97067
380.946	2714.7403
381.453	2677.73042
381.96	2771.69447
382.468	2766.76984
382.975	3310.81197
383.482	3323.05002
383.989	3355.92998
384.495	3426.42086
385.002	3569.41562
385.509	3669.56557
386.015	3929.58444
386.521	4306.55893
387.028	4311.62829
387.534	4562.65306
388.04	4877.54335
388.546	4481.47477
389.051	4556.12257
389.557	5177.74466
390.063	6210.0602
390.568	6355.20388
391.073	6166.94629
391.578	6408.57312
392.084	6426.81261
392.589	6086.24823
393.093	6308.93293
393.598	7410.70383
394.103	8165.18749
394.607	9006.90716
395.112	9796.98525
395.616	10290.31196
396.12	10970.19847
396.624	11814.28438
397.128	13127.49844
397.632	14998.37264
398.136	16074.43816
398.639	15361.82831
399.143	16136.94946
399.646	18579.96208
400.15	19867.26817
400.653	18972.14576
401.156	13511.75466
401.659	5169.95759
402.162	1054.15589
402.664	0
403.167	0
403.67	0
404.172	0
404.674	0
405.176	0
405.678	0
406.18	0
406.682	0
407.184	0
407.686	0
408.187	0
408.688	0
409.19	0
409.691	0
410.192	0
410.693	0
411.194	435.30976
411.694	4082.94878
412.195	8864.71461
412.696	12089.80453
413.196	12760.96929
413.696	12863.67595
414.196	13703.56671
414.696	17261.84252
415.196	21764.24417
415.696	29583.19008
416.196	36460.31858
416.695	29230.47041
417.195	22444.00409
417.694	21016.78237
418.194	20049.45659
418.693	17971.64483
419.192	17414.96135
419.691	17371.99081
420.19	17181.63135
420.688	16858.74204
421.187	16618.85244
421.685	16184.81298
422.184	15067.88546
422.682	12953.70893
423.18	10236.89825
423.678	8884.04133
424.176	8133.74535
424.674	7691.8886
425.172	7575.94677
425.669	7268.31285
426.167	6792.11458
426.664	6168.65749
427.161	5565.43047
427.659	5144.6861
428.156	4614.46818
428.652	4363.21243
429.149	4090.72502
429.646	4152.73036
430.143	3908.95476
430.639	3725.75057
431.135	3381.57495
431.632	3097.60997
432.128	3000.66671
432.624	2632.91073
433.12	2554.83838
433.616	2445.90941
434.111	2128.16948
434.607	2213.2241
435.103	2337.11497
435.598	2272.18342
436.093	2055.5875
436.588	2070.61281
437.083	1844.82262
437.578	1891.90828
438.073	1528.18665
438.568	1636.28454
439.062	1615.04696
439.557	1608.32609
440.051	1405.30009
440.546	1396.32762
441.04	1360.4677
441.534	1351.63236
442.028	1264.5671
442.522	1239.56802
443.015	1186.43391
443.509	1349.67701
444.002	1129.65727
444.496	1164.4885
444.989	1112.6919
445.482	1097.72376
445.975	1049.5416
446.468	1092.49393
446.961	1116.50529
447.454	1034.60066
447.947	938.63283
448.439	952.72071
448.931	953.58583
449.424	1013.83693
449.916	988.761
450.408	862.59003
450.9	865.70465
451.392	829.76149
451.884	884.67686
452.375	813.73527
452.867	943.71267
453.358	760.60449
453.849	810.56526
454.341	764.62305
454.832	794.58634
455.323	718.70383
455.814	755.67369
456.304	779.69785
456.795	794.70326
457.285	804.70431
457.776	763.72629
458.266	655.67509
458.756	680.73074
459.247	625.6626
459.737	569.62245
460.226	576.579
460.716	630.69781
461.206	568.66175
461.695	594.74867
462.185	561.65187
462.674	606.67738
463.163	596.633
463.653	593.58146
464.142	529.66029
464.63	490.64895
465.119	492.59398
465.608	454.55836
466.096	491.56354
466.585	491.62314
467.073	472.6402
467.561	528.7111
468.05	504.65725
468.538	501.71388
469.026	403.57302
469.513	462.5384
470.001	379.50668
470.489	418.58743
470.976	448.6136
471.463	374.58778
471.951	386.6158
472.438	334.49396
472.925	339.49784
473.412	341.55099
473.899	388.56687
474.385	284.46914
474.872	325.49404
475.359	322.52455
475.845	296.39604
476.331	360.51362
476.817	289.48735
477.303	329.51658
477.789	253.42756
478.275	213.37702
478.761	234.40287
479.247	274.43057
479.732	213.38273
480.218	268.50772
480.703	260.46875
481.188	194.29918
481.673	219.36426
482.158	108.16753
482.643	247.47149
483.128	170.28673
483.612	169.29711
484.097	216.401
484.581	175.30992
485.066	162.3012
485.55	121.20192
486.034	146.23942
486.518	90.16425
487.002	151.28529
487.486	106.20356
487.969	122.23384
488.453	97.19658
488.936	139.24449
489.42	129.22476
489.903	151.30476
490.386	136.16989
490.869	89.15597
491.352	147.29137
491.835	94.15604
492.318	86.15655
492.8	69.11539
493.283	44.0925
493.765	50.10163
494.247	89.17203
494.73	52.09475
495.212	86.17329
495.694	45.08698
496.175	0
496.657	81.15987
497.139	68.09766
497.62	-43.08631
498.102	1.0021
498.583	51.10809
499.064	-61.11615
499.545	20.03859
500.026	-26.04969
500.507	-41.08199
500.988	24.05094
501.469	-39.08417
501.949	3.00639
502.43	-18.03654
502.91	-32.05657
503.39	-24.05236
503.87	-41.08321
504.35	9.01837
504.83	-71.13539
505.31	-40.0842
505.79	-94.19743
506.269	-10.0203
506.749	-45.08924
507.228	-123.25555
507.707	-39.07517
508.187	22.04562
508.666	-26.05553
509.145	-88.18116
509.623	-48.09877
510.102	-56.11964
510.581	34.07141
511.059	-58.12783
511.538	-59.13567
512.016	-46.097
512.494	-54.11627
512.972	-62.13108
513.45	-133.27411
513.928	-58.12424
514.406	-139.29832
514.884	-21.04754
515.361	-93.19891
515.839	-86.17441
516.316	-66.14113
516.793	-103.23514
517.27	-68.1478
517.747	-73.16719
518.224	-62.12815
518.701	-68.13519
519.178	-125.27868
519.654	-39.08291
520.131	-108.24103
520.607	-69.15402
521.083	-108.22263
521.56	-86.1827
522.036	-61.12006
522.512	-62.13785
522.987	-115.24596
523.463	-107.23014
523.939	-52.11461
524.414	-90.18853
524.89	-84.18009
525.365	-58.11779
525.84	-126.2706
526.315	-126.27619
526.79	-74.15055
527.265	-79.16274
527.74	-117.25955
528.215	-107.22945
528.689	-132.26709
529.164	-87.17172
529.638	-60.1396
530.112	-115.2465
530.587	-63.12055
531.061	-113.24775
531.534	-67.14739
532.008	-105.22963
532.482	-84.17565
532.956	-138.3217
533.429	-75.16506
533.903	-104.21091
534.376	-107.21635
534.849	-88.18606
535.322	-112.24229
535.795	-120.26947
536.268	-115.2532
536.741	-88.19322
537.213	-42.08786
537.686	-156.35045
538.158	-126.25834
538.631	-93.20751
539.103	-151.31204
539.575	-88.16818
540.047	-65.12998
540.519	-102.22415
540.991	-59.1317
541.463	-61.13442
541.934	-91.1905
542.406	-102.22236
542.877	-80.16476
543.348	-96.21292
543.82	-64.1433
544.291	-77.16469
544.762	-134.29237
545.233	-111.25473
545.703	-85.171
546.174	-71.15015
546.645	-171.37586
547.115	-100.21957
547.585	-53.11016
548.056	-93.20227
548.526	-83.17575
548.996	-19.04085
549.466	-8.01748
549.935	-47.09896
550.405	-25.04849
550.875	-34.07151
551.344	-14.02979
551.814	10.02024
552.283	-53.10328
552.752	-42.08635
553.221	-78.15051
553.69	13.02521
554.159	-26.05605
554.628	-7.01363
555.096	-6.01334
555.565	-39.07694
556.033	29.06014
556.502	-58.12633
556.97	-62.12418
557.438	-90.19462
557.906	-61.13205
558.374	-90.18978
558.842	-85.18644
559.31	-63.12949
559.777	-94.20874
560.245	-98.214
560.712	-120.2596
561.18	-125.2575
561.647	-126.26336
562.114	-159.34051
562.581	-65.14803
563.048	-126.27305
563.514	-147.33775
563.981	-107.22945
564.448	-123.25931
564.914	-102.22255
565.381	-99.21147
565.847	-104.22855
566.313	-83.18052
566.779	-78.16426
567.245	-78.17018
567.711	-94.2103
568.176	-143.30307
568.642	-125.2934
569.108	-118.27161
569.573	-104.23037
570.038	-97.19199
570.504	-109.22859
570.969	-78.18169
571.434	-87.17753
571.899	-103.22887
572.363	-91.19345
572.828	-41.08693
573.293	-54.11467
573.757	-67.1428
574.222	-70.14449
574.686	-100.20846
575.15	-93.20528
575.614	-90.19203
576.078	-80.17396
576.542	-39.0819
577.006	-50.10404
577.469	-76.17507
577.933	-48.09881
578.396	-59.1299
578.86	-36.07818
579.323	-28.06114
579.786	-65.1304
580.249	-126.26908
580.712	-78.17731
581.175	-98.22512
581.637	5.01059
582.1	-53.10854
582.563	-30.05992
583.025	-69.15504
583.487	-61.1148
583.95	-110.22176
584.412	6.01161
584.874	-30.06709
585.336	-63.13865
585.797	-48.0965
586.259	-14.03052
586.721	-101.222
587.182	52.11124
587.643	-57.12086
588.105	-69.15243
588.566	-38.0747
589.027	-77.17245
589.488	-54.11487
589.949	6.01336
590.41	-42.07607
590.87	0
591.331	-1.002
591.791	-30.06404
592.252	-63.13393
592.712	8.01768
593.172	-52.10912
593.632	40.08053
594.092	9.01849
594.552	39.07687
595.011	4.00842
595.471	26.05338
595.931	24.04907
596.39	20.04379
596.849	23.04907
597.308	90.17718
597.768	9.02094
598.227	114.24704
598.685	117.24265
599.144	48.10233
599.603	83.17806
600.062	122.22909
600.52	46.09337
600.978	142.30088
601.437	172.35009
601.895	181.33912
602.353	175.34492
602.811	207.40396
603.269	234.48996
603.727	202.42577
604.184	240.4698
604.642	269.57159
605.099	322.63958
605.557	317.66418
606.014	344.62593
606.471	346.73247
606.928	353.634
607.385	388.7883
607.842	520.96597
608.299	615.14179
608.755	632.2087
609.212	595.04705
609.668	565.99408
610.125	702.32922
610.581	750.39262
611.037	761.34901
611.493	749.38282
611.949	745.39465
612.405	714.09442
612.861	901.60113
613.316	786.44946
613.772	906.55399
614.227	832.49849
614.683	931.47104
615.138	883.55691
615.593	928.60713
616.048	939.60346
616.503	1004.83762
616.958	978.83398
617.412	975.71331
617.867	1024.63024
618.321	1005.50227
618.776	1013.63794
619.23	995.73307
619.684	1037.71652
620.138	1095.85181
620.592	972.78339
621.046	1019.78339
621.5	1047.89105
621.954	1016.70153
622.407	1006.66639
622.861	1038.88761
623.314	1002.71093
623.768	979.72484
624.221	962.39922
624.674	936.65103
625.127	1019.79552
625.58	1040.78078
626.033	966.62721
626.485	926.71841
626.938	1035.86742
627.39	992.76281
627.843	1004.77131
628.295	1037.81498
628.747	1065.91485
629.199	1021.76354
629.651	959.68248
630.103	1078.85493
630.555	1071.68554
631.006	1130.98396
631.458	1103.96416
631.909	1130.95092
632.361	1158.01513
632.812	1208.0475
633.263	1205.88673
633.714	1308.9779
634.165	1311.3167
634.616	1318.26971
635.067	1441.20893
635.518	1456.43875
635.968	1515.99414
636.419	1554.24754
636.869	1613.58962
637.319	1674.53803
637.769	1710.45224
638.219	1852.81334
638.669	1866.80513
639.119	1975.98654
639.569	2025.96523
640.019	2115.8433
640.468	2145.70931
640.918	2330.13
641.367	2404.81272
641.816	2487.81849
642.265	2607.00153
642.714	2664.01285
643.163	2741.99009
643.612	2803.20764
644.061	2892.5565
644.51	3016.93057
644.958	3117.7237
645.406	3144.20409
645.855	3234.36029
646.303	3349.05148
646.751	3390.85867
647.199	3389.86917
647.647	3461.91542
648.095	3508.88009
648.543	3633.22185
648.99	3672.0932
649.438	3646.02068
649.885	3774.32151
650.333	3715.90264
650.78	3853.11514
651.227	3765.20134
651.674	3762.77412
652.121	3736.22267
652.568	3820.17556
653.015	3785.50217
653.461	3739.06672
653.908	3653.97472
654.354	3697.12839
654.801	3624.02008
655.247	3635.63105
655.693	3518.80679
656.139	3534.20926
656.585	3514.22279
657.031	3535.01405
657.477	3317.64059
657.922	3424.98311
658.368	3354.46279
658.813	3367.09113
659.259	3325.27634
659.704	3261.10578
660.149	3169.126
660.594	3214.23789
661.039	3170.99895
661.484	3137.30489
661.929	3116.17241
662.373	3116.63958
662.818	3024.53854
663.262	3031.34839
663.707	3084.68513
664.151	3039.45435
664.595	3000.36849
665.039	3139.57793
665.483	2997.72106
665.927	3036.24281
666.371	3021.11737
666.814	3043.3308
667.258	2956.25488
667.701	3042.7727
668.145	3055.59894
668.588	2990.50309
669.031	2973.22819
669.474	3003.38804
669.917	3076.90857
670.36	3126.57579
670.803	3086.4134
671.245	3029.65481
671.688	3112.48259
672.13	3070.96731
672.573	3053.75231
673.015	3071.38413
673.457	2992.83152
673.899	3113.44476
674.341	2957.41905
674.783	3027.37307
675.225	3005.53558
675.666	2915.38125
676.108	3010.82691
676.549	3109.31471
676.991	2929.91487
677.432	2896.41276
677.873	2896.18338
678.314	2908.36416
678.755	2864.47065
679.196	2744.11629
679.637	2776.49672
680.078	2758.24954
680.518	2753.23072
680.959	2683.36104
681.399	2582.53011
681.839	2629.44116
682.28	2607.50656
682.72	2544.08955
683.16	2520.53323
683.6	2459.06538
684.039	2525.64984
684.479	2469.43489
684.919	2295.04294
685.358	2423.61058
685.798	2394.77493
686.237	2396.34147
686.676	2357.12396
687.115	2348.17318
687.554	2347.22339
687.993	2301.87634
688.432	2266.00809
688.871	2198.94387
689.309	2182.17372
689.748	2197.60909
690.186	2251.21857
690.625	2141.06498
691.063	2140.17133
691.501	2120.30745
691.939	2146.36199
692.377	2130.24619
692.815	2103.13479
693.253	2072.15072
693.69	2043.74398
694.128	2016.13727
694.565	1983.05259
695.003	1998.34557
695.44	1982.9859
695.877	1964.94444
696.314	1945.61596
696.751	1964.85954
697.188	1922.85155
697.625	1983.90082
698.061	1819.95159
698.498	1824.9982
698.934	1836.98522
699.371	1797.856
699.807	1727.82097
700.243	1736.89277
700.679	1705.64417
701.115	1709.79437
701.551	1688.77262
701.987	1665.58888
702.422	1663.77538
702.858	1647.77372
703.294	1665.61271
703.729	1646.87542
704.164	1620.78574
704.599	1565.46688
705.035	1480.399
705.47	1590.78999
705.904	1517.56564
706.339	1632.68132
706.774	1519.58692
707.209	1445.45752
707.643	1465.61415
708.078	1487.6847
708.512	1401.66819
708.946	1398.53293
709.38	1391.48659
709.814	1370.35475
710.248	1399.58643
710.682	1415.52324
711.116	1346.44572
711.549	1360.72612
711.983	1291.2918
712.416	1332.41168
712.85	1287.513
713.283	1289.35885
713.716	1276.5248
714.149	1273.36323
714.582	1247.16219
715.015	1243.46794
715.448	1224.45877
715.881	1160.99866
716.313	1159.16266
716.746	1161.17598
717.178	1136.19726
717.61	1183.4159
718.043	1183.36598
718.475	1173.27276
718.907	1182.41223
719.339	1087.98242
719.77	1049.03392
720.202	1132.32876
720.634	1070.12929
721.065	1054.04412
721.497	1086.17516
721.928	1025.08339
722.359	969.95223
722.79	991.97196
723.221	1069.21912
723.652	1023.20989
724.083	990.83923
724.514	962.84022
724.945	942.85743
725.375	894.75361
725.806	1021.12217
726.236	959.08119
726.666	956.89564
727.096	955.97413
727.526	929.00578
727.956	925.76039
728.386	953.97876
728.816	940.01533
729.246	909.87395
729.675	886.86282
730.105	995.04427
730.534	930.82946
730.964	941.01877
731.393	941.98155
731.822	958.07067
732.251	911.97531
732.68	962.89603
733.109	934.94746
733.537	951.92907
733.966	895.89864
734.395	937.81174
734.823	961.80072
735.251	880.80885
735.68	933.98529
736.108	918.98079
736.536	877.76267
736.964	899.76301
737.392	890.90727
737.82	912.85452
738.247	913.85193
738.675	971.94017
739.102	929.96823
739.53	933.017
739.957	890.96695
740.384	976.01998
740.811	933.00929
741.238	956.96079
741.665	903.76588
742.092	937.88425
742.519	914.92088
742.945	935.89056
743.372	939.96524
743.798	969.1038
744.225	939.8753
744.651	962.0334
745.077	987.05956
745.503	1010.04496
745.929	955.92048
746.355	1081.20634
746.781	1017.09328
747.207	906.79221
747.632	976.98657
748.058	996.07608
748.483	1034.9449
748.908	1060.16683
749.334	1042.10987
749.759	1034.9991
750.184	1026.00855
750.609	1094.19121
751.033	1111.11769
751.458	1088.95881
751.883	1113.24211
752.307	1072.0476
752.732	1052.16398
753.156	1084.18708
753.58	1156.19043
754.005	1134.34016
754.429	1107.09278
754.853	1126.25748
755.277	1159.18285
755.7	1168.32468
756.124	1153.30165
756.548	1133.14934
756.971	1216.3479
757.394	1232.53132
757.818	1211.49534
758.241	1246.50302
758.664	1264.51375
759.087	1210.08948
759.51	1245.44339
759.933	1179.25197
760.356	1287.59552
760.778	1201.34476
761.201	1264.40143
761.623	1285.42202
762.046	1339.42257
762.468	1310.42435
762.89	1307.50308
763.312	1208.33574
763.734	1238.33376
764.156	1308.5032
764.578	1267.24324
765	1295.44922
765.421	1242.49612
765.843	1282.66113
766.264	1307.43611
766.686	1299.546
767.107	1292.42284
767.528	1230.45956
767.949	1267.53888
768.37	1273.43664
768.791	1304.43468
769.212	1254.47775
769.632	1214.20615
770.053	1260.64081
770.473	1187.29233
770.894	1242.45627
771.314	1273.35741
771.734	1183.16857
772.154	1243.53401
772.575	1221.20385
772.994	1182.09808
773.414	1225.30863
773.834	1178.3565
774.254	1194.31847
774.673	1271.40953
775.093	1151.28603
775.512	1122.23091
775.931	1185.40694
776.351	1179.33633
776.77	1095.16958
777.189	1153.18103
777.607	1125.3355
778.026	1097.22292
778.445	1077.20212
778.864	1142.37555
779.282	1074.0978
779.701	1061.1986
780.119	1064.20824
780.537	1011.09113
780.955	1069.23678
781.373	1023.08873
781.791	1031.87248
782.209	1064.97895
782.627	970.15883
783.045	1014.90255
783.462	1000.13218
783.88	952.08038
784.297	972.04653
784.715	903.97704
785.132	931.8919
785.549	915.93856
785.966	960.02564
786.383	933.93034
786.8	913.77452
787.217	875.75622
787.633	857.83219
788.05	887.78197
788.466	886.76485
788.883	849.86425
789.299	842.73378
789.715	863.7878
790.131	871.84931
790.547	817.76392
790.963	825.76526
791.379	817.78796
791.795	757.49397
792.21	799.60499
792.626	771.58496
793.041	803.71446
793.457	801.71387
793.872	760.54935
794.287	684.44095
794.702	775.66177
795.117	678.49637
795.532	664.48375
795.947	741.55877
796.362	726.51881
796.776	776.57127
797.191	650.41957
797.605	556.18175
798.02	629.37047
798.434	642.26462
798.848	621.37302
799.262	599.34084
799.676	581.28288
800.09	599.32928
800.504	612.33423
800.918	576.20199
801.331	568.36044
801.745	529.10498
802.158	530.2132
802.572	593.2974
802.985	520.15064
803.398	526.14505
803.811	516.22166
804.224	507.16071
804.637	465.02339
805.05	462.99039
805.462	491.11186
805.875	431.04462
806.288	404.91381
806.7	432.01343
807.112	426.92032
807.525	376.87674
807.937	415.96137
808.349	398.9386
808.761	368.85641
809.173	372.85137
809.584	386.8997
809.996	371.85811
810.408	334.8221
810.819	369.8185
811.231	338.83225
811.642	368.82765
812.053	410.91188
812.464	436.96447
812.875	468.10957
813.286	374.91135
813.697	382.84046
814.108	324.75493
814.519	304.64638
814.929	293.71815
815.34	267.62422
815.75	270.66167
816.16	281.67391
816.571	296.73878
816.981	228.52269
817.391	223.52341
817.801	241.57997
818.211	248.57172
818.62	217.50813
819.03	220.52452
819.44	229.58181
819.849	239.58408
820.259	234.58173
820.668	182.43842
821.077	178.43332
821.486	186.43853
821.895	213.51279
822.304	156.40719
822.713	173.40114
823.122	168.41188
823.531	159.37072
823.939	175.41812
824.348	158.37801
824.756	182.4467
825.164	146.36245
825.573	128.31777
825.981	168.40929
826.389	139.34489
826.797	126.31235
827.205	92.21032
827.612	144.35056
828.02	97.22661
828.428	157.39352
828.835	152.39417
829.243	76.181
829.65	107.26413
830.057	87.21049
830.464	123.29669
830.871	115.27309
831.278	128.30601
831.685	70.15635
832.092	142.34297
832.499	94.20475
832.905	117.29358
833.312	87.19789
833.718	105.25986
834.124	86.19597
834.531	123.30697
834.937	82.20986
835.343	93.2234
835.749	97.22546
836.155	89.23203
836.561	102.24924
836.966	80.19519
837.372	96.24301
837.777	88.21831
838.183	94.20805
838.588	38.09482
838.993	76.18474
839.399	31.07627
839.804	7.01724
840.209	62.15784
840.613	43.09618
841.018	59.14954
841.423	97.24733
841.828	34.08643
842.232	121.29671
842.637	49.116
843.041	30.07732
843.445	45.11324
843.849	70.17308
844.253	76.1803
844.657	32.081
845.061	19.04353
845.465	49.11869
845.869	45.10501
846.272	-3.00739
846.676	46.11165
847.079	38.09701
847.483	62.15471
847.886	75.18214
848.289	34.0911
848.692	71.1795
849.095	51.12279
849.498	93.23445
849.901	60.13778
850.304	48.11506
850.707	18.04624
851.109	42.10666
851.512	29.07169
851.914	-16.04086
852.316	4.01022
852.718	22.05715
853.121	27.06658
853.523	24.05652
853.925	-4.01054
854.326	14.03529
854.728	-15.03907
855.13	26.06743
855.531	18.04336
855.933	50.12031
856.334	-8.02019
856.736	-6.01363
857.137	29.06786
857.538	3.00762
857.939	9.02244
858.34	33.08083
858.741	45.11788
859.142	18.04359
859.542	37.09795
859.943	32.07991
860.343	-6.01503
860.744	51.12465
861.144	60.14634
861.544	-25.06103
861.945	-1.00257
862.345	11.02714
862.745	27.06748
863.145	70.16703
863.544	61.15406
863.944	27.06419
864.344	14.03506
864.743	60.14885
865.143	16.04139
865.542	31.07231
865.941	41.10181
866.34	48.11524
866.74	36.09694
867.139	46.11039
867.537	25.06406
867.936	41.09901
868.335	48.12233
868.734	33.08468
869.132	52.12098
869.531	54.13072
869.929	-12.02774
870.327	20.04829
870.726	44.10999
871.124	15.03536
871.522	61.15527
871.92	58.14304
872.318	44.10784
872.715	34.08453
873.113	16.03929
873.511	26.06514
873.908	-15.03834
874.306	-11.02769
874.703	82.20424
875.1	65.16603
875.497	22.0531
875.894	-5.01239
876.291	9.02228
876.688	27.06998
877.085	25.06035
877.482	-16.04057
877.878	1.00243
878.275	1.00257
878.671	15.0337
879.068	36.08725
879.464	-16.0392
879.86	15.03576
880.256	28.06946
880.652	4.01027
881.048	17.04243
881.444	-15.0362
881.84	9.02306
882.236	30.07578
882.631	23.0568
883.027	0
883.422	-16.04142
883.817	-22.05605
884.213	-3.00778
884.608	-21.05222
885.003	5.01217
885.398	-6.01518
885.793	33.08316
886.188	-27.06812
886.582	72.18414
886.977	6.01438
887.371	6.01531
887.766	-44.11138
888.16	8.02014
888.554	23.05721
888.949	23.05809
889.343	40.098
889.737	13.03487
890.131	-7.01775
890.525	-16.04142
890.918	23.05821
891.312	3.00725
891.706	1.00265
892.099	28.07158
892.492	33.07156
892.886	-11.02724
893.279	8.02055
893.672	-8.02059
894.065	25.06294
894.458	33.08331
894.851	80.19512
895.244	3.00773
895.637	2.00487
896.029	-13.03219
896.422	19.04673
896.814	-19.04787
897.206	-27.0653
897.599	54.13357
897.991	-15.03674
898.383	-13.03112
898.775	4.00912
899.167	-15.03546
899.559	11.02806
899.951	3.00714
900.342	28.07153
900.734	-60.15194
901.125	26.06854
901.517	3.00743
901.908	57.13661
902.299	-4.00988
902.69	-20.04787
903.082	6.01466
903.473	-37.09013
903.863	16.04109
904.254	-7.01644
904.645	18.04506
905.036	-26.06389
905.426	53.12139
905.817	4.00991
906.207	-11.02653
906.597	-30.07131
906.987	3.00784
907.378	8.0204
907.768	4.01066
908.158	14.03439
908.547	-27.07071
908.937	8.02069
909.327	14.03425
909.717	15.03834
910.106	1.00243
910.495	32.0802
910.885	17.04333
911.274	16.04026
911.663	36.09165
912.052	39.09649
912.441	19.0486
912.83	-3.00696
913.219	26.06835
913.608	2.00495
913.997	-24.06099
914.385	31.07438
914.774	11.02699
915.162	-4.00964
915.55	15.03655
915.939	-8.02041
916.327	45.11247
916.715	-8.0206
917.103	49.12069
917.491	27.06712
917.878	37.09124
918.266	6.01568
918.654	-1.00258
919.041	18.04726
919.429	-10.02389
919.816	30.07635
920.203	-17.04177
920.591	1.0025
920.978	9.02222
921.365	21.05539
921.752	-1.00241
922.139	-22.04853
922.525	-20.04869
922.912	14.03439
923.299	-8.0201
923.685	18.04723
924.072	-18.04209
924.458	3.0075
924.844	-14.03506
925.231	-9.0212
925.617	8.0205
926.003	51.13036
926.389	6.01526
926.774	7.01788
927.16	14.03501
927.546	4.01029
927.931	36.09009
928.317	48.11066
928.702	13.03099
929.088	11.02622
929.473	-14.03603
929.858	-36.08846
930.243	12.02902
930.628	14.0343
931.013	22.05482
931.398	40.09222
931.783	17.04502
932.167	6.01479
932.552	27.06795
932.937	72.17803
933.321	-25.06359
933.705	9.02286
934.09	34.08619
934.474	27.06444
934.858	-18.04724
935.242	-70.16613
935.626	24.06172
936.009	11.02945
936.393	19.04862
936.777	-24.06226
937.16	-4.01051
937.544	51.12018
937.927	-4.01025
938.311	45.10998
938.694	26.06905
939.077	-9.02179
939.46	53.13011
939.843	-11.02327
940.226	10.02583
940.609	-16.03723
940.991	-2.00514
941.374	-19.04704
941.757	30.07432
942.139	-9.02046
942.522	1.00239
942.904	21.05077
943.286	31.07905
943.668	26.06764
944.05	18.04461
944.432	2.00498
944.814	55.13537
945.196	-46.11412
945.578	-32.07726
945.959	26.06123
946.341	32.07883
946.722	21.04958
947.104	33.07915
947.485	-22.05193
947.866	-20.05102
948.247	-12.03061
948.628	29.07104
949.009	-11.02847
949.39	34.0849
949.771	35.08167
950.152	21.05182
950.532	-28.06987
950.913	-15.03663
951.293	-8.02182
951.674	21.05108
952.054	15.03741
952.434	16.03997
952.814	22.05264
953.194	23.06048
953.574	44.10852
953.954	24.05729
954.334	16.04013
954.714	-8.01971
955.093	25.06176
955.473	-30.0761
955.853	33.08568
956.232	32.08796
956.611	24.05786
956.99	-18.04579
957.37	27.06909
957.749	-21.05079
958.128	-14.03568
958.506	4.01046
958.885	24.06086
959.264	-2.00495
959.643	-17.03922
960.021	-18.04516
960.4	-33.07607
960.778	42.10362
961.156	-19.04822
961.535	13.03053
961.913	11.02594
962.291	6.01551
962.669	-42.10813
963.047	54.13772
963.424	11.02827
963.802	-14.03483
964.18	11.02803
964.557	-1.00233
964.935	20.04767
965.312	33.08618
965.69	74.18452
966.067	9.02209
966.444	21.05203
966.821	17.04408
967.198	17.0415
967.575	41.10099
967.952	11.02612
968.329	25.06112
968.705	57.12207
969.082	17.04385
969.458	-21.05106
969.835	-14.03449
970.211	16.04131
970.587	35.08738
970.963	-5.01295
971.339	-9.02374
971.715	15.03769
972.091	9.02233
972.467	7.0176
972.843	-11.0276
973.219	48.11532
973.594	-11.02907
973.97	84.19867
974.345	-25.06069
974.721	35.085
975.096	-16.0392
975.471	24.05722
975.846	14.03387
976.221	-3.00769
976.596	-13.03154
976.971	10.02487
977.346	8.01878
977.72	17.04356
978.095	7.01823
978.469	19.04562
978.844	78.19512
979.218	-11.02667
979.593	59.14113
979.967	15.03678
980.341	-25.05843
980.715	-6.01527
981.089	28.07037
981.463	-26.06061
981.837	15.03689
982.21	33.07707
982.584	1.00244
982.957	-26.06582
983.331	40.09475
983.704	11.02722
984.078	17.04215
984.451	32.0802
984.824	-21.05182
985.197	-4.00981
985.57	39.098
985.943	45.11125
986.316	69.16895
986.688	11.02672
987.061	33.07761
987.434	12.03147
987.806	13.03175
988.179	2.00476
988.551	33.08397
988.923	18.04459
989.295	41.10262
989.667	-23.05571
990.039	2.00499
990.411	7.01625
990.783	-20.0467
991.155	-18.0438
991.527	38.09379
991.898	21.0526
992.27	-2.00499
992.641	2.00506
993.012	38.08963
993.384	17.04081
993.755	47.11988
994.126	6.01455
994.497	-18.04474
994.868	-2.00464
995.239	-13.03188
995.61	-31.07913
995.98	-15.03688
996.351	-21.05268
996.722	-31.07305
997.092	-57.13775
997.462	-54.1287
997.833	61.1443
998.203	14.03417
998.573	17.04258
998.943	21.04952
999.313	-30.07298
999.683	-18.04376
1000.053	27.06241
1000.423	21.05131
1000.792	35.09094
1001.162	-4.00994
1001.531	0
1001.901	19.04763
1002.27	15.03377
1002.639	26.0667
1003.009	13.03113
1003.378	14.03602
1003.747	-15.03588
1004.116	-19.04606
1004.485	48.11475
1004.853	37.09394
1005.222	9.02286
1005.591	25.05964
1005.959	-20.0457
1006.328	-58.1334
1006.696	-16.03907
1007.064	35.08827
1007.433	27.06775
1007.801	42.10324
1008.169	17.04318
1008.537	8.01787
1008.905	-42.0996
1009.273	19.0472
1009.64	11.02643
1010.008	-6.01445
1010.375	21.05127
1010.743	43.09943
1011.11	-17.04074
1011.478	13.03239
1011.845	14.03315
1012.212	-56.12947
1012.579	12.02966
1012.946	33.07879
1013.313	43.10247
1013.68	40.09008
1014.047	-65.15827
1014.414	-43.10337
1014.78	10.02503
1015.147	23.0559
1015.513	-23.05617
1015.88	22.05652
1016.246	24.05952
1016.612	10.02307
1016.978	29.07133
1017.344	-8.01998
1017.71	21.05148
1018.076	36.08511
1018.442	24.062
1018.808	17.04273
1019.174	9.02274
1019.539	77.17628
1019.905	-1.00238
1020.27	3.00747
1020.636	70.16716
1021.001	32.07685
1021.366	-7.01699
1021.731	-3.00778
1022.096	-21.05362
1022.461	12.0286
1022.826	31.07393
1023.191	-8.02119
1023.556	7.01654
1023.92	4.00992
1024.285	47.11474
1024.649	19.04682
1025.014	35.08691
1025.378	-28.07136
1025.742	4.01001
1026.107	-5.01143
1026.471	38.0889
1026.835	9.02247
1027.199	-5.01216
1027.562	18.04209
1027.926	23.05651
1028.29	29.07363
1028.654	-18.04196
1029.017	11.02722
1029.381	18.04325
1029.744	15.03848
1030.107	22.05231
1030.471	-13.03149
1030.834	-3.0069
1031.197	19.04602
1031.56	45.10624
1031.923	14.03641
1032.286	-1.00237
1032.648	78.18548
1033.011	-35.08167
1033.374	47.11049
1033.736	-10.02655
1034.099	12.02944
1034.461	-24.0614
1034.823	8.02006
1035.185	26.0657
1035.548	29.07082
1035.91	-18.04366
1036.272	-13.02995
1036.634	21.05163
1036.995	6.01422
1037.357	-26.06412
1037.719	28.06834
1038.08	26.06199
1038.442	-7.01679
1038.803	30.07227
1039.165	-5.01274
1039.526	20.04858
1039.887	31.07441
1040.248	3.00745
1040.609	-4.00998
1040.97	8.01969
1041.331	18.04581
1041.692	-8.01888
1042.053	-17.03922
1042.413	20.04686
1042.774	37.09016
1043.134	3.0072
1043.495	38.09568
1043.855	7.01711
1044.215	13.03247
1044.576	-45.10949
1044.936	16.03692
1045.296	26.06514
1045.656	25.0616
1046.016	24.05819
1046.375	-19.04666
1046.735	-40.09229
1047.095	-9.0213
1047.454	27.05747
1047.814	-3.00728
1048.173	29.06953
1048.533	-25.05811
1048.892	-6.01455
1049.251	40.10053
1049.61	17.04209
1049.969	29.0686
1050.328	-29.0639
1050.687	10.0245
1051.046	-7.01722
1051.405	13.03254
1051.763	-27.063
1052.122	3.00754
1052.48	-11.02726
1052.839	-61.14653
1053.197	-37.08851
1053.555	54.12295
1053.914	-6.01482
1054.272	58.13993
1054.63	-1.00247
1054.988	-29.0699
1055.345	-37.08112
1055.703	45.10834
1056.061	-10.02598
1056.419	0
1056.776	1.00245
1057.134	-4.00935
1057.491	-6.01517
1057.848	0
1058.206	39.09186
1058.563	-24.0537
1058.92	9.0209
1059.277	22.05452
1059.634	58.13617
1059.991	57.1363
1060.348	-9.02057
1060.704	7.01681
1061.061	19.04439
1061.418	2.00489
1061.774	22.05456
1062.131	-3.008
1062.487	-28.06643
1062.843	16.04011
1063.199	-12.03016
1063.555	-4.00936
1063.911	-4.01019
1064.267	7.01473
1064.623	-20.04918
1064.979	32.07603
1065.335	33.07909
1065.691	20.04818
1066.046	18.03982
1066.402	-8.01838
1066.757	14.03554
1067.112	10.02471
1067.468	-54.12999
1067.823	-8.01943
1068.178	-3.00732
1068.533	-11.02695
1068.888	5.01204
1069.243	8.01988
1069.598	-17.0418
1069.952	-46.10554
1070.307	11.0274
1070.662	-22.05292
1071.016	-47.10734
1071.371	-42.09725
1071.725	49.11717
1072.079	5.01212
1072.434	-25.06156
1072.788	1.0024
1073.142	40.09851
1073.496	-35.08433
1073.85	5.01169
1074.203	56.13562
1074.557	19.05075
1074.911	79.18738
1075.265	2.00469
1075.618	34.08321
1075.971	30.07158
1076.325	21.0536
1076.678	-32.07433
1077.031	-1.00228
1077.385	6.01333
1077.738	-8.01826
1078.091	-82.19131
1078.444	-21.04941
1078.796	6.01483
1079.149	24.05993
1079.502	-5.01193
1079.855	3.00706
1080.207	15.03716
1080.56	-19.04965
1080.912	4.00981
1081.264	14.03392
1081.617	-5.0123
1081.969	17.0431
1082.321	-11.02714
1082.673	-35.08119
1083.025	-5.01198
1083.377	-225.51115
1083.728	21.04923
1084.08	10.02512
1084.432	-10.02437
1084.783	17.04006
1085.135	-2.00506
1085.486	-15.03474
1085.838	-2.00497
1086.189	19.04635
1086.54	8.01924
1086.891	11.02799
1087.242	-13.032
1087.593	24.05867
1087.944	-7.01601
1088.295	35.07974
1088.646	31.07534
1088.996	13.03151
1089.347	12.02963
1089.698	-44.10579
1090.048	41.10656
1090.398	-22.05171
1090.749	21.05048
1091.099	-43.10984
1091.449	29.07246
1091.799	25.06282
1092.149	-37.09161
1092.499	42.10252
1092.849	16.04088
1093.199	20.05036
1093.548	-13.03158
1093.898	5.0126
1094.248	26.06703
1094.597	-55.14285
1094.947	47.12533
1095.296	-10.02494
1095.645	37.09637
1095.994	10.02418
1096.343	41.10325
1096.692	-16.04246
1097.041	-5.01365
1097.39	42.10541
1097.739	18.047
1098.088	31.08324
1098.437	-18.04778
1098.785	58.15602
1099.134	30.07985
1099.482	13.03593
1099.83	34.08951
1100.179	-19.05009
1100.527	17.04538
1100.875	5.01331
1101.223	10.02671
1101.571	18.04995
1101.919	-23.06078
1102.267	-1.00283
1102.615	1.00322
1102.962	8.02576
1103.31	10.03211
1103.658	22.07077
