Data from N2 R0 60C sample8_Subt2__2__11-44-15-173.txt Node

Date: Tue Aug 19 11:44:15 PDT 2025
User: uwsun
Spectrometer: HDX01956
Trigger mode: 0
Integration Time (sec): 5.000000E-1
Scans to average: 1
Nonlinearity correction enabled: true
Boxcar width: 0
Storing dark spectrum: false
XAxis mode: Wavelengths
Number of Pixels in Spectrum: 2068
>>>>>Begin Spectral Data<<<<<
194.03	484.31835
194.578	494.51464
195.127	472.4305
195.676	473.43905
196.225	517.31862
196.773	608.59066
197.321	884.21886
197.87	1173.60266
198.418	1147.52404
198.966	1118.54436
199.513	1045.27946
200.061	1103.44133
200.609	1093.50689
201.156	1070.01626
201.704	1093.4122
202.251	1140.63067
202.798	1136.55323
203.345	1174.47015
203.892	1112.42008
204.438	1121.3025
204.985	1172.39932
205.532	1145.60109
206.078	1212.51684
206.624	1219.54088
207.17	1197.34462
207.716	1127.36034
208.262	1162.90269
208.808	1155.47722
209.354	1168.4361
209.899	1186.5193
210.445	1179.52224
210.99	1194.46411
211.535	1250.46983
212.08	1205.39237
212.625	1175.51905
213.17	1133.46631
213.715	1171.2721
214.259	1158.29624
214.804	1184.45974
215.348	1125.18575
215.892	1107.27879
216.436	1179.30713
216.98	1155.18589
217.524	1155.32367
218.068	1167.54033
218.612	1223.59401
219.155	1128.26875
219.698	1080.2286
220.242	1079.32798
220.785	1066.14483
221.328	1040.24712
221.871	1037.27055
222.414	1068.30276
222.956	1045.22775
223.499	982.94634
224.041	1030.08837
224.583	1004.85515
225.126	1045.98916
225.668	1029.17283
226.21	1038.27607
226.751	990.91847
227.293	1066.12524
227.835	1086.30577
228.376	1034.06227
228.918	1017.25186
229.459	995.18855
230	1006.08771
230.541	1108.22439
231.082	1010.10809
231.622	998.00135
232.163	1011.14963
232.704	1021.19995
233.244	985.1494
233.784	996.13461
234.324	1011.98016
234.864	1026.02459
235.404	1035.13229
235.944	1073.18112
236.484	1038.22471
237.023	1109.26052
237.563	1069.12681
238.102	1056.12759
238.641	1076.35647
239.18	1084.20003
239.719	1068.31744
240.258	1056.05189
240.797	1076.23713
241.335	1056.24202
241.874	1080.80125
242.412	1119.32509
242.95	1065.21081
243.488	1079.13286
244.026	1097.15642
244.564	1092.91504
245.102	1074.07313
245.64	1049.16984
246.177	1047.0435
246.715	1096.26367
247.252	1089.14667
247.789	1049.69164
248.326	1115.31984
248.863	1113.10415
249.4	1118.1675
249.936	1079.88576
250.473	1165.31175
251.009	1134.23815
251.546	1078.04226
252.082	1152.12897
252.618	1100.08506
253.154	1112.31308
253.69	1095.09415
254.226	1119.27682
254.761	1121.18311
255.297	1078.00961
255.832	1102.21738
256.367	1175.34995
256.903	1148.09737
257.438	1131.25247
257.972	1154.18981
258.507	1154.26605
259.042	1156.14063
259.576	1144.11729
260.111	1162.26366
260.645	1139.05324
261.179	1144.26003
261.713	1155.19542
262.247	1163.28216
262.781	1187.08911
263.315	1187.47196
263.849	1204.55315
264.382	1185.27215
264.915	1243.45654
265.449	1248.59851
265.982	1218.32832
266.515	1195.43166
267.048	1221.18042
267.58	1188.17722
268.113	1183.15125
268.646	1191.49339
269.178	1251.31883
269.71	1244.25518
270.243	1173.24478
270.775	1195.54991
271.307	1226.45268
271.838	1251.4185
272.37	1245.54722
272.902	1239.33168
273.433	1191.14406
273.965	1213.47501
274.496	1193.46478
275.027	1268.60535
275.558	1251.52283
276.089	1222.54658
276.62	1278.69024
277.15	1239.50541
277.681	1259.26234
278.211	1181.37064
278.741	1256.29539
279.272	1271.38277
279.802	1254.5846
280.332	1268.46944
280.861	1322.60024
281.391	1207.28346
281.921	1244.49102
282.45	1342.7391
282.98	1316.82555
283.509	1259.31413
284.038	1258.36811
284.567	1298.44125
285.096	1277.55661
285.625	1349.49492
286.153	1250.40568
286.682	1350.49616
287.21	1347.64148
287.739	1357.6152
288.267	1334.63243
288.795	1305.7775
289.323	1304.53611
289.851	1409.65772
290.378	1373.47931
290.906	1367.69328
291.433	1337.69403
291.961	1397.52028
292.488	1390.76853
293.015	1419.6883
293.542	1472.97776
294.069	1348.66873
294.596	1410.76976
295.122	1434.71614
295.649	1412.4453
296.175	1513.90276
296.702	1446.76269
297.228	1468.79277
297.754	1495.66657
298.28	1503.66178
298.806	1455.76067
299.332	1500.5972
299.857	1468.58949
300.383	1463.92281
300.908	1430.77515
301.433	1433.74237
301.958	1432.58434
302.483	1508.95573
303.008	1521.92785
303.533	1499.04133
304.058	1506.76782
304.582	1558.84675
305.107	1555.18906
305.631	1581.70895
306.155	1573.81638
306.679	1580.78811
307.203	1596.82663
307.727	1588.86717
308.251	1636.06009
308.775	1562.8754
309.298	1684.06929
309.822	1658.17369
310.345	1684.01283
310.868	1632.94254
311.391	1706.11268
311.914	1713.21481
312.437	1670.83309
312.96	1754.01372
313.482	1745.01938
314.005	1766.27548
314.527	1784.48031
315.049	1731.20479
315.571	1805.93025
316.093	1859.32207
316.615	1792.16518
317.137	1811.79772
317.659	1901.30181
318.18	1808.10726
318.702	1864.03544
319.223	1937.76414
319.744	1945.01908
320.265	2024.37693
320.786	1955.42098
321.307	2050.49593
321.828	2066.15238
322.348	2078.31825
322.869	2101.38258
323.389	1793.7133
323.909	2080.16494
324.43	2131.35979
324.95	2174.23805
325.47	2177.501
325.989	2242.39074
326.509	2290.15955
327.029	2289.19679
327.548	2321.22671
328.067	2407.63027
328.587	2382.69287
329.106	2325.1862
329.625	2396.93644
330.144	2419.41534
330.662	2401.31653
331.181	2434.42981
331.7	2501.496
332.218	2534.16646
332.736	2648.52003
333.255	2613.46151
333.773	2570.50427
334.291	2662.77155
334.808	2746.35338
335.326	2813.38042
335.844	2767.53477
336.361	2831.97325
336.879	2893.61279
337.396	2882.67898
337.913	2947.43324
338.43	3095.34309
338.947	2946.56932
339.464	3092.10848
339.981	3070.6117
340.497	3097.75407
341.014	3132.77781
341.53	3166.24662
342.046	3108.739
342.562	3329.88247
343.078	3266.54829
343.594	3357.58452
344.11	3349.5192
344.626	3387.91832
345.141	3331.28564
345.657	3430.20691
346.172	3425.61967
346.687	3489.37704
347.202	3603.18093
347.717	3623.53293
348.232	3731.76191
348.747	3669.30576
349.261	3777.01669
349.776	3682.40182
350.29	3837.71643
350.805	3881.73747
351.319	3891.31597
351.833	3721.11724
352.347	3931.26599
352.861	3973.18287
353.374	3966.06874
353.888	3956.44135
354.401	3975.13333
354.915	4033.98764
355.428	4208.48797
355.941	4241.11718
356.454	4231.8185
356.967	4204.11429
357.48	4273.91319
357.993	4418.31245
358.505	4274.30391
359.018	4403.26209
359.53	4562.15253
360.042	4476.60879
360.554	4424.14247
361.066	4436.25154
361.578	4463.4751
362.09	4555.94048
362.602	4694.44114
363.113	4705.80702
363.625	4801.51496
364.136	4761.37715
364.647	4751.85378
365.158	4867.60493
365.669	4866.79516
366.18	4841.69751
366.691	4896.30629
367.201	4914.79842
367.712	5151.37591
368.222	5059.42174
368.733	5174.17905
369.243	5352.09404
369.753	5403.37667
370.263	5462.49785
370.773	5478.5377
371.282	5548.33267
371.792	5589.28795
372.301	5850.31712
372.811	5992.66105
373.32	5990.52018
373.829	6216.00108
374.338	6528.53518
374.847	6591.75422
375.356	6770.84786
375.865	7002.31507
376.373	7460.72655
376.882	7482.16241
377.39	7569.98123
377.898	7938.28227
378.407	8279.28645
378.915	8504.50367
379.423	8827.13519
379.93	9041.46894
380.438	9584.68209
380.946	10143.27295
381.453	10493.44087
381.96	11046.70986
382.468	11941.17869
382.975	12410.95386
383.482	12745.00571
383.989	12802.08725
384.495	13443.92681
385.002	14386.1941
385.509	15152.91801
386.015	16018.59374
386.521	16559.51755
387.028	17276.82459
387.534	17788.23816
388.04	18573.08687
388.546	18729.56348
389.051	19990.17554
389.557	21720.38747
390.063	23364.45355
390.568	23937.04429
391.073	24689.25655
391.578	25784.61366
392.084	26698.14758
392.589	27768.77729
393.093	29738.26424
393.598	32672.25606
394.103	35396.66109
394.607	38584.49369
395.112	41517.30313
395.616	43984.29547
396.12	47719.01339
396.624	52848.49171
397.128	57297.52938
397.632	60998.03376
398.136	61480.43771
398.639	61850.40973
399.143	61679.31033
399.646	61269.15804
400.15	60904.11498
400.653	60560.14334
401.156	60136.25446
401.659	59550.50961
402.162	58431.12733
402.664	54480.21957
403.167	49329.08451
403.67	22278.45323
404.172	2696.20453
404.674	0
405.176	0
405.678	0
406.18	0
406.682	0
407.184	0
407.686	25783.58453
408.187	43316.52985
408.688	51225.60928
409.19	54389.01922
409.691	56215.4214
410.192	57270.57019
410.693	57845.40442
411.194	58219.2365
411.694	58633.01717
412.195	59215.68848
412.696	59364.60701
413.196	59341.61941
413.696	59632.46864
414.196	59367.6054
414.696	59763.40624
415.196	59913.34014
415.696	60584.13941
416.196	61381.18813
416.695	61808.38326
417.195	62018.52935
417.694	61837.40139
418.194	62001.51623
418.693	60227.49627
419.192	58656.50017
419.691	57514.41994
420.19	56422.66552
420.688	54680.91792
421.187	52456.03411
421.685	48708.80718
422.184	43643.4121
422.682	37700.45153
423.18	32506.60697
423.678	29386.53525
424.176	27519.6373
424.674	25711.25444
425.172	24762.16232
425.669	23043.13339
426.167	21290.58703
426.664	19645.84441
427.161	17932.48307
427.659	16550.39509
428.156	15537.55994
428.652	14739.01269
429.149	14223.96143
429.646	13518.14777
430.143	12708.18513
430.639	12077.20608
431.135	11526.75429
431.632	10876.18647
432.128	10192.43419
432.624	9493.48052
433.12	9284.98733
433.616	9105.59091
434.111	8826.11129
434.607	8512.68049
435.103	8237.06428
435.598	7960.74001
436.093	7615.82493
436.588	7333.45672
437.083	6865.42145
437.578	6559.60925
438.073	6346.19112
438.568	6108.06426
439.062	5977.42219
439.557	5822.99436
440.051	5540.87294
440.546	5299.07359
441.04	5296.47394
441.534	5220.91852
442.028	5107.49571
442.522	4943.63965
443.015	4916.09463
443.509	4838.85662
444.002	4760.91562
444.496	4638.33183
444.989	4615.91692
445.482	4545.13709
445.975	4617.62433
446.468	4407.32236
446.961	4443.36986
447.454	4348.60302
447.947	4321.0275
448.439	4186.04384
448.931	4234.77964
449.424	4108.39404
449.916	4186.22296
450.408	4076.81452
450.9	3973.34449
451.392	3908.5496
451.884	3840.98871
452.375	3921.57415
452.867	3778.91707
453.358	3650.07076
453.849	3681.67068
454.341	3633.01703
454.832	3466.83615
455.323	3520.51116
455.814	3571.16627
456.304	3422.18248
456.795	3362.19871
457.285	3329.95877
457.776	3313.10568
458.266	3280.40322
458.756	3249.39959
459.247	3145.46826
459.737	3106.51055
460.226	3044.18128
460.716	3037.52632
461.206	2989.51534
461.695	2897.65196
462.185	2910.33081
462.674	2872.34079
463.163	2803.03319
463.653	2832.9192
464.142	2774.52669
464.63	2742.60884
465.119	2673.26932
465.608	2702.3328
466.096	2610.00627
466.585	2526.24157
467.073	2600.39822
467.561	2513.40752
468.05	2465.25983
468.538	2413.4861
469.026	2455.39784
469.513	2406.19229
470.001	2387.11609
470.489	2349.35233
470.976	2278.18989
471.463	2230.45856
471.951	2122.38958
472.438	2136.16527
472.925	2029.07791
473.412	2049.25216
473.899	2014.97097
474.385	1913.16835
474.872	2006.13927
475.359	1873.17365
475.845	1918.62814
476.331	1837.60915
476.817	1764.01515
477.303	1686.80269
477.789	1718.957
478.275	1683.01637
478.761	1672.93777
479.247	1692.73971
479.732	1652.03615
480.218	1586.09464
480.703	1539.88965
481.188	1509.40494
481.673	1571.66612
482.158	1441.37761
482.643	1421.76739
483.128	1478.56694
483.612	1403.53243
484.097	1402.62591
484.581	1348.43215
485.066	1355.61134
485.55	1319.30085
486.034	1273.15883
486.518	1357.5358
487.002	1329.63653
487.486	1289.52282
487.969	1225.46359
488.453	1209.46351
488.936	1210.24648
489.42	1136.05457
489.903	1082.27245
490.386	1134.50198
490.869	1126.01684
491.352	1108.25084
491.835	1083.87099
492.318	1140.1956
492.8	1128.95157
493.283	1071.33228
493.765	1050.20711
494.247	1060.08305
494.73	977.86491
495.212	968.01319
495.694	984.98474
496.175	950.99045
496.657	972.98737
497.139	916.40123
497.62	909.90744
498.102	908.98257
498.583	899.97158
499.064	935.86127
499.545	886.79507
500.026	876.75137
500.507	911.86633
500.988	897.97954
501.469	883.97536
501.949	858.89386
502.43	845.81196
502.91	839.57868
503.39	768.72334
503.87	844.79933
504.35	748.59591
504.83	874.71755
505.31	762.66999
505.79	796.74161
506.269	812.72359
506.749	786.63069
507.228	762.64686
507.707	743.51225
508.187	753.61595
508.666	699.59631
509.145	752.628
509.623	650.41478
510.102	720.60699
510.581	688.5153
511.059	757.73713
511.538	726.70872
512.016	770.69885
512.494	730.63067
512.972	707.55035
513.45	714.54896
513.928	758.70645
514.406	707.60358
514.884	706.67963
515.361	714.59097
515.839	730.54604
516.316	661.49312
516.793	713.65958
517.27	639.43048
517.747	676.61377
518.224	692.50183
518.701	661.40677
519.178	638.47122
519.654	641.42259
520.131	596.38464
520.607	625.44608
521.083	631.36321
521.56	629.41673
522.036	647.3447
522.512	599.36997
522.987	613.3846
523.463	654.47099
523.939	625.43807
524.414	650.404
524.89	654.45237
525.365	645.38755
525.84	656.48813
526.315	635.44889
526.79	594.27962
527.265	667.44967
527.74	580.33948
528.215	580.31344
528.689	621.31238
529.164	581.20198
529.638	575.40668
530.112	566.28793
530.587	557.15688
531.061	582.34091
531.534	548.25496
532.008	560.29426
532.482	529.15037
532.956	518.26311
533.429	581.33568
533.903	588.23196
534.376	531.13074
534.849	557.2416
535.322	575.29551
535.795	526.23145
536.268	590.33503
536.741	565.2885
537.213	573.26308
537.686	580.35273
538.158	526.13681
538.631	514.19017
539.103	565.2293
539.575	535.0681
540.047	561.18178
540.519	570.30331
540.991	620.4223
541.463	568.31174
541.934	564.24036
542.406	589.34222
542.877	597.30122
543.348	595.36408
543.82	543.26014
544.291	566.25466
544.762	542.22927
545.233	631.48877
545.703	598.26729
546.174	601.33041
546.645	650.47332
547.115	721.62411
547.585	650.4034
548.056	744.68379
548.526	773.69375
548.996	731.6131
549.466	720.61162
549.935	781.70124
550.405	839.66841
550.875	785.69696
551.344	846.84328
551.814	838.75721
552.283	789.54484
552.752	860.81842
553.221	907.81132
553.69	882.74386
554.159	966.11277
554.628	918.84389
555.096	946.14688
555.565	877.77803
556.033	854.80808
556.502	798.76432
556.97	809.63779
557.438	810.74321
557.906	779.689
558.374	792.66652
558.842	773.68665
559.31	747.55211
559.777	687.54685
560.245	775.67961
560.712	801.71092
561.18	840.72502
561.647	804.65028
562.114	841.74761
562.581	854.89208
563.048	875.81993
563.514	881.94423
563.981	836.73144
564.448	943.88764
564.914	950.96685
565.381	1011.00748
565.847	1018.09113
566.313	1032.10191
566.779	1022.98057
567.245	1127.25897
567.711	1124.31641
568.176	1159.21686
568.642	1178.50878
569.108	1213.51503
569.573	1346.61427
570.038	1348.329
570.504	1327.40198
570.969	1397.8623
571.434	1485.6176
571.899	1443.76024
572.363	1511.68838
572.828	1566.74197
573.293	1603.81366
573.757	1556.73424
574.222	1689.86633
574.686	1671.88083
575.15	1691.0262
575.614	1746.95202
576.078	1782.10077
576.542	1786.96239
577.006	1734.88473
577.469	1824.27806
577.933	1851.0364
578.396	1786.07237
578.86	1807.10309
579.323	1771.16224
579.786	1836.82787
580.249	1861.09801
580.712	1704.11828
581.175	1664.11419
581.637	1681.84052
582.1	1679.76601
582.563	1708.67864
583.025	1612.00477
583.487	1642.49918
583.95	1636.70858
584.412	1659.61508
584.874	1543.88454
585.336	1506.79525
585.797	1530.55802
586.259	1481.75072
586.721	1413.65497
587.182	1479.6877
587.643	1321.449
588.105	1397.67842
588.566	1321.23468
589.027	1307.61197
589.488	1329.47724
589.949	1314.60853
590.41	1246.01954
590.87	1232.30888
591.331	1226.17762
591.791	1165.31709
592.252	1176.30286
592.712	1176.37192
593.172	1181.27421
593.632	1229.26668
594.092	1158.20273
594.552	1135.09486
595.011	1081.15371
595.471	1095.08109
595.931	1141.15932
596.39	1107.30622
596.849	1067.164
597.308	1105.06364
597.768	1142.50939
598.227	1105.25235
598.685	1023.01819
599.144	1128.25321
599.603	1134.31207
600.062	1077.99379
600.52	1110.13667
600.978	1041.1351
601.437	1133.18365
601.895	1133.03928
602.353	1112.09868
602.811	1163.2256
603.269	1162.37882
603.727	1206.45573
604.184	1189.2962
604.642	1196.4803
605.099	1219.35985
605.557	1213.48835
606.014	1310.35854
606.471	1337.75763
606.928	1415.49104
607.385	1499.94694
607.842	1491.64449
608.299	1551.82615
608.755	1490.84561
609.212	1438.52323
609.668	1505.63937
610.125	1560.91998
610.581	1519.78834
611.037	1513.67958
611.493	1449.70298
611.949	1518.9629
612.405	1430.25935
612.861	1477.72442
613.316	1502.8275
613.772	1504.72716
614.227	1510.82334
614.683	1570.55317
615.138	1549.81263
615.593	1510.75183
616.048	1539.69653
616.503	1565.95858
616.958	1623.14708
617.412	1480.75493
617.867	1530.62448
618.321	1589.49083
618.776	1557.65911
619.23	1501.74561
619.684	1575.71999
620.138	1559.76571
620.592	1522.90272
621.046	1505.73377
621.5	1514.92056
621.954	1445.56778
622.407	1482.57527
622.861	1434.77507
623.314	1453.59396
623.768	1483.72066
624.221	1383.18887
624.674	1395.56883
625.127	1349.54423
625.58	1381.50893
626.033	1285.28814
626.485	1269.51848
626.938	1278.49949
627.39	1298.48877
627.843	1259.40863
628.295	1224.33197
628.747	1200.38958
629.199	1146.20718
629.651	1110.16623
630.103	1129.21842
630.555	1043.90199
631.006	1086.18015
631.458	1096.22542
631.909	1036.03103
632.361	988.02033
632.812	952.9596
633.263	919.75234
633.714	910.71797
634.165	1008.15666
634.616	948.00551
635.067	842.6639
635.518	878.86943
635.968	800.45103
636.419	882.71215
636.869	777.67679
637.319	752.59753
637.769	764.58289
638.219	732.5786
638.669	716.58096
639.119	767.72356
639.569	717.59141
640.019	728.53979
640.468	680.41181
640.918	696.53549
641.367	663.39024
641.816	663.3988
642.265	671.4423
642.714	600.30749
643.163	671.46084
643.612	637.47386
644.061	686.39072
644.51	650.42555
644.958	644.33519
645.406	651.46513
645.855	599.39299
646.303	662.44032
646.751	648.40624
647.199	609.31001
647.647	617.34316
648.095	638.39862
648.543	616.20194
648.99	583.31034
649.438	650.43272
649.885	618.44314
650.333	648.19989
650.78	639.4709
651.227	646.49972
651.674	596.28393
652.121	595.36517
652.568	626.44238
653.015	606.43057
653.461	608.36911
653.908	617.36303
654.354	607.35766
654.801	558.2569
655.247	638.32804
655.693	615.51683
656.139	579.3263
656.585	578.30891
657.031	615.37105
657.477	551.15661
657.922	562.24733
658.368	533.25783
658.813	551.20894
659.259	596.36337
659.704	510.14161
660.149	551.24491
660.594	578.31156
661.039	499.10295
661.484	573.28942
661.929	514.15672
662.373	524.2863
662.818	566.34895
663.262	500.16456
663.707	501.22002
664.151	533.24859
664.595	455.06105
665.039	523.24945
665.483	514.25893
665.927	483.09682
666.371	469.06584
666.814	468.08264
667.258	486.13945
667.701	489.01993
668.145	485.16296
668.588	473.11734
669.031	515.18707
669.474	513.18855
669.917	482.03133
670.36	484.16825
670.803	512.17287
671.245	485.00126
671.688	434.0217
672.13	466.0271
672.573	436.05933
673.015	470.10145
673.457	447.95927
673.899	407.95851
674.341	465.0895
674.783	446.03982
675.225	447.05949
675.666	467.10911
676.108	470.99362
676.549	427.98524
676.991	489.0637
677.432	539.06813
677.873	398.9028
678.314	458.06533
678.755	451.06693
679.196	443.99649
679.637	472.10442
680.078	414.94213
680.518	440.99561
680.959	489.14181
681.399	462.11549
681.839	455.0706
682.28	467.11591
682.72	432.97672
683.16	431.03209
683.6	424.93832
684.039	444.90659
684.479	445.06447
684.919	482.09521
685.358	442.08234
685.798	423.07402
686.237	457.06948
686.676	427.955
687.115	485.09291
687.554	437.0034
687.993	454.97408
688.432	493.08831
688.871	507.11926
689.309	452.04225
689.748	421.85125
690.186	425.97907
690.625	412.93872
691.063	489.13153
691.501	446.05244
691.939	483.14805
692.377	447.0493
692.815	431.00419
693.253	478.10406
693.69	457.98411
694.128	488.14415
694.565	476.08635
695.003	477.15847
695.44	459.0456
695.877	507.14955
696.314	469.96785
696.751	456.99523
697.188	521.14494
697.625	476.04173
698.061	506.16606
698.498	476.09551
698.934	530.21902
699.371	448.02891
699.807	489.10553
700.243	481.11738
700.679	507.10199
701.115	460.03289
701.551	478.07952
701.987	515.11371
702.422	493.13177
702.858	460.04767
703.294	495.06947
703.729	490.14885
704.164	490.13272
704.599	474.01987
705.035	522.13729
705.47	524.23585
705.904	510.15472
706.339	466.01594
706.774	478.07645
707.209	475.0603
707.643	514.18123
708.078	521.22758
708.512	467.1333
708.946	470.06617
709.38	430.98446
709.814	465.01783
710.248	507.16582
710.682	503.14785
711.116	496.15024
711.549	443.089
711.983	470.04804
712.416	492.11029
712.85	483.15508
713.283	475.08646
713.716	454.08417
714.149	451.0232
714.582	540.16512
715.015	440.04267
715.448	465.11704
715.881	425.89319
716.313	439.99961
716.746	468.06849
717.178	418.97464
717.61	439.05528
718.043	437.04013
718.475	384.90032
718.907	464.11527
719.339	438.97455
719.77	418.96966
720.202	438.06023
720.634	460.09141
721.065	445.0214
721.497	425.0057
721.928	386.93075
722.359	387.92981
722.79	480.12317
723.221	345.84369
723.652	386.95004
724.083	388.87226
724.514	447.99683
724.945	388.89653
725.375	461.05439
725.806	350.84493
726.236	374.92492
726.666	371.86118
727.096	385.9243
727.526	358.89023
727.956	333.75033
728.386	385.91868
728.816	369.90939
729.246	386.92793
729.675	333.81344
730.105	335.79635
730.534	326.7542
730.964	323.79254
731.393	330.79124
731.822	343.85527
732.251	328.8109
732.68	331.75923
733.109	293.71043
733.537	318.76016
733.966	355.87232
734.395	314.71808
734.823	342.75025
735.251	331.79228
735.68	328.80376
736.108	297.7355
736.536	343.7899
736.964	252.58904
737.392	312.76712
737.82	295.70155
738.247	329.77065
738.675	331.7723
739.102	288.71569
739.53	276.69734
739.957	318.80457
740.384	306.73232
740.811	284.70447
741.238	299.7217
741.665	279.64151
742.092	290.68555
742.519	293.71735
742.945	309.73371
743.372	275.67804
743.798	283.7177
744.225	254.60325
744.651	275.68152
745.077	319.78041
745.503	244.59153
745.929	266.63393
746.355	288.70263
746.781	266.65307
747.207	306.72505
747.632	309.75567
748.058	250.62037
748.483	286.65721
748.908	240.59208
749.334	261.63973
749.759	200.47117
750.184	235.56532
750.609	279.68131
751.033	248.58265
751.458	231.52031
751.883	260.63717
752.307	233.55455
752.732	257.64691
753.156	265.65627
753.58	299.70532
754.005	206.51772
754.429	265.62488
754.853	219.54217
755.277	186.4404
755.7	266.65573
756.124	214.53279
756.548	274.65224
756.971	226.54357
757.394	236.60605
757.818	198.50724
758.241	206.52273
758.664	218.55298
759.087	244.5542
759.51	190.47202
759.933	188.46006
760.356	182.46495
760.778	207.51715
761.201	183.44857
761.623	211.5074
762.046	259.6105
762.468	194.45988
762.89	200.49087
763.312	235.57815
763.734	187.45344
764.156	229.56422
764.578	228.53127
765	194.47756
765.421	179.45865
765.843	178.46413
766.264	200.48396
766.686	132.33176
767.107	104.25659
767.528	175.4473
767.949	165.42219
768.37	84.20816
768.791	245.59071
769.212	129.33066
769.632	186.44142
770.053	171.45113
770.473	155.38107
770.894	152.37982
771.314	127.30391
771.734	127.30402
772.154	105.27037
772.575	111.26166
772.994	166.38407
773.414	149.36063
773.834	142.35958
774.254	126.31713
774.673	122.30055
775.093	128.32147
775.512	98.24524
775.931	154.39232
776.351	125.31445
776.77	139.34539
777.189	120.29039
777.607	126.32506
778.026	115.29261
778.445	85.21872
778.864	114.29482
779.282	111.2731
779.701	53.13595
780.119	178.46111
780.537	115.29281
780.955	100.25476
781.373	73.1841
781.791	113.26088
782.209	115.26856
782.627	119.31964
783.045	138.32625
783.462	111.2884
783.88	71.18713
784.297	110.28142
784.715	115.30033
785.132	125.31004
785.549	137.34821
785.966	94.24015
786.383	103.25799
786.8	124.29384
787.217	113.2737
787.633	136.34426
788.05	122.29044
788.466	27.06422
788.883	52.13527
789.299	104.2546
789.715	85.21221
790.131	146.36891
790.547	57.14406
790.963	132.33283
791.379	105.26933
791.795	54.12653
792.21	68.1622
792.626	58.14035
793.041	104.26261
793.457	122.30662
793.872	92.2202
794.287	16.03978
794.702	90.22409
795.117	93.23646
795.532	57.14703
795.947	83.20285
796.362	109.26441
796.776	97.22715
797.191	83.20797
797.605	113.27617
798.02	41.10236
798.434	50.11334
798.848	96.24223
799.262	113.28711
799.676	77.18959
800.09	107.27119
800.504	54.13318
800.918	109.25984
801.331	46.12101
801.745	67.158
802.158	89.22605
802.572	66.16158
802.985	96.23423
803.398	77.18728
803.811	67.1718
804.224	70.17505
804.637	109.2657
805.05	70.16459
805.462	61.15241
805.875	64.16922
806.288	68.16937
806.7	79.20207
807.112	52.12227
807.525	62.15549
807.937	55.13866
808.349	65.16551
808.761	52.13074
809.173	41.10162
809.584	82.20417
809.996	72.18057
810.408	108.28267
810.819	150.35887
811.231	186.48896
811.642	306.73567
812.053	327.78062
812.464	298.70364
812.875	201.51032
813.286	150.38778
813.697	137.32219
814.108	85.21029
814.519	76.17228
814.929	79.20335
815.34	122.30343
815.75	75.1944
816.16	63.15917
816.571	40.10473
816.981	23.05556
817.391	111.2731
817.801	97.24768
818.211	38.09151
818.62	99.24474
819.03	83.20564
819.44	69.18118
819.849	14.03586
820.259	65.16667
820.668	52.13159
821.077	56.14337
821.486	25.06153
821.895	60.14917
822.304	90.24035
822.713	64.15563
823.122	52.13243
823.531	70.17092
823.939	78.19428
824.348	79.19645
824.756	83.21164
825.164	44.11198
825.573	109.28086
825.981	75.18813
826.389	97.24724
826.797	31.07852
827.205	92.21725
827.612	100.25079
828.02	65.15709
828.428	116.29864
828.835	34.09125
829.243	99.24169
829.65	18.04599
830.057	93.23008
830.464	36.08973
830.871	89.21582
831.278	54.13259
831.685	75.17198
832.092	78.19534
832.499	50.11246
832.905	73.18679
833.312	99.23038
833.718	63.15979
834.124	48.11198
834.531	12.03085
834.937	18.04644
835.343	99.24268
835.749	7.01659
836.155	50.13247
836.561	102.25535
836.966	76.18875
837.372	57.14744
837.777	69.17606
838.183	24.05462
838.588	-3.00757
838.993	45.11149
839.399	34.08515
839.804	-7.01762
840.209	82.21375
840.613	47.1079
841.018	29.07444
841.423	39.10157
841.828	54.13989
842.232	65.16246
842.637	72.1741
843.041	56.14702
843.445	43.11007
843.849	49.12318
844.253	88.21263
844.657	59.15208
845.061	15.03539
845.465	95.23305
845.869	29.06961
846.272	69.17208
846.676	33.08089
847.079	74.19283
847.483	35.08827
847.886	53.12886
848.289	23.06261
848.692	54.13893
849.095	111.27098
849.498	75.18955
849.901	66.15368
850.304	73.17848
850.707	17.04396
851.109	27.06885
851.512	78.19625
851.914	33.08654
852.316	39.09923
852.718	28.07418
853.121	42.1053
853.523	52.12617
853.925	41.10962
854.326	21.05343
854.728	40.10534
855.13	66.17427
855.531	82.20201
855.933	31.07506
856.334	53.13505
856.736	46.10677
857.137	48.11405
857.538	60.15479
857.939	72.18278
858.34	93.22873
858.741	58.1532
859.142	68.16666
859.542	44.1184
859.943	40.10118
860.343	10.02547
860.744	58.14341
861.144	-4.00992
861.544	36.0898
861.945	71.1853
862.345	44.10931
862.745	96.24405
863.145	87.2093
863.544	65.16621
863.944	29.06958
864.344	68.17078
864.743	46.11507
865.143	57.14866
865.542	30.07183
865.941	77.19481
866.34	29.0709
866.74	26.07051
867.139	66.16289
867.537	41.10587
867.936	93.22772
868.335	64.16534
868.734	80.20953
869.132	72.17206
869.531	56.13587
869.929	25.05957
870.327	50.12327
870.726	23.05784
871.124	74.17711
871.522	90.2317
871.92	68.17103
872.318	77.19064
872.715	45.11178
873.113	69.17221
873.511	88.22458
873.908	64.16654
874.306	63.16092
874.703	53.13409
875.1	67.17276
875.497	86.21148
875.894	53.13409
876.291	61.15158
876.688	93.24495
877.085	30.07309
877.482	61.1545
877.878	17.04221
878.275	19.04962
878.671	87.19717
879.068	27.06665
879.464	42.10351
879.86	37.08945
880.256	50.12522
880.652	44.11399
881.048	27.06785
881.444	57.1364
881.84	43.11092
882.236	49.12472
882.631	61.15395
883.027	21.05157
883.422	43.11145
883.817	76.19729
884.213	102.26479
884.608	25.06332
885.003	75.18541
885.398	54.13931
885.793	47.11967
886.188	89.22693
886.582	56.14337
886.977	49.11891
887.371	11.02804
887.766	46.1174
888.16	62.15661
888.554	47.11692
888.949	36.09145
889.343	47.11602
889.737	45.12324
890.131	10.02545
890.525	37.09607
890.918	17.04332
891.312	19.04587
891.706	-3.00791
892.099	30.07675
892.492	83.18389
892.886	42.10419
893.279	44.11458
893.672	0
894.065	32.08132
894.458	93.23814
894.851	85.2099
895.244	9.02342
895.637	95.23253
896.029	20.04992
896.422	26.06467
896.814	60.15091
897.206	-1.00246
897.599	48.11938
897.991	19.0468
898.383	84.20419
898.775	35.08106
899.167	26.06297
899.559	56.14307
899.951	62.14845
900.342	39.09976
900.734	38.09776
901.125	67.17724
901.517	39.09829
901.908	64.15487
902.299	54.13679
902.69	92.2212
903.082	77.18861
903.473	64.15773
903.863	30.07793
904.254	109.25874
904.645	66.16624
905.036	27.06741
905.426	45.10451
905.817	81.20223
906.207	72.1762
906.597	8.0191
906.987	35.09219
907.378	28.07153
907.768	44.11801
908.158	48.11917
908.547	45.1186
908.937	28.07234
909.327	72.17855
909.717	33.08444
910.106	58.14146
910.495	66.16695
910.885	51.13178
911.274	25.06372
911.663	73.18502
912.052	28.06979
912.441	27.06943
912.83	55.13
913.219	28.07406
913.608	53.13141
913.997	22.05674
914.385	95.22768
914.774	76.18709
915.162	93.22636
915.55	43.10568
915.939	21.05415
916.327	30.07524
916.715	4.01042
917.103	65.16081
917.491	7.01754
917.878	12.02973
918.266	49.12701
918.654	71.18479
919.041	25.06678
919.429	62.1497
919.816	25.06411
920.203	53.13136
920.591	22.05539
920.978	18.04431
921.365	51.1355
921.752	45.11015
922.139	70.15706
922.525	88.21679
922.912	65.15993
923.299	46.11678
923.685	54.14307
924.072	43.09983
924.458	-4.01017
924.844	18.04576
925.231	24.05755
925.617	2.00524
926.003	65.16743
926.389	68.17391
926.774	52.13364
927.16	38.09612
927.546	87.22628
927.931	80.20172
928.317	11.02585
928.702	38.09095
929.088	45.10965
929.473	24.06203
929.858	19.04752
930.243	36.08869
930.628	92.22931
931.013	32.08118
931.398	55.12799
931.783	35.09262
932.167	81.20274
932.552	16.04049
932.937	68.17011
933.321	43.11022
933.705	33.08506
934.09	40.10136
934.474	58.13956
934.858	37.09735
935.242	42.10022
935.626	37.09703
936.009	16.04267
936.393	38.09793
936.777	36.09384
937.16	26.06831
937.544	45.10731
937.927	65.16836
938.311	38.09389
938.694	44.11685
939.077	6.01477
939.46	3.00734
939.843	88.19013
940.226	23.06011
940.609	71.16951
940.991	32.08301
941.374	11.02764
941.757	16.04001
942.139	61.14273
942.522	23.05508
942.904	60.14672
943.286	44.11241
943.668	56.14707
944.05	76.18992
944.432	79.19952
944.814	14.03485
945.196	56.1408
945.578	69.17064
945.959	56.13419
946.341	13.03186
946.722	48.11458
947.104	18.04423
947.485	76.17989
947.866	65.16871
948.247	10.02555
948.628	17.04193
949.009	67.17462
949.39	63.15814
949.771	62.1472
950.152	47.11832
950.532	10.02556
950.913	52.12759
951.293	45.1234
951.674	104.25922
952.054	38.09725
952.434	31.07815
952.814	14.03421
953.194	36.09471
953.574	15.03727
953.954	28.06819
954.334	69.17463
954.714	20.05023
955.093	8.01997
955.473	29.07361
955.853	15.03935
956.232	17.04671
956.611	45.10961
956.99	50.12868
957.37	47.12186
957.749	51.12469
958.128	59.15213
958.506	98.25885
958.885	28.07239
959.264	72.18226
959.643	33.07664
960.021	54.13684
960.4	65.15144
960.778	58.14462
961.156	58.14854
961.535	76.17926
961.913	64.15265
962.291	47.1245
962.669	-4.01031
963.047	22.05684
963.424	-6.01562
963.802	49.12331
964.18	56.14287
964.557	6.01425
964.935	48.11598
965.312	16.04223
965.69	11.02786
966.067	51.12687
966.444	3.00751
966.821	19.04959
967.198	63.15426
967.575	-23.05728
967.952	-12.02906
968.329	46.11424
968.705	48.10486
969.082	72.18775
969.458	37.09221
969.835	23.05703
970.211	61.1598
970.587	33.0834
970.963	33.08556
971.339	29.07703
971.715	52.13145
972.091	54.13509
972.467	101.25344
972.843	48.12125
973.219	44.10595
973.594	83.22126
973.97	23.05569
974.345	30.0738
974.721	24.05847
975.096	26.06424
975.471	71.17107
975.846	27.06606
976.221	53.13813
976.596	45.11084
976.971	23.05782
977.346	55.1294
977.72	43.11157
978.095	61.15985
978.469	51.12325
978.844	27.06831
979.218	-35.08665
979.593	12.02934
979.967	57.14081
980.341	6.01418
980.715	58.14865
981.089	-9.02283
981.463	81.19257
981.837	61.15235
982.21	77.1806
982.584	23.05699
982.957	64.1631
983.331	46.11115
983.704	-19.0472
984.078	28.0708
984.451	21.05256
984.824	35.08745
985.197	2.00496
985.57	48.12203
985.943	42.10419
986.316	66.16355
986.688	29.07098
987.061	105.25078
987.434	36.09515
987.806	81.19907
988.179	72.17404
988.551	43.11103
988.923	49.12251
989.295	-25.06287
989.667	46.11349
990.039	45.11418
990.411	-30.07164
990.783	94.21835
991.155	51.12747
991.527	68.16734
991.898	11.02819
992.27	40.10035
992.641	47.11887
993.012	79.18818
993.384	13.03156
993.755	45.11724
994.126	10.02456
994.497	53.1328
994.868	49.11573
995.239	9.02223
995.61	52.1336
995.98	38.09516
996.351	26.06575
996.722	38.09178
997.092	0
997.462	26.06299
997.833	31.07472
998.203	33.08095
998.573	32.08089
998.943	56.1349
999.313	38.09365
999.683	82.20201
1000.053	76.17877
1000.423	11.02712
1000.792	58.15305
1001.162	40.09967
1001.531	54.13538
1001.901	91.23171
1002.27	6.01386
1002.639	60.15597
1003.009	-8.01946
1003.378	4.01035
1003.747	70.16978
1004.116	47.11517
1004.485	25.06062
1004.853	51.13077
1005.222	-15.03845
1005.591	41.09897
1005.959	52.12189
1006.328	33.07658
1006.696	46.11437
1007.064	28.07138
1007.433	57.1437
1007.801	31.07664
1008.169	17.04327
1008.537	75.16977
1008.905	43.10329
1009.273	23.05728
1009.64	22.05454
1010.008	66.16068
1010.375	7.01686
1010.743	37.08668
1011.11	41.0998
1011.478	34.08524
1011.845	57.13593
1012.212	57.13301
1012.579	-14.03506
1012.946	50.12068
1013.313	56.13424
1013.68	30.06892
1014.047	39.09581
1014.414	13.03175
1014.78	27.06795
1015.147	-18.04418
1015.513	88.21479
1015.88	9.02316
1016.246	6.01486
1016.612	38.08785
1016.978	42.10473
1017.344	91.22826
1017.71	34.08299
1018.076	39.09329
1018.442	57.14662
1018.808	50.12706
1019.174	35.08978
1019.539	38.08736
1019.905	5.01213
1020.27	38.09616
1020.636	56.13618
1021.001	31.0754
1021.366	20.04934
1021.731	-14.03634
1022.096	6.01554
1022.461	55.13237
1022.826	43.10392
1023.191	34.09005
1023.556	35.08443
1023.92	8.01993
1024.285	35.08697
1024.649	79.19595
1025.014	44.11083
1025.378	-3.00774
1025.742	31.07874
1026.107	70.16003
1026.471	21.04939
1026.835	61.15439
1027.199	74.18478
1027.562	47.11144
1027.926	42.104
1028.29	47.1217
1028.654	59.13849
1029.017	8.0199
1029.381	57.13884
1029.744	31.07971
1030.107	37.08888
1030.471	24.05808
1030.834	69.15879
1031.197	54.13018
1031.56	50.11949
1031.923	-8.02109
1032.286	65.15424
1032.648	85.20705
1033.011	6.01409
1033.374	35.08295
1033.736	26.06964
1034.099	81.20105
1034.461	-8.02058
1034.823	14.03546
1035.185	47.11988
1035.548	43.10716
1035.91	30.07342
1036.272	7.01621
1036.634	39.09585
1036.995	24.05827
1037.357	32.07956
1037.719	7.0172
1038.08	-1.00242
1038.442	14.03393
1038.803	79.19085
1039.165	100.25619
1039.526	9.02223
1039.887	14.03443
1040.248	18.04524
1040.609	10.02488
1040.97	56.13969
1041.331	43.11026
1041.692	83.20066
1042.053	24.05626
1042.413	78.18426
1042.774	48.11803
1043.134	37.09003
1043.495	4.01019
1043.855	58.14252
1044.215	70.17657
1044.576	53.13098
1044.936	45.10509
1045.296	29.07348
1045.656	38.09399
1046.016	60.14552
1046.375	-2.00494
1046.735	22.05159
1047.095	33.07882
1047.454	23.05011
1047.814	33.08086
1048.173	-3.00715
1048.533	48.11198
1048.892	32.07941
1049.251	80.20237
1049.61	14.03516
1049.969	67.16277
1050.328	26.058
1050.687	17.04214
1051.046	8.0197
1051.405	64.16253
1051.763	6.01428
1052.122	17.04329
1052.48	12.02965
1052.839	43.10321
1053.197	82.19649
1053.555	-11.02503
1053.914	33.08104
1054.272	-13.03178
1054.63	38.09551
1054.988	73.17669
1055.345	13.02897
1055.703	28.06842
1056.061	18.04694
1056.419	18.04732
1056.776	16.03907
1057.134	30.07128
1057.491	-1.00255
1057.848	5.01256
1058.206	42.10095
1058.563	-4.0091
1058.92	31.072
1059.277	38.09472
1059.634	40.09545
1059.991	73.17695
1060.348	24.05617
1060.704	5.0123
1061.061	26.06123
1061.418	14.03455
1061.774	42.10549
1062.131	20.05401
1062.487	28.06712
1062.843	-5.01265
1063.199	44.11186
1063.555	38.09095
1063.911	29.07355
1064.267	54.11447
1064.623	-21.05264
1064.979	45.10781
1065.335	46.11064
1065.691	19.04625
1066.046	-48.10712
1066.402	2.00475
1066.757	36.09155
1067.112	20.04956
1067.468	91.22365
1067.823	58.1422
1068.178	31.07571
1068.533	60.1476
1068.888	21.05092
1069.243	33.08266
1069.598	37.09167
1069.952	22.05151
1070.307	38.09705
1070.662	14.03388
1071.016	26.06001
1071.371	35.08113
1071.725	20.04864
1072.079	18.04385
1072.434	19.04744
1072.788	58.14088
1073.142	69.17214
1073.496	7.01699
1073.85	-14.03309
1074.203	95.23589
1074.557	34.09161
1074.911	46.11001
1075.265	24.05698
1075.618	43.10541
1075.971	1.00244
1076.325	33.08539
1076.678	46.10896
1077.031	27.06315
1077.385	77.1743
1077.738	75.17301
1078.091	-9.02133
1078.444	81.1902
1078.796	12.02986
1079.149	78.19428
1079.502	87.21176
1079.855	54.1292
1080.207	57.1419
1080.56	-5.01316
1080.912	22.0542
1081.264	47.11504
1081.617	109.27035
1081.969	50.12913
1082.321	20.04949
1082.673	11.02617
1083.025	39.09475
1083.377	-169.39093
1083.728	9.02133
1084.08	-23.05871
1084.432	44.10836
1084.783	49.11623
1085.135	43.10949
1085.486	59.13995
1085.838	25.06294
1086.189	16.0394
1086.54	19.04611
1086.891	57.14682
1087.242	8.01972
1087.593	63.15449
1087.944	29.06658
1088.295	22.05121
1088.646	83.20459
1088.996	6.01478
1089.347	46.11458
1089.698	28.06801
1090.048	-8.02086
1090.398	29.0681
1090.749	39.09518
1091.099	69.17915
1091.449	38.09595
1091.799	47.11955
1092.149	43.1091
1092.499	23.05703
1092.849	20.05206
1093.199	-14.0355
1093.548	29.07159
1093.898	14.03577
1094.248	40.10345
1094.597	41.10802
1094.947	-10.02705
1095.296	13.03259
1095.645	40.10495
1095.994	-3.00733
1096.343	33.08412
1096.692	92.24926
1097.041	-24.06576
1097.39	64.16402
1097.739	23.06056
1098.088	56.15109
1098.437	-8.02154
1098.785	8.02163
1099.134	32.0854
1099.482	22.06122
1099.83	33.08689
1100.179	18.04826
1100.527	25.06689
1100.875	41.10955
1101.223	36.0963
1101.571	27.0754
1101.919	35.09401
1102.267	-6.01708
1102.615	11.03546
1102.962	9.02896
1103.31	10.0322
1103.658	27.08694
