Data from N2 R0 60C sample3_Subt2__1__11-40-21-680.txt Node

Date: Tue Aug 19 11:40:21 PDT 2025
User: uwsun
Spectrometer: HDX01956
Trigger mode: 0
Integration Time (sec): 5.000000E-1
Scans to average: 1
Nonlinearity correction enabled: true
Boxcar width: 0
Storing dark spectrum: false
XAxis mode: Wavelengths
Number of Pixels in Spectrum: 2068
>>>>>Begin Spectral Data<<<<<
194.03	399.10123
194.578	395.22628
195.127	379.16244
195.676	390.19918
196.225	415.077
196.773	476.27281
197.321	690.79357
197.87	884.07775
198.418	877.03777
198.966	915.16684
199.513	883.99315
200.061	918.10926
200.609	910.16283
201.156	872.72326
201.704	927.116
202.251	938.25061
202.798	868.05668
203.345	890.9898
203.892	921.08464
204.438	956.03563
204.985	963.06337
205.532	946.23468
206.078	932.05457
206.624	984.15668
207.17	955.97764
207.716	930.03141
208.262	923.6107
208.808	976.17308
209.354	973.11606
209.899	986.18454
210.445	960.14973
210.99	960.0838
211.535	987.06863
212.08	961.01495
212.625	995.21496
213.17	949.14546
213.715	971.97415
214.259	930.94254
214.804	955.08388
215.348	972.95783
215.892	961.04232
216.436	950.95985
216.98	984.94035
217.524	934.97496
218.068	933.13055
218.612	946.12614
219.155	892.89186
219.698	905.94151
220.242	902.01893
220.785	863.81801
221.328	837.88779
221.871	833.90316
222.414	875.96548
222.956	852.89312
223.499	799.65069
224.041	841.77938
224.583	744.46313
225.126	821.64696
225.668	815.80229
226.21	823.88709
226.751	848.69845
227.293	798.69018
227.835	820.84231
228.376	874.80859
228.918	892.02588
229.459	799.8306
230	836.8015
230.541	904.90069
231.082	818.78075
231.622	790.66085
232.163	850.87152
232.704	838.87738
233.244	822.8566
233.784	835.85266
234.324	870.76021
234.864	835.72205
235.404	881.87866
235.944	872.85424
236.484	815.83145
237.023	882.89093
237.563	899.85995
238.102	837.77168
238.641	938.11329
239.18	854.82459
239.719	864.95699
240.258	896.80791
240.797	888.92421
241.335	865.91368
241.874	989.69002
242.412	934.01959
242.95	881.90458
243.488	922.89016
244.026	837.74624
244.564	888.63958
245.102	881.77965
245.64	863.8601
246.177	862.75673
246.715	876.899
247.252	896.84672
247.789	884.49109
248.326	917.99254
248.863	915.81383
249.4	943.90501
249.936	882.62037
250.473	950.97996
251.009	915.89897
251.546	917.80596
252.082	922.80181
252.618	866.73534
253.154	939.0274
253.69	874.76106
254.226	887.90043
254.761	934.90015
255.297	866.69941
255.832	876.85469
256.367	926.95889
256.903	921.77906
257.438	929.93746
257.972	966.91727
258.507	927.91792
259.042	952.85262
259.576	930.81318
260.111	985.99991
260.645	929.76459
261.179	917.90819
261.713	972.93008
262.247	981.00644
262.781	952.77813
263.315	946.07419
263.849	931.09028
264.382	982.97528
264.915	991.07247
265.449	982.16399
265.982	979.97961
266.515	1008.13723
267.048	1036.93819
267.58	961.86175
268.113	938.81152
268.646	989.16176
269.178	990.95401
269.71	1040.98298
270.243	1029.03667
270.775	971.17127
271.307	969.05222
271.838	952.97187
272.37	1011.17653
272.902	1028.03327
273.433	968.84192
273.965	996.13096
274.496	967.09768
275.027	976.13556
275.558	1018.16126
276.089	1026.23001
276.62	1005.2409
277.15	985.10604
277.681	990.90116
278.211	953.01216
278.741	1003.9497
279.272	983.97322
279.802	1019.20965
280.332	1072.18351
280.861	1042.18262
281.391	1042.04952
281.921	1010.13035
282.45	1052.28655
282.98	1084.44232
283.509	1070.05851
284.038	1056.08488
284.567	1058.10537
285.096	1095.28321
285.625	1060.09961
286.153	987.01783
286.682	1147.22648
287.21	1107.292
287.739	1099.24717
288.267	1112.30696
288.795	1011.28752
289.323	1113.26153
289.851	1175.34133
290.378	1105.12956
290.906	1080.26924
291.433	1070.28648
291.961	1137.18511
292.488	1120.36877
293.015	1122.27727
293.542	1148.49214
294.069	1161.39754
294.596	1124.35456
295.122	1164.34768
295.649	1111.07488
296.175	1161.41351
296.702	1168.37933
297.228	1175.39199
297.754	1139.2151
298.28	1189.27439
298.806	1164.36263
299.332	1155.17953
299.857	1166.21585
300.383	1205.5492
300.908	1199.45301
301.433	1222.45586
301.958	1236.34017
302.483	1248.59394
303.008	1242.54847
303.533	1190.58332
304.058	1284.48891
304.582	1245.45137
305.107	1269.76926
305.631	1212.27795
306.155	1293.47857
306.679	1279.43059
307.203	1334.52013
307.727	1288.50021
308.251	1328.6704
308.775	1300.54737
309.298	1392.72162
309.822	1388.82799
310.345	1417.7065
310.868	1396.66565
311.391	1345.67448
311.914	1362.77373
312.437	1368.50582
312.96	1353.56912
313.482	1399.63881
314.005	1437.87999
314.527	1450.04821
315.049	1419.82832
315.571	1486.62275
316.093	1521.95004
316.615	1527.87958
317.137	1515.53756
317.659	1590.98355
318.18	1462.73998
318.702	1548.73837
319.223	1602.51787
319.744	1647.77223
320.265	1564.93034
320.786	1642.10268
321.307	1670.13001
321.828	1771.93012
322.348	1641.93726
322.869	1744.08142
323.389	1425.57029
323.909	1720.88757
324.43	1699.00063
324.95	1824.99329
325.47	1716.10771
325.989	1759.02952
326.509	1869.91349
327.029	1893.9632
327.548	1872.96077
328.067	1931.30926
328.587	1921.36274
329.106	1902.94787
329.625	1901.53651
330.144	1965.15371
330.662	1993.09651
331.181	2027.20593
331.7	2040.24945
332.218	2100.99905
332.736	2067.24998
333.255	2178.27858
333.773	2119.28994
334.291	2134.50001
334.808	2197.17396
335.326	2265.22334
335.844	2318.3866
336.361	2308.74473
336.879	2295.42538
337.396	2357.51394
337.913	2389.31386
338.43	2411.24778
338.947	2410.43878
339.464	2470.06822
339.981	2436.48121
340.497	2470.61479
341.014	2557.66956
341.53	2450.18587
342.046	2565.63937
342.562	2559.76329
343.078	2655.50829
343.594	2688.55729
344.11	2703.50363
344.626	2810.87909
345.141	2757.30669
345.657	2848.26401
346.172	2790.61857
346.687	2824.42382
347.202	2913.28559
347.717	2947.60114
348.232	2927.82196
348.747	2967.41448
349.261	3067.18934
349.776	2990.50309
350.29	3057.8234
350.805	3188.85852
351.319	3195.48507
351.833	3027.26279
352.347	3147.45799
352.861	3154.39919
353.374	3173.2937
353.888	3176.62002
354.401	3239.34681
354.915	3285.23178
355.428	3347.74096
355.941	3319.42882
356.454	3444.12963
356.967	3365.40274
357.48	3437.23696
357.993	3422.6635
358.505	3509.57655
359.018	3583.57917
359.53	3694.5245
360.042	3587.01355
360.554	3641.46396
361.066	3662.56448
361.578	3586.88317
362.09	3691.32658
362.602	3748.91245
363.113	3804.2405
363.625	3787.02388
364.136	3931.81135
364.647	3870.28394
365.158	3983.06428
365.669	3969.25066
366.18	4004.12955
366.691	4089.74349
367.201	3942.29037
367.712	4072.95841
368.222	4068.95455
368.733	4285.67332
369.243	4322.66542
369.753	4488.88683
370.263	4413.07895
370.773	4444.11107
371.282	4406.96275
371.792	4744.75518
372.301	4776.89753
372.811	4825.29315
373.32	4857.0688
373.829	4982.60248
374.338	5263.00464
374.847	5274.26369
375.356	5482.28432
375.865	5705.49803
376.373	5986.74839
376.882	6031.31927
377.39	6081.00702
377.898	6398.04234
378.407	6709.44699
378.915	6905.2569
379.423	7219.69587
379.93	7511.59395
380.438	7920.14047
380.946	8346.43583
381.453	8585.7619
381.96	8933.28877
382.468	9467.40699
382.975	10125.24102
383.482	10352.26466
383.989	10467.2896
384.495	10831.08806
385.002	11453.57663
385.509	12123.57769
386.015	12801.9503
386.521	13294.32281
387.028	13909.77369
387.534	14363.47029
388.04	14858.19593
388.546	15273.37811
389.051	16151.83511
389.557	17391.22786
390.063	18682.43695
390.568	19210.13124
391.073	19834.56991
391.578	20909.35266
392.084	21384.26311
392.589	22139.11974
393.093	24133.70771
393.598	26412.90785
394.103	28417.09122
394.607	31246.34598
395.112	33444.42049
395.616	35600.42986
396.12	38774.41601
396.624	42817.4578
397.128	46388.22102
397.632	51575.32676
398.136	55339.4612
398.639	58827.5942
399.143	60775.09471
399.646	61191.22477
400.15	60904.11498
400.653	60560.14334
401.156	60136.25446
401.659	59550.50961
402.162	58431.12733
402.664	54480.21957
403.167	49329.08451
403.67	22278.45323
404.172	2696.20453
404.674	0
405.176	0
405.678	0
406.18	0
406.682	0
407.184	0
407.686	25783.58453
408.187	43316.52985
408.688	51225.60928
409.19	54389.01922
409.691	56215.4214
410.192	57270.57019
410.693	57845.40442
411.194	58219.2365
411.694	58633.01717
412.195	59215.68848
412.696	59364.60701
413.196	59341.61941
413.696	59632.46864
414.196	59367.6054
414.696	59763.40624
415.196	59913.34014
415.696	60584.13941
416.196	61381.18813
416.695	61808.38326
417.195	57771.45719
417.694	55119.89963
418.194	51980.65553
418.693	48506.30806
419.192	47248.0789
419.691	46548.79305
420.19	45808.0143
420.688	44267.67678
421.187	42143.4397
421.685	38859.05057
422.184	35041.25958
422.682	30526.00852
423.18	26405.49018
423.678	23828.41872
424.176	22136.38129
424.674	20942.72234
425.172	19991.66513
425.669	18642.31622
426.167	17198.3396
426.664	15658.19115
427.161	14524.56526
427.659	13652.55302
428.156	12732.03644
428.652	11728.9511
429.149	11312.10063
429.646	10995.0717
430.143	10310.94033
430.639	9839.42504
431.135	9306.04861
431.632	8788.98343
432.128	8242.31249
432.624	7875.24598
433.12	7654.63772
433.616	7496.43274
434.111	7079.59609
434.607	6985.6781
435.103	6594.05011
435.598	6512.05636
436.093	6106.73848
436.588	5765.52315
437.083	5585.71377
437.578	5432.00648
438.073	5081.79858
438.568	4885.68461
439.062	4814.98093
439.557	4592.65288
440.051	4407.49432
440.546	4385.58324
441.04	4335.00565
441.534	4229.44833
442.028	4062.05514
442.522	4033.11694
443.015	4050.56772
443.509	3921.31302
444.002	3854.35266
444.496	3892.71862
444.989	3744.31766
445.482	3758.48237
445.975	3696.06301
446.468	3673.67913
446.961	3562.7836
447.454	3476.9788
447.947	3511.34471
448.439	3316.3404
448.931	3351.11806
449.424	3331.61992
449.916	3315.50034
450.408	3241.10185
450.9	3225.53665
451.392	3163.70037
451.884	3098.18414
452.375	2995.7209
452.867	2966.10861
453.358	2955.20215
453.849	2928.86138
454.341	2846.14959
454.832	2872.94339
455.323	2842.5489
455.814	2891.26359
456.304	2738.2313
456.795	2726.23212
457.285	2697.01379
457.776	2675.13576
458.266	2682.3902
458.756	2631.37254
459.247	2540.39878
459.737	2551.43698
460.226	2551.14676
460.716	2429.4068
461.206	2420.39482
461.695	2380.50028
462.185	2328.20352
462.674	2332.21524
463.163	2314.94746
463.653	2321.85108
464.142	2289.36416
464.63	2255.42171
465.119	2145.08584
465.608	2137.13021
466.096	2086.844
466.585	2076.05085
467.073	2005.119
467.561	1997.14182
468.05	2044.06228
468.538	1965.21506
469.026	1864.04878
469.513	1918.93895
470.001	1908.87433
470.489	1854.03888
470.976	1855.93272
471.463	1752.08298
471.951	1691.0216
472.438	1731.86958
472.925	1653.77943
473.412	1679.93875
473.899	1623.67006
474.385	1606.87941
474.872	1615.80559
475.359	1557.85837
475.845	1533.35413
476.331	1434.28767
476.817	1424.65165
477.303	1451.56397
477.789	1423.63745
478.275	1329.59517
478.761	1310.51543
479.247	1368.41228
479.732	1325.63222
480.218	1327.7467
480.703	1275.54676
481.188	1232.1153
481.673	1246.29642
482.158	1222.13592
482.643	1150.38166
483.128	1139.15239
483.612	1128.17658
484.097	1125.24876
484.581	1039.02021
485.066	1087.22759
485.55	1089.0127
486.034	1019.84596
486.518	1084.16019
487.002	1054.22326
487.486	973.04461
487.969	996.10719
488.453	990.11629
488.936	1019.98178
489.42	944.79096
489.903	929.01601
490.386	904.28772
490.869	836.60886
491.352	900.91546
491.835	887.61122
492.318	924.87213
492.8	866.60127
493.283	871.97802
493.765	894.9446
494.247	818.6994
494.73	807.60321
495.212	812.74826
495.694	784.65328
496.175	742.62545
496.657	778.65997
497.139	804.27005
497.62	732.59545
498.102	718.63019
498.583	710.61852
499.064	732.5253
499.545	758.58024
500.026	706.46651
500.507	700.5018
500.988	723.65313
501.469	692.60847
501.949	676.54839
502.43	646.44409
502.91	707.37296
503.39	610.41274
503.87	678.49699
504.35	717.53996
504.83	605.26344
505.31	639.43634
505.79	680.5239
506.269	684.49201
506.749	632.35576
507.228	634.40733
507.707	622.30043
508.187	590.3101
508.666	599.39518
509.145	589.31898
509.623	549.22021
510.102	558.28657
510.581	590.32582
511.059	636.49449
511.538	558.35571
512.016	634.43818
512.494	620.41606
512.972	519.18251
513.45	577.28783
513.928	567.32575
514.406	594.37782
514.884	552.35161
515.361	598.36412
515.839	584.27581
516.316	517.20162
516.793	544.30784
517.27	475.09864
517.747	490.2107
518.224	524.17733
518.701	537.17324
519.178	522.23113
519.654	509.16016
520.131	496.1747
520.607	521.22995
521.083	530.16939
521.56	537.23195
522.036	537.14304
522.512	485.13423
522.987	502.15913
523.463	502.16372
523.939	460.09266
524.414	528.16983
524.89	530.20688
525.365	546.19922
525.84	476.11858
526.315	517.20729
526.79	480.0589
527.265	540.20489
527.74	457.08074
528.215	489.1275
528.689	481.04715
529.164	460.97887
529.638	504.24898
530.112	494.14018
530.587	468.99286
531.061	423.00481
531.534	441.03116
532.008	505.17969
532.482	406.90748
532.956	404.00554
533.429	487.14025
533.903	447.96713
534.376	427.93136
534.849	482.09079
535.322	472.08543
535.795	463.09706
536.268	455.0573
536.741	492.13825
537.213	469.05593
537.686	445.06487
538.158	439.96806
538.631	491.142
539.103	502.10659
539.575	424.86969
540.047	454.98038
540.519	524.20904
540.991	489.15074
541.463	493.15522
541.934	548.20916
542.406	527.21573
542.877	505.12181
543.348	527.22441
543.82	465.09545
544.291	494.11118
544.762	497.13732
545.233	515.24201
545.703	495.07221
546.174	558.24614
546.645	579.33107
547.115	597.37851
547.585	573.25728
548.056	618.43411
548.526	634.42946
548.996	656.47007
549.466	656.48753
549.935	695.54127
550.405	719.46932
550.875	686.51404
551.344	751.66898
551.814	747.59756
552.283	667.34321
552.752	794.70291
553.221	837.6984
553.69	841.6786
554.159	878.95734
554.628	825.69228
555.096	948.15055
555.565	922.85023
556.033	866.82872
556.502	891.93194
556.97	861.72254
557.438	854.82066
557.906	857.82745
558.374	870.79951
558.842	861.84391
559.31	962.904
559.777	866.87891
560.245	1017.08954
560.712	997.03831
561.18	1069.08162
561.647	1094.09877
562.114	1111.16971
562.581	1164.41175
563.048	1209.32826
563.514	1255.55275
563.981	1273.3807
564.448	1355.45657
564.914	1440.6579
565.381	1493.63856
565.847	1495.74685
566.313	1570.81455
566.779	1637.71689
567.245	1766.02973
567.711	1806.16402
568.176	1857.9724
568.642	1964.48363
569.108	2025.4574
569.573	2171.42007
570.038	2255.01146
570.504	2230.15574
570.969	2376.83177
571.434	2442.29627
571.899	2582.65652
572.363	2692.43298
572.828	2766.43706
573.293	2836.50071
573.757	2888.45613
574.222	3093.45817
574.686	3130.50964
575.15	3199.72005
575.614	3284.49654
576.078	3248.69132
576.542	3321.44951
577.006	3269.40474
577.469	3346.90822
577.933	3391.46975
578.396	3479.60723
578.86	3402.63956
579.323	3465.7879
579.786	3409.14885
580.249	3361.55994
580.712	3358.84496
581.175	3321.91804
581.637	3233.417
582.1	3264.28925
582.563	3203.11083
583.025	3197.8323
583.487	3108.91829
583.95	3167.27167
584.412	3068.09145
584.874	2971.74849
585.336	2943.66441
585.797	2890.20216
586.259	2834.62382
586.721	2642.55897
587.182	2679.48918
587.643	2625.39116
588.105	2536.60015
588.566	2553.98902
589.027	2425.64749
589.488	2401.35178
589.949	2388.60615
590.41	2234.68224
590.87	2188.17882
591.331	2236.99053
591.791	2209.36798
592.252	2091.24203
592.712	2071.34649
593.172	2077.17221
593.632	2056.04076
594.092	1927.00443
594.552	1939.88834
595.011	1872.06369
595.471	1857.89785
595.931	1856.92025
596.39	1883.26182
596.849	1798.05271
597.308	1819.81834
597.768	1814.43058
598.227	1730.03619
598.685	1766.89402
599.144	1715.97116
599.603	1801.1284
600.062	1848.78586
600.52	1782.89332
600.978	1785.06018
601.437	1790.92249
601.895	1805.71129
602.353	1772.82137
602.811	1903.01222
603.269	1834.19691
603.727	1901.27446
604.184	1956.10684
604.642	1897.33235
605.099	1845.0529
605.557	1991.3863
606.014	2050.02269
606.471	2043.56345
606.928	2190.11486
607.385	2219.65026
607.842	2213.22665
608.299	2304.43811
608.755	2265.54881
609.212	2337.19106
609.668	2395.27906
610.125	2429.62187
610.581	2485.51793
611.037	2417.33519
611.493	2341.45067
611.949	2442.77081
612.405	2433.82088
612.861	2459.48421
613.316	2471.60449
613.772	2542.46902
614.227	2515.60088
614.683	2567.09846
615.138	2533.52046
615.593	2572.50711
616.048	2575.3696
616.503	2579.73557
616.958	2652.9513
617.412	2597.57699
617.867	2580.27249
618.321	2674.99193
618.776	2595.28693
619.23	2577.51529
619.684	2592.35209
620.138	2550.43668
620.592	2497.69555
621.046	2512.46758
621.5	2494.73763
621.954	2502.30748
622.407	2464.24266
622.861	2463.65244
623.314	2375.28973
623.768	2341.41596
624.221	2395.77259
624.674	2329.33717
625.127	2232.34003
625.58	2206.20945
626.033	2158.01933
626.485	2152.42299
626.938	2097.33509
627.39	2104.28021
627.843	2031.1871
628.295	2032.14096
628.747	1940.21791
629.199	1986.08106
629.651	1872.01347
630.103	1810.00171
630.555	1759.64592
631.006	1783.0182
631.458	1770.0542
631.909	1744.86389
632.361	1721.949
632.812	1633.85479
633.263	1640.59438
633.714	1531.46097
634.165	1654.05185
634.616	1540.84316
635.067	1456.4704
635.518	1519.78834
635.968	1456.21193
636.419	1489.48025
636.869	1369.58206
637.319	1384.53903
637.769	1385.47582
638.219	1361.54205
638.669	1342.57702
639.119	1311.61757
639.569	1296.5312
640.019	1252.34647
640.468	1226.23813
640.918	1270.46636
641.367	1247.28059
641.816	1246.29528
642.265	1223.31829
642.714	1186.26483
643.163	1250.3885
643.612	1253.54409
644.061	1230.187
644.51	1208.33906
644.958	1175.14956
645.406	1152.32661
645.855	1220.48875
646.303	1232.35741
646.751	1239.35211
647.199	1184.23386
647.647	1185.26998
648.095	1255.39521
648.543	1212.03558
648.99	1154.29041
649.438	1216.36351
649.885	1209.49454
650.333	1188.90992
650.78	1205.45977
651.227	1162.42145
651.674	1185.23195
652.121	1177.38527
652.568	1182.4209
653.015	1182.47724
653.461	1203.37956
653.908	1218.354
654.354	1123.24476
654.801	1120.23309
655.247	1174.15471
655.693	1094.45786
656.139	1146.32605
656.585	1028.11454
657.031	1094.19724
657.477	1092.02076
657.922	1094.16006
658.368	1065.25284
658.813	1040.04749
659.259	1092.24838
659.704	1025.05136
660.149	1080.17701
660.594	1036.13197
661.039	1023.01443
661.484	958.98695
661.929	993.0155
662.373	1039.30535
662.818	969.12955
663.262	937.99553
663.707	946.11057
664.151	985.10243
664.595	903.92143
665.039	923.03513
665.483	883.01308
665.927	931.92363
666.371	910.88482
666.814	865.84452
667.258	965.04994
667.701	890.69326
668.145	899.98643
668.588	867.89263
669.031	901.91801
669.474	804.75617
669.917	814.61826
670.36	879.964
670.803	865.84213
671.245	858.62517
671.688	801.75219
672.13	828.68813
672.573	754.72369
673.015	818.78752
673.457	793.57317
673.899	774.6899
674.341	787.72879
674.783	729.606
675.225	714.60604
675.666	786.75293
676.108	718.4338
676.549	781.67249
676.991	783.5981
677.432	762.4325
677.873	708.50267
678.314	754.65245
678.755	664.5069
679.196	691.47324
679.637	655.47835
680.078	615.3405
680.518	669.44108
680.959	647.46443
681.399	654.52249
681.839	648.46818
682.28	604.40601
682.72	660.42076
683.16	637.46629
683.6	632.33594
684.039	572.13232
684.479	605.40364
684.919	604.339
685.358	605.4373
685.798	586.44553
686.237	587.33927
686.676	550.19687
687.115	572.2664
687.554	504.14204
687.993	513.08477
688.432	541.18249
688.871	574.2497
689.309	487.1153
689.748	428.86401
690.186	542.21733
690.625	466.0481
691.063	524.20424
691.501	476.11684
691.939	492.16745
692.377	439.03209
692.815	458.06156
693.253	467.08096
693.69	499.06294
694.128	485.13777
694.565	478.09049
695.003	477.15847
695.44	454.03523
695.877	502.13935
696.314	398.83443
696.751	406.8955
697.188	443.99118
697.625	486.06142
698.061	449.04621
698.498	447.03459
698.934	451.05335
699.371	422.97623
699.807	421.96676
700.243	436.02164
700.679	467.0235
701.115	397.90473
701.551	416.95318
701.987	432.95243
702.422	429.9993
702.858	395.91324
703.294	348.7769
703.729	418.99568
704.164	443.03342
704.599	436.94756
705.035	446.98905
705.47	461.10029
705.904	408.9446
706.339	356.79575
706.774	450.01907
707.209	385.87704
707.643	410.96351
708.078	428.02626
708.512	410.00533
708.946	348.81051
709.38	348.80988
709.814	378.84421
710.248	371.87783
710.682	357.84014
711.116	393.93166
711.549	333.83696
711.983	363.82894
712.416	370.85733
712.85	346.85069
713.283	359.84189
713.716	387.93791
714.149	369.85281
714.582	458.00522
715.015	374.89944
715.448	328.81001
715.881	375.7968
716.313	396.90955
716.746	342.80219
717.178	358.84462
717.61	316.77895
718.043	340.82605
718.475	323.76635
718.907	382.93431
719.339	322.7337
719.77	318.75231
720.202	309.76772
720.634	350.84971
721.065	327.76986
721.497	335.80827
721.928	335.81559
722.359	360.86939
722.79	354.85039
723.221	300.7398
723.652	310.77371
724.083	332.75496
724.514	333.76014
724.945	307.72081
725.375	384.89363
725.806	334.80875
726.236	311.77803
726.666	384.88905
727.096	322.78233
727.526	284.71576
727.956	325.7335
728.386	313.7572
728.816	311.77466
729.246	386.92793
729.675	336.82031
730.105	293.70215
730.534	340.7844
730.964	296.72993
731.393	315.75744
731.822	311.78
732.251	297.73845
732.68	290.67066
733.109	316.76287
733.537	293.70375
733.966	348.85623
734.395	321.73305
734.823	307.67845
735.251	319.76531
735.68	338.82673
736.108	310.76585
736.536	298.69244
736.964	330.75951
737.392	313.76943
737.82	333.78611
738.247	316.74208
738.675	341.79406
739.102	347.85299
739.53	330.8257
739.957	332.83789
740.384	300.71878
740.811	316.77924
741.238	304.73308
741.665	281.64585
742.092	340.79594
742.519	303.74045
742.945	316.74931
743.372	289.71071
743.798	360.90041
744.225	299.70395
744.651	339.83025
745.077	307.75274
745.503	332.79149
745.929	315.74363
746.355	347.83721
746.781	333.80739
747.207	357.83752
747.632	327.79701
748.058	331.80916
748.483	348.78973
748.908	293.71576
749.334	300.72999
749.759	311.71679
750.184	337.79493
750.609	341.82305
751.033	294.6845
751.458	332.73231
751.883	325.78681
752.307	277.65368
752.732	348.86159
753.156	339.82809
753.58	334.78251
754.005	283.70135
754.429	335.77917
754.853	332.80481
755.277	281.65308
755.7	330.80387
756.124	329.80188
756.548	336.79027
756.971	285.67777
757.394	290.73766
757.818	265.67087
758.241	292.72959
758.664	310.77343
759.087	268.60574
759.51	293.71416
759.933	273.65747
760.356	297.74329
760.778	319.7807
761.201	302.72385
761.623	272.64649
762.046	343.79525
762.468	241.56609
762.89	239.58234
763.312	267.65298
763.734	269.64219
764.156	299.72715
764.578	297.68262
765	293.70802
765.421	225.57185
765.843	231.59683
766.264	280.66729
766.686	244.60084
767.107	213.51493
767.528	230.58217
767.949	259.65171
768.37	188.45698
768.791	239.5769
769.212	217.54761
769.632	224.5277
770.053	217.56803
770.473	217.52736
770.894	198.49063
771.314	184.4355
771.734	234.54869
772.154	165.42041
772.575	216.49875
772.994	185.42641
773.414	186.44703
773.834	214.53492
774.254	231.57041
774.673	169.41272
775.093	201.49816
775.512	144.35736
775.931	196.4956
776.351	129.32427
776.77	125.3114
777.189	155.3726
777.607	169.43273
778.026	154.38913
778.445	155.39396
778.864	127.3277
779.282	117.28754
779.701	120.30419
780.119	189.48867
780.537	114.29032
780.955	93.23722
781.373	165.40924
781.791	149.34152
782.209	133.30949
782.627	144.38519
783.045	124.29395
783.462	104.27054
783.88	103.27
784.297	121.30896
784.715	156.40454
785.132	120.29791
785.549	176.44424
785.966	133.33745
786.383	122.30453
786.8	138.32613
787.217	129.31152
787.633	118.29966
788.05	96.22968
788.466	76.17905
788.883	93.24022
789.299	104.2546
789.715	114.28312
790.131	150.37875
790.547	86.21622
790.963	138.34758
791.379	97.24916
791.795	95.22081
792.21	125.29489
792.626	54.13077
793.041	118.29721
793.457	113.28446
793.872	59.1421
794.287	119.29029
794.702	98.24365
795.117	73.18627
795.532	120.30614
795.947	95.23166
796.362	104.25252
796.776	89.20874
797.191	95.23752
797.605	84.2064
798.02	81.20076
798.434	79.17802
798.848	66.16743
799.262	83.21201
799.676	76.18716
800.09	133.33553
800.504	29.07185
800.918	76.18232
801.331	69.18082
801.745	72.16963
802.158	65.1658
802.572	62.1519
802.985	68.16678
803.398	74.18008
803.811	62.15912
804.224	72.17999
804.637	70.17188
805.05	62.14601
805.462	94.23345
805.875	50.13251
806.288	49.12247
806.7	40.10302
807.112	35.08257
807.525	58.14557
807.937	66.16606
808.349	70.17808
808.761	65.16304
809.173	64.15796
809.584	77.19189
809.996	76.19047
810.408	86.22594
810.819	98.23679
811.231	173.45579
811.642	212.51878
812.053	306.73343
812.464	276.65448
812.875	172.43894
813.286	122.31692
813.697	82.19491
814.108	84.20785
814.519	37.08454
814.929	62.16006
815.34	122.30343
815.75	93.2403
816.16	61.15417
816.571	61.15914
816.981	41.09871
817.391	78.19308
817.801	86.22002
818.211	22.05314
818.62	100.24717
819.03	83.20564
819.44	82.21484
819.849	25.0639
820.259	73.18692
820.668	71.17906
821.077	70.17877
821.486	57.13947
821.895	48.1196
822.304	54.14507
822.713	67.16284
823.122	70.1777
823.531	80.19498
823.939	51.12765
824.348	104.25743
824.756	74.18899
825.164	53.13466
825.573	87.22503
825.981	72.1807
826.389	81.20705
826.797	9.02288
827.205	74.17536
827.612	99.24833
828.02	49.11878
828.428	117.30116
828.835	78.20783
829.243	65.15969
829.65	59.14964
830.057	60.14934
830.464	62.15381
830.871	86.20866
831.278	67.16412
831.685	75.17198
832.092	84.21013
832.499	24.05427
832.905	43.11061
833.312	66.15458
833.718	55.1397
834.124	30.07024
834.531	64.16305
834.937	21.05415
835.343	65.16034
835.749	41.09654
836.155	52.13772
836.561	76.19115
836.966	33.0826
837.372	61.15767
837.777	82.20875
838.183	28.06368
838.588	26.06528
838.993	59.14581
839.399	28.0702
839.804	-13.03275
840.209	73.19058
840.613	30.06911
841.018	61.1557
841.423	2.00524
841.828	40.10388
842.232	58.14515
842.637	44.10696
843.041	35.09222
843.445	73.18587
843.849	-1.00254
844.253	83.20074
844.657	55.14187
845.061	67.15647
845.465	54.13347
845.869	70.16671
846.272	57.14246
846.676	21.05159
847.079	52.13601
847.483	55.13821
847.886	55.13367
848.289	26.07074
848.692	39.1006
849.095	49.121
849.498	22.05613
849.901	39.09129
850.304	86.20976
850.707	34.08766
851.109	12.03068
851.512	47.11891
851.914	25.06565
852.316	35.08912
852.718	39.10314
853.121	35.08786
853.523	95.22863
853.925	47.12554
854.326	-3.00767
854.728	57.14967
855.13	60.15859
855.531	78.1923
855.933	27.06542
856.334	44.11229
856.736	36.08372
857.137	11.02632
857.538	30.0778
857.939	73.18528
858.34	62.15336
858.741	34.09017
859.142	37.0912
859.542	71.19021
859.943	63.15871
860.343	8.02038
860.744	73.18001
861.144	3.00743
861.544	35.08732
861.945	98.25458
862.345	5.01251
862.745	33.08483
863.145	58.1403
863.544	90.22912
863.944	41.09815
864.344	47.11849
864.743	66.16451
865.143	74.19243
865.542	35.08372
865.941	56.14221
866.34	74.17941
866.74	61.16449
867.139	66.16289
867.537	33.08533
867.936	98.23974
868.335	107.27437
868.734	74.19402
869.132	63.15082
869.531	33.08041
869.929	80.18862
870.327	50.12327
870.726	50.12513
871.124	77.18419
871.522	61.15784
871.92	44.11114
872.318	66.16373
872.715	64.15842
873.113	83.20662
873.511	88.22458
873.908	71.18454
874.306	85.21628
874.703	31.07874
875.1	60.1549
875.497	63.15558
875.894	78.19646
876.291	12.03008
876.688	108.28373
877.085	55.13337
877.482	61.1545
877.878	51.12585
878.275	61.15816
878.671	135.30297
879.068	39.09606
879.464	10.02479
879.86	0
880.256	27.0679
880.652	19.04943
881.048	50.12513
881.444	42.10079
881.84	55.14157
882.236	50.12724
882.631	87.21854
883.027	-15.03708
883.422	30.07793
883.817	95.24581
884.213	52.13615
884.608	66.16594
885.003	51.12664
885.398	51.13164
885.793	8.02051
886.188	37.09521
886.582	20.05153
886.977	82.19776
887.371	-14.03584
887.766	46.1174
888.16	50.12657
888.554	21.05249
888.949	51.12922
889.343	92.22523
889.737	33.09055
890.131	-3.00765
890.525	23.05986
890.918	7.01787
891.312	27.06508
891.706	16.04204
892.099	9.02311
892.492	48.10712
892.886	12.02993
893.279	70.18147
893.672	-11.02826
894.065	31.07879
894.458	50.12899
894.851	39.09712
895.244	13.03381
895.637	36.08908
896.029	17.04246
896.422	52.12872
896.814	36.09094
897.206	48.11681
897.599	55.13662
897.991	15.03697
898.383	80.19461
898.775	57.13144
899.167	22.05332
899.559	56.14307
899.951	49.11761
900.342	37.09468
900.734	47.12073
901.125	54.14316
901.517	35.08827
901.908	64.15487
902.299	105.26357
902.69	88.21175
903.082	52.12796
903.473	28.06946
903.863	48.12431
904.254	73.17449
904.645	55.13881
905.036	33.0823
905.426	73.1686
905.817	50.12553
906.207	60.14716
906.597	-11.02636
906.987	76.19879
907.378	18.04607
907.768	35.09401
908.158	38.09451
908.547	13.03445
908.937	34.08775
909.327	59.14666
909.717	29.07426
910.106	25.06135
910.495	81.20435
910.885	43.11126
911.274	30.0764
911.663	19.04862
912.052	33.08218
912.441	25.06431
912.83	63.14868
913.219	81.21233
913.608	70.17302
913.997	45.11559
914.385	23.05588
914.774	55.13592
915.162	89.21679
915.55	53.13002
915.939	55.14098
916.327	11.02768
916.715	17.04419
917.103	39.09695
917.491	28.06989
917.878	17.04207
918.266	-5.01308
918.654	73.18993
919.041	71.1882
919.429	52.12579
919.816	9.02314
920.203	18.0449
920.591	44.11035
920.978	13.03203
921.365	34.09059
921.752	65.15851
922.139	83.18573
922.525	82.20223
922.912	15.03725
923.299	72.18194
923.685	71.18757
924.072	19.04432
924.458	47.1184
924.844	47.11887
925.231	47.11221
925.617	20.05221
926.003	20.05192
926.389	33.08492
926.774	44.11324
927.16	46.1162
927.546	37.09706
927.931	58.14682
928.317	23.05392
928.702	3.00723
929.088	72.17456
929.473	9.02332
929.858	11.02755
930.243	2.00496
930.628	50.12558
931.013	52.13145
931.398	57.13259
931.783	26.06891
932.167	64.16068
932.552	15.03796
932.937	20.05047
933.321	44.11277
933.705	35.09019
934.09	48.12146
934.474	38.09178
934.858	15.03961
935.242	35.08363
935.626	80.20825
936.009	-27.07252
936.393	20.05171
936.777	11.0288
937.16	30.07876
937.544	66.15676
937.927	7.01831
938.311	19.04711
938.694	40.10629
939.077	49.11967
939.46	-24.05902
939.843	105.22603
940.226	64.16609
940.609	113.26762
940.991	23.05976
941.374	38.09503
941.757	40.09959
942.139	64.14967
942.522	32.0765
942.904	64.15639
943.286	-6.01546
943.668	86.22471
944.05	70.17511
944.432	49.12441
944.814	-4.00999
945.196	51.12834
945.578	84.20717
945.959	80.19082
946.341	12.02941
946.722	8.01924
947.104	48.11729
947.485	53.12601
947.866	87.22495
948.247	34.0865
948.628	23.05667
949.009	69.17977
949.39	75.18786
949.771	56.13311
950.152	65.1631
950.532	50.12688
950.913	41.1008
951.293	57.15601
951.674	118.29337
952.054	54.13781
952.434	-1.00254
952.814	16.03908
953.194	15.0396
953.574	0
953.954	36.08754
954.334	70.17713
954.714	54.13479
955.093	28.06964
955.473	25.0635
955.853	35.0915
956.232	7.01926
956.611	72.1745
956.99	54.13888
957.37	64.16546
957.749	78.18975
958.128	50.12913
958.506	71.18839
958.885	54.13898
959.264	82.2072
959.643	21.04889
960.021	40.10162
960.4	80.18583
960.778	76.18888
961.156	24.06183
961.535	48.11383
961.913	56.13378
962.291	80.21074
962.669	-16.04132
963.047	33.08509
963.424	19.04926
963.802	56.14075
964.18	49.12516
964.557	68.15952
964.935	36.08718
965.312	36.09471
965.69	32.08075
966.067	50.1244
966.444	40.09945
966.821	31.08074
967.198	32.07881
967.575	-3.00744
967.952	29.06969
968.329	71.17552
968.705	50.10919
969.082	76.19804
969.458	72.17829
969.835	2.00498
970.211	46.12081
970.587	33.0834
970.963	38.09844
971.339	57.15069
971.715	67.16891
972.091	80.19919
972.467	36.09139
972.843	37.09365
973.219	15.03632
973.594	54.14464
973.97	57.13713
974.345	40.09822
974.721	-2.0049
975.096	-2.00497
975.471	58.14009
975.846	32.07822
976.221	49.12779
976.596	51.12548
976.971	48.12012
977.346	5.01188
977.72	7.01828
978.095	58.15207
978.469	23.05588
978.844	46.11599
979.218	-18.04443
979.593	19.0464
979.967	31.07695
980.341	19.04479
980.715	45.11559
981.089	-10.02537
981.463	61.14558
981.837	-8.02023
982.21	24.05687
982.584	45.11104
982.957	28.07181
983.331	60.14459
983.704	-13.03226
984.078	46.11595
984.451	7.01757
984.824	40.09985
985.197	46.11324
985.57	54.13713
985.943	39.0968
986.316	68.16845
986.688	29.07098
987.061	68.16356
987.434	46.12138
987.806	55.13582
988.179	50.12136
988.551	42.10847
988.923	18.04526
989.295	11.02748
989.667	26.06438
990.039	53.13428
990.411	39.0919
990.783	42.09856
991.155	71.17681
991.527	21.05213
991.898	14.03586
992.27	14.03529
992.641	26.066
993.012	61.14581
993.384	17.04124
993.755	46.11983
994.126	30.07342
994.497	27.06797
994.868	65.15305
995.239	32.07869
995.61	56.14377
995.98	47.11751
996.351	26.06575
996.722	35.08459
997.092	47.11427
997.462	50.12059
997.833	52.12484
998.203	45.11015
998.573	-1.00254
998.943	100.23889
999.313	56.13755
999.683	59.14597
1000.053	28.06648
1000.423	-24.05956
1000.792	62.16349
1001.162	50.12436
1001.531	44.11051
1001.901	98.24922
1002.27	36.08267
1002.639	18.04713
1003.009	-1.00243
1003.378	-4.01037
1003.747	55.13377
1004.116	63.15392
1004.485	29.07027
1004.853	60.15361
1005.222	18.04587
1005.591	43.10376
1005.959	52.12189
1006.328	54.12479
1006.696	86.21226
1007.064	17.04342
1007.433	51.12871
1007.801	33.08155
1008.169	14.03565
1008.537	54.12276
1008.905	24.05786
1009.273	69.17039
1009.64	60.14771
1010.008	56.13659
1010.375	27.06478
1010.743	62.14453
1011.11	23.05617
1011.478	25.06278
1011.845	40.0957
1012.212	40.09365
1012.579	-2.005
1012.946	43.10392
1013.313	31.07466
1013.68	84.19088
1014.047	34.08361
1014.414	42.10202
1014.78	27.06795
1015.147	44.10676
1015.513	50.12291
1015.88	22.05648
1016.246	12.02969
1016.612	27.06256
1016.978	22.05506
1017.344	74.18619
1017.71	9.02207
1018.076	37.08854
1018.442	47.12111
1018.808	45.11446
1019.174	33.08468
1019.539	45.10331
1019.905	30.07243
1020.27	41.10369
1020.636	57.13858
1021.001	30.07298
1021.366	31.07633
1021.731	23.05933
1022.096	15.03879
1022.461	73.17509
1022.826	47.1135
1023.191	-13.0347
1023.556	33.07963
1023.92	24.05963
1024.285	60.14841
1024.649	69.17146
1025.014	101.25179
1025.378	49.12525
1025.742	49.12406
1026.107	47.10795
1026.471	5.0118
1026.835	76.19184
1027.199	69.17245
1027.562	22.05241
1027.926	40.09909
1028.29	67.17288
1028.654	67.15702
1029.017	-9.02245
1029.381	13.03193
1029.744	21.05409
1030.107	58.13877
1030.471	-1.00243
1030.834	23.05342
1031.197	43.10388
1031.56	29.06958
1031.923	1.00263
1032.286	39.09301
1032.648	54.1323
1033.011	9.02113
1033.374	50.11816
1033.736	39.10424
1034.099	43.10747
1034.461	4.01027
1034.823	12.03041
1035.185	18.04615
1035.548	42.10469
1035.91	27.06611
1036.272	2.00464
1036.634	32.07875
1036.995	98.23465
1037.357	27.06719
1037.719	-19.0469
1038.08	49.11761
1038.442	37.08928
1038.803	36.08767
1039.165	47.12153
1039.526	47.1153
1039.887	15.03688
1040.248	-2.00504
1040.609	18.04472
1040.97	66.16433
1041.331	6.01548
1041.692	98.23626
1042.053	54.12583
1042.413	73.17262
1042.774	25.06174
1043.134	70.16927
1043.495	15.03814
1043.855	-1.00248
1044.215	87.21878
1044.576	60.14809
1044.936	48.11203
1045.296	55.13871
1045.656	47.11607
1046.016	42.10221
1046.375	30.07361
1046.735	45.10505
1047.095	-1.0024
1047.454	50.10831
1047.814	30.07355
1048.173	-21.05025
1048.533	-10.0236
1048.892	58.14326
1049.251	58.14729
1049.61	2.00503
1049.969	81.19627
1050.328	65.14383
1050.687	35.08646
1051.046	-3.0074
1051.405	68.17256
1051.763	-13.03105
1052.122	52.13159
1052.48	-11.02729
1052.839	4.00967
1053.197	46.11098
1053.555	11.02492
1053.914	5.01234
1054.272	14.03406
1054.63	40.1005
1054.988	57.13838
1055.345	29.06441
1055.703	54.13131
1056.061	10.02611
1056.419	21.05518
1056.776	32.0779
1057.134	32.07601
1057.491	-1.00255
1057.848	7.01758
1058.206	-7.01698
1058.563	20.0453
1058.92	36.08353
1059.277	38.09472
1059.634	49.11672
1059.991	45.10965
1060.348	32.07477
1060.704	-23.05688
1061.061	68.15883
1061.418	5.01236
1061.774	29.07301
1062.131	30.08089
1062.487	15.03605
1062.843	16.04033
1063.199	46.1169
1063.555	62.14771
1063.911	-13.03322
1064.267	45.09558
1064.623	-3.0075
1064.979	48.11493
1065.335	37.08915
1065.691	5.0122
1066.046	-7.01549
1066.402	67.15708
1066.757	56.14191
1067.112	13.03226
1067.468	92.22606
1067.823	62.1519
1068.178	-1.00246
1068.533	58.14273
1068.888	42.10145
1069.243	36.09012
1069.598	41.10151
1069.952	4.0094
1070.307	24.06144
1070.662	-8.01944
1071.016	45.10348
1071.371	23.05344
1071.725	36.08728
1072.079	27.06567
1072.434	30.07475
1072.788	7.01717
1073.142	105.26024
1073.496	-20.0488
1073.85	1.00236
1074.203	69.17214
1074.557	24.06477
1074.911	9.02168
1075.265	11.02618
1075.618	3.00741
1075.971	41.09912
1076.325	-6.01563
1076.678	62.14641
1077.031	25.0585
1077.385	60.13628
1077.738	53.1228
1078.091	29.06823
1078.444	67.15776
1078.796	28.06946
1079.149	59.14746
1079.502	88.21415
1079.855	36.08643
1080.207	49.12216
1080.56	1.00263
1080.912	14.03454
1081.264	46.11261
1081.617	100.24844
1081.969	52.13425
1082.321	-15.03735
1082.673	56.13209
1083.025	24.05847
1083.377	-168.38854
1083.728	-9.02141
1084.08	27.06831
1084.432	60.14732
1084.783	54.12796
1085.135	53.13471
1085.486	9.02155
1085.838	44.11039
1086.189	-14.03467
1086.54	62.14924
1086.891	40.10334
1087.242	6.01479
1087.593	37.09117
1087.944	-26.06035
1088.295	68.15683
1088.646	49.12154
1088.996	-9.02223
1089.347	-11.02768
1089.698	39.09454
1090.048	-43.1128
1090.398	6.01415
1090.749	25.06117
1091.099	64.16631
1091.449	20.05066
1091.799	49.12459
1092.149	90.22644
1092.499	15.03725
1092.849	45.11664
1093.199	2.00506
1093.548	47.11564
1093.898	24.06121
1094.248	63.16228
1094.597	21.05552
1094.947	5.01349
1095.296	-33.0834
1095.645	38.09973
1095.994	15.03655
1096.343	0
1096.692	104.28122
1097.041	-36.09883
1097.39	63.16149
1097.739	-5.01323
1098.088	51.13771
1098.437	9.02417
1098.785	0
1099.134	26.06946
1099.482	57.15774
1099.83	0
1100.179	34.09092
1100.527	15.0402
1100.875	37.09893
1101.223	-1.00269
1101.571	49.13637
1101.919	47.126
1102.267	12.03407
1102.615	13.0419
1102.962	1.00322
1103.31	3.00967
1103.658	12.03871
