Data from N2 R0 60C sample9_Subt2__3__11-32-54-191.txt Node

Date: Tue Aug 19 11:32:54 PDT 2025
User: uwsun
Spectrometer: HDX01956
Trigger mode: 0
Integration Time (sec): 5.000000E-1
Scans to average: 1
Nonlinearity correction enabled: true
Boxcar width: 0
Storing dark spectrum: false
XAxis mode: Wavelengths
Number of Pixels in Spectrum: 2068
>>>>>Begin Spectral Data<<<<<
194.03	367.01782
194.578	387.20262
195.127	371.13904
195.676	409.25461
196.225	405.05281
196.773	426.14827
197.321	643.68481
197.87	910.12814
198.418	856.99906
198.966	844.02578
199.513	850.93151
200.061	848.97729
200.609	855.05336
201.156	816.63353
201.704	859.98923
202.251	901.17689
202.798	850.02094
203.345	871.9549
203.892	915.07356
204.438	873.8937
204.985	950.04115
205.532	895.13487
206.078	940.06878
206.624	927.05585
207.17	863.82357
207.716	868.92231
208.262	836.49188
208.808	932.0938
209.354	902.99264
209.899	888.00705
210.445	906.05108
210.99	940.04896
211.535	944.99872
212.08	925.95635
212.625	994.21318
213.17	917.08647
213.715	909.87395
214.259	935.95084
214.804	901.99002
215.348	884.81627
215.892	921.97584
216.436	903.88237
216.98	949.88655
217.524	938.9817
218.068	903.07436
218.612	889.02109
219.155	867.84879
219.698	873.88568
220.242	835.89628
220.785	821.74536
221.328	750.7214
221.871	831.89936
222.414	814.85119
222.956	859.90592
223.499	779.61651
224.041	812.72883
224.583	838.61194
225.126	773.56768
225.668	792.75978
226.21	796.835
226.751	791.60496
227.293	840.76295
227.835	745.69936
228.376	870.80191
228.918	795.8425
229.459	781.79578
230	802.74074
230.541	820.75568
231.082	795.73906
231.622	819.71092
232.163	792.76486
232.704	812.8288
233.244	866.93852
233.784	782.75405
234.324	809.65943
234.864	782.63176
235.404	811.75543
235.944	807.74009
236.484	797.79757
237.023	849.83304
237.563	841.76234
238.102	790.68923
238.641	842.93565
239.18	829.78069
239.719	845.92131
240.258	853.73797
240.797	852.86027
241.335	860.90459
241.874	845.49906
242.412	886.93697
242.95	830.81375
243.488	885.82933
244.026	865.79354
244.564	861.60033
245.102	800.64575
245.64	827.79617
246.177	828.70035
246.715	881.90782
247.252	876.81354
247.789	916.53185
248.326	860.89117
248.863	867.73775
249.4	822.70621
249.936	807.51019
250.473	857.82272
251.009	936.93353
251.546	861.71777
252.082	864.71142
252.618	856.71923
253.154	918.9926
253.69	807.65086
254.226	856.84619
254.761	924.88405
255.297	808.60706
255.832	866.83749
256.367	948.99586
256.903	866.69462
257.438	877.84994
257.972	939.8753
258.507	893.86151
259.042	967.87517
259.576	954.84949
260.111	920.89538
260.645	855.65297
261.179	907.89155
261.713	948.89286
262.247	886.85221
262.781	916.72594
263.315	924.03522
263.849	965.15167
264.382	879.80963
264.915	972.04117
265.449	960.12514
265.982	956.94319
266.515	956.04967
267.048	980.85847
267.58	938.82707
268.113	936.80851
268.646	965.11987
269.178	943.88156
269.71	975.88801
270.243	921.86986
270.775	923.08411
271.307	946.01344
271.838	922.92242
272.37	900.98492
272.902	965.93794
273.433	943.80512
273.965	946.04557
274.496	936.04367
275.027	940.07222
275.558	958.06012
276.089	1000.18537
276.62	1001.23381
277.15	963.06867
277.681	996.90995
278.211	904.93063
278.741	943.85897
279.272	933.89425
279.802	952.09347
280.332	945.98128
280.861	1083.24822
281.391	977.95217
281.921	988.09387
282.45	997.19204
282.98	997.28584
283.509	974.91791
284.038	1008.01217
284.567	982.98975
285.096	1075.25133
285.625	1031.0558
286.153	983.01144
286.682	1034.06037
287.21	1050.20132
287.739	1056.17998
288.267	1006.13576
288.795	1022.30729
289.323	1065.18733
289.851	1114.25078
290.378	1066.07332
290.906	1055.22876
291.433	1096.32902
291.961	1036.03865
292.488	1075.2957
293.015	1088.22514
293.542	1067.35579
294.069	1087.28147
294.596	1099.31475
295.122	1079.21811
295.649	1025.95574
296.175	1161.41351
296.702	1091.26084
297.228	1084.25179
297.754	1223.33174
298.28	1128.189
298.806	1127.30657
299.332	1152.17544
299.857	1107.13342
300.383	1170.49387
300.908	1143.36767
301.433	1131.31995
301.958	1159.23494
302.483	1159.45609
303.008	1189.4685
303.533	1163.53906
304.058	1209.3848
304.582	1176.3525
305.107	1169.60446
305.631	1162.21036
306.155	1268.44505
306.679	1201.32493
307.203	1254.41455
307.727	1215.39888
308.251	1221.51485
308.775	1276.51428
309.298	1319.6227
309.822	1310.71569
310.345	1380.659
310.868	1313.55666
311.391	1292.60029
311.914	1314.70475
312.437	1319.44528
312.96	1404.63352
313.482	1309.52249
314.005	1329.72896
314.527	1354.9071
315.049	1353.73744
315.571	1391.51448
316.093	1452.86169
316.615	1391.70885
317.137	1434.45366
317.659	1442.80244
318.18	1478.75928
318.702	1483.66665
319.223	1487.41244
319.744	1513.63699
320.265	1523.88173
320.786	1558.00298
321.307	1532.96793
321.828	1618.78667
322.348	1615.90955
322.869	1646.98135
323.389	1404.55921
323.909	1670.84063
324.43	1728.02954
324.95	1641.8258
325.47	1660.04791
325.989	1712.98526
326.509	1760.82727
327.029	1786.87908
327.548	1731.84468
328.067	1874.25875
328.587	1777.22442
329.106	1825.88961
329.625	1851.48491
330.144	1899.10243
330.662	1758.91237
331.181	1907.11565
331.7	1944.17769
332.218	2073.98416
332.736	2020.21713
333.255	2067.20969
333.773	2013.21746
334.291	2083.4626
334.808	2109.12537
335.326	2179.17975
335.844	2170.30641
336.361	2197.67019
336.879	2246.39889
337.396	2206.43038
337.913	2325.28685
338.43	2332.21725
338.947	2343.40875
339.464	2404.04997
339.981	2358.44655
340.497	2375.57049
341.014	2428.61505
341.53	2409.17269
342.046	2474.60363
342.562	2430.70508
343.078	2530.47158
343.594	2522.5079
344.11	2580.47209
344.626	2640.82794
345.141	2605.28041
345.657	2714.25091
346.172	2656.58767
346.687	2678.40068
347.202	2785.27764
347.717	2849.59033
348.232	2780.79332
348.747	2833.40599
349.261	2830.19308
349.776	2926.49987
350.29	2948.81258
350.805	3008.84952
351.319	3063.49142
351.833	2907.26404
352.347	2994.46147
352.861	2967.40475
353.374	3083.3016
353.888	3098.62191
354.401	3066.362
354.915	3185.24683
355.428	3149.75214
355.941	3263.43665
356.454	3272.16743
356.967	3238.42158
357.48	3256.27251
357.993	3344.67433
358.505	3310.60917
359.018	3366.62065
359.53	3522.56828
360.042	3475.0476
360.554	3471.50542
361.066	3415.61861
361.578	3378.94641
362.09	3450.39123
362.602	3458.01042
363.113	3565.31704
363.625	3680.06317
364.136	3739.89148
364.647	3721.33647
365.158	3798.13905
365.669	3759.32945
366.18	3811.207
366.691	3820.8645
367.201	3860.3219
367.712	3973.00333
368.222	3951.0072
368.733	3996.81537
369.243	4145.75566
369.753	4202.03324
370.263	4327.12248
370.773	4184.23867
371.282	4267.03377
371.792	4493.89308
372.301	4597.99622
372.811	4581.42414
373.32	4598.2157
373.829	4866.66833
374.338	4956.17444
374.847	5080.37154
375.356	5250.40973
375.865	5426.62479
376.373	5623.90281
376.882	5734.45637
377.39	5764.14107
377.898	6159.11886
378.407	6257.50635
378.915	6678.23612
379.423	6940.65174
379.93	6985.40921
380.438	7438.87848
380.946	7855.96344
381.453	8198.29098
381.96	8475.5732
382.468	9088.57931
382.975	9691.97484
383.482	9738.21984
383.989	9830.31348
384.495	10211.68732
385.002	10907.85282
385.509	11613.70901
386.015	12315.48998
386.521	12878.20079
387.028	13266.45771
387.534	13811.48486
388.04	14357.42688
388.546	14585.45371
389.051	15272.09822
389.557	16497.27443
390.063	17918.23206
390.568	18320.01034
391.073	19087.0686
391.578	19898.86776
392.084	20360.43462
392.589	21154.81021
393.093	22972.17914
393.598	25175.67644
394.103	27133.9427
394.607	29790.0618
395.112	32065.55868
395.616	33758.64665
396.12	36357.08549
396.624	40383.44949
397.128	43899.70987
397.632	48549.2553
398.136	52876.57171
398.639	56318.75607
399.143	60382.60378
399.646	60788.84704
400.15	60904.11498
400.653	60560.14334
401.156	60136.25446
401.659	59550.50961
402.162	58431.12733
402.664	54480.21957
403.167	49329.08451
403.67	22278.45323
404.172	2696.20453
404.674	0
405.176	0
405.678	0
406.18	0
406.682	0
407.184	0
407.686	25783.58453
408.187	43316.52985
408.688	51225.60928
409.19	54389.01922
409.691	56215.4214
410.192	57270.57019
410.693	57845.40442
411.194	58219.2365
411.694	58633.01717
412.195	59215.68848
412.696	59364.60701
413.196	59341.61941
413.696	59632.46864
414.196	59367.6054
414.696	59763.40624
415.196	59913.34014
415.696	60584.13941
416.196	61381.18813
416.695	61808.38326
417.195	55326.37556
417.694	52745.18193
418.194	49579.17931
418.693	46344.83945
419.192	45311.68684
419.691	45020.16583
420.19	43808.0844
420.688	42690.57236
421.187	40518.53802
421.685	37545.69515
422.184	33919.24252
422.682	29323.80064
423.18	25128.69759
423.678	22592.71454
424.176	21126.7021
424.674	19651.17341
425.172	18838.54395
425.669	17708.01258
426.167	16284.35296
426.664	15229.63341
427.161	13848.42224
427.659	12771.92309
428.156	12138.97823
428.652	11410.34184
429.149	10852.0229
429.646	10361.39626
430.143	9909.63262
430.639	9299.01833
431.135	8781.08509
431.632	8313.26385
432.128	7879.97547
432.624	7466.05073
433.12	7234.42134
433.616	6952.21412
434.111	6720.57183
434.607	6542.69351
435.103	6287.06852
435.598	6219.08605
436.093	5879.82266
436.588	5522.62976
437.083	5359.82478
437.578	5168.14777
438.073	4731.99591
438.568	4749.76138
439.062	4532.14135
439.557	4450.73044
440.051	4304.54961
440.546	4164.69814
441.04	4088.12426
441.534	4088.50951
442.028	3996.08433
442.522	3827.20104
443.015	3783.69004
443.509	3743.37697
444.002	3699.40501
444.496	3610.8324
444.989	3534.37961
445.482	3571.53497
445.975	3532.11605
446.468	3462.75502
446.961	3428.82715
447.454	3285.02741
447.947	3367.37598
448.439	3267.34808
448.931	3195.14723
449.424	3143.63402
449.916	3184.51415
450.408	3076.12484
450.9	3134.54247
451.392	2980.69486
451.884	2997.19123
452.375	2900.71056
452.867	2804.10874
453.358	2789.19739
453.849	2848.86626
454.341	2821.14865
454.832	2758.94369
455.323	2707.52509
455.814	2720.24946
456.304	2619.21293
456.795	2668.2238
457.285	2567.99777
457.776	2569.11824
458.266	2464.33127
458.756	2446.31867
459.247	2476.37784
459.737	2440.39849
460.226	2395.10442
460.716	2340.36862
461.206	2309.34594
461.695	2235.42415
462.185	2250.16914
462.674	2263.185
463.163	2247.92353
463.653	2199.80998
464.142	2103.25723
464.63	2200.38983
465.119	2024.0157
465.608	2090.10308
466.096	1921.75268
466.585	2024.01927
467.073	1976.09864
467.561	1904.07242
468.05	1947.99874
468.538	1888.15273
469.026	1825.0162
469.513	1822.86772
470.001	1741.74889
470.489	1828.01711
470.976	1801.88982
471.463	1657.98708
471.951	1610.93632
472.438	1604.74934
472.925	1602.72995
473.412	1551.80359
473.899	1529.57915
474.385	1497.75735
474.872	1567.75581
475.359	1471.75757
475.845	1455.28414
476.331	1349.20286
476.817	1450.68303
477.303	1313.40173
477.789	1301.48322
478.275	1261.50142
478.761	1336.54958
479.247	1332.37036
479.732	1286.5776
480.218	1225.59265
480.703	1246.50531
481.188	1164.03411
481.673	1222.26547
482.158	1117.00526
482.643	1079.26961
483.128	1084.07555
483.612	1091.12356
484.097	1077.1764
484.581	1018.9906
485.066	1019.11988
485.55	1034.93825
486.034	1003.82428
486.518	1029.0764
487.002	1036.19381
487.486	940.99111
487.969	964.05357
488.453	925.00478
488.936	907.81049
489.42	913.74508
489.903	897.96143
490.386	854.23527
490.869	838.61194
491.352	854.83559
491.835	865.57993
492.318	871.78592
492.8	883.62587
493.283	829.89857
493.765	778.73366
494.247	767.61139
494.73	764.53284
495.212	765.66355
495.694	771.63046
496.175	760.65861
496.657	775.65464
497.139	717.16057
497.62	703.54157
498.102	644.48389
498.583	690.57922
499.064	764.58078
499.545	691.46177
500.026	686.43125
500.507	670.44663
500.988	659.52601
501.469	630.4821
501.949	649.49453
502.43	633.41878
502.91	697.35673
503.39	566.32212
503.87	620.38534
504.35	582.28589
504.83	539.14183
505.31	608.37524
505.79	638.442
506.269	619.3686
506.749	558.21585
507.228	623.38604
507.707	603.26594
508.187	550.23128
508.666	518.22546
509.145	556.25341
509.623	558.23793
510.102	536.24118
510.581	526.19728
511.059	558.33088
511.538	527.28771
512.016	566.30141
512.494	584.34338
512.972	542.22927
513.45	501.13546
513.928	571.33407
514.406	569.32627
514.884	537.31849
515.361	563.29322
515.839	542.19441
516.316	512.19115
516.793	470.14549
517.27	518.18806
517.747	507.24887
518.224	510.14911
518.701	560.21763
519.178	463.10423
519.654	470.07953
520.131	461.09903
520.607	467.11378
521.083	469.04775
521.56	500.15542
522.036	487.04767
522.512	462.0852
522.987	443.03463
523.463	497.15325
523.939	486.14877
524.414	509.13211
524.89	505.15566
525.365	465.03837
525.84	504.17804
526.315	500.17142
526.79	484.06685
527.265	522.16899
527.74	450.06559
528.215	480.10869
528.689	471.02751
529.164	410.88197
529.638	485.20599
530.112	453.05389
530.587	456.96994
531.061	405.9675
531.534	439.02688
532.008	444.04933
532.482	424.94419
532.956	380.95212
533.429	446.05244
533.903	428.92978
534.376	410.89751
534.849	428.98106
535.322	441.02027
535.795	395.9501
536.268	343.8163
536.741	430.00677
537.213	481.08035
537.686	405.97857
538.158	381.85039
538.631	421.99455
539.103	431.96593
539.575	389.80421
540.047	427.92741
540.519	418.98651
540.991	421.00351
541.463	397.94948
541.934	444.00056
542.406	401.94989
542.877	418.947
543.348	462.08689
543.82	404.96492
544.291	441.00249
544.762	452.04349
545.233	471.14516
545.703	434.95404
546.174	474.07657
546.645	441.04122
547.115	502.18069
547.585	483.07952
548.056	502.19122
548.526	552.26514
548.996	511.17877
549.466	557.28809
549.935	551.25805
550.405	554.17391
550.875	547.24188
551.344	561.29529
551.814	607.33701
552.283	534.1078
552.752	593.32631
553.221	638.35276
553.69	653.3596
554.159	634.484
554.628	634.35597
555.096	613.48528
555.565	600.29256
556.033	572.2848
556.502	544.2657
556.97	488.0595
557.438	526.20017
557.906	476.09769
558.374	435.98811
558.842	403.94909
559.31	364.82167
559.777	345.83207
560.245	421.98222
560.712	421.97411
561.18	410.92435
561.647	413.92331
562.114	364.83741
562.581	376.91656
563.048	370.85665
563.514	400.97214
563.981	387.88266
564.448	329.75252
564.914	370.86581
565.381	408.9251
565.847	446.03329
566.313	401.93484
566.779	365.81872
567.245	370.87191
567.711	430.02285
568.176	384.87282
568.642	374.93575
569.108	426.03654
569.573	465.09078
570.038	458.97928
570.504	432.9608
570.969	453.12344
571.434	434.97525
571.899	447.05868
572.363	412.94175
572.828	491.10059
573.293	500.12929
573.757	421.9598
574.222	484.08687
574.686	512.15315
575.15	485.13511
575.614	479.08596
576.078	439.03249
576.542	488.09722
577.006	517.14613
577.469	476.14805
577.933	527.18142
578.396	430.0052
578.86	529.21648
579.323	493.16781
579.786	491.05448
580.249	506.15401
580.712	486.15983
581.175	438.06499
581.637	452.01655
582.1	474.0404
582.563	475.00997
583.025	456.09103
583.487	469.96394
583.95	479.045
584.412	495.04115
584.874	463.0941
585.336	438.02673
585.797	476.02418
586.259	432.00949
586.721	440.02258
587.182	473.07711
587.643	456.02598
588.105	487.13669
588.566	420.88482
589.027	487.15624
589.488	431.98259
589.949	508.19621
590.41	425.84909
590.87	468.04099
591.331	475.0069
591.791	495.13682
592.252	492.11797
592.712	484.1299
593.172	497.11315
593.632	513.11458
594.092	518.13763
594.552	522.11034
595.011	467.06214
595.471	489.0655
595.931	520.13245
596.39	573.33456
596.849	576.29856
597.308	553.17307
597.768	553.36431
598.227	505.16861
598.685	513.13253
599.144	600.34446
599.603	652.47427
600.062	635.3039
600.52	581.25988
600.978	595.34281
601.437	672.43795
601.895	665.33979
602.353	679.41694
602.811	744.56749
603.269	818.8048
603.727	725.63712
604.184	760.61804
604.642	838.87661
605.099	774.65713
605.557	884.94801
606.014	939.85021
606.471	894.02471
606.928	1022.98245
607.385	1099.36109
607.842	1146.21139
608.299	1161.32084
608.755	1120.32768
609.212	1113.11641
609.668	1174.23432
610.125	1194.43346
610.581	1251.4483
611.037	1197.29083
611.493	1151.30293
611.949	1216.54075
612.405	1209.02887
612.861	1173.3255
613.316	1225.46022
613.772	1293.46791
614.227	1329.59396
614.683	1309.28094
615.138	1324.53874
615.593	1261.44018
616.048	1319.44167
616.503	1296.60835
616.958	1350.78631
617.412	1299.52459
617.867	1288.34936
618.321	1316.22199
618.776	1304.37508
619.23	1289.4815
619.684	1326.43831
620.138	1363.53833
620.592	1274.57335
621.046	1278.45267
621.5	1281.60687
621.954	1219.29059
622.407	1181.21249
622.861	1150.37427
623.314	1131.18394
623.768	1137.26444
624.221	1158.94981
624.674	1107.18324
625.127	1115.22157
625.58	1078.10662
626.033	1025.94726
626.485	1041.17431
626.938	1018.11171
627.39	999.05159
627.843	969.98346
628.295	943.91891
628.747	931.9699
629.199	915.8602
629.651	893.83272
630.103	901.86575
630.555	906.70874
631.006	822.75089
631.458	841.80725
631.909	800.65608
632.361	784.67784
632.812	752.61692
633.263	770.52073
633.714	768.49976
634.165	767.72707
634.616	777.70609
635.067	705.43742
635.518	722.58891
635.968	710.3169
636.419	724.45783
636.869	673.4844
637.319	646.40368
637.769	635.35313
638.219	623.37458
638.669	604.36453
639.119	660.51535
639.569	624.41147
640.019	617.33634
640.468	614.29331
640.918	649.44573
641.367	583.2438
641.816	643.36249
642.265	614.33577
642.714	620.34541
643.163	657.43457
643.612	623.44543
644.061	633.29862
644.51	643.41225
644.958	597.25057
645.406	624.41204
645.855	589.3724
646.303	608.33782
646.751	617.3477
647.199	652.3897
647.647	620.34884
648.095	644.41001
648.543	646.25163
648.99	594.33209
649.438	619.37315
649.885	631.46977
650.333	720.30962
650.78	681.55455
651.227	693.59401
651.674	608.30646
652.121	658.49086
652.568	691.5717
653.015	638.49686
653.461	631.41429
653.908	681.48452
654.354	624.39085
654.801	603.34593
655.247	678.39889
655.693	638.56696
656.139	654.47579
656.585	661.47188
657.031	656.45018
657.477	694.41144
657.922	689.48928
658.368	696.59105
658.813	669.43183
659.259	689.54693
659.704	650.41358
660.149	733.59527
660.594	709.56647
661.039	738.55075
661.484	691.51778
661.929	701.51783
662.373	705.67308
662.818	701.6278
663.262	681.53021
663.707	738.71813
664.151	727.63897
664.595	698.55081
665.039	762.7378
665.483	790.83632
665.927	806.71159
666.371	746.60126
666.814	764.66454
667.258	828.81242
667.701	796.54865
668.145	783.77172
668.588	770.71512
669.031	863.85217
669.474	805.75799
669.917	820.62794
670.36	844.89933
670.803	844.80555
671.245	866.63716
671.688	880.89312
672.13	826.68481
672.573	868.93902
673.015	937.99639
673.457	866.68903
673.899	858.84025
674.341	918.96138
674.783	910.92922
675.225	867.88945
675.666	932.01441
676.108	884.69812
676.549	921.91313
676.991	943.8555
677.432	973.73565
677.873	918.85996
678.314	901.91386
678.755	969.06201
679.196	883.80485
679.637	898.9269
680.078	926.88642
680.518	950.92398
680.959	953.02179
681.399	969.11446
681.839	953.02442
682.28	957.07158
682.72	987.97671
683.16	932.01783
683.6	960.88501
684.039	936.69742
684.479	967.08171
684.919	965.97971
685.358	976.15165
685.798	958.19946
686.237	989.07283
686.676	937.87303
687.115	921.89192
687.554	897.87151
687.993	984.86879
688.432	914.84174
688.871	971.93748
689.309	932.945
689.748	908.63069
690.186	934.93026
690.625	898.84257
691.063	1018.10797
691.501	922.97587
691.939	1011.15798
692.377	996.08706
692.815	1014.09129
693.253	964.01106
693.69	1011.9169
694.128	995.10096
694.565	1006.05072
695.003	1014.2132
695.44	1013.04965
695.877	991.02602
696.314	978.78724
696.751	939.8381
697.188	982.95087
697.625	1069.04823
698.061	1002.08032
698.498	1002.06374
698.934	1001.08514
699.371	1096.1912
699.807	971.9813
700.243	1023.12163
700.679	1034.99815
701.115	984.97387
701.551	1044.08609
701.987	1092.07186
702.422	1033.11487
702.858	1057.11746
703.294	1028.97046
703.729	1087.25054
704.164	1087.21461
704.599	1033.95868
705.035	1113.12254
705.47	1133.35525
705.904	1088.17418
706.339	1078.04721
706.774	1121.1934
707.209	1172.24125
707.643	1154.31265
708.078	1181.4248
708.512	1191.49557
708.946	1111.19318
709.38	1148.24476
709.814	1128.12586
710.248	1091.21576
710.682	1192.343
711.116	1201.39653
711.549	1194.52537
711.983	1262.35603
712.416	1221.34694
712.85	1245.54265
713.283	1246.40938
713.716	1237.51043
714.149	1217.33366
714.582	1293.34375
715.015	1193.41555
715.448	1308.63732
715.881	1282.18758
716.313	1267.39844
716.746	1329.51005
717.178	1273.46346
717.61	1265.56268
718.043	1363.66668
718.475	1314.51471
718.907	1341.68492
719.339	1337.41893
719.77	1323.51442
720.202	1359.71727
720.634	1351.65429
721.065	1346.53425
721.497	1413.7053
721.928	1376.68776
722.359	1421.73493
722.79	1503.81363
723.221	1377.7105
723.652	1435.83665
724.083	1528.63349
724.514	1559.67948
724.945	1475.66832
725.375	1537.76
725.806	1460.77618
726.236	1494.92279
726.666	1505.70639
727.096	1517.8496
727.526	1503.94385
727.956	1506.58033
728.386	1533.84624
728.816	1511.92785
729.246	1544.88712
729.675	1589.96215
730.105	1525.7883
730.534	1530.69109
730.964	1618.00424
731.393	1626.92872
731.822	1640.10932
732.251	1610.02883
732.68	1629.76525
733.109	1607.92425
733.537	1645.92806
733.966	1652.07214
734.395	1599.71252
734.823	1653.63516
735.251	1687.98642
735.68	1743.13716
736.108	1739.15352
736.536	1667.82571
736.964	1716.85916
737.392	1717.11186
737.82	1751.99447
738.247	1747.95608
738.675	1759.9528
739.102	1787.21036
739.53	1788.27603
739.957	1734.2583
740.384	1732.01001
740.811	1782.19408
741.238	1781.08697
741.665	1696.79808
742.092	1782.99415
742.519	1769.13147
742.945	1800.04319
743.372	1751.12947
743.798	1788.29867
744.225	1818.01511
744.651	1765.16582
745.077	1803.18231
745.503	1772.05288
745.929	1762.9904
746.355	1826.16641
746.781	1830.17999
747.207	1873.09469
747.632	1798.16774
748.058	1778.16437
748.483	1888.95948
748.908	1826.17628
749.334	1873.2073
749.759	1769.8966
750.184	1763.00469
750.609	1878.21003
751.033	1835.97947
751.458	1825.78553
751.883	1813.15104
752.307	1797.98969
752.732	1823.27872
753.156	1844.23108
753.58	1864.06213
754.005	1785.19223
754.429	1828.00236
754.853	1802.15208
755.277	1737.87805
755.7	1775.14537
756.124	1739.11104
756.548	1749.97998
756.971	1721.95831
757.394	1774.30324
757.818	1723.20709
758.241	1739.18816
758.664	1733.18967
759.087	1697.72581
759.51	1731.07473
759.933	1750.02731
760.356	1669.12282
760.778	1706.08641
761.201	1698.98066
761.623	1652.87849
762.046	1698.88095
762.468	1632.79028
762.89	1624.92215
763.312	1686.02254
763.734	1613.85325
764.156	1563.89076
764.578	1623.74179
765	1636.94237
765.421	1527.96588
765.843	1514.01729
766.264	1560.79796
766.686	1502.8275
767.107	1466.69671
767.528	1421.81673
767.949	1423.8168
768.37	1352.55918
768.791	1489.73578
769.212	1447.83134
769.632	1380.51403
770.053	1367.85576
770.473	1381.61359
770.894	1378.66395
771.314	1381.50515
771.734	1287.39048
772.154	1358.71341
772.575	1324.37901
772.994	1338.37133
773.414	1300.45454
773.834	1253.53031
774.254	1315.58825
774.673	1197.3534
775.093	1180.38974
775.512	1203.39611
775.931	1217.50326
776.351	1162.36603
776.77	1105.25134
777.189	1154.23957
777.607	1139.40637
778.026	1169.4055
778.445	1049.23243
778.864	1056.27203
779.282	1067.15224
779.701	1062.22943
780.119	1096.37521
780.537	1003.14181
780.955	974.08741
781.373	938.99119
781.791	941.81082
782.209	945.8429
782.627	986.25657
783.045	942.87566
783.462	956.11103
783.88	858.95204
784.297	865.91209
784.715	856.94436
785.132	867.85278
785.549	857.89362
785.966	801.78529
786.383	789.72593
786.8	824.68453
787.217	756.60533
787.633	762.70848
788.05	723.51887
788.466	688.42463
788.883	698.60839
789.299	691.50315
789.715	743.62867
790.131	686.56189
790.547	627.41913
790.963	659.50068
791.379	631.46516
791.795	593.23999
792.21	627.33201
792.626	603.30598
793.041	592.36072
793.457	664.50203
793.872	552.20225
794.287	530.19083
794.702	510.16969
795.117	519.2167
795.532	543.27849
795.947	516.15648
796.362	565.2501
796.776	471.0197
797.191	526.20933
797.605	513.15752
798.02	438.01192
798.434	455.94612
798.848	490.14616
799.262	399.9619
799.676	443.01436
800.09	483.13924
800.504	381.88263
800.918	383.86473
801.331	331.82835
801.745	369.81884
802.158	358.86554
802.572	320.7462
802.985	373.86274
803.398	346.79887
803.811	293.72134
804.224	306.73232
804.637	320.74913
805.05	262.5929
805.462	313.74606
805.875	263.67195
806.288	284.67942
806.7	302.74199
807.112	232.5263
807.525	251.60792
807.937	268.6497
808.349	246.60621
808.761	251.60838
809.173	272.64549
809.584	236.57106
809.996	218.53227
810.408	226.57957
810.819	278.64878
811.231	360.91824
811.642	339.80988
812.053	404.95015
812.464	423.97446
812.875	309.7694
813.286	230.58631
813.697	234.53988
814.108	210.50758
814.519	203.44825
814.929	171.43308
815.34	236.57471
815.75	198.50226
816.16	174.43085
816.571	167.42776
816.981	128.30308
817.391	204.49327
817.801	173.43581
818.211	110.26127
818.62	163.39822
819.03	111.2736
819.44	162.41865
819.849	95.23984
820.259	148.37397
820.668	168.4163
821.077	145.36541
821.486	125.30197
821.895	158.38579
822.304	143.37853
822.713	130.31221
823.122	134.3363
823.531	148.35611
823.939	121.29902
824.348	145.35622
824.756	131.33119
825.164	112.28159
825.573	110.28339
825.981	90.22514
826.389	140.35413
826.797	68.17109
827.205	95.2242
827.612	175.43293
828.02	110.26358
828.428	126.32382
828.835	109.28892
829.243	137.33208
829.65	64.16218
830.057	113.27853
830.464	111.2729
830.871	111.26805
831.278	51.12529
831.685	88.20126
832.092	139.34426
832.499	67.15018
832.905	84.21452
833.312	97.22581
833.718	87.21972
834.124	77.17862
834.531	69.17563
834.937	71.18148
835.343	124.30255
835.749	66.15464
836.155	92.24203
836.561	90.22579
836.966	125.30766
837.372	70.18065
837.777	76.19368
838.183	77.17337
838.588	35.08773
838.993	87.21389
839.399	66.16433
839.804	45.11219
840.209	79.20603
840.613	44.10108
841.018	86.21855
841.423	47.12224
841.828	83.21394
842.232	78.19449
842.637	66.15977
843.041	115.29889
843.445	67.17078
843.849	27.06814
844.253	96.23161
844.657	80.20546
845.061	75.17487
845.465	48.11877
845.869	86.20418
846.272	27.06785
846.676	74.18002
847.079	77.20054
847.483	65.16304
847.886	57.13848
848.289	26.07074
848.692	45.11595
849.095	104.25422
849.498	74.18706
849.901	30.07035
850.304	89.21695
850.707	23.05941
851.109	51.12949
851.512	122.30453
851.914	82.21324
852.316	15.03833
852.718	-17.04538
853.121	47.11772
853.523	73.17642
853.925	63.16783
854.326	7.01786
854.728	69.18082
855.13	78.20554
855.531	93.22865
855.933	16.03885
856.334	39.09962
856.736	68.15715
857.137	21.05016
857.538	55.14202
857.939	88.22276
858.34	85.20936
858.741	42.11124
859.142	90.21968
859.542	51.13708
859.943	58.14625
860.343	60.15145
860.744	64.15807
861.144	28.06901
861.544	42.10465
861.945	73.19045
862.345	19.04742
862.745	-10.0259
863.145	37.08986
863.544	40.10273
863.944	59.14076
864.344	47.11849
864.743	77.19154
865.143	49.12797
865.542	68.16164
865.941	78.19731
866.34	43.10486
866.74	32.0867
867.139	62.15313
867.537	49.12635
867.936	62.15268
868.335	74.19084
868.734	61.16029
869.132	64.15318
869.531	19.04642
869.929	69.16303
870.327	50.12327
870.726	53.13256
871.124	80.19126
871.522	54.13989
871.92	67.16855
872.318	60.14901
872.715	13.03248
873.113	92.22865
873.511	67.17162
873.908	34.08893
874.306	95.24129
874.703	30.07621
875.1	59.15235
875.497	70.17264
875.894	41.10395
876.291	23.05755
876.688	70.18508
877.085	25.06096
877.482	37.09411
877.878	44.10872
878.275	39.10151
878.671	61.13898
879.068	43.10584
879.464	62.15223
879.86	4.00973
880.256	48.12025
880.652	35.09081
881.048	65.16222
881.444	18.04339
881.84	52.13392
882.236	38.09691
882.631	65.16392
883.027	24.05891
883.422	32.0831
883.817	65.16906
884.213	42.11016
884.608	40.10104
885.003	58.14383
885.398	82.21052
885.793	32.0817
886.188	39.10032
886.582	39.10014
886.977	45.10929
887.371	-2.00511
887.766	23.05894
888.16	46.11653
888.554	34.08478
888.949	50.1267
889.343	15.03725
889.737	54.14768
890.131	14.0356
890.525	32.08316
890.918	5.01277
891.312	-9.02184
891.706	-22.05817
892.099	25.06402
892.492	55.12257
892.886	13.03242
893.279	66.17122
893.672	-24.06179
894.065	57.14421
894.458	59.15198
894.851	47.11687
895.244	9.02342
895.637	74.18183
896.029	39.09702
896.422	38.0943
896.814	5.0127
897.206	-8.01967
897.599	6.01504
897.991	26.06396
898.383	77.18742
898.775	39.09025
899.167	41.09901
899.559	36.0923
899.951	-4.0097
900.342	6.01544
900.734	61.15631
901.125	66.17463
901.517	34.08576
901.908	31.07548
902.299	95.2389
902.69	44.10676
903.082	39.0962
903.473	25.06205
903.863	22.05723
904.254	52.12479
904.645	67.16873
905.036	42.10457
905.426	48.11141
905.817	39.09811
906.207	52.12773
906.597	-31.07458
906.987	33.08695
907.378	37.09438
907.768	51.13663
908.158	46.11424
908.547	3.00796
908.937	15.03884
909.327	41.10225
909.717	41.10476
910.106	30.07355
910.495	55.1394
910.885	65.16755
911.274	25.06372
911.663	8.02051
912.052	8.02001
912.441	-4.01034
912.83	47.11127
913.219	24.06352
913.608	24.05982
913.997	6.01552
914.385	23.05588
914.774	34.08435
915.162	43.10564
915.55	60.147
915.939	34.08747
916.327	-3.00757
916.715	-9.0235
917.103	29.07222
917.491	25.06244
917.878	21.05194
918.266	-6.0157
918.654	30.07863
919.041	40.10658
919.429	19.04625
919.816	11.02828
920.203	25.06228
920.591	15.03782
920.978	-26.06452
921.365	13.03476
921.752	87.21128
922.139	51.11488
922.525	67.1657
922.912	20.04962
923.299	59.14943
923.685	57.15094
924.072	4.00936
924.458	22.05567
924.844	42.10632
925.231	18.04321
925.617	24.0626
926.003	0
926.389	38.0977
926.774	47.1209
927.16	77.19342
927.546	49.12827
927.931	50.12675
928.317	22.05159
928.702	52.12413
929.088	31.07574
929.473	9.02332
929.858	22.055
930.243	24.05926
930.628	86.21459
931.013	48.12142
931.398	56.13029
931.783	27.07155
932.167	85.2126
932.552	14.03544
932.937	2.00506
933.321	37.09494
933.705	6.01554
934.09	9.02293
934.474	70.16805
934.858	47.12346
935.242	60.14267
935.626	37.09703
936.009	0
936.393	28.07229
936.777	47.12228
937.16	0
937.544	13.03119
937.927	57.14784
938.311	52.12815
938.694	36.09573
939.077	48.11725
939.46	-29.07138
939.843	96.20706
940.226	53.1378
940.609	78.18598
940.991	45.11648
941.374	26.06516
941.757	9.02253
942.139	89.20711
942.522	51.12148
942.904	30.07377
943.286	1.00257
943.668	47.12362
944.05	54.13548
944.432	74.18706
944.814	3.00748
945.196	46.11586
945.578	97.23866
945.959	20.04825
946.341	-2.00491
946.722	30.07186
947.104	23.05646
947.485	36.08587
947.866	90.23259
948.247	53.13438
948.628	14.03455
949.009	49.1281
949.39	11.02787
949.771	67.15892
950.152	62.15566
950.532	49.12437
950.913	55.13487
951.293	22.06055
951.674	104.25922
952.054	35.08962
952.434	30.07564
952.814	79.1907
953.194	15.0396
953.574	59.14543
953.954	38.09237
954.334	58.14708
954.714	-7.01767
955.093	33.082
955.473	-2.0051
955.853	20.05242
956.232	6.01651
956.611	19.04651
956.99	51.13123
957.37	75.19352
957.749	99.23988
958.128	73.18778
958.506	78.20672
958.885	50.12877
959.264	28.07143
959.643	-3.00702
960.021	52.13182
960.4	52.12146
960.778	49.12238
961.156	43.11042
961.535	46.10913
961.913	60.14322
962.291	56.14812
962.669	25.06411
963.047	22.05684
963.424	-8.02084
963.802	36.09081
964.18	86.21824
964.557	58.13633
964.935	45.10879
965.312	-4.01059
965.69	14.03544
966.067	68.16863
966.444	35.0871
966.821	34.08851
967.198	30.07391
967.575	-10.02484
967.952	36.08639
968.329	28.06977
968.705	30.06579
969.082	1.00264
969.458	38.09468
969.835	48.11847
970.211	53.13903
970.587	26.06579
970.963	20.05197
971.339	8.02132
971.715	52.13145
972.091	22.05535
972.467	58.14666
972.843	39.09867
973.219	14.0339
973.594	34.09137
973.97	21.05087
974.345	26.06401
974.721	-4.0098
975.096	5.0124
975.471	39.09454
975.846	42.10248
976.221	67.1742
976.596	44.1084
976.971	6.01513
977.346	28.06622
977.72	38.09868
978.095	68.17798
978.469	28.06796
978.844	2.00508
979.218	13.0319
979.593	38.09248
979.967	49.12123
980.341	7.01654
980.715	61.15625
981.089	-14.03554
981.463	80.19023
981.837	23.05784
982.21	73.17135
982.584	25.06192
982.957	35.08965
983.331	36.08715
983.704	-11.02728
984.078	26.06577
984.451	25.06253
984.824	29.07253
985.197	40.09858
985.57	87.21964
985.943	37.09187
986.316	33.08227
986.688	42.10255
987.061	48.11589
987.434	26.06884
987.806	55.13582
988.179	60.14536
988.551	56.14427
988.923	30.07527
989.295	-14.03514
989.667	24.05945
990.039	60.15183
990.411	10.0237
990.783	46.10787
991.155	42.10514
991.527	30.07434
991.898	42.10704
992.27	17.04283
992.641	36.09123
993.012	44.10551
993.384	-14.03416
993.755	66.17133
994.126	14.03436
994.497	32.08049
994.868	49.11573
995.239	-4.0099
995.61	11.02846
995.98	38.09516
996.351	32.08083
996.722	72.17279
997.092	10.02448
997.462	37.08945
997.833	57.13671
998.203	14.03446
998.573	4.01016
998.943	43.10384
999.313	36.08875
999.683	42.10423
1000.053	74.17414
1000.423	-6.01484
1000.792	63.1661
1001.162	20.05001
1001.531	99.24618
1001.901	84.21415
1002.27	40.09178
1002.639	36.09397
1003.009	8.0194
1003.378	20.05162
1003.747	64.1554
1004.116	24.05906
1004.485	16.03886
1004.853	46.11806
1005.222	52.13173
1005.591	98.23402
1005.959	60.14042
1006.328	66.15216
1006.696	32.07976
1007.064	17.04342
1007.433	28.07095
1007.801	12.02977
1008.169	33.08376
1008.537	51.11601
1008.905	34.08181
1009.273	19.04735
1009.64	24.05947
1010.008	72.17509
1010.375	20.04805
1010.743	44.10294
1011.11	40.09738
1011.478	35.08773
1011.845	22.05282
1012.212	56.1307
1012.579	3.00749
1012.946	51.12307
1013.313	54.12949
1013.68	25.05749
1014.047	75.18303
1014.414	46.11165
1014.78	13.0328
1015.147	41.09953
1015.513	26.06419
1015.88	65.16562
1016.246	23.0568
1016.612	20.0464
1016.978	45.11215
1017.344	102.25535
1017.71	18.04407
1018.076	31.07427
1018.442	-8.02081
1018.808	43.10941
1019.174	45.11523
1019.539	37.08508
1019.905	-3.00729
1020.27	35.08861
1020.636	61.1482
1021.001	54.13077
1021.366	25.06162
1021.731	-2.00518
1022.096	-1.00259
1022.461	46.1109
1022.826	14.03402
1023.191	0
1023.556	71.1701
1023.92	8.01993
1024.285	27.06719
1024.649	10.02512
1025.014	52.13079
1025.378	13.03344
1025.742	-7.0179
1026.107	-1.00232
1026.471	11.02592
1026.835	56.14186
1027.199	89.22164
1027.562	11.02626
1027.926	41.10155
1028.29	58.14989
1028.654	60.14081
1029.017	3.00747
1029.381	42.10259
1029.744	0
1030.107	49.11744
1030.471	-42.1029
1030.834	1.00233
1031.197	6.0146
1031.56	33.07912
1031.923	56.14603
1032.286	42.1001
1032.648	36.08849
1033.011	16.0375
1033.374	28.06645
1033.736	42.1122
1034.099	61.15196
1034.461	-19.04898
1034.823	8.02029
1035.185	38.09708
1035.548	86.21265
1035.91	45.10982
1036.272	13.03007
1036.634	14.03457
1036.995	103.24638
1037.357	36.08944
1037.719	2.00492
1038.08	54.12949
1038.442	9.02183
1038.803	34.08283
1039.165	67.17264
1039.526	40.09825
1039.887	82.1991
1040.248	-16.04046
1040.609	22.05462
1040.97	36.09012
1041.331	8.02064
1041.692	76.18398
1042.053	41.09579
1042.413	89.2098
1042.774	14.03464
1043.134	82.19783
1043.495	-6.01531
1043.855	75.18371
1044.215	48.12155
1044.576	53.13098
1044.936	74.17183
1045.296	35.08858
1045.656	42.10381
1046.016	39.09496
1046.375	0
1046.735	41.09579
1047.095	28.06694
1047.454	49.10616
1047.814	35.08573
1048.173	19.04512
1048.533	16.03756
1048.892	34.08435
1049.251	86.21731
1049.61	5.01258
1049.969	40.09767
1050.328	8.01791
1050.687	20.04954
1051.046	-4.00987
1051.405	36.09188
1051.763	-5.01192
1052.122	-13.03328
1052.48	6.01484
1052.839	5.01209
1053.197	27.06537
1053.555	13.02944
1053.914	19.04678
1054.272	-4.00976
1054.63	42.10549
1054.988	46.1119
1055.345	42.09304
1055.703	54.13131
1056.061	21.05473
1056.419	-5.0132
1056.776	-12.02945
1057.134	8.01909
1057.491	10.0254
1057.848	-24.06062
1058.206	40.09618
1058.563	19.04304
1058.92	-54.12752
1059.277	34.08481
1059.634	10.024
1059.991	19.04652
1060.348	-17.04011
1060.704	18.04418
1061.061	45.10558
1061.418	21.05176
1061.774	7.01769
1062.131	21.0567
1062.487	43.10278
1062.843	30.07543
1063.199	14.03578
1063.555	46.10993
1063.911	9.02291
1064.267	22.04696
1064.623	14.03487
1064.979	48.11493
1065.335	34.08197
1065.691	36.08735
1066.046	-64.1433
1066.402	62.1455
1066.757	14.03574
1067.112	8.01987
1067.468	74.18244
1067.823	86.20976
1068.178	8.01962
1068.533	27.06682
1068.888	27.0654
1069.243	14.03519
1069.598	35.08675
1069.952	15.03517
1070.307	37.09451
1070.662	37.08915
1071.016	4.00927
1071.371	28.06499
1071.725	26.06315
1072.079	-9.02204
1072.434	27.06731
1072.788	26.06353
1073.142	38.09534
1073.496	-14.03412
1073.85	-40.09501
1074.203	93.23101
1074.557	51.13703
1074.911	37.08864
1075.265	40.09468
1075.618	-14.03468
1075.971	48.11589
1076.325	-2.00521
1076.678	77.1813
1077.031	16.0375
1077.385	81.1832
1077.738	21.04896
1078.091	-2.00473
1078.444	61.1438
1078.796	-41.10299
1079.149	26.06537
1079.502	38.09334
1079.855	27.06493
1080.207	49.12216
1080.56	15.03935
1080.912	-4.0099
1081.264	53.12958
1081.617	71.17733
1081.969	29.07517
1082.321	32.07901
1082.673	89.20858
1083.025	4.00978
1083.377	-146.33619
1083.728	-25.05964
1084.08	13.03297
1084.432	18.04454
1084.783	14.03343
1085.135	-26.06701
1085.486	45.10703
1085.838	11.02776
1086.189	1.00247
1086.54	9.02188
1086.891	28.07249
1087.242	1.00247
1087.593	29.07156
1087.944	-8.0185
1088.295	68.15683
1088.646	32.07962
1088.996	-25.06192
1089.347	17.04257
1089.698	16.03895
1090.048	-11.0287
1090.398	5.0118
1090.749	17.04166
1091.099	72.18685
1091.449	34.08591
1091.799	70.17732
1092.149	41.10406
1092.499	-33.08266
1092.849	19.04947
1093.199	23.05794
1093.548	37.0912
1093.898	2.00512
1094.248	6.01561
1094.597	6.0159
1094.947	24.06456
1095.296	-21.05296
1095.645	22.0579
1095.994	4.00977
1096.343	42.10689
1096.692	45.12285
1097.041	-8.02186
1097.39	53.13609
1097.739	44.11544
1098.088	18.04886
1098.437	6.01612
1098.785	18.04858
1099.134	21.05615
1099.482	38.10548
1099.83	13.03434
1100.179	10.02685
1100.527	12.03217
1100.875	5.01344
1101.223	22.05899
1101.571	35.09762
1101.919	23.0619
1102.267	-20.05706
1102.615	8.0258
1102.962	-3.00967
1103.31	9.02899
1103.658	3.00969
