Data from N2 R0 60C sample9_Subt2__0__11-32-51-191.txt Node

Date: Tue Aug 19 11:32:51 PDT 2025
User: uwsun
Spectrometer: HDX01956
Trigger mode: 0
Integration Time (sec): 5.000000E-1
Scans to average: 1
Nonlinearity correction enabled: true
Boxcar width: 0
Storing dark spectrum: false
XAxis mode: Wavelengths
Number of Pixels in Spectrum: 2068
>>>>>Begin Spectral Data<<<<<
194.03	379.04921
194.578	368.14622
195.127	357.09796
195.676	407.24879
196.225	422.09389
196.773	471.26045
197.321	690.79357
197.87	869.0484
198.418	876.03584
198.966	911.15902
199.513	792.82071
200.061	819.92051
200.609	832.00674
201.156	817.63516
201.704	873.01415
202.251	899.17287
202.798	868.05668
203.345	903.01166
203.892	844.94179
204.438	911.96024
204.985	912.97706
205.532	911.16645
206.078	915.02418
206.624	871.9557
207.17	885.86112
207.716	903.98533
208.262	898.57725
208.808	939.10653
209.354	881.95474
209.899	876.98657
210.445	947.12622
210.99	883.94945
211.535	919.95634
212.08	938.97825
212.625	884.01254
213.17	930.11055
213.715	916.88544
214.259	900.89227
214.804	923.02752
215.348	876.80305
215.892	874.89386
216.436	969.9906
216.98	918.83797
217.524	897.91196
218.068	926.11752
218.612	898.03787
219.155	889.88672
219.698	825.80016
220.242	860.94321
220.785	814.73309
221.328	807.83121
221.871	822.88217
222.414	828.87773
222.956	842.87476
223.499	776.61136
224.041	813.73058
224.583	813.57315
225.126	720.47768
225.668	763.70547
226.21	788.81944
226.751	824.65945
227.293	802.69718
227.835	780.76672
228.376	791.66696
228.918	828.9065
229.459	780.79384
230	767.67707
230.541	879.85821
231.082	820.78435
231.622	773.63113
232.163	815.80753
232.704	793.7929
233.244	734.68736
233.784	813.81205
234.324	794.63412
234.864	803.66784
235.404	795.72663
235.944	799.72577
236.484	833.86503
237.023	871.87175
237.563	834.75035
238.102	789.68745
238.641	834.92031
239.18	792.71465
239.719	795.8258
240.258	805.6579
240.797	833.82605
241.335	847.88085
241.874	911.58887
242.412	866.90119
242.95	843.83713
243.488	843.75877
244.026	841.75304
244.564	823.54398
245.102	850.72911
245.64	826.79437
246.177	864.76001
246.715	921.97753
247.252	895.84507
247.789	887.49495
248.326	836.84759
248.863	914.81226
249.4	898.83264
249.936	852.57691
250.473	887.87431
251.009	904.88071
251.546	865.72417
252.082	876.73037
252.618	868.73856
253.154	918.9926
253.69	868.75136
254.226	825.79106
254.761	911.86297
255.297	771.54654
255.832	799.71989
256.367	873.86801
256.903	830.63786
257.438	900.88896
257.972	912.83267
258.507	889.8548
259.042	937.82986
259.576	859.70269
260.111	867.80728
260.645	804.57314
261.179	864.81892
261.713	901.81843
262.247	964.98076
262.781	884.67857
263.315	974.12315
263.849	946.11749
264.382	898.84092
264.915	963.02623
265.449	976.15344
265.982	927.89657
266.515	888.93318
267.048	921.77143
267.58	961.86175
268.113	924.7904
268.646	956.10402
269.178	868.76176
269.71	968.87756
270.243	956.92558
270.775	910.06014
271.307	915.96212
271.838	967.99628
272.37	964.09603
272.902	980.96133
273.433	871.69599
273.965	892.95254
274.496	936.04367
275.027	949.08817
275.558	992.11784
276.089	976.14361
276.62	953.14754
277.15	937.02394
277.681	978.88348
278.211	920.95804
278.741	941.85589
279.272	928.88623
279.802	964.11458
280.332	915.93098
280.861	1003.11879
281.391	985.96454
281.921	994.10386
282.45	1000.19727
282.98	977.24888
283.509	946.87491
284.038	1028.04272
284.567	995.00859
285.096	1028.17497
285.625	1010.0236
286.153	979.00505
286.682	1012.02669
287.21	1032.17207
287.739	985.06534
288.267	1051.20969
288.795	992.25312
289.323	1067.19047
289.851	1117.25531
290.378	1083.098
290.906	1053.2255
291.433	1091.32089
291.961	1061.07576
292.488	1058.26761
293.015	1082.21584
293.542	1011.25798
294.069	1100.30222
294.596	1111.33393
295.122	1089.23369
295.649	1052.99429
296.175	1162.41506
296.702	1096.2687
297.228	1157.36486
297.754	1168.25609
298.28	1164.2398
298.806	1137.32184
299.332	1145.16586
299.857	1154.19934
300.383	1116.40631
300.908	1150.37849
301.433	1123.30765
301.958	1131.19536
302.483	1181.49083
303.008	1216.50956
303.533	1143.50584
304.058	1223.40461
304.582	1144.30518
305.107	1182.6264
305.631	1175.22815
306.155	1207.36092
306.679	1175.2885
307.203	1243.39958
307.727	1262.46467
308.251	1224.51935
308.775	1185.38412
309.298	1229.49417
309.822	1310.71569
310.345	1382.6616
310.868	1258.48105
311.391	1329.65235
311.914	1347.7524
312.437	1321.4478
312.96	1285.47967
313.482	1341.56467
314.005	1341.74626
314.527	1351.90251
315.049	1379.77371
315.571	1456.5894
316.093	1398.7896
316.615	1425.75306
317.137	1442.46219
317.659	1515.89417
318.18	1489.77241
318.702	1414.58653
319.223	1496.42109
319.744	1525.64972
320.265	1480.82917
320.786	1547.9907
321.307	1562.0036
321.828	1617.78567
322.348	1539.8252
322.869	1608.93996
323.389	1395.55436
323.909	1589.76015
324.43	1703.00466
324.95	1723.90429
325.47	1652.03915
325.989	1680.95343
326.509	1792.85357
327.029	1761.85809
327.548	1824.92306
328.067	1830.21792
328.587	1777.22442
329.106	1716.79898
329.625	1773.40015
330.144	1856.06714
330.662	1841.98273
331.181	1932.13541
331.7	1959.18939
332.218	2043.96696
332.736	2013.21209
333.255	1962.13572
333.773	2009.21456
334.291	2046.43416
334.808	2123.13349
335.326	2092.13004
335.844	2231.34144
336.361	2164.64616
336.879	2234.39213
337.396	2215.43584
337.913	2233.24284
338.43	2337.21931
338.947	2350.41204
339.464	2376.04134
339.981	2401.4662
340.497	2368.56696
341.014	2406.60456
341.53	2423.17732
342.046	2427.58286
342.562	2495.73591
343.078	2559.48103
343.594	2559.52052
344.11	2556.46476
344.626	2593.8103
345.141	2629.28553
345.657	2573.22514
346.172	2624.57855
346.687	2686.4023
347.202	2788.27794
347.717	2797.58219
348.232	2850.80868
348.747	2812.40369
349.261	2888.19506
349.776	2771.48194
350.29	2984.81695
350.805	3013.85002
351.319	2958.4896
351.833	2953.2645
352.347	2989.46136
352.861	2958.40453
353.374	3018.30465
353.888	3079.62186
354.401	3107.35981
354.915	3138.2522
355.428	3206.75108
355.941	3234.44009
356.454	3185.18135
356.967	3213.42434
357.48	3319.26185
357.993	3292.67986
358.505	3363.60235
359.018	3437.60949
359.53	3514.57
360.042	3459.05206
360.554	3407.5177
361.066	3401.62084
361.578	3443.92848
362.09	3500.37983
362.602	3512.99434
363.113	3571.31539
363.625	3696.05755
364.136	3643.92719
364.647	3757.32451
365.158	3831.12651
365.669	3772.32501
366.18	3769.22225
366.691	3802.87188
367.201	3792.34633
367.712	3924.02434
368.222	3865.0431
368.733	4053.78881
369.243	4191.73278
369.753	4144.06079
370.263	4201.18346
370.773	4101.27608
371.282	4329.00278
371.792	4396.94425
372.301	4468.06546
372.811	4553.4386
373.32	4597.21626
373.829	4675.77574
374.338	4982.15978
374.847	5050.38846
375.356	5262.40309
375.865	5448.6141
376.373	5678.87706
376.882	5784.4318
377.39	5858.09832
377.898	6075.15067
378.407	6442.46976
378.915	6497.24115
379.423	6765.64836
379.93	6929.4007
380.438	7420.87207
380.946	7789.91579
381.453	8074.16958
381.96	8512.62327
382.468	9061.52631
382.975	9560.63551
383.482	9790.37527
383.989	9896.49569
384.495	10348.17367
385.002	10961.10083
385.509	11557.41415
386.015	12249.04262
386.521	12813.73836
387.028	13379.35043
387.534	13724.73749
388.04	14169.72147
388.546	14661.18772
389.051	15322.63413
389.557	16835.32962
390.063	17849.33215
390.568	18421.36584
391.073	18993.77623
391.578	19828.87639
392.084	20351.3032
392.589	21218.7396
393.093	22908.25851
393.598	25090.52694
394.103	26931.44685
394.607	29786.02021
395.112	31728.52302
395.616	33559.00386
396.12	36489.1484
396.624	40657.23855
397.128	43930.11167
397.632	48525.87044
398.136	52777.02869
398.639	56074.55633
399.143	60333.71534
399.646	60835.89407
400.15	60904.11498
400.653	60560.14334
401.156	60136.25446
401.659	59550.50961
402.162	58431.12733
402.664	54480.21957
403.167	49329.08451
403.67	22278.45323
404.172	2696.20453
404.674	0
405.176	0
405.678	0
406.18	0
406.682	0
407.184	0
407.686	25783.58453
408.187	43316.52985
408.688	51225.60928
409.19	54389.01922
409.691	56215.4214
410.192	57270.57019
410.693	57845.40442
411.194	58219.2365
411.694	58633.01717
412.195	59215.68848
412.696	59364.60701
413.196	59341.61941
413.696	59632.46864
414.196	59367.6054
414.696	59763.40624
415.196	59913.34014
415.696	60584.13941
416.196	61381.18813
416.695	61808.38326
417.195	54939.00752
417.694	52672.04794
418.194	49410.37084
418.693	46627.19523
419.192	45169.64141
419.691	44692.56136
420.19	43788.83261
420.688	42422.37966
421.187	40469.02739
421.685	37953.13305
422.184	33924.28357
422.682	28962.94149
423.18	25067.87443
423.678	22658.66847
424.176	21211.93974
424.674	19692.76308
425.172	18730.06195
425.669	17725.23343
426.167	16591.96031
426.664	14997.25197
427.161	13721.3341
427.659	12891.76294
428.156	11996.07296
428.652	11305.84402
429.149	11006.68981
429.646	10348.3467
430.143	9901.60851
430.639	9284.98634
431.135	8823.15158
431.632	8371.33958
432.128	7804.91984
432.624	7531.07344
433.12	7136.3897
433.616	6835.19405
434.111	6760.57078
434.607	6579.6882
435.103	6388.0569
435.598	6269.07789
436.093	5890.81819
436.588	5622.58392
437.083	5255.87916
437.578	5079.19723
438.073	4946.87522
438.568	4698.7899
439.062	4548.13233
439.557	4403.75556
440.051	4307.54802
440.546	4071.74374
441.04	4123.10833
441.534	4028.53377
442.028	3904.12294
442.522	3874.18301
443.015	3829.6703
443.509	3708.3882
444.002	3721.39812
444.496	3502.86895
444.989	3488.39077
445.482	3529.54477
445.975	3536.11488
446.468	3388.77778
446.961	3394.83711
447.454	3308.02242
447.947	3266.39219
448.439	3214.35506
448.931	3255.13736
449.424	3223.63029
449.916	3170.5151
450.408	3117.12039
450.9	3075.54386
451.392	2954.69249
451.884	2933.19289
452.375	2940.71558
452.867	2870.11046
453.358	2858.20129
453.849	2823.86708
454.341	2846.14959
454.832	2741.9431
455.323	2778.53905
455.814	2771.2555
456.304	2648.21823
456.795	2648.22044
457.285	2519.98918
457.776	2511.10563
458.266	2527.35156
458.756	2432.31364
459.247	2378.34028
459.737	2373.37109
460.226	2383.10049
460.716	2315.35687
461.206	2267.32511
461.695	2249.43218
462.185	2222.15573
462.674	2257.18221
463.163	2164.88952
463.653	2163.79588
464.142	2156.29037
464.63	2097.32393
465.119	2043.02745
465.608	2060.08489
466.096	1970.78194
466.585	2001.00465
467.073	1952.08129
467.561	1909.07632
468.05	1916.97669
468.538	1866.13404
469.026	1807.00074
469.513	1850.88925
470.001	1787.78566
470.489	1777.97368
470.976	1718.81926
471.463	1709.04004
471.951	1616.9429
472.438	1581.72612
472.925	1528.65427
473.412	1524.77329
473.899	1589.63803
474.385	1476.73266
474.872	1575.76424
475.359	1481.76962
475.845	1457.28599
476.331	1334.18726
476.817	1408.63204
477.303	1399.50478
477.789	1305.48849
478.275	1300.5557
478.761	1281.47663
479.247	1316.35137
479.732	1214.47316
480.218	1249.62975
480.703	1207.44837
481.188	1141.00574
481.673	1180.21007
482.158	1198.10691
482.643	1111.32068
483.128	1146.16198
483.612	1062.08114
484.097	1039.11763
484.581	1062.05381
485.066	1012.10855
485.55	993.87997
486.034	985.7996
486.518	1056.11788
487.002	1006.14407
487.486	959.02132
487.969	955.03832
488.453	880.92708
488.936	952.88068
489.42	910.7406
489.903	852.88062
490.386	873.25545
490.869	836.60886
491.352	815.76635
491.835	821.51602
492.318	908.84638
492.8	858.58961
493.283	820.88134
493.765	807.78756
494.247	771.61838
494.73	780.55922
495.212	794.71606
495.694	738.57184
496.175	750.64023
496.657	770.64573
497.139	732.17992
497.62	738.6065
498.102	653.50195
498.583	668.53556
499.064	643.36605
499.545	692.46357
500.026	677.41526
500.507	707.51455
500.988	624.45488
501.469	648.51916
501.949	637.47037
502.43	619.39135
502.91	620.22866
503.39	567.3242
503.87	642.42806
504.35	600.32074
504.83	656.35465
505.31	594.34736
505.79	649.46361
506.269	569.271
506.749	589.27508
507.228	623.38604
507.707	561.18851
508.187	547.22531
508.666	563.3205
509.145	613.36602
509.623	521.16459
510.102	548.266
510.581	531.20746
511.059	541.29447
511.538	537.30974
512.016	622.41436
512.494	520.21121
512.972	478.09794
513.45	471.07384
513.928	554.29861
514.406	567.32212
514.884	522.28516
515.361	531.2274
515.839	530.17085
516.316	522.21206
516.793	468.14103
517.27	477.10284
517.747	495.22196
518.224	540.20936
518.701	519.13815
519.178	443.06048
519.654	450.03763
520.131	496.1747
520.607	480.142
521.083	480.06994
521.56	463.07762
522.036	484.04187
522.512	418.99224
522.987	454.05809
523.463	497.15325
523.939	450.07092
524.414	460.03331
524.89	458.05779
525.365	477.06258
525.84	454.07135
526.315	522.21779
526.79	461.02094
527.265	489.10239
527.74	409.97817
528.215	473.09401
528.689	443.97402
529.164	468.99416
529.638	438.09821
530.112	365.86564
530.587	475.00427
531.061	458.08081
531.534	405.95565
532.008	430.01893
532.482	393.88079
532.956	430.06534
533.429	452.06539
533.903	442.95733
534.376	409.89551
534.849	446.01654
535.322	420.97777
535.795	403.96787
536.268	413.96961
536.741	394.93097
537.213	418.95277
537.686	447.06926
538.158	375.83803
538.631	366.87386
539.103	390.88143
539.575	408.8399
540.047	413.89968
540.519	459.07249
540.991	413.98811
541.463	403.96272
541.934	434.98204
542.406	420.99123
542.877	463.0373
543.348	439.03729
543.82	367.88277
544.291	430.98169
544.762	411.95852
545.233	408.00336
545.703	432.95004
546.174	445.0165
546.645	472.10787
547.115	499.17431
547.585	494.10165
548.056	522.23398
548.526	543.24672
548.996	502.16005
549.466	501.17124
549.935	545.24583
550.405	594.24784
550.875	487.11887
551.344	521.21236
551.814	661.43966
552.283	561.15691
552.752	620.37907
553.221	629.33627
553.69	607.27659
554.159	665.5472
554.628	612.31506
555.096	622.50456
555.565	601.29444
556.033	525.19042
556.502	507.18807
556.97	471.02621
557.438	504.15498
557.906	475.0956
558.374	444.00464
558.842	408.95993
559.31	417.9311
559.777	368.88367
560.245	405.94787
560.712	417.96562
561.18	430.96547
561.647	365.8241
562.114	376.86294
562.581	388.94369
563.048	364.84376
563.514	344.84483
563.981	365.83619
564.448	356.80985
564.914	398.9262
565.381	393.89381
565.847	431.00143
566.313	372.87219
566.779	341.76867
567.245	377.88719
567.711	383.92125
568.176	410.927
568.642	366.91706
569.108	449.08792
569.573	435.02624
570.038	460.98313
570.504	387.86877
570.969	443.1006
571.434	499.10433
571.899	466.09972
572.363	458.03512
572.828	447.01083
573.293	470.0679
573.757	430.97853
574.222	514.14727
574.686	497.12273
575.15	444.04731
575.614	460.04682
576.078	541.24758
576.542	497.11543
577.006	447.00508
577.469	484.16561
577.933	524.1754
578.396	442.03088
578.86	497.15007
579.323	504.19138
579.786	491.05448
580.249	541.22526
580.712	435.04802
581.175	426.03808
581.637	448.00836
582.1	471.03445
582.563	483.02523
583.025	488.16061
583.487	443.91584
583.95	454.99757
584.412	469.9939
584.874	418.99835
585.336	471.09713
585.797	415.90634
586.259	454.05643
586.721	432.00554
587.182	487.10592
587.643	452.0178
588.105	486.13457
588.566	419.88291
589.027	507.19917
589.488	464.0487
589.949	456.08439
590.41	456.90448
590.87	452.00866
591.331	463.9859
591.791	476.09726
592.252	504.14251
592.712	480.12142
593.172	500.11919
593.632	590.2612
594.092	507.116
594.552	520.10655
595.011	475.07862
595.471	499.08503
595.931	526.14408
596.39	558.30341
596.849	560.26655
597.308	608.27449
597.768	568.3975
598.227	531.22254
598.685	539.18357
599.144	578.30095
599.603	626.42289
600.062	657.34246
600.52	627.34647
600.978	623.39806
601.437	686.46351
601.895	692.38564
602.353	670.40092
602.811	723.5302
603.269	775.72519
603.727	762.70778
604.184	785.66226
604.642	809.82241
605.099	812.72434
605.557	878.93721
606.014	928.83321
606.471	953.13274
606.928	1032.99713
607.385	1120.39545
607.842	1142.20575
608.299	1191.36452
608.755	1162.39268
609.212	1152.17016
609.668	1220.29639
610.125	1250.51565
610.581	1244.43857
611.037	1238.34624
611.493	1203.37846
611.949	1244.58334
612.405	1228.05032
612.861	1233.41075
613.316	1253.50046
613.772	1340.52905
614.227	1248.48188
614.683	1320.29359
615.138	1300.50689
615.593	1317.51504
616.048	1329.45417
616.503	1351.68519
616.958	1346.78051
617.412	1351.59373
617.867	1314.38136
618.321	1360.26958
618.776	1356.43798
619.23	1332.53828
619.684	1256.34939
620.138	1291.44636
620.592	1307.62034
621.046	1266.43654
621.5	1243.55109
621.954	1263.34808
622.407	1233.28085
622.861	1210.465
623.314	1191.2673
623.768	1215.3766
624.221	1153.94398
624.674	1147.24122
625.127	1074.15997
625.58	1181.25255
626.033	1024.94583
626.485	1062.20798
626.938	1067.18949
627.39	1039.11476
627.843	986.00898
628.295	944.92051
628.747	945.99345
629.199	900.8359
629.651	946.91849
630.103	901.86575
630.555	882.67314
631.006	901.88649
631.458	821.7718
631.909	819.68827
632.361	813.72909
632.812	760.63134
633.263	784.54335
633.714	734.44479
634.165	779.74982
634.616	762.67839
635.067	673.38204
635.518	779.69401
635.968	727.3428
636.419	708.4308
636.869	691.51841
637.319	694.49275
637.769	688.44939
638.219	620.36881
638.669	614.38432
639.119	692.57873
639.569	671.50341
640.019	626.35326
640.468	628.31879
640.918	624.39715
641.367	666.39562
641.816	643.36249
642.265	652.40713
642.714	614.33408
643.163	656.43268
643.612	649.49809
644.061	673.36836
644.51	694.50809
644.958	646.33875
645.406	679.51948
645.855	645.48649
646.303	657.43094
646.751	613.34009
647.199	639.36579
647.647	674.44969
648.095	666.45148
648.543	711.35646
648.99	616.37526
649.438	701.5288
649.885	707.62235
650.333	698.27659
650.78	733.65586
651.227	716.63941
651.674	653.38973
652.121	715.60141
652.568	697.58344
653.015	689.60055
653.461	716.57701
653.908	735.58406
654.354	658.45642
654.801	710.55007
655.247	692.42334
655.693	703.70598
656.139	664.49533
656.585	683.51401
657.031	649.43678
657.477	679.3856
657.922	734.57143
658.368	700.59891
658.813	708.50267
659.259	789.73536
659.704	709.52276
660.149	806.72718
660.594	747.63744
661.039	767.60149
661.484	782.68507
661.929	783.66596
662.373	765.7946
662.818	793.80815
663.262	784.72471
663.707	758.75778
664.151	754.69053
664.595	816.76889
665.039	849.90241
665.483	810.87541
665.927	864.81176
666.371	851.78566
666.814	793.71718
667.258	853.85736
667.701	914.7289
668.145	841.88063
668.588	826.81866
669.031	908.92999
669.474	912.94688
669.917	918.78129
670.36	930.05441
670.803	925.94443
671.245	943.74958
671.688	888.90707
672.13	957.89454
672.573	937.06174
673.015	971.052
673.457	945.80896
673.899	921.94873
674.341	987.07589
674.783	982.04776
675.225	951.03414
675.666	1015.15535
676.108	956.80497
676.549	983.01235
676.991	1073.04606
677.432	1059.84779
677.873	946.90454
678.314	1039.13959
678.755	1018.14351
679.196	1018.01626
679.637	1031.14771
680.078	989.98619
680.518	1018.02843
680.959	1032.15217
681.399	1035.22729
681.839	1059.19834
682.28	1011.16355
682.72	1035.04857
683.16	970.08328
683.6	1013.9645
684.039	1025.81738
684.479	984.11067
684.919	1069.14056
685.358	1030.24531
685.798	1035.33995
686.237	1087.22959
686.676	1001.9716
687.115	1027.0582
687.554	982.00894
687.993	1026.92888
688.432	1072.08108
688.871	1091.11554
689.309	1034.1079
689.748	1060.83064
690.186	1006.04425
690.625	1021.03583
691.063	1044.14942
691.501	1032.15786
691.939	1041.20775
692.377	1063.19494
692.815	1009.08328
693.253	1116.25072
693.69	1044.96374
694.128	1089.25269
694.565	1111.21155
695.003	1078.32137
695.44	1075.1447
695.877	1139.2517
696.314	1062.9002
696.751	1039.98632
697.188	1084.10144
697.625	1082.06675
698.061	1049.15539
698.498	1089.19969
698.934	1084.21695
699.371	1132.24459
699.807	1128.21904
700.243	1143.30788
700.679	1136.14098
701.115	1083.12188
701.551	1126.20786
701.987	1181.19301
702.422	1212.38239
702.858	1077.1477
703.294	1124.10386
703.729	1193.41227
704.164	1149.30842
704.599	1113.06842
705.035	1165.19418
705.47	1216.48169
705.904	1240.39207
706.339	1205.21896
706.774	1237.3551
707.209	1193.27003
707.643	1291.50664
708.078	1251.52856
708.512	1240.57049
708.946	1179.2909
709.38	1244.37815
709.814	1251.28793
710.248	1264.46743
710.682	1293.48212
711.116	1309.54766
711.549	1256.62093
711.983	1311.41842
712.416	1346.51088
712.85	1339.67723
713.283	1349.54547
713.716	1349.66886
714.149	1316.46437
714.582	1403.47365
715.015	1312.58534
715.448	1348.6934
715.881	1417.33261
716.313	1352.50728
716.746	1437.64382
717.178	1387.61231
717.61	1345.67571
718.043	1436.7619
718.475	1349.56027
718.907	1416.78675
719.339	1445.54412
719.77	1479.70656
720.202	1465.85859
720.634	1562.91947
721.065	1499.71874
721.497	1485.79473
721.928	1576.93568
722.359	1521.85853
722.79	1559.87908
723.221	1509.87993
723.652	1501.92213
724.083	1555.6613
724.514	1526.64524
724.945	1510.70787
725.375	1643.87238
725.806	1524.85377
726.236	1522.95823
726.666	1554.76033
727.096	1565.90586
727.526	1606.06947
727.956	1598.67256
728.386	1696.02368
728.816	1691.13807
729.246	1606.95818
729.675	1604.97927
730.105	1701.97595
730.534	1628.79223
730.964	1687.08013
731.393	1690.99559
731.822	1745.22608
732.251	1731.16245
732.68	1740.8682
733.109	1684.00521
733.537	1783.06315
733.966	1764.19193
734.395	1739.84232
734.823	1741.70843
735.251	1781.07734
735.68	1820.21334
736.108	1811.22594
736.536	1779.92751
736.964	1842.96706
737.392	1792.18783
737.82	1855.08626
738.247	1842.03881
738.675	1861.03965
739.102	1843.26504
739.53	1867.35498
739.957	1823.35285
740.384	1867.13322
740.811	1891.2979
741.238	1896.19002
741.665	1859.93415
742.092	1935.12047
742.519	1861.21838
742.945	1942.16224
743.372	1952.31494
743.798	1906.41607
744.225	1862.05214
744.651	1855.25301
745.077	1908.27891
745.503	1901.167
745.929	1904.11155
746.355	1967.28871
746.781	1882.22708
747.207	1862.0855
747.632	1894.25635
748.058	1904.28224
748.483	1982.02557
748.908	1906.24806
749.334	1981.2982
749.759	1848.96196
750.184	1904.12687
750.609	1932.2564
751.033	1914.04095
751.458	1925.85523
751.883	1876.20827
752.307	1911.083
752.732	1925.37499
753.156	1920.29972
753.58	1941.12335
754.005	1889.29099
754.429	1906.06547
754.853	1883.22627
755.277	1856.97825
755.7	1943.29864
756.124	1832.20165
756.548	1849.06788
756.971	1833.05916
757.394	1894.42516
757.818	1826.31466
758.241	1799.24993
758.664	1858.31609
759.087	1752.77193
759.51	1754.09762
759.933	1788.06295
760.356	1811.27337
760.778	1796.17716
761.201	1746.02664
761.623	1758.98039
762.046	1799.97204
762.468	1735.88719
762.89	1708.00813
763.312	1763.10009
763.734	1684.92547
764.156	1655.99247
764.578	1736.84595
765	1684.99252
765.421	1612.06778
765.843	1620.15082
766.264	1671.91407
766.686	1608.95018
767.107	1566.81019
767.528	1546.97679
767.949	1558.98859
768.37	1482.71815
768.791	1557.81307
769.212	1423.79989
769.632	1417.5578
770.053	1460.98811
770.473	1456.70612
770.894	1458.76572
771.314	1430.56248
771.734	1392.51947
772.154	1392.7598
772.575	1299.34874
772.994	1333.36546
773.414	1337.50198
773.834	1388.71759
774.254	1337.61817
774.673	1309.50692
775.093	1254.49728
775.512	1261.47831
775.931	1257.56258
776.351	1244.48646
776.77	1162.33724
777.189	1205.31059
777.607	1187.48175
778.026	1166.40092
778.445	1165.41756
778.864	1120.37698
779.282	1141.26299
779.701	1097.28537
780.119	1119.4133
780.537	1049.218
780.955	1049.21222
781.373	1033.14619
781.791	1093.02613
782.209	1037.97868
782.627	1040.35457
783.045	985.94187
783.462	949.0986
783.88	950.1195
784.297	893.96252
784.715	952.11874
785.132	925.9521
785.549	905.97975
785.966	865.90257
786.383	809.76226
786.8	830.69451
787.217	811.70167
787.633	799.7779
788.05	783.62338
788.466	770.5655
788.883	766.74131
789.299	763.63462
789.715	821.77029
790.131	745.67615
790.547	710.5801
790.963	733.64443
791.379	684.57174
791.795	698.42603
792.21	646.36677
792.626	608.31542
793.041	671.51818
793.457	668.50986
793.872	617.32554
794.287	557.24467
794.702	623.39691
795.117	572.32726
795.532	566.32677
795.947	578.27917
796.362	552.2246
796.776	540.15217
797.191	564.28699
797.605	551.23378
798.02	459.05611
798.434	462.95918
798.848	472.10787
799.262	507.19501
799.676	469.06842
800.09	496.16701
800.504	387.89546
800.918	414.92879
801.331	379.9402
801.745	415.91209
802.158	381.91713
802.572	359.83069
802.985	390.899
803.398	366.84168
803.811	343.83662
804.224	302.7233
804.637	369.85552
805.05	270.61001
805.462	322.76619
805.875	305.77347
806.288	297.70875
806.7	313.76744
807.112	251.5672
807.525	255.61714
807.937	260.63126
808.349	296.72268
808.761	274.66125
809.173	208.49971
809.584	247.59644
809.996	245.59518
810.408	232.59432
810.819	280.65319
811.231	363.9254
811.642	402.94876
812.053	429.00187
812.464	464.05807
812.875	306.76235
813.286	253.64232
813.697	258.5924
814.108	228.54921
814.519	201.44402
814.929	194.48931
815.34	202.49505
815.75	193.49001
816.16	129.32206
816.571	150.38536
816.981	173.40606
817.391	207.50024
817.801	217.54232
818.211	151.35581
818.62	166.40532
819.03	161.39318
819.44	170.43871
819.849	104.26214
820.259	104.26485
820.668	152.37776
821.077	152.38257
821.486	159.38164
821.895	130.31908
822.304	171.45052
822.713	141.33792
823.122	140.35098
823.531	155.37246
823.939	123.30385
824.348	169.41334
824.756	133.33613
825.164	127.31844
825.573	127.32622
825.981	119.29613
826.389	128.32447
826.797	93.23294
827.205	121.28412
827.612	126.31451
828.02	111.26592
828.428	101.2607
828.835	123.32527
829.243	148.358
829.65	72.18219
830.057	97.2398
830.464	80.19781
830.871	116.27986
831.278	110.26729
831.685	90.20575
832.092	114.28363
832.499	90.20077
832.905	74.18932
833.312	95.22124
833.718	111.27913
834.124	45.10505
834.531	109.27548
834.937	43.11045
835.343	92.22581
835.749	63.1477
836.155	61.16132
836.561	118.29455
836.966	108.26665
837.372	92.23652
837.777	78.19871
838.183	62.14003
838.588	33.08275
838.993	74.18237
839.399	38.0951
839.804	37.09238
840.209	76.19831
840.613	57.1306
841.018	31.07955
841.423	11.02879
841.828	94.24183
842.232	74.18465
842.637	85.20503
843.041	45.11836
843.445	39.0999
843.849	41.10321
844.253	74.17928
844.657	48.12396
845.061	74.17257
845.465	41.10158
845.869	31.07438
846.272	52.13008
846.676	45.11006
847.079	88.22876
847.483	56.1407
847.886	28.0684
848.289	39.10589
848.692	50.12873
849.095	118.28769
849.498	51.12945
849.901	85.19717
850.304	51.1252
850.707	40.10302
851.109	50.12697
851.512	100.25061
851.914	86.22348
852.316	10.02557
852.718	5.0133
853.121	54.13509
853.523	95.22863
853.925	52.13878
854.326	20.0509
854.728	87.22729
855.13	69.1821
855.531	37.09191
855.933	59.1421
856.334	75.19036
856.736	61.14117
857.137	5.01198
857.538	27.07006
857.939	95.24018
858.34	38.09441
858.741	10.02663
859.142	62.15212
859.542	54.14507
859.943	65.16369
860.343	32.08118
860.744	35.08691
861.144	28.06901
861.544	40.0997
861.945	43.11276
862.345	59.14618
862.745	60.1535
863.145	37.08986
863.544	50.12819
863.944	22.05286
864.344	50.12598
864.743	9.02266
865.143	39.10203
865.542	35.08372
865.941	106.26679
866.34	35.08548
866.74	38.10286
867.139	43.10658
867.537	43.11099
867.936	53.13074
868.335	65.1679
868.734	76.19919
869.132	79.18854
869.531	9.02203
869.929	43.10211
870.327	47.11594
870.726	37.09281
871.124	81.19361
871.522	62.1604
871.92	64.16109
872.318	43.10712
872.715	33.08215
873.113	59.14752
873.511	74.18932
873.908	69.1794
874.306	50.12801
874.703	43.10899
875.1	28.07269
875.497	49.12131
875.894	52.13159
876.291	38.09482
876.688	67.17724
877.085	49.11896
877.482	9.02301
877.878	30.07432
878.275	30.0782
878.671	38.08698
879.068	67.16418
879.464	73.17888
879.86	16.03884
880.256	53.13266
880.652	40.1037
881.048	42.10526
881.444	-14.03396
881.84	37.09554
882.236	36.09184
882.631	46.1164
883.027	58.14146
883.422	19.04945
883.817	81.21009
884.213	49.12836
884.608	40.10104
885.003	26.06485
885.398	69.17755
885.793	6.01539
886.188	49.12582
886.582	1.00258
886.977	52.12612
887.371	-15.03841
887.766	44.11233
888.16	68.17158
888.554	13.03254
888.949	41.10406
889.343	34.08413
889.737	65.17745
890.131	38.09623
890.525	18.04689
890.918	32.08132
891.312	23.05548
891.706	-8.0211
892.099	24.06147
892.492	63.14016
892.886	17.04237
893.279	54.14038
893.672	-20.05145
894.065	27.06868
894.458	74.19012
894.851	76.18799
895.244	12.03122
895.637	60.14781
896.029	44.10935
896.422	41.10169
896.814	27.06831
897.206	30.07325
897.599	35.08726
897.991	39.09571
898.383	51.12474
898.775	18.04183
899.167	28.06778
899.559	66.16832
899.951	48.11524
900.342	31.07941
900.734	24.0619
901.125	61.16153
901.517	39.09829
901.908	26.06337
902.299	96.24137
902.69	35.08506
903.082	73.17894
903.473	42.10393
903.863	27.07018
904.254	77.18391
904.645	46.11628
905.036	44.10951
905.426	35.08145
905.817	47.11806
906.207	33.08134
906.597	-3.00718
906.987	54.14177
907.378	41.10451
907.768	45.12068
908.158	27.06729
908.547	43.11337
908.937	29.07491
909.327	93.22974
909.717	50.12756
910.106	50.12213
910.495	40.10165
910.885	76.19553
911.274	30.0764
911.663	30.07662
912.052	9.02251
912.441	54.1382
912.83	45.10657
913.219	1.00266
913.608	52.12895
913.997	42.10794
914.385	12.02921
914.774	51.12613
915.162	40.09833
915.55	14.03459
915.939	10.02583
916.327	43.10759
916.715	-13.03396
917.103	43.10681
917.491	44.10951
917.878	-14.03485
918.266	-20.05246
918.654	41.10726
919.041	32.08538
919.429	56.13536
919.816	9.02314
920.203	11.02747
920.591	12.03027
920.978	-8.01979
921.365	51.1355
921.752	8.01972
922.139	38.08582
922.525	52.12895
922.912	40.09887
923.299	26.06624
923.685	34.09038
924.072	39.09061
924.458	36.09087
924.844	6.01529
925.231	44.10511
925.617	19.0496
926.003	65.16743
926.389	45.11555
926.774	57.14636
927.16	43.10868
927.546	59.15419
927.931	57.14431
928.317	31.07257
928.702	21.05043
929.088	57.13858
929.473	26.06717
929.858	46.11449
930.243	58.14231
930.628	51.12807
931.013	22.05591
931.398	39.09104
931.783	33.08736
932.167	54.13582
932.552	19.04805
932.937	21.05298
933.321	39.10004
933.705	49.12595
934.09	67.16897
934.474	26.06294
934.858	44.11564
935.242	43.10258
935.626	58.15155
936.009	-20.05366
936.393	34.08769
936.777	27.07049
937.16	21.05522
937.544	49.11676
937.927	28.07299
938.311	45.11104
938.694	33.0878
939.077	47.11483
939.46	2.00489
939.843	102.21972
940.226	32.0835
940.609	101.23975
940.991	28.07269
941.374	10.02513
941.757	33.08227
942.139	51.11957
942.522	23.05508
942.904	29.07133
943.286	10.0257
943.668	49.12884
944.05	51.12802
944.432	64.16207
944.814	-6.01499
945.196	52.13084
945.578	76.18771
945.959	59.14129
946.341	26.06356
946.722	18.04321
947.104	38.09303
947.485	52.12365
947.866	61.15844
948.247	7.01789
948.628	2.00495
949.009	51.13328
949.39	44.11083
949.771	72.17062
950.152	59.14821
950.532	15.0383
950.913	16.03952
951.293	31.0852
951.674	109.27144
952.054	44.11249
952.434	20.05052
952.814	44.10692
953.194	-3.00794
953.574	-1.00249
953.954	57.13806
954.334	38.09671
954.714	18.04522
955.093	64.15813
955.473	0
955.853	19.04981
956.232	27.07406
956.611	46.11203
956.99	55.14143
957.37	60.15522
957.749	60.14645
958.128	37.09577
958.506	56.14896
958.885	44.11344
959.264	81.20471
959.643	40.09277
960.021	16.04082
960.4	78.18126
960.778	55.13722
961.156	22.0567
961.535	37.08793
961.913	15.03611
962.291	91.23927
962.669	-1.00258
963.047	0
963.424	23.05959
963.802	49.12331
964.18	47.1201
964.557	63.14793
964.935	75.1803
965.312	18.0475
965.69	28.0707
966.067	75.18575
966.444	44.10931
966.821	21.05479
967.198	35.08615
967.575	-4.00993
967.952	69.16455
968.329	29.07225
968.705	24.0527
969.082	64.16711
969.458	63.15626
969.835	65.15993
970.211	79.20632
970.587	25.06327
970.963	31.08041
971.339	35.09287
971.715	18.04578
972.091	59.14746
972.467	80.2015
972.843	33.08358
973.219	13.03149
973.594	43.11539
973.97	31.07495
974.345	33.08113
974.721	4.00978
975.096	30.07407
975.471	28.06801
975.846	23.05632
976.221	55.1433
976.596	41.10106
976.971	82.20394
977.346	29.06857
977.72	39.10126
978.095	56.14687
978.469	25.06071
978.844	12.03044
979.218	-29.07172
979.593	7.01713
979.967	44.10896
980.341	0
980.715	41.10539
981.089	15.03788
981.463	38.09109
981.837	9.02269
982.21	60.14119
982.584	23.05699
982.957	37.09474
983.331	52.1255
983.704	-20.04969
984.078	29.07332
984.451	9.02258
984.824	20.0501
985.197	22.0544
985.57	35.08918
985.943	13.03242
986.316	79.1953
986.688	-5.01232
987.061	63.15168
987.434	30.07938
987.806	67.16509
988.179	64.15493
988.551	45.11616
988.923	44.11011
989.295	-5.01253
989.667	35.08653
990.039	19.04843
990.411	45.10591
990.783	29.06823
991.155	35.08773
991.527	35.08665
991.898	16.04096
992.27	28.0704
992.641	38.09626
993.012	66.15761
993.384	0
993.755	48.12499
994.126	10.02456
994.497	36.09048
994.868	11.02617
995.239	5.01236
995.61	33.08506
995.98	44.11007
996.351	31.07832
996.722	63.15145
997.092	18.044
997.462	32.07744
997.833	43.10341
998.203	41.10043
998.573	2.00508
998.943	46.11102
999.313	62.15212
999.683	78.1923
1000.053	64.1509
1000.423	21.05169
1000.792	41.1085
1001.162	31.07737
1001.531	52.13041
1001.901	83.21164
1002.27	35.08039
1002.639	20.05235
1003.009	27.06525
1003.378	4.01035
1003.747	44.10724
1004.116	-17.04215
1004.485	-29.07104
1004.853	38.09766
1005.222	-8.02048
1005.591	36.08699
1005.959	43.10097
1006.328	44.10189
1006.696	50.12422
1007.064	14.03578
1007.433	43.10868
1007.801	11.02729
1008.169	-17.04353
1008.537	50.11375
1008.905	58.13893
1009.273	21.05232
1009.64	59.14527
1010.008	45.10998
1010.375	-42.1021
1010.743	40.09365
1011.11	37.09013
1011.478	-11.0278
1011.845	23.05521
1012.212	65.15144
1012.579	44.10904
1012.946	14.03402
1013.313	44.10571
1013.68	62.14151
1014.047	18.04439
1014.414	22.05364
1014.78	14.03531
1015.147	21.05117
1015.513	38.09362
1015.88	5.01287
1016.246	20.04942
1016.612	25.05795
1016.978	39.0973
1017.344	53.13385
1017.71	44.1072
1018.076	6.01444
1018.442	14.03628
1018.808	48.12203
1019.174	13.03347
1019.539	22.05074
1019.905	5.01213
1020.27	53.13376
1020.636	60.1458
1021.001	-6.01469
1021.366	37.091
1021.731	-9.02334
1022.096	6.01554
1022.461	25.06051
1022.826	29.07027
1023.191	4.01065
1023.556	50.12027
1023.92	46.11383
1024.285	46.11408
1024.649	36.08999
1025.014	88.2199
1025.378	27.06928
1025.742	50.12657
1026.107	29.06685
1026.471	-17.04028
1026.835	0
1027.199	52.13037
1027.562	28.06663
1027.926	30.07445
1028.29	42.10884
1028.654	21.04966
1029.017	9.02238
1029.381	62.15088
1029.744	1.00258
1030.107	48.11506
1030.471	-25.06106
1030.834	55.12693
1031.197	2.00487
1031.56	1.00241
1031.923	7.01841
1032.286	40.09537
1032.648	57.13957
1033.011	-8.01884
1033.374	-20.04791
1033.736	-5.01346
1034.099	73.18146
1034.461	-31.08007
1034.823	25.06321
1035.185	60.15269
1035.548	29.07246
1035.91	15.03681
1036.272	1.00232
1036.634	3.00742
1036.995	76.18273
1037.357	-23.05776
1037.719	13.0319
1038.08	26.06268
1038.442	-3.00729
1038.803	41.09976
1039.165	40.10355
1039.526	18.04439
1039.887	28.06868
1040.248	-13.03286
1040.609	-1.00249
1040.97	23.05771
1041.331	43.11026
1041.692	68.16486
1042.053	55.12814
1042.413	69.16329
1042.774	31.07647
1043.134	46.11174
1043.495	18.04574
1043.855	14.03468
1044.215	38.0964
1044.576	57.14076
1044.936	33.07725
1045.296	51.12871
1045.656	-12.02995
1046.016	46.11186
1046.375	3.0074
1046.735	19.04458
1047.095	10.02399
1047.454	65.14035
1047.814	38.09303
1048.173	-45.10818
1048.533	10.0235
1048.892	16.03982
1049.251	59.1498
1049.61	36.09006
1049.969	61.14836
1050.328	21.0469
1050.687	11.02729
1051.046	15.03689
1051.405	66.16755
1051.763	20.04747
1052.122	40.10144
1052.48	-18.04472
1052.839	5.01209
1053.197	25.06055
1053.555	-29.06623
1053.914	0
1054.272	22.05344
1054.63	67.16752
1054.988	1.00245
1055.345	50.11057
1055.703	65.15774
1056.061	17.04434
1056.419	56.14627
1056.776	19.04637
1057.134	42.09957
1057.491	32.08098
1057.848	4.01005
1058.206	43.10333
1058.563	26.05882
1058.92	23.0535
1059.277	26.06495
1059.634	-23.05554
1059.991	25.06115
1060.348	24.05617
1060.704	34.08321
1061.061	65.15191
1061.418	16.03948
1061.774	31.07801
1062.131	20.05401
1062.487	5.01204
1062.843	27.06792
1063.199	56.14206
1063.555	33.07906
1063.911	19.04828
1064.267	8.01713
1064.623	16.03984
1064.979	70.1669
1065.335	-7.01701
1065.691	22.05352
1066.046	-49.10938
1066.402	78.18248
1066.757	8.02045
1067.112	37.0914
1067.468	125.30527
1067.823	46.11303
1068.178	14.0343
1068.533	25.0619
1068.888	23.05575
1069.243	14.03519
1069.598	30.07442
1069.952	17.03984
1070.307	35.08943
1070.662	-14.03406
1071.016	18.04161
1071.371	33.07652
1071.725	48.11611
1072.079	-7.01713
1072.434	-1.00251
1072.788	41.09991
1073.142	70.17461
1073.496	-1.00243
1073.85	6.01412
1074.203	78.19428
1074.557	45.12103
1074.911	26.06242
1075.265	63.14845
1075.618	23.05659
1075.971	-25.06119
1076.325	55.14177
1076.678	17.04049
1077.031	71.16463
1077.385	87.19653
1077.738	51.11821
1078.091	-10.02371
1078.444	60.14147
1078.796	-12.02999
1079.149	4.0101
1079.502	32.07869
1079.855	42.10072
1080.207	39.0974
1080.56	8.02101
1080.912	4.00989
1081.264	24.059
1081.617	81.20193
1081.969	42.10862
1082.321	12.02974
1082.673	4.00953
1083.025	49.11882
1083.377	-160.36945
1083.728	22.05201
1084.08	18.04561
1084.432	50.123
1084.783	46.10917
1085.135	38.09684
1085.486	24.05731
1085.838	34.08545
1086.189	-15.03715
1086.54	47.11346
1086.891	22.05701
1087.242	-23.05701
1087.593	46.11316
1087.944	-30.06969
1088.295	35.08125
1088.646	42.10431
1088.996	-43.10685
1089.347	6.01505
1089.698	-5.01222
1090.048	15.03896
1090.398	0
1090.749	41.10002
1091.099	27.07061
1091.449	20.05066
1091.799	52.13215
1092.149	23.05856
1092.499	8.01989
1092.849	33.08571
1093.199	4.01011
1093.548	60.14727
1093.898	21.05358
1094.248	4.01041
1094.597	60.15758
1094.947	8.02158
1095.296	23.05755
1095.645	41.10755
1095.994	5.01221
1096.343	7.01792
1096.692	92.24926
1097.041	-46.12648
1097.39	43.11061
1097.739	17.04481
1098.088	79.21234
1098.437	-1.00269
1098.785	15.0405
1099.134	24.06414
1099.482	50.13852
1099.83	14.03698
1100.179	40.10686
1100.527	-2.00537
1100.875	19.05095
1101.223	10.02687
1101.571	-2.00561
1101.919	19.05117
1102.267	-5.01423
1102.615	12.03868
1102.962	3.00966
1103.31	8.02577
1103.658	14.04515
