Data from N2 R0 60C sample3_Subt2__2__11-40-22-681.txt Node

Date: Tue Aug 19 11:40:22 PDT 2025
User: uwsun
Spectrometer: HDX01956
Trigger mode: 0
Integration Time (sec): 5.000000E-1
Scans to average: 1
Nonlinearity correction enabled: true
Boxcar width: 0
Storing dark spectrum: false
XAxis mode: Wavelengths
Number of Pixels in Spectrum: 2068
>>>>>Begin Spectral Data<<<<<
194.03	382.05703
194.578	392.21742
195.127	385.17995
195.676	406.24587
196.225	423.0963
196.773	476.27281
197.321	671.74985
197.87	885.0797
198.418	970.21287
198.966	883.10384
199.513	837.90695
200.061	932.13549
200.609	893.12929
201.156	837.66752
201.704	965.18605
202.251	915.20494
202.798	911.14083
203.345	968.12779
203.892	965.1649
204.438	920.97581
204.985	987.10398
205.532	917.17823
206.078	946.07939
206.624	942.08267
207.17	937.94811
207.716	934.03844
208.262	964.66436
208.808	950.12645
209.354	957.08825
209.899	937.0969
210.445	959.14792
210.99	1016.17938
211.535	993.07849
212.08	928.96142
212.625	984.19541
213.17	892.03972
213.715	938.92126
214.259	1016.08048
214.804	948.07163
215.348	954.92945
215.892	947.01861
216.436	927.92219
216.98	958.90049
217.524	910.93424
218.068	932.1287
218.612	955.14245
219.155	918.93605
219.698	908.94669
220.242	907.02805
220.785	854.80258
221.328	821.85772
221.871	800.83984
222.414	860.9377
222.956	842.87476
223.499	880.78533
224.041	853.80007
224.583	788.53379
225.126	821.64696
225.668	824.8188
226.21	815.87173
226.751	853.70651
227.293	887.84246
227.835	854.9054
228.376	863.79019
228.918	830.91034
229.459	774.78216
230	800.73713
230.541	891.87867
231.082	820.78435
231.622	841.74839
232.163	853.87695
232.704	838.87738
233.244	781.77864
233.784	845.87098
234.324	844.71767
234.864	820.69676
235.404	808.75005
235.944	842.80204
236.484	850.89647
237.023	867.86474
237.563	855.78618
238.102	827.75431
238.641	901.0451
239.18	885.87823
239.719	865.95886
240.258	895.80631
240.797	875.90126
241.335	876.9336
241.874	891.56206
242.412	856.88316
242.95	846.8425
243.488	899.8525
244.026	878.81526
244.564	877.62367
245.102	864.75204
245.64	844.82651
246.177	921.85204
246.715	878.90253
247.252	877.81521
247.789	861.46123
248.326	911.98201
248.863	937.84799
249.4	903.84078
249.936	896.64037
250.473	901.89811
251.009	919.90559
251.546	894.77009
252.082	861.70666
252.618	869.74016
253.154	930.01179
253.69	889.78517
254.226	888.90217
254.761	973.96209
255.297	884.72745
255.832	864.83404
256.367	924.95551
256.903	912.76543
257.438	964.99496
257.972	915.83744
258.507	925.91463
259.042	972.88264
259.576	963.86297
260.111	903.8674
260.645	912.73939
261.179	937.94121
261.713	957.90688
262.247	937.9369
262.781	921.73326
263.315	991.15251
263.849	978.17486
264.382	935.9009
264.915	1028.13249
265.449	1014.2197
265.982	1020.0418
266.515	943.02739
267.048	992.8758
267.58	973.87966
268.113	949.82798
268.646	954.10049
269.178	1010.98424
269.71	940.8353
270.243	989.97708
270.775	980.18737
271.307	984.07725
271.838	976.00921
272.37	1021.19339
272.902	979.95977
273.433	947.81105
273.965	957.06455
274.496	947.06293
275.027	1016.20453
275.558	980.09759
276.089	972.13659
276.62	1065.34552
277.15	1018.16126
277.681	986.89528
278.211	985.06534
278.741	999.94375
279.272	1007.00878
279.802	1027.22324
280.332	1002.07295
280.861	1068.2244
281.391	1056.07032
281.921	1053.20037
282.45	1042.26958
282.98	1046.37483
283.509	959.89497
284.038	1077.11604
284.567	1010.03196
285.096	1063.23202
285.625	1052.08761
286.153	1085.16967
286.682	1040.06948
287.21	1124.31847
287.739	1091.2348
288.267	1074.24677
288.795	1047.35179
289.323	1137.29784
289.851	1176.34278
290.378	1143.18304
290.906	1125.34066
291.433	1085.3111
291.961	1111.14829
292.488	1084.31046
293.015	1093.23288
293.542	1171.52976
294.069	1098.29904
294.596	1168.42325
295.122	1145.31929
295.649	1162.14326
296.175	1193.46259
296.702	1174.38834
297.228	1214.44978
297.754	1251.36922
298.28	1197.28534
298.806	1179.38501
299.332	1264.32277
299.857	1244.32005
300.383	1176.50344
300.908	1167.40459
301.433	1239.48042
301.958	1185.27107
302.483	1183.49397
303.008	1206.49443
303.533	1211.61729
304.058	1242.43123
304.582	1261.47369
305.107	1246.73217
305.631	1247.32395
306.155	1335.53363
306.679	1270.41867
307.203	1275.44281
307.727	1267.47155
308.251	1340.6872
308.775	1288.53089
309.298	1378.70302
309.822	1325.73771
310.345	1336.60092
310.868	1313.55666
311.391	1363.6991
311.914	1398.8241
312.437	1390.53232
312.96	1423.65692
313.482	1377.61103
314.005	1388.81277
314.527	1490.10519
315.049	1440.85642
315.571	1540.68082
316.093	1545.97979
316.615	1435.76587
317.137	1464.48538
317.659	1576.96724
318.18	1523.81235
318.702	1543.73298
319.223	1573.49232
319.744	1571.69739
320.265	1604.97635
320.786	1638.09808
321.307	1644.1005
321.828	1670.83762
322.348	1700.99803
322.869	1665.00052
323.389	1441.57852
323.909	1710.87835
324.43	1719.02064
324.95	1849.01322
325.47	1779.17179
325.989	1829.09348
326.509	1800.86002
327.029	1866.94284
327.548	1866.95616
328.067	1936.31356
328.587	1930.37081
329.106	1852.91058
329.625	1860.49435
330.144	1993.17442
330.662	1977.08531
331.181	2066.23282
331.7	2040.24945
332.218	2077.9864
332.736	2091.26609
333.255	2106.23497
333.773	2082.26563
334.291	2128.49571
334.808	2224.18771
335.326	2228.20525
335.844	2290.37267
336.361	2314.74849
336.879	2364.45967
337.396	2386.52806
337.913	2415.32401
338.43	2457.26355
338.947	2438.45038
339.464	2460.06564
339.981	2514.51154
340.497	2485.62119
341.014	2591.68197
341.53	2601.2247
342.046	2579.64435
342.562	2608.7823
343.078	2682.51486
343.594	2655.54894
344.11	2646.49025
344.626	2716.85322
345.141	2798.31133
345.657	2841.26359
346.172	2836.62652
346.687	2794.42015
347.202	2880.28446
347.717	2955.60177
348.232	2949.82507
348.747	2926.41299
349.261	2963.19479
349.776	3061.50392
350.29	3070.82421
350.805	3177.85851
351.319	3086.49099
351.833	3117.25672
352.347	3153.45759
352.861	3210.3939
353.374	3232.28628
353.888	3265.61385
354.401	3221.3491
354.915	3327.22403
355.428	3355.74008
355.941	3432.40844
356.454	3453.1273
356.967	3340.40707
357.48	3370.25187
357.993	3475.65446
358.505	3463.58575
359.018	3674.55554
359.53	3587.55321
360.042	3595.01093
360.554	3656.45972
361.066	3629.57326
361.578	3589.88214
362.09	3617.34897
362.602	3661.94494
363.113	3791.2452
363.625	3844.00139
364.136	3809.86355
364.647	3876.28167
365.158	3954.07669
365.669	3978.24696
366.18	3965.14612
366.691	4006.78282
367.201	3954.28557
367.712	4120.93595
368.222	4109.93542
368.733	4285.67332
369.243	4256.69974
369.753	4458.9028
370.263	4448.06085
370.773	4413.12701
371.282	4516.90459
371.792	4652.80645
372.301	4895.83054
372.811	4791.31186
373.32	4864.06484
373.829	4997.59396
374.338	5165.05786
374.847	5240.28234
375.356	5518.26554
375.865	5648.52224
376.373	5971.75397
376.882	6092.29408
377.39	6142.9845
377.898	6417.03722
378.407	6722.44686
378.915	6917.2589
379.423	7152.68069
379.93	7389.53326
380.438	7800.05807
380.946	8134.20503
381.453	8492.6356
381.96	8917.26005
382.468	9505.49923
382.975	10068.06077
383.482	10299.06864
383.989	10445.21265
384.495	10865.23503
385.002	11408.33541
385.509	12042.09521
386.015	12825.12324
386.521	13451.56386
387.028	13956.17842
387.534	14327.13001
388.04	14855.16614
388.546	15488.66064
389.051	16203.43204
389.557	17282.86176
390.063	18846.67898
390.568	19162.4708
391.073	20121.66146
391.578	20770.34459
392.084	21191.46078
392.589	22161.44364
393.093	23983.59709
393.598	26285.27669
394.103	28417.09122
394.607	31057.57
395.112	33101.54471
395.616	35260.73104
396.12	38561.52541
396.624	42571.49162
397.128	46280.58347
397.632	51471.63543
398.136	55300.93436
398.639	58923.93721
399.143	60830.2014
399.646	61173.79791
400.15	60904.11498
400.653	60560.14334
401.156	60136.25446
401.659	59550.50961
402.162	58431.12733
402.664	54480.21957
403.167	49329.08451
403.67	22278.45323
404.172	2696.20453
404.674	0
405.176	0
405.678	0
406.18	0
406.682	0
407.184	0
407.686	25783.58453
408.187	43316.52985
408.688	51225.60928
409.19	54389.01922
409.691	56215.4214
410.192	57270.57019
410.693	57845.40442
411.194	58219.2365
411.694	58633.01717
412.195	59215.68848
412.696	59364.60701
413.196	59341.61941
413.696	59632.46864
414.196	59367.6054
414.696	59763.40624
415.196	59913.34014
415.696	60584.13941
416.196	61381.18813
416.695	61808.38326
417.195	57925.44922
417.694	54888.70468
418.194	51800.76434
418.693	48866.23792
419.192	47543.78015
419.691	46376.15019
420.19	45350.32408
420.688	44147.05925
421.187	42119.15513
421.685	38984.17845
422.184	35162.22198
422.682	30388.6627
423.18	26091.45082
423.678	23659.01745
424.176	22139.42552
424.674	20593.6705
425.172	19945.00171
425.669	18500.40795
426.167	17299.60462
426.664	15763.34137
427.161	14607.35759
427.659	13415.66577
428.156	12683.68746
428.652	11910.93246
429.149	11466.86359
429.646	10949.86315
430.143	10185.50993
430.639	9731.11534
431.135	9302.04012
431.632	8691.8177
432.128	8220.28865
432.624	7780.18923
433.12	7534.56194
433.616	7269.31512
434.111	6965.57992
434.607	6899.67243
435.103	6739.06
435.598	6491.05697
436.093	6183.71413
436.588	5805.50725
437.083	5512.74842
437.578	5260.09746
438.073	5135.76794
438.568	4897.6778
439.062	4822.97639
439.557	4699.59316
440.051	4466.46204
440.546	4414.5676
441.04	4240.05289
441.534	4304.41363
442.028	4174.00303
442.522	4020.12262
443.015	4010.58716
443.509	3942.30477
444.002	3829.36169
444.496	3653.81669
444.989	3769.30916
445.482	3687.50401
445.975	3707.0591
446.468	3576.71594
446.961	3481.81074
447.454	3509.96891
447.947	3447.35976
448.439	3366.33139
448.931	3399.10687
449.424	3242.62891
449.916	3340.49672
450.408	3280.0945
450.9	3161.54121
451.392	3093.70052
451.884	3058.18759
452.375	3026.7231
452.867	3063.10169
453.358	2899.2023
453.849	2924.8617
454.341	2931.15015
454.832	2805.94445
455.323	2922.55768
455.814	2792.25754
456.304	2803.23767
456.795	2682.226
457.285	2673.01157
457.776	2694.13817
458.266	2642.38173
458.756	2626.37139
459.247	2549.4015
459.737	2474.41118
460.226	2471.12707
460.716	2489.42937
461.206	2457.40917
461.695	2383.5017
462.185	2347.21123
462.674	2340.21852
463.163	2252.92542
463.653	2264.83315
464.142	2268.35339
464.63	2201.39043
465.119	2157.0922
465.608	2230.17904
466.096	2159.87799
466.585	2134.08366
467.073	2050.14929
467.561	1963.11724
468.05	2012.04189
468.538	1923.18166
469.026	1919.09264
469.513	1952.96243
470.001	1855.83692
470.489	1824.01371
470.976	1850.92885
471.463	1729.06021
471.951	1718.04916
472.438	1701.84238
472.925	1659.7851
473.412	1607.86444
473.899	1592.6409
474.385	1562.83137
474.872	1562.75051
475.359	1602.90857
475.845	1501.32602
476.331	1412.2663
476.817	1497.73826
477.303	1419.52782
477.789	1369.5708
478.275	1309.56803
478.761	1357.57673
479.247	1371.41572
479.732	1291.58468
480.218	1314.72759
480.703	1254.51682
481.188	1220.10127
481.673	1245.29514
482.158	1235.15142
482.643	1202.4608
483.128	1198.23181
483.612	1122.16806
484.097	1126.25025
484.581	1092.09693
485.066	1109.26153
485.55	1057.97028
486.034	1012.8365
486.518	1095.17662
487.002	1058.22977
487.486	906.93324
487.969	988.09387
488.453	986.10954
488.936	920.83096
489.42	891.712
489.903	862.89874
490.386	859.24061
490.869	930.7498
491.352	896.90859
491.835	856.567
492.318	998.9882
492.8	894.64164
493.283	911.05034
493.765	816.80413
494.247	777.62884
494.73	812.61128
495.212	782.69443
495.694	804.68808
496.175	780.69511
496.657	833.75631
497.139	733.1812
497.62	769.66306
498.102	769.72805
498.583	711.62047
499.064	781.60986
499.545	708.49222
500.026	724.49793
500.507	682.4688
500.988	748.70175
501.469	666.55591
501.949	700.59571
502.43	680.50954
502.91	704.3681
503.39	566.32212
503.87	673.48749
504.35	603.32652
504.83	649.34228
505.31	632.42263
505.79	653.47144
506.269	606.34344
506.749	608.31094
507.228	617.37438
507.707	679.4019
508.187	564.25904
508.666	636.47068
509.145	636.41061
509.623	575.2712
510.102	585.34167
510.581	553.25197
511.059	583.38393
511.538	583.40989
512.016	637.44412
512.494	587.34948
512.972	585.31538
513.45	514.16191
513.928	614.42257
514.406	557.30132
514.884	526.29406
515.361	565.2973
515.839	529.16888
516.316	562.29478
516.793	506.2251
517.27	485.11959
517.747	504.24215
518.224	539.20737
518.701	571.23869
519.178	497.17775
519.654	496.13344
520.131	506.19611
520.607	511.20864
521.083	499.108
521.56	528.21345
522.036	543.15433
522.512	505.17646
522.987	500.15496
523.463	527.21573
523.939	531.24439
524.414	550.21308
524.89	514.17417
525.365	529.16596
525.84	511.19279
526.315	511.19466
526.79	543.18237
527.265	533.19097
527.74	467.1023
528.215	507.16489
528.689	465.01568
529.164	470.99797
529.638	482.19917
530.112	519.19202
530.587	508.06644
531.061	518.20844
531.534	449.04826
532.008	476.11814
532.482	420.93606
532.956	479.17635
533.429	438.03513
533.903	438.94948
534.376	498.06793
534.849	482.09079
535.322	475.09169
535.795	442.05144
536.268	406.95448
536.741	489.13197
537.213	499.11672
537.686	472.12379
538.158	412.91367
538.631	445.04419
539.103	477.05688
539.575	435.89003
540.047	445.9628
540.519	463.081
540.991	490.15287
541.463	492.15309
541.934	464.04146
542.406	481.11958
542.877	510.13176
543.348	509.18672
543.82	498.16581
544.291	493.10916
544.762	508.15997
545.233	526.26595
545.703	519.11855
546.174	586.30121
546.645	534.2385
547.115	583.34988
547.585	559.23012
548.056	645.48885
548.526	682.52275
548.996	629.41731
549.466	655.48556
549.935	745.63511
550.405	722.47446
550.875	727.5909
551.344	739.64637
551.814	731.5687
552.283	684.37213
552.752	816.74186
553.221	818.66697
553.69	867.72016
554.159	895.98826
554.628	925.85498
555.096	962.17618
555.565	879.78128
556.033	916.91328
556.502	892.9337
556.97	801.62453
557.438	834.78568
557.906	871.85171
558.374	890.83271
558.842	854.83166
559.31	910.82277
559.777	901.94038
560.245	956.99247
560.712	1014.06519
561.18	1071.08454
561.647	1066.05863
562.114	1085.13179
562.581	1125.35098
563.048	1212.33238
563.514	1195.46344
563.981	1253.35466
564.448	1338.43602
564.914	1378.58209
565.381	1456.59735
565.847	1545.80393
566.313	1614.86161
566.779	1599.68074
567.245	1744.00899
567.711	1794.15255
568.176	1840.95886
568.642	1917.44023
569.108	2018.45165
569.573	2100.37255
570.038	2163.97152
570.504	2169.12497
570.969	2312.79222
571.434	2470.3058
571.899	2508.62852
572.363	2588.40826
572.828	2670.41931
573.293	2789.49413
573.757	2859.45351
574.222	2942.45724
574.686	3024.51127
575.15	3087.72072
575.614	3110.51042
576.078	3185.69458
576.542	3279.45541
577.006	3259.40606
577.469	3343.90845
577.933	3344.47761
578.396	3271.63694
578.86	3374.64366
579.323	3403.7966
579.786	3404.15005
580.249	3359.56024
580.712	3280.85071
581.175	3227.9214
581.637	3115.42705
582.1	3163.30235
582.563	3098.12502
583.025	3120.83158
583.487	3041.92765
583.95	2987.28347
584.412	3018.09587
584.874	2844.73062
585.336	2805.64494
585.797	2816.19925
586.259	2665.58785
586.721	2691.57172
587.182	2588.46561
587.643	2582.38025
588.105	2509.58985
588.566	2436.96466
589.027	2361.6151
589.488	2326.31961
589.949	2288.55228
590.41	2235.68254
590.87	2250.21025
591.331	2093.92393
591.791	2112.30785
592.252	2105.25108
592.712	2004.29665
593.172	2002.12225
593.632	2019.01791
594.092	1955.02443
594.552	1944.89162
595.011	1846.04217
595.471	1854.89558
595.931	1826.89692
596.39	1797.18137
596.849	1812.06529
597.308	1810.81147
597.768	1754.3644
598.227	1735.04111
598.685	1636.775
599.144	1659.91554
599.603	1777.10563
600.062	1698.67038
600.52	1698.81975
600.978	1705.98454
601.437	1744.88269
601.895	1696.62778
602.353	1764.81481
602.811	1806.93593
603.269	1804.16862
603.727	1829.20873
604.184	1840.01569
604.642	1850.28837
605.099	1886.08686
605.557	1913.31938
606.014	1961.96676
606.471	1947.47866
606.928	2079.05444
607.385	2150.60122
607.842	2108.16745
608.299	2206.38371
608.755	2192.50317
609.212	2231.14457
609.668	2262.22191
610.125	2352.58349
610.581	2364.46585
611.037	2326.29739
611.493	2287.42318
611.949	2339.71436
612.405	2280.78224
612.861	2424.46985
613.316	2368.55661
613.772	2411.4204
614.227	2404.55326
614.683	2460.07397
615.138	2449.48868
615.593	2441.46004
616.048	2463.33515
616.503	2482.69541
616.958	2481.87474
617.412	2452.52388
617.867	2432.23015
618.321	2513.96906
618.776	2490.25911
619.23	2456.4724
619.684	2432.30319
620.138	2397.38127
620.592	2430.66474
621.046	2419.43209
621.5	2476.72938
621.954	2317.23905
622.407	2361.20658
622.861	2229.52681
623.314	2266.24157
623.768	2242.36516
624.221	2269.7404
624.674	2127.22934
625.127	2143.28811
625.58	2155.18173
626.033	2063.96946
626.485	1983.29979
626.938	2051.30278
627.39	2074.26024
627.843	1999.16455
628.295	1897.0432
628.747	1894.17983
629.199	1881.00378
629.651	1797.95258
630.103	1811.00257
630.555	1821.69049
631.006	1699.94018
631.458	1682.96914
631.909	1617.74619
632.361	1610.83842
632.812	1593.81334
633.263	1554.51714
633.714	1558.48583
634.165	1550.93367
634.616	1544.84776
635.067	1426.4386
635.518	1441.6959
635.968	1431.18962
636.419	1368.35254
636.869	1314.5111
637.319	1327.46865
637.769	1331.41168
638.219	1261.41246
638.669	1267.4762
639.119	1314.62177
639.569	1245.4605
640.019	1267.36597
640.468	1231.24447
640.918	1241.42642
641.367	1182.1965
641.816	1210.24869
642.265	1219.31293
642.714	1165.23585
643.163	1165.27112
643.612	1163.40914
644.061	1229.18578
644.51	1203.33212
644.958	1130.09026
645.406	1080.2167
645.855	1129.35003
646.303	1160.25763
646.751	1127.19689
647.199	1149.18609
647.647	1094.14097
648.095	1154.25546
648.543	1186.00572
648.99	1075.17235
649.438	1170.2986
649.885	1109.33888
650.333	1147.865
650.78	1151.37792
651.227	1167.4292
651.674	1066.06549
652.121	1076.23021
652.568	1104.30047
653.015	1100.3466
653.461	1084.20301
653.908	1105.19248
654.354	1020.08681
654.801	1108.21523
655.247	1105.06263
655.693	1063.40325
656.139	1071.21049
656.585	1041.1351
657.031	1052.13305
657.477	965.84286
657.922	1032.06681
658.368	1014.16858
658.813	1015.00984
659.259	942.00405
659.704	975.9751
660.149	981.02178
660.594	998.07109
661.039	952.90699
661.484	945.96562
661.929	950.94848
662.373	922.0949
662.818	945.08715
663.262	887.9094
663.707	889.00647
664.151	883.92757
664.595	838.80812
665.039	868.93743
665.483	875.99991
665.927	844.77757
666.371	851.78566
666.814	811.74947
667.258	893.92807
667.701	831.60343
668.145	830.86022
668.588	785.74314
669.031	862.85041
669.474	794.73797
669.917	804.60206
670.36	809.83353
670.803	737.61279
671.245	754.46403
671.688	732.62438
672.13	745.54727
672.573	724.66502
673.015	719.60377
673.457	731.47093
673.899	700.55204
674.341	706.57702
674.783	649.45348
675.225	652.48502
675.666	709.60617
676.108	686.37995
676.549	672.47261
676.991	706.46586
677.432	679.3022
677.873	677.44648
678.314	666.48639
678.755	641.46142
679.196	598.30037
679.637	645.45872
680.078	586.28504
680.518	566.24581
680.959	649.46837
681.399	611.43431
681.839	572.31575
682.28	592.38129
682.72	608.32326
683.16	530.24567
683.6	548.17938
684.039	532.06284
684.479	543.27502
684.919	541.21483
685.358	548.31597
685.798	509.27308
686.237	523.20841
686.676	517.13281
687.115	502.12736
687.554	489.11136
687.993	469.00109
688.432	504.11008
688.871	470.04545
689.309	483.10701
689.748	446.89663
690.186	457.04396
690.625	456.02766
691.063	458.06617
691.501	439.03729
691.939	444.06308
692.377	484.12813
692.815	461.0679
693.253	469.08517
693.69	442.95488
694.128	423.00404
694.565	430.99236
695.003	413.01475
695.44	421.96831
695.877	426.98352
696.314	443.91953
696.751	426.93567
697.188	444.99321
697.625	441.9741
698.061	404.95163
698.498	409.95573
698.934	407.96074
699.371	375.87562
699.807	392.90541
700.243	405.95677
700.679	410.91113
701.115	407.92565
701.551	418.95738
701.987	427.9424
702.422	365.86096
702.858	345.80558
703.294	372.82636
703.729	408.97373
704.164	402.94729
704.599	418.91193
705.035	406.90786
705.47	408.98563
705.904	368.85877
706.339	345.77291
706.774	381.87669
707.209	355.81361
707.643	390.92009
708.078	421.01078
708.512	341.84874
708.946	337.7866
709.38	302.70921
709.814	323.72959
710.248	309.73992
710.682	362.85107
711.116	372.88546
711.549	288.72973
711.983	329.75646
712.416	335.78163
712.85	337.82994
713.283	391.91117
713.716	379.91991
714.149	335.77948
714.582	383.85556
715.015	335.81162
715.448	345.84932
715.881	335.71802
716.313	343.7962
716.746	370.8631
717.178	286.6842
717.61	302.74637
718.043	335.81467
718.475	285.68116
718.907	336.82885
719.339	287.65858
719.77	315.74565
720.202	286.71357
720.634	314.76747
721.065	345.80938
721.497	340.81955
721.928	328.79959
722.359	340.8242
722.79	320.77369
723.221	311.76536
723.652	304.75956
724.083	342.77612
724.514	327.74735
724.945	299.70313
725.375	372.86776
725.806	299.72878
726.236	290.72826
726.666	325.76128
727.096	301.7342
727.526	325.81304
727.956	312.70604
728.386	334.80479
728.816	268.67278
729.246	325.79036
729.675	301.73967
730.105	291.69762
730.534	324.74987
730.964	284.70189
731.393	279.67547
731.822	285.71815
732.251	288.71725
732.68	267.6203
733.109	295.71501
733.537	308.73766
733.966	343.84471
734.395	268.61856
734.823	294.65148
735.251	327.78331
735.68	263.65227
736.108	301.74485
736.536	271.63307
736.964	267.62226
737.392	301.74158
737.82	314.744
738.247	262.62177
738.675	312.73069
739.102	321.79288
739.53	304.76423
739.957	292.74222
740.384	268.64604
740.811	263.65489
741.238	300.72398
741.665	263.60666
742.092	315.74103
742.519	231.57208
742.945	273.65273
743.372	315.77092
743.798	316.79667
744.225	293.69063
744.651	304.74938
745.077	303.74348
745.503	311.74442
745.929	294.69689
746.355	318.77146
746.781	311.75717
747.207	289.68702
747.632	337.81984
748.058	286.70502
748.483	309.70679
748.908	304.7411
749.334	326.78938
749.759	266.61859
750.184	270.64519
750.609	314.76176
751.033	321.74337
751.458	286.63693
751.883	303.7366
752.307	350.81421
752.732	318.79166
753.156	342.83495
753.58	290.68529
754.005	293.7248
754.429	308.7202
754.853	296.72241
755.277	264.61563
755.7	324.79014
756.124	243.60179
756.548	306.72393
756.971	278.66202
757.394	332.83819
757.818	235.5981
758.241	281.70351
758.664	317.78989
759.087	261.59076
759.51	270.66093
759.933	295.70748
760.356	256.64543
760.778	308.75533
761.201	277.6671
761.623	267.63522
762.046	273.64175
762.468	254.59511
762.89	261.63333
763.312	318.7703
763.734	250.599
764.156	275.67179
764.578	289.6653
765	247.60206
765.421	223.56697
765.843	205.53205
766.264	248.59467
766.686	212.52513
767.107	230.55424
767.528	202.51386
767.949	234.59145
768.37	191.46401
768.791	251.60449
769.212	184.46708
769.632	232.5457
770.053	183.48181
770.473	217.52736
770.894	189.46911
771.314	186.44006
771.734	196.463
772.154	182.46233
772.575	202.46773
772.994	173.39971
773.414	179.43078
773.834	202.50603
774.254	197.48949
774.673	159.38902
775.093	128.32147
775.512	125.31128
775.931	145.36998
776.351	128.32182
776.77	143.35507
777.189	150.36093
777.607	129.33262
778.026	196.49153
778.445	144.36671
778.864	160.41047
779.282	142.34737
779.701	102.25939
780.119	198.51114
780.537	148.37463
780.955	126.31952
781.373	145.36095
781.791	119.2744
782.209	137.31855
782.627	123.33016
783.045	134.31704
783.462	169.4347
783.88	107.2803
784.297	149.37857
784.715	154.39949
785.132	137.33905
785.549	121.30842
785.966	129.32753
786.383	141.35074
786.8	98.23339
787.217	101.24519
787.633	97.24724
788.05	108.2578
788.466	85.1999
788.883	73.18921
789.299	75.1846
789.715	142.35085
790.131	125.31704
790.547	93.23353
790.963	113.28589
791.379	89.22893
791.795	44.1033
792.21	88.20909
792.626	77.18567
793.041	133.33409
793.457	104.26223
793.872	100.23898
794.287	66.1626
794.702	76.18971
795.117	68.17366
795.532	108.27611
795.947	121.29363
796.362	108.26204
796.776	56.13219
797.191	104.2596
797.605	95.23296
798.02	59.14682
798.434	49.1111
798.848	64.16241
799.262	94.23964
799.676	83.20414
800.09	87.22129
800.504	73.17941
800.918	123.29242
801.331	59.15487
801.745	61.14402
802.158	24.06166
802.572	87.21216
802.985	47.11572
803.398	32.07849
803.811	24.062
804.224	54.13543
804.637	78.19124
805.05	17.04039
805.462	76.18937
805.875	14.03733
806.288	57.14226
806.7	61.15653
807.112	63.14782
807.525	49.12318
807.937	9.02288
808.349	27.06921
808.761	27.06819
809.173	72.17744
809.584	76.18943
809.996	29.07329
810.408	66.17398
810.819	103.24864
811.231	175.4609
811.642	200.49051
812.053	295.70855
812.464	272.64549
812.875	173.44141
813.286	124.32201
813.697	139.32677
814.108	93.22974
814.519	86.19455
814.929	95.24385
815.34	106.2644
815.75	70.18159
816.16	62.15667
816.571	41.10733
816.981	61.14631
817.391	101.24896
817.801	84.21498
818.211	34.08194
818.62	52.12966
819.03	45.11227
819.44	70.18378
819.849	25.0639
820.259	33.08509
820.668	61.15411
821.077	63.16109
821.486	83.2021
821.895	63.15655
822.304	92.24561
822.713	38.09286
823.122	112.2822
823.531	74.18056
823.939	72.17953
824.348	86.21358
824.756	83.21164
825.164	50.12711
825.573	100.25808
825.981	97.24235
826.389	95.24223
826.797	65.16363
827.205	70.16601
827.612	62.15655
828.02	39.09471
828.428	102.26324
828.835	44.1179
829.243	112.27276
829.65	69.1747
830.057	100.24708
830.464	75.18562
830.871	76.18474
831.278	22.05434
831.685	86.19677
832.092	113.2812
832.499	90.20077
832.905	66.16909
833.312	73.17075
833.718	84.21226
834.124	67.15573
834.531	79.20073
834.937	37.09514
835.343	60.14814
835.749	44.10354
836.155	56.14822
836.561	16.04068
836.966	54.13465
837.372	86.22133
837.777	76.19368
838.183	70.15784
838.588	43.10763
838.993	66.16289
839.399	25.06271
839.804	19.04759
840.209	77.20089
840.613	69.15771
841.018	54.13801
841.423	43.11192
841.828	74.19104
842.232	76.18957
842.637	65.15738
843.041	69.18075
843.445	58.14807
843.849	36.09071
844.253	77.18644
844.657	38.09831
845.061	52.12179
845.465	30.07448
845.869	79.18782
846.272	33.08284
846.676	49.11976
847.079	83.21595
847.483	15.03796
847.886	38.09265
848.289	71.19177
848.692	77.1973
849.095	82.20127
849.498	72.18206
849.901	60.13987
850.304	47.11547
850.707	27.06969
851.109	10.02557
851.512	85.2136
851.914	55.14369
852.316	7.01791
852.718	38.10051
853.121	78.19428
853.523	66.15971
853.925	52.13878
854.326	27.06863
854.728	36.09487
855.13	64.16905
855.531	91.22381
855.933	20.04853
856.334	39.09962
856.736	25.05827
857.137	49.11641
857.538	77.19806
857.939	54.13752
858.34	87.21421
858.741	44.1165
859.142	36.08875
859.542	71.19021
859.943	33.08358
860.343	17.04324
860.744	32.0795
861.144	21.05182
861.544	33.08236
861.945	69.18014
862.345	25.06233
862.745	57.1459
863.145	87.2093
863.544	33.08486
863.944	21.05046
864.344	48.12099
864.743	38.0952
865.143	51.13315
865.542	54.1287
865.941	54.13718
866.34	55.13382
866.74	39.10555
867.139	77.18966
867.537	10.02596
867.936	58.14294
868.335	41.10634
868.734	96.25075
869.132	31.07466
869.531	24.05858
869.929	76.17933
870.327	45.11104
870.726	6.01513
871.124	100.23815
871.522	37.09613
871.92	77.19335
872.318	72.17842
872.715	26.06481
873.113	45.1128
873.511	69.17668
873.908	27.07071
874.306	69.17606
874.703	60.15161
875.1	27.0701
875.497	53.13112
875.894	83.20887
876.291	-10.02517
876.688	74.19553
877.085	47.11414
877.482	69.17451
877.878	50.12341
878.275	39.10151
878.671	37.08471
879.068	39.09606
879.464	2.00497
879.86	20.04851
880.256	77.19189
880.652	36.09339
881.048	60.14988
881.444	21.0506
881.84	19.04921
882.236	45.11462
882.631	74.18632
883.027	44.1076
883.422	26.06759
883.817	57.14845
884.213	47.12316
884.608	46.11607
885.003	48.11925
885.398	67.17246
885.793	46.11715
886.188	34.08753
886.582	53.13576
886.977	74.17874
887.371	7.01786
887.766	18.04616
888.16	62.15661
888.554	41.1021
888.949	37.09398
889.343	15.03725
889.737	76.20711
890.131	27.06851
890.525	27.07022
890.918	10.02551
891.312	8.01935
891.706	-1.00263
892.099	21.05381
892.492	52.11596
892.886	32.07953
893.279	32.0835
893.672	7.01792
894.065	43.10906
894.458	71.1825
894.851	61.1513
895.244	22.05713
895.637	72.17698
896.029	42.10442
896.422	41.10169
896.814	39.09846
897.206	21.05136
897.599	65.16116
897.991	7.01728
898.383	71.17301
898.775	65.14965
899.167	49.11815
899.559	67.17084
899.951	47.11286
900.342	52.13271
900.734	59.15124
901.125	63.16677
901.517	46.11578
901.908	27.06579
902.299	85.21413
902.69	47.11397
903.082	27.06675
903.473	49.12109
903.863	68.17549
904.254	76.18155
904.645	75.1886
905.036	45.11198
905.426	44.10221
905.817	34.08561
906.207	84.20511
906.597	-20.04802
906.987	66.17292
907.378	3.0077
907.768	44.11801
908.158	50.12409
908.547	49.12906
908.937	15.03884
909.327	67.1663
909.717	72.18297
910.106	29.07111
910.495	67.16945
910.885	64.165
911.274	59.14948
911.663	29.07408
912.052	51.12659
912.441	30.0771
912.83	85.19975
913.219	59.15524
913.608	27.06726
913.997	43.11049
914.385	41.09927
914.774	50.12368
915.162	57.13967
915.55	57.13972
915.939	44.113
916.327	-15.03792
916.715	5.01302
917.103	33.08212
917.491	69.17096
917.878	48.11812
918.266	-15.03931
918.654	95.24623
919.041	34.09068
919.429	48.1162
919.816	39.09976
920.203	50.12399
920.591	31.07793
920.978	30.07369
921.365	69.18278
921.752	38.09313
922.139	68.15264
922.525	82.20223
922.912	25.06196
923.299	73.18443
923.685	36.09567
924.072	74.17074
924.458	61.15329
924.844	17.04323
925.231	22.05278
925.617	76.19648
926.003	43.11119
926.389	53.1359
926.774	59.15145
927.16	38.09612
927.546	62.16195
927.931	47.11921
928.317	42.0981
928.702	61.14536
929.088	34.08302
929.473	10.02591
929.858	34.08481
930.243	24.05926
930.628	34.08564
931.013	19.04831
931.398	55.12799
931.783	48.12675
932.167	65.16316
932.552	19.04805
932.937	69.17258
933.321	39.10004
933.705	56.14377
934.09	55.139
934.474	53.12765
934.858	18.04751
935.242	58.13797
935.626	17.04473
936.009	-5.01338
936.393	51.13114
936.777	61.15833
937.16	65.16964
937.544	4.00961
937.927	27.07039
938.311	42.1037
938.694	50.13265
939.077	1.00246
939.46	-3.00735
939.843	122.26167
940.226	20.05229
940.609	102.24208
940.991	47.12161
941.374	28.07015
941.757	57.14148
942.139	86.20024
942.522	62.14737
942.904	22.05418
943.286	16.04108
943.668	73.19117
944.05	35.08811
944.432	73.18456
944.814	5.01247
945.196	74.18545
945.578	69.17064
945.959	59.14129
946.341	-12.02954
946.722	40.09563
947.104	41.10032
947.485	4.0096
947.866	75.19433
948.247	36.09155
948.628	-6.01486
949.009	26.06824
949.39	38.09582
949.771	64.15189
950.152	73.18291
950.532	42.10673
950.913	73.17841
951.293	37.10159
951.674	103.25678
952.054	70.17814
952.434	25.06309
952.814	41.09968
953.194	31.08162
953.574	20.04965
953.954	33.08029
954.334	44.11186
954.714	54.13479
955.093	27.06717
955.473	27.06855
955.853	33.0863
956.232	16.04397
956.611	52.1265
956.99	74.18965
957.37	66.17057
957.749	53.12953
958.128	34.08805
958.506	40.10668
958.885	51.13132
959.264	85.21467
959.643	34.07895
960.021	16.04082
960.4	48.11221
960.778	60.14955
961.156	50.12823
961.535	37.08793
961.913	67.15972
962.291	76.20034
962.669	-21.05428
963.047	22.05684
963.424	5.013
963.802	58.14572
964.18	69.17563
964.557	53.12469
964.935	59.14226
965.312	17.04487
965.69	57.14318
966.067	76.1882
966.444	40.09945
966.821	82.2117
967.198	38.09348
967.575	60.14716
967.952	38.09116
968.329	34.08462
968.705	82.17785
969.082	48.12568
969.458	29.07238
969.835	30.07429
970.211	82.21404
970.587	43.10848
970.963	11.02863
971.339	17.04524
971.715	20.05084
972.091	24.06036
972.467	65.16416
972.843	37.09365
973.219	15.03632
973.594	64.17115
973.97	65.15614
974.345	77.18777
974.721	22.05362
975.096	10.02478
975.471	56.13531
975.846	31.07579
976.221	61.15876
976.596	50.12304
976.971	60.14983
977.346	72.16884
977.72	59.15266
978.095	57.14947
978.469	37.08965
978.844	34.08591
979.218	-8.01971
979.593	56.13582
979.967	55.13592
980.341	30.07057
980.715	80.20424
981.089	-4.01014
981.463	63.1503
981.837	69.17208
982.21	49.11555
982.584	35.08653
982.957	42.10745
983.331	33.07993
983.704	-10.0248
984.078	61.15334
984.451	42.10473
984.824	13.03261
985.197	35.08634
985.57	52.1321
985.943	62.15325
986.316	69.17089
986.688	48.11707
987.061	76.18253
987.434	8.02124
987.806	42.10397
988.179	72.17404
988.551	49.12639
988.923	34.08524
989.295	14.03496
989.667	25.06192
990.039	45.11418
990.411	48.11291
990.783	41.09624
991.155	73.18173
991.527	45.11121
991.898	71.18002
992.27	-51.13004
992.641	34.08619
993.012	74.17644
993.384	14.03398
993.755	38.09912
994.126	27.06611
994.497	22.05543
994.868	74.17393
995.239	23.05665
995.61	59.15139
995.98	44.11007
996.351	19.04811
996.722	58.13956
997.092	25.06103
997.462	16.03884
997.833	39.09386
998.203	16.03937
998.573	-33.08438
998.943	76.18239
999.313	83.20285
999.683	93.22865
1000.053	67.15788
1000.423	33.08104
1000.792	74.19474
1001.162	-3.00753
1001.531	57.14282
1001.901	92.23421
1002.27	46.10542
1002.639	29.07579
1003.009	-12.02921
1003.378	-10.02594
1003.747	52.12655
1004.116	4.00988
1004.485	-4.00975
1004.853	49.12569
1005.222	29.07376
1005.591	45.10855
1005.959	61.14273
1006.328	44.10189
1006.696	49.12176
1007.064	12.03068
1007.433	60.15118
1007.801	18.04461
1008.169	1.00255
1008.537	32.07307
1008.905	30.07224
1009.273	6.01499
1009.64	7.0174
1010.008	50.12209
1010.375	-25.06058
1010.743	87.20181
1011.11	56.13592
1011.478	33.08275
1011.845	41.09808
1012.212	40.09365
1012.579	1.0025
1012.946	38.09192
1013.313	45.1081
1013.68	22.05062
1014.047	69.16858
1014.414	-6.01471
1014.78	5.01263
1015.147	30.07298
1015.513	-3.00745
1015.88	21.05392
1016.246	23.0568
1016.612	49.11304
1016.978	60.14912
1017.344	99.24797
1017.71	32.07814
1018.076	79.18753
1018.442	35.09037
1018.808	49.12455
1019.174	30.07702
1019.539	33.07594
1019.905	33.07963
1020.27	31.07854
1020.636	81.19605
1021.001	64.1547
1021.366	24.05917
1021.731	39.10032
1022.096	46.1183
1022.461	21.05087
1022.826	65.15643
1023.191	10.02659
1023.556	28.06763
1023.92	43.10646
1024.285	42.10423
1024.649	58.14441
1025.014	76.19033
1025.378	6.01545
1025.742	77.19398
1026.107	35.08058
1026.471	32.0751
1026.835	55.13935
1027.199	94.23387
1027.562	29.069
1027.926	25.0621
1028.29	50.1294
1028.654	11.02606
1029.017	13.0323
1029.381	7.01721
1029.744	17.04382
1030.107	45.10793
1030.471	-3.0073
1030.834	53.12236
1031.197	-1.00244
1031.56	12.02889
1031.923	42.10978
1032.286	58.13781
1032.648	69.16858
1033.011	-21.04958
1033.374	32.07589
1033.736	1.00269
1034.099	76.18882
1034.461	-13.03347
1034.823	10.02535
1035.185	61.15521
1035.548	49.12198
1035.91	11.02701
1036.272	-11.02557
1036.634	8.01977
1036.995	23.05586
1037.357	19.04735
1037.719	19.04658
1038.08	34.08184
1038.442	-3.00729
1038.803	45.10941
1039.165	61.15735
1039.526	34.08361
1039.887	40.09789
1040.248	-18.04553
1040.609	-11.02747
1040.97	101.24987
1041.331	55.14074
1041.692	20.04893
1042.053	61.14195
1042.413	64.1516
1042.774	40.09851
1043.134	56.13577
1043.495	7.01782
1043.855	29.07164
1044.215	45.11401
1044.576	73.17974
1044.936	71.16496
1045.296	20.05075
1045.656	12.02982
1046.016	18.044
1046.375	8.01971
1046.735	38.08883
1047.095	51.12139
1047.454	60.12969
1047.814	44.1076
1048.173	-29.0695
1048.533	36.08419
1048.892	47.11632
1049.251	81.20486
1049.61	23.05767
1049.969	83.20104
1050.328	70.15474
1050.687	12.02977
1051.046	20.04914
1051.405	47.11972
1051.763	41.09691
1052.122	23.0585
1052.48	-20.04971
1052.839	-7.01696
1053.197	36.08702
1053.555	9.0204
1053.914	38.09324
1054.272	11.02677
1054.63	71.17739
1054.988	45.10949
1055.345	50.11057
1055.703	62.15054
1056.061	1.00262
1056.419	7.01844
1056.776	13.03176
1057.134	33.07837
1057.491	3.00763
1057.848	-2.00503
1058.206	-16.03888
1058.563	22.04981
1058.92	3.00701
1059.277	24.05997
1059.634	59.14027
1059.991	58.14099
1060.348	11.02581
1060.704	41.10021
1061.061	25.05889
1061.418	23.05667
1061.774	26.06549
1062.131	26.07015
1062.487	52.12408
1062.843	-21.05328
1063.199	38.09671
1063.555	38.09095
1063.911	4.01019
1064.267	51.10818
1064.623	2.00499
1064.979	39.09354
1065.335	55.13207
1065.691	-18.04412
1066.046	-25.05553
1066.402	58.13622
1066.757	-24.06168
1067.112	25.0619
1067.468	49.12136
1067.823	56.13735
1068.178	19.04651
1068.533	56.13786
1068.888	42.10145
1069.243	40.10006
1069.598	33.08182
1069.952	80.18517
1070.307	43.10972
1070.662	-34.08302
1071.016	33.07607
1071.371	37.08573
1071.725	23.0559
1072.079	47.11389
1072.434	48.11921
1072.788	57.13848
1073.142	38.09534
1073.496	17.04119
1073.85	11.02587
1074.203	98.2432
1074.557	22.05939
1074.911	32.07674
1075.265	23.05462
1075.618	38.09324
1075.971	34.08231
1076.325	20.05187
1076.678	-6.01436
1077.031	62.14402
1077.385	74.16761
1077.738	64.14796
1078.091	37.08692
1078.444	22.05225
1078.796	-22.05508
1079.149	8.02018
1079.502	25.06156
1079.855	35.08404
1080.207	34.08499
1080.56	0
1080.912	16.03946
1081.264	44.10776
1081.617	58.1452
1081.969	34.08805
1082.321	17.04209
1082.673	33.07818
1083.025	70.16907
1083.377	-184.4269
1083.728	18.04259
1084.08	43.10848
1084.432	52.12787
1084.783	53.12562
1085.135	42.10696
1085.486	41.09759
1085.838	50.12531
1086.189	13.03203
1086.54	0
1086.891	47.12128
1087.242	20.04918
1087.593	28.06911
1087.944	15.03453
1088.295	31.07202
1088.646	79.19487
1088.996	-12.02965
1089.347	36.08983
1089.698	33.08008
1090.048	20.0519
1090.398	45.10534
1090.749	40.0976
1091.099	85.22009
1091.449	29.07335
1091.799	60.15226
1092.149	66.16677
1092.499	20.04962
1092.849	51.13205
1093.199	15.03784
1093.548	23.05684
1093.898	45.11434
1094.248	9.0234
1094.597	13.03441
1094.947	18.04847
1095.296	0
1095.645	29.07623
1095.994	29.07048
1096.343	25.06381
1096.692	108.29185
1097.041	-10.02734
1097.39	53.13609
1097.739	2.00528
1098.088	76.20437
1098.437	23.06162
1098.785	9.02433
1099.134	10.02679
1099.482	40.11099
1099.83	14.03698
1100.179	44.11747
1100.527	25.06689
1100.875	25.06698
1101.223	19.05097
1101.571	27.0754
1101.919	35.09401
1102.267	3.00853
1102.615	13.0419
1102.962	13.04181
1103.31	10.0322
1103.658	22.07088
