Data from N2 R0 60C sample8_Subt2__5__11-44-18-175.txt Node

Date: Tue Aug 19 11:44:18 PDT 2025
User: uwsun
Spectrometer: HDX01956
Trigger mode: 0
Integration Time (sec): 5.000000E-1
Scans to average: 1
Nonlinearity correction enabled: true
Boxcar width: 0
Storing dark spectrum: false
XAxis mode: Wavelengths
Number of Pixels in Spectrum: 2068
>>>>>Begin Spectral Data<<<<<
194.03	463.26531
194.578	467.43682
195.127	479.45038
195.676	491.4903
196.225	527.34179
196.773	619.61643
197.321	857.16143
197.87	1132.53289
198.418	1109.45967
198.966	1163.62289
199.513	1095.36352
200.061	1068.38093
200.609	1081.48528
201.156	1060.00223
201.704	1098.42073
202.251	1157.66093
202.798	1114.51497
203.345	1138.41312
203.892	1132.45326
204.438	1117.29633
204.985	1241.5015
205.532	1214.71959
206.078	1228.54109
206.624	1200.51169
207.17	1187.33043
207.716	1184.44888
208.262	1202.9467
208.808	1189.53167
209.354	1214.50654
209.899	1139.44393
210.445	1193.54455
210.99	1190.45803
211.535	1201.39983
212.08	1232.43081
212.625	1228.60293
213.17	1187.55456
213.715	1211.32768
214.259	1173.31796
214.804	1209.49787
215.348	1153.22546
215.892	1076.23021
216.436	1219.3632
216.98	1180.21981
217.524	1167.34142
218.068	1156.52219
218.612	1156.4873
219.155	1064.1711
219.698	1136.31511
220.242	1077.32465
220.785	1000.04215
221.328	1079.31216
221.871	1033.26368
222.414	1054.27932
222.956	1071.27045
223.499	1048.04401
224.041	980.00935
224.583	1024.88277
225.126	1022.95612
225.668	1009.13982
226.21	1063.31875
226.751	1008.94505
227.293	1059.11466
227.835	1038.22662
228.376	1054.09255
228.918	1039.29014
229.459	1064.3068
230	979.04375
230.541	1078.17892
231.082	986.0688
231.622	1019.0337
232.163	1075.25429
232.704	1024.20501
233.244	1032.22982
233.784	1043.21296
234.324	1106.11677
234.864	1043.05006
235.404	1000.07616
235.944	1058.15787
236.484	1066.27109
237.023	1080.2157
237.563	1034.07368
238.102	1016.06554
238.641	1052.31544
239.18	1018.09675
239.719	1086.34756
240.258	1045.03575
240.797	1124.31228
241.335	1036.20902
241.874	1122.85015
242.412	1112.3141
242.95	1097.2612
243.488	1080.13435
244.026	1056.09556
244.564	1109.93632
245.102	1063.05722
245.64	1036.1491
246.177	1071.07864
246.715	1136.32553
247.252	1131.20782
247.789	1108.7576
248.326	1096.28982
248.863	1120.11382
249.4	1076.10665
249.936	1119.93544
250.473	1136.26922
251.009	1150.26135
251.546	1142.13032
252.082	1157.13559
252.618	1106.09342
253.154	1121.32719
253.69	1068.05563
254.226	1080.2167
254.761	1117.17735
255.297	1073.00272
255.832	1124.25037
256.367	1162.33084
256.903	1110.04705
257.438	1119.23469
257.972	1120.1426
258.507	1171.29036
259.042	1193.18915
259.576	1179.16337
260.111	1142.2351
260.645	1101.00366
261.179	1137.24982
261.713	1184.23495
262.247	1130.23439
262.781	1190.09278
263.315	1176.45496
263.849	1241.61062
264.382	1194.28452
264.915	1232.44098
265.449	1228.56809
265.982	1193.29409
266.515	1143.35299
267.048	1287.26002
267.58	1188.17722
268.113	1144.10052
268.646	1178.47317
269.178	1163.20213
269.71	1226.23252
270.243	1177.2503
270.775	1204.56417
271.307	1199.41342
271.838	1201.34916
272.37	1246.54869
272.902	1251.34746
273.433	1179.12885
273.965	1266.55253
274.496	1155.40632
275.027	1237.55917
275.558	1291.57995
276.089	1276.62764
276.62	1227.61148
277.15	1206.45684
277.681	1287.29641
278.211	1162.34257
278.741	1258.2979
279.272	1275.38795
279.802	1273.61272
280.332	1255.45155
280.861	1266.52238
281.391	1270.36636
281.921	1234.47662
282.45	1286.65767
282.98	1330.8471
283.509	1287.3493
284.038	1279.39547
284.567	1260.3915
285.096	1358.66868
285.625	1254.37319
286.153	1278.44331
286.682	1284.4125
287.21	1302.57991
287.739	1365.62566
288.267	1345.6474
288.795	1296.76368
289.323	1365.61692
289.851	1404.65147
290.378	1386.49467
290.906	1348.6675
291.433	1320.67
291.961	1398.52145
292.488	1364.7329
293.015	1401.66563
293.542	1392.86667
294.069	1383.716
294.596	1366.71067
295.122	1452.7384
295.649	1440.47574
296.175	1491.87541
296.702	1385.68448
297.228	1400.70658
297.754	1515.68865
298.28	1433.58289
298.806	1469.77793
299.332	1496.59295
299.857	1467.58838
300.383	1466.9268
300.908	1435.7816
301.433	1442.75371
301.958	1498.65901
302.483	1526.97854
303.008	1463.85469
303.533	1455.98252
304.058	1508.77013
304.582	1514.79636
305.107	1532.15789
305.631	1550.67726
306.155	1574.81747
306.679	1565.77215
307.203	1577.8064
307.727	1573.85068
308.251	1640.06462
308.775	1557.8697
309.298	1677.06178
309.822	1656.17136
310.345	1774.10275
310.868	1706.01847
311.391	1734.14205
311.914	1740.24439
312.437	1805.95452
312.96	1697.95971
313.482	1777.04956
314.005	1740.24754
314.527	1766.45953
315.049	1809.28608
315.571	1812.93605
316.093	1871.33354
316.615	1841.21169
317.137	1862.83537
317.659	1928.32571
318.18	1892.18153
318.702	1907.06965
319.223	1953.77371
319.744	1862.95805
320.265	1942.30999
320.786	2018.47515
321.307	2012.46472
321.828	2057.14658
322.348	2054.30128
322.869	2092.37625
323.389	1831.72278
323.909	2140.20142
324.43	2172.38615
324.95	2186.2448
325.47	2116.4588
325.989	2246.39297
326.509	2253.14315
327.029	2380.23427
327.548	2340.2347
328.067	2375.61412
328.587	2349.67471
329.106	2349.19582
329.625	2337.89901
330.144	2448.42689
330.662	2365.30203
331.181	2446.43457
331.7	2529.50601
332.218	2590.17878
332.736	2621.51275
333.255	2572.44991
333.773	2677.53412
334.291	2654.76894
334.808	2781.35809
335.326	2871.38574
335.844	2906.55382
336.361	2814.96882
336.879	2897.61326
337.396	2909.68257
337.913	2961.43375
338.43	3066.34466
338.947	3042.57371
339.464	3079.10986
339.981	3129.61136
340.497	3068.75304
341.014	3157.77795
341.53	3080.25479
342.046	3291.73296
342.562	3208.88728
343.078	3241.55078
343.594	3329.58831
344.11	3340.52054
344.626	3483.90691
345.141	3431.26486
345.657	3419.20952
346.172	3420.62049
346.687	3572.35605
347.202	3520.20507
347.717	3716.50671
348.232	3675.77637
348.747	3740.28263
349.261	3704.04378
349.776	3822.35564
350.29	3897.69689
350.805	3976.70481
351.319	3901.31214
351.833	3818.08125
352.347	3913.2731
352.861	3925.20256
353.374	3951.07512
353.888	3963.43865
354.401	4053.09946
354.915	4073.96938
355.428	4143.51631
355.941	4285.09573
356.454	4285.79107
356.967	4170.13033
357.48	4279.91017
357.993	4237.39943
358.505	4257.31195
359.018	4458.23424
359.53	4459.20632
360.042	4542.57255
360.554	4523.09094
361.066	4536.19992
361.578	4478.46685
362.09	4456.99321
362.602	4603.49228
363.113	4620.85406
363.625	4688.57876
364.136	4771.37148
364.647	4832.80829
365.158	4879.59812
365.669	5035.69928
366.18	4970.62432
366.691	4975.26152
367.201	4982.75984
367.712	5106.40116
368.222	5039.43304
368.733	5142.19678
369.243	5271.1375
369.753	5392.3826
370.263	5541.45583
370.773	5446.55497
371.282	5604.30394
371.792	5915.13361
372.301	5920.28528
372.811	5899.70509
373.32	5903.55091
373.829	6132.03019
374.338	6493.53993
374.847	6666.74501
375.356	6843.844
375.865	6894.29595
376.373	7430.71373
376.882	7529.17744
377.39	7595.99292
377.898	7881.24433
378.407	8203.19921
378.915	8563.59379
379.423	9002.43847
379.93	9269.95212
380.438	9695.95719
380.946	10135.24752
381.453	10569.71884
381.96	11037.67041
382.468	11926.0945
382.975	12475.35854
383.482	12710.76802
383.989	12934.98309
384.495	13589.08118
385.002	14139.93497
385.509	15021.61441
386.015	15964.98221
386.521	16725.47985
387.028	17244.42081
387.534	17948.32389
388.04	18585.25029
388.546	18861.36161
389.051	20100.75218
389.557	21860.42447
390.063	23327.92939
390.568	23875.1656
391.073	24907.26173
391.578	26121.07005
392.084	26448.97913
392.589	27688.83177
393.093	29770.60356
393.598	32723.7014
394.103	35641.60762
394.607	38563.3099
395.112	41577.95015
395.616	44056.22796
396.12	48043.21953
396.624	52972.44681
397.128	57415.0456
397.632	60999.05284
398.136	61523.39623
398.639	61850.40973
399.143	61679.31033
399.646	61269.15804
400.15	60904.11498
400.653	60560.14334
401.156	60136.25446
401.659	59550.50961
402.162	58431.12733
402.664	54480.21957
403.167	49329.08451
403.67	22278.45323
404.172	2696.20453
404.674	0
405.176	0
405.678	0
406.18	0
406.682	0
407.184	0
407.686	25783.58453
408.187	43316.52985
408.688	51225.60928
409.19	54389.01922
409.691	56215.4214
410.192	57270.57019
410.693	57845.40442
411.194	58219.2365
411.694	58633.01717
412.195	59215.68848
412.696	59364.60701
413.196	59341.61941
413.696	59632.46864
414.196	59367.6054
414.696	59763.40624
415.196	59913.34014
415.696	60584.13941
416.196	61381.18813
416.695	61808.38326
417.195	62018.52935
417.694	61837.40139
418.194	62001.51623
418.693	60110.6629
419.192	58548.07797
419.691	57777.80772
420.19	56019.2519
420.688	54684.97702
421.187	52315.79566
421.685	48561.39488
422.184	43841.94298
422.682	37767.00704
423.18	32647.83927
423.678	29583.6406
424.176	27561.13978
424.674	25906.83532
425.172	24617.14999
425.669	23026.89882
426.167	21422.50227
426.664	19492.69629
427.161	18065.21981
427.659	16766.93588
428.156	15552.7243
428.652	14670.37449
429.149	14227.99693
429.646	13636.11256
430.143	12858.21302
430.639	12302.56569
431.135	11507.6608
431.632	10835.01132
432.128	10247.61489
432.624	9702.96938
433.12	9313.05206
433.616	9134.65426
434.111	8839.13315
434.607	8580.77213
435.103	8349.21811
435.598	8012.79607
436.093	7584.80833
436.588	7222.41337
437.083	6905.42539
437.578	6551.61029
438.073	6373.1828
438.568	6106.06501
439.062	5954.42982
439.557	5740.03184
440.051	5596.84597
440.546	5458.9898
441.04	5371.4328
441.534	5234.9106
442.028	5071.51605
442.522	4969.62488
443.015	4841.1371
443.509	4956.78986
444.002	4737.92843
444.496	4702.29563
444.989	4672.88559
445.482	4641.08564
445.975	4596.636
446.468	4506.26741
446.961	4357.41691
447.454	4282.63781
447.947	4319.02851
448.439	4198.03809
448.931	4308.7417
449.424	4104.39576
449.916	4219.20754
450.408	4147.78021
450.9	4056.31021
451.392	3923.54419
451.884	3816.99832
452.375	3764.62608
452.867	3827.89731
453.358	3738.03961
453.849	3625.69249
454.341	3648.01189
454.832	3586.79612
455.323	3588.4948
455.814	3504.18535
456.304	3536.15233
456.795	3488.16834
457.285	3396.94162
457.776	3332.10162
458.266	3310.39879
458.756	3205.40467
459.247	3184.46548
459.737	3075.51126
460.226	3160.16967
460.716	3100.52585
461.206	2918.51138
461.695	2913.65388
462.185	2907.33069
462.674	2968.34413
463.163	2877.03361
463.653	2887.91737
464.142	2743.52101
464.63	2794.61931
465.119	2697.27324
465.608	2711.33429
466.096	2619.00749
466.585	2582.2555
467.073	2536.38022
467.561	2541.41647
468.05	2488.267
468.538	2463.5071
469.026	2345.35257
469.513	2419.19671
470.001	2349.1029
470.489	2363.35852
470.976	2295.19746
471.463	2162.41618
471.951	2111.38205
472.438	2136.16527
472.925	1995.05546
473.412	2039.24511
473.899	2008.96727
474.385	1945.19412
474.872	1971.11434
475.359	1891.18916
475.845	1886.60975
476.331	1857.62175
476.817	1796.04444
477.303	1702.81726
477.789	1743.98068
478.275	1691.02467
478.761	1666.93169
479.247	1739.77994
479.732	1671.05684
480.218	1560.06225
480.703	1597.95678
481.188	1559.45034
481.673	1499.59205
482.158	1471.40753
482.643	1503.87119
483.128	1378.45509
483.612	1412.54295
484.097	1400.62344
484.581	1347.43095
485.066	1366.62571
485.55	1351.33728
486.034	1290.17786
486.518	1352.52952
487.002	1240.51027
487.486	1256.4771
487.969	1314.58929
488.453	1178.41702
488.936	1211.24779
489.42	1163.08922
489.903	1147.37491
490.386	1117.48764
490.869	1109.99621
491.352	1129.28268
491.835	1086.8747
492.318	1160.22357
492.8	1155.98422
493.283	1057.30856
493.765	1046.20061
494.247	1002.9971
494.73	995.89109
495.212	1017.09235
495.694	981.98004
496.175	1023.10753
496.657	974.99056
497.139	980.47133
497.62	919.9242
498.102	915.99491
498.583	902.97692
499.064	945.87685
499.545	852.73947
500.026	901.79102
500.507	889.83024
500.988	891.96875
501.469	896.99911
501.949	783.75522
502.43	854.82773
502.91	809.53332
503.39	802.78715
503.87	832.77833
504.35	824.72935
504.83	836.65743
505.31	777.69752
505.79	753.66236
506.269	816.73059
506.749	759.58407
507.228	740.60677
507.707	788.58759
508.187	773.65179
508.666	728.6529
509.145	782.68219
509.623	708.52224
510.102	710.58792
510.581	715.56593
511.059	704.63252
511.538	725.7067
512.016	751.66347
512.494	707.58672
512.972	688.51466
513.45	701.52493
513.928	759.70836
514.406	726.64037
514.884	690.64657
515.361	763.68305
515.839	676.44839
516.316	701.57067
516.793	688.60922
517.27	659.46924
517.747	679.62001
518.224	680.47952
518.701	700.47728
519.178	596.38573
519.654	618.37803
520.131	638.47005
520.607	577.34757
521.083	625.35196
521.56	650.45781
522.036	630.31427
522.512	624.42005
522.987	580.31876
523.463	635.43375
523.939	616.41988
524.414	613.33444
524.89	631.40791
525.365	654.40422
525.84	574.32351
526.315	638.45487
526.79	604.29841
527.265	668.45154
527.74	617.41457
528.215	570.29338
528.689	583.24218
529.164	540.12725
529.638	662.59356
530.112	607.36992
530.587	598.23085
531.061	580.33682
531.534	556.27126
532.008	550.27364
532.482	567.22321
532.956	521.26973
533.429	613.40033
533.903	534.13196
534.376	545.15708
534.849	565.25738
535.322	568.28154
535.795	523.22514
536.268	518.18901
536.741	542.2417
537.213	617.3477
537.686	600.39394
538.158	523.13104
538.631	557.27891
539.103	512.12631
539.575	544.08384
540.047	599.25145
540.519	578.31951
540.991	582.34517
541.463	560.29529
541.934	530.17378
542.406	637.43769
542.877	574.2571
543.348	645.46404
543.82	557.28911
544.291	550.22319
544.762	566.27754
545.233	610.44502
545.703	619.30586
546.174	573.27573
546.645	652.47726
547.115	697.57769
547.585	646.39595
548.056	728.6529
548.526	738.62889
548.996	718.58868
549.466	753.67412
549.935	744.63325
550.405	749.52033
550.875	788.70236
551.344	805.76908
551.814	823.73142
552.283	802.56552
552.752	897.88142
553.221	856.72949
553.69	881.74229
554.159	948.08119
554.628	931.86445
555.096	910.08008
555.565	896.80874
556.033	817.74362
556.502	817.79922
556.97	816.64934
557.438	772.67488
557.906	811.74648
558.374	751.59436
558.842	733.6128
559.31	768.58835
559.777	681.5352
560.245	769.66872
560.712	806.71976
561.18	815.68302
561.647	778.60619
562.114	783.64792
562.581	844.8738
563.048	830.74348
563.514	853.89339
563.981	857.76667
564.448	905.82734
564.914	962.98639
565.381	900.83424
565.847	1004.06879
566.313	1007.06249
566.779	1019.97615
567.245	1056.15087
567.711	1079.24585
568.176	1103.13785
568.642	1131.43297
569.108	1160.43323
569.573	1224.4453
570.038	1250.21472
570.504	1214.25949
570.969	1300.72111
571.434	1365.47975
571.899	1392.69489
572.363	1377.53305
572.828	1459.62464
573.293	1517.72117
573.757	1507.68123
574.222	1506.67875
574.686	1539.74403
575.15	1563.88791
575.614	1600.80909
576.078	1758.07774
576.542	1666.85183
577.006	1623.77993
577.469	1705.15489
577.933	1683.88646
578.396	1631.91927
578.86	1680.9808
579.323	1664.05076
579.786	1647.67284
580.249	1652.90392
580.712	1654.06386
581.175	1635.08124
581.637	1571.73154
582.1	1625.71586
582.563	1592.57779
583.025	1580.96904
583.487	1524.39824
583.95	1569.64426
584.412	1542.51004
584.874	1444.76414
585.336	1417.68709
585.797	1395.41633
586.259	1425.68278
586.721	1342.56475
587.182	1368.55454
587.643	1349.48383
588.105	1314.56883
588.566	1237.13914
589.027	1218.48355
589.488	1221.33575
589.949	1214.46537
590.41	1203.97397
590.87	1164.21738
591.331	1181.12167
591.791	1169.32292
592.252	1119.22031
592.712	1097.25214
593.172	1056.09362
593.632	1169.1878
594.092	1083.09701
594.552	1089.03267
595.011	1107.19239
595.471	1048.01416
595.931	989.94157
596.39	1074.25366
596.849	1055.14544
597.308	1028.95722
597.768	1052.35486
598.227	1016.11223
598.685	1003.9894
599.144	996.04953
599.603	1049.17948
600.062	1030.92884
600.52	1067.07478
600.978	1066.17421
601.437	1036.04246
601.895	1065.951
602.353	1078.05117
602.811	1109.14951
603.269	1086.26093
603.727	1152.37418
604.184	1137.22269
604.642	1096.32299
605.099	1187.31519
605.557	1178.43538
606.014	1224.25126
606.471	1258.64007
606.928	1325.38626
607.385	1412.83177
607.842	1409.55101
608.299	1487.75241
608.755	1383.70841
609.212	1368.44343
609.668	1424.54909
610.125	1527.88097
610.581	1511.77911
611.037	1440.59752
611.493	1398.64011
611.949	1426.84294
612.405	1456.28376
612.861	1413.64722
613.316	1429.73731
613.772	1473.69151
614.227	1445.74429
614.683	1467.45265
615.138	1354.57783
615.593	1451.6829
616.048	1439.58588
616.503	1470.8422
616.958	1513.00909
617.412	1500.77861
617.867	1500.59311
618.321	1495.40532
618.776	1516.61681
619.23	1433.66519
619.684	1457.59318
620.138	1499.69964
620.592	1443.80373
621.046	1421.63502
621.5	1449.8379
621.954	1418.53701
622.407	1418.50474
622.861	1397.72694
623.314	1376.50421
623.768	1324.5242
624.221	1376.18204
624.674	1292.43939
625.127	1277.45016
625.58	1308.41945
626.033	1286.28934
626.485	1217.44413
626.938	1239.44522
627.39	1213.37268
627.843	1207.33768
628.295	1139.21406
628.747	1163.33552
629.199	1122.17321
629.651	1086.13126
630.103	1068.12825
630.555	983.81943
631.006	1008.05944
631.458	974.03195
631.909	934.87606
632.361	908.89154
632.812	985.01101
633.263	904.72993
633.714	859.64171
634.165	880.93597
634.616	828.79872
635.067	787.57505
635.518	800.73198
635.968	805.45827
636.419	805.59106
636.869	790.70014
637.319	757.60641
637.769	706.48149
638.219	710.53831
638.669	714.5772
639.119	747.68545
639.569	650.46258
640.019	681.45503
640.468	624.31153
640.918	624.39715
641.367	648.36323
641.816	644.36431
642.265	622.35091
642.714	603.3132
643.163	637.39672
643.612	639.47791
644.061	651.33019
644.51	686.49321
644.958	611.27599
645.406	599.36228
645.855	597.38888
646.303	593.30886
646.751	572.26114
647.199	570.23625
647.647	581.27432
648.095	636.39481
648.543	587.15312
648.99	583.31034
649.438	586.30875
649.885	585.37482
650.333	612.14326
650.78	562.31328
651.227	609.42405
651.674	559.21365
652.121	576.32654
652.568	583.35468
653.015	544.29943
653.461	536.22449
653.908	588.30674
654.354	539.22221
654.801	529.19853
655.247	587.23555
655.693	565.40617
656.139	583.33441
656.585	482.11244
657.031	532.20607
657.477	514.0876
657.922	538.19993
658.368	530.25147
658.813	470.04847
659.259	536.24069
659.704	451.02155
660.149	508.15764
660.594	545.24483
661.039	466.03696
661.484	511.16426
661.929	491.11006
662.373	530.2996
662.818	509.22614
663.262	484.13078
663.707	493.2023
664.151	468.10999
664.595	388.91857
665.039	489.17567
665.483	447.10814
665.927	472.07418
666.371	432.99102
666.814	443.02977
667.258	466.09674
667.701	436.92176
668.145	430.04161
668.588	457.08282
669.031	458.06743
669.474	454.06389
669.917	425.92229
670.36	502.20766
670.803	441.02431
671.245	429.89842
671.688	400.94989
672.13	429.95473
672.573	396.97141
673.015	427.00889
673.457	424.91443
673.899	394.93025
674.341	441.03801
674.783	407.95814
675.225	369.8896
675.666	431.03053
676.108	352.7634
676.549	425.98102
676.991	402.89224
677.432	490.98372
677.873	353.80806
678.314	400.94294
678.755	430.02128
679.196	368.84052
679.637	397.9444
680.078	362.83248
680.518	414.94175
680.959	419.99366
681.399	436.05775
681.839	378.90457
682.28	377.91814
682.72	418.94777
683.16	385.93202
683.6	390.86921
684.039	384.79476
684.479	376.91315
684.919	454.03731
685.358	378.93858
685.798	410.04334
686.237	400.94843
686.676	415.93046
687.115	391.89969
687.554	413.95485
687.993	413.89396
688.432	388.87691
688.871	440.9867
689.309	358.84265
689.748	368.75312
690.186	419.96641
690.625	377.86506
691.063	383.90656
691.501	377.90338
691.939	389.94311
692.377	379.90333
692.815	385.90707
693.253	430.00245
693.69	409.88984
694.128	440.04106
694.565	390.90723
695.003	414.01703
695.44	429.98513
695.877	418.96659
696.314	416.86869
696.751	425.93367
697.188	437.97897
697.625	440.9721
698.061	475.10125
698.498	432.00277
698.934	434.01694
699.371	435.00159
699.807	421.96676
700.243	439.02808
700.679	417.92533
701.115	427.96719
701.551	428.97831
701.987	488.06129
702.422	437.0142
702.858	432.99142
703.294	434.95163
703.729	456.07608
704.164	442.03128
704.599	434.94362
705.035	469.03308
705.47	481.14372
705.904	470.07264
706.339	384.85336
706.774	437.99425
707.209	392.89172
707.643	419.98292
708.078	407.98192
708.512	413.01214
708.946	362.84079
709.38	386.89156
709.814	405.89946
710.248	412.96708
710.682	439.01443
711.116	431.01206
711.549	380.94698
711.983	375.85427
712.416	445.01365
712.85	421.01843
713.283	450.03434
713.716	376.91315
714.149	417.95452
714.582	467.02307
715.015	398.95278
715.448	389.94983
715.881	410.86452
716.313	455.03062
716.746	411.95098
717.178	411.95965
717.61	352.86192
718.043	365.88262
718.475	375.88077
718.907	407.99081
719.339	417.93187
719.77	369.86432
720.202	351.86536
720.634	390.93968
721.065	413.95598
721.497	394.93997
721.928	361.8746
722.359	383.9209
722.79	367.87943
723.221	331.81156
723.652	333.82763
724.083	345.78245
724.514	365.8278
724.945	367.85156
725.375	372.86776
725.806	372.89429
726.236	338.84143
726.666	326.76347
727.096	364.87739
727.526	341.85059
727.956	330.74403
728.386	343.82506
728.816	284.71089
729.246	379.91232
729.675	323.79049
730.105	287.68856
730.534	311.72165
730.964	298.7346
731.393	279.67547
731.822	357.88791
732.251	289.71961
732.68	295.68155
733.109	299.72415
733.537	320.76464
733.966	350.86083
734.395	317.7245
734.823	255.56966
735.251	295.71097
735.68	334.81755
736.108	262.65299
736.536	288.67053
736.964	287.66623
737.392	255.63359
737.82	287.68358
738.247	302.71115
738.675	296.6954
739.102	294.7298
739.53	272.68773
739.957	292.74222
740.384	320.76377
740.811	266.66199
741.238	258.62757
741.665	212.49399
742.092	279.66096
742.519	231.57208
742.945	314.74486
743.372	243.60267
743.798	280.71047
744.225	228.54422
744.651	199.50004
745.077	235.5839
745.503	278.66963
745.929	219.52664
746.355	251.6166
746.781	249.61326
747.207	268.63968
747.632	273.67212
748.058	253.62747
748.483	264.60933
748.908	200.49704
749.334	260.6374
749.759	175.41428
750.184	201.48665
750.609	261.6395
751.033	271.63382
751.458	247.55452
751.883	206.5099
752.307	242.57497
752.732	193.4914
753.156	210.52531
753.58	261.62023
754.005	184.46426
754.429	193.46148
754.853	218.53979
755.277	206.48587
755.7	197.49181
756.124	195.48717
756.548	168.40806
756.971	192.46478
757.394	200.51684
757.818	193.49486
758.241	218.552
758.664	200.50895
759.087	229.52171
759.51	188.46722
759.933	198.48363
760.356	146.37534
760.778	252.62442
761.201	138.34109
761.623	189.4564
762.046	186.44466
762.468	167.39794
762.89	208.50975
763.312	223.54985
763.734	161.39231
764.156	198.49063
764.578	179.42113
765	176.43469
765.421	154.39632
765.843	184.47928
766.264	158.38536
766.686	134.33666
767.107	144.35265
767.528	149.38259
767.949	156.39979
768.37	135.33141
768.791	162.39673
769.212	153.39052
769.632	134.32121
770.053	140.37128
770.473	163.40014
770.894	92.23239
771.314	133.3179
771.734	137.32733
772.154	103.26531
772.575	144.33727
772.994	129.30066
773.414	153.37003
773.834	134.3398
774.254	181.45105
774.673	136.33417
775.093	117.29443
775.512	89.22308
775.931	84.21663
776.351	108.27251
776.77	98.24533
777.189	100.2429
777.607	102.26424
778.026	122.31003
778.445	82.21111
778.864	101.26179
779.282	132.32351
779.701	80.20424
780.119	120.31397
780.537	101.2578
780.955	86.21963
781.373	117.29274
781.791	100.23146
782.209	86.20198
782.627	128.3433
783.045	112.26612
783.462	131.33919
783.88	73.19234
784.297	94.24116
784.715	91.23863
785.132	111.27602
785.549	92.2357
785.966	119.30268
786.383	96.24076
786.8	109.25904
787.217	83.20217
787.633	119.30214
788.05	85.20379
788.466	62.14647
788.883	67.17384
789.299	93.22814
789.715	94.2343
790.131	88.22466
790.547	74.18646
790.963	97.24611
791.379	69.1781
791.795	93.21624
792.21	39.09354
792.626	45.10916
793.041	85.21536
793.457	93.23496
793.872	50.12063
794.287	56.13821
794.702	58.14525
795.117	60.15345
795.532	81.20806
795.947	75.18357
796.362	109.26441
796.776	70.16479
797.191	93.23261
797.605	66.16272
798.02	61.15174
798.434	21.04788
798.848	92.23231
799.262	106.26966
799.676	82.20171
800.09	130.32814
800.504	39.09645
800.918	75.17995
801.331	32.08438
801.745	50.1183
802.158	64.16328
802.572	94.22893
802.985	75.18371
803.398	70.17048
803.811	63.16166
804.224	24.06052
804.637	61.15003
805.05	23.05458
805.462	99.24564
805.875	42.11146
806.288	92.22815
806.7	80.2046
807.112	26.06145
807.525	59.14805
807.937	36.09107
808.349	63.16047
808.761	28.0707
809.173	63.15552
809.584	68.16974
809.996	44.11091
810.408	57.15048
810.819	163.389
811.231	175.4609
811.642	298.71752
812.053	335.79849
812.464	278.65897
812.875	182.46364
813.286	127.32963
813.697	125.29466
814.108	73.181
814.519	62.14094
814.929	86.2211
815.34	110.27418
815.75	31.08096
816.16	56.14166
816.571	43.11253
816.981	64.15341
817.391	102.25137
817.801	130.33001
818.211	1.00242
818.62	96.23746
819.03	53.13203
819.44	86.22517
819.849	40.10198
820.259	4.01037
820.668	90.2262
821.077	74.18885
821.486	92.22364
821.895	70.17372
822.304	57.15306
822.713	67.16284
823.122	60.15259
823.531	89.21655
823.939	61.15241
824.348	115.28409
824.756	100.25422
825.164	70.17732
825.573	95.24538
825.981	69.17327
826.389	89.22717
826.797	5.01272
827.205	57.13551
827.612	106.26555
828.02	89.21411
828.428	101.2607
828.835	53.1418
829.243	132.32026
829.65	81.20464
830.057	85.2106
830.464	64.15871
830.871	67.16314
831.278	43.1058
831.685	45.10381
832.092	101.25188
832.499	82.18323
832.905	59.15134
833.312	105.24405
833.718	90.22717
834.124	20.04692
834.531	48.12263
834.937	18.04644
835.343	76.18709
835.749	44.10354
836.155	79.20828
836.561	56.14135
836.966	79.19609
837.372	76.19593
837.777	87.22129
838.183	63.14226
838.588	10.02518
838.993	53.13112
839.399	63.15695
839.804	26.06504
840.209	62.16217
840.613	33.07597
841.018	58.14813
841.423	36.09381
841.828	54.13989
842.232	80.1994
842.637	101.24289
843.041	58.15222
843.445	52.1329
843.849	39.09821
844.253	69.16732
844.657	59.15208
845.061	88.20466
845.465	34.08435
845.869	112.26458
846.272	70.17454
846.676	30.07358
847.079	67.1748
847.483	56.1407
847.886	49.11922
848.289	32.08698
848.692	57.14657
849.095	94.23021
849.498	29.07389
849.901	79.18347
850.304	34.08373
850.707	13.03364
851.109	37.09418
851.512	92.23089
851.914	71.18498
852.316	26.06631
852.718	15.03983
853.121	106.26267
853.523	110.26398
853.925	80.21252
854.326	28.07116
854.728	90.235
855.13	15.03995
855.531	52.12881
855.933	35.08468
856.334	54.13757
856.736	28.06522
857.137	16.03825
857.538	81.20821
857.939	37.09451
858.34	57.14112
858.741	35.09281
859.142	71.17391
859.542	64.17165
859.943	41.10369
860.343	56.14146
860.744	101.24776
861.144	3.00743
861.544	39.09723
861.945	75.1956
862.345	36.08957
862.745	92.23405
863.145	98.23527
863.544	70.17883
863.944	53.12659
864.344	63.15837
864.743	37.09271
865.143	71.18473
865.542	36.0861
865.941	75.18982
866.34	70.16984
866.74	32.0867
867.139	73.17994
867.537	48.12379
867.936	32.07924
868.335	67.173
868.734	123.31979
869.132	105.24934
869.531	21.05129
869.929	55.13031
870.327	71.17436
870.726	38.0953
871.124	66.15821
871.522	45.11676
871.92	75.1884
872.318	69.17108
872.715	85.20959
873.113	80.19926
873.511	131.33178
873.908	52.1356
874.306	99.25127
874.703	36.09136
875.1	58.14979
875.497	60.14825
875.894	85.21383
876.291	57.14174
876.688	77.20335
877.085	59.14296
877.482	43.10926
877.878	66.16242
878.275	45.117
878.671	124.27891
879.068	75.18351
879.464	59.14495
879.86	13.03157
880.256	33.0829
880.652	68.17543
881.048	41.10277
881.444	51.12218
881.84	85.21765
882.236	24.06136
882.631	66.16642
883.027	25.06135
883.422	35.09084
883.817	93.24072
884.213	101.26224
884.608	30.07591
885.003	47.11679
885.398	105.26848
885.793	30.07662
886.188	69.17656
886.582	39.10014
886.977	55.13332
887.371	-27.06928
887.766	29.07423
888.16	52.13159
888.554	42.10457
888.949	75.18921
889.343	37.0915
889.737	63.17204
890.131	32.08112
890.525	44.11411
890.918	28.07121
891.312	23.05548
891.706	16.04204
892.099	45.11482
892.492	59.13137
892.886	22.05478
893.279	54.14038
893.672	-36.09288
894.065	23.05854
894.458	66.1698
894.851	83.20504
895.244	30.0778
895.637	49.12096
896.029	59.14623
896.422	3.00749
896.814	21.05319
897.206	34.08296
897.599	65.16116
897.991	-10.02476
898.383	66.16098
898.775	43.09943
899.167	25.06055
899.559	29.07444
899.951	44.10571
900.342	36.09213
900.734	23.05933
901.125	65.17201
901.517	77.19273
901.908	42.10206
902.299	102.25618
902.69	60.14514
903.082	43.10599
903.473	43.10638
903.863	45.1166
904.254	76.18155
904.645	57.1438
905.036	41.1021
905.426	52.1206
905.817	31.0781
906.207	82.2003
906.597	33.07843
906.987	61.15996
907.378	25.0639
907.768	31.08332
908.158	58.14373
908.547	50.13167
908.937	25.06462
909.327	61.15158
909.717	14.03594
910.106	58.14146
910.495	61.15444
910.885	78.2006
911.274	58.14698
911.663	46.11715
912.052	32.0797
912.441	40.10262
912.83	80.18818
913.219	55.14481
913.608	26.06478
913.997	46.11814
914.385	36.08725
914.774	73.17981
915.162	47.11538
915.55	75.18323
915.939	21.05415
916.327	23.05776
916.715	-12.03134
917.103	47.11666
917.491	66.16361
917.878	32.07898
918.266	28.07284
918.654	62.16162
919.041	50.133
919.429	59.14253
919.816	24.06155
920.203	27.06724
920.591	38.0954
920.978	3.00741
921.365	76.20108
921.752	53.12953
922.139	60.1349
922.525	60.14858
922.912	35.08659
923.299	44.11174
923.685	46.12204
924.072	48.11132
924.458	48.1209
924.844	44.11134
925.231	47.11221
925.617	52.13499
926.003	42.10862
926.389	69.17643
926.774	41.10557
927.16	55.13871
927.546	72.18775
927.931	42.10662
928.317	45.10505
928.702	54.12885
929.088	66.16019
929.473	39.10053
929.858	45.11202
930.243	66.1617
930.628	70.17518
931.013	38.0963
931.398	69.16012
931.783	29.07682
932.167	74.18545
932.552	38.09578
932.937	55.13791
933.321	35.08984
933.705	50.1285
934.09	52.13149
934.474	38.09178
934.858	53.13908
935.242	36.086
935.626	45.11784
936.009	-15.04021
936.393	39.10049
936.777	35.09125
937.16	18.04735
937.544	43.10258
937.927	48.12469
938.311	37.09144
938.694	37.09837
939.077	59.14382
939.46	20.04878
939.843	110.23654
940.226	63.16352
940.609	120.28381
940.991	58.14979
941.374	41.10247
941.757	20.04998
942.139	109.25265
942.522	44.10495
942.904	71.17327
943.286	34.08702
943.668	80.20925
944.05	48.12055
944.432	79.19952
944.814	12.02988
945.196	32.0808
945.578	91.22414
945.959	29.06985
946.341	25.06112
946.722	19.04561
947.104	38.09303
947.485	0
947.866	83.21476
948.247	48.12181
948.628	40.09825
949.009	72.18749
949.39	60.15069
949.771	67.15892
950.152	54.13577
950.532	64.16201
950.913	26.0641
951.293	27.07425
951.674	87.21752
952.054	77.19571
952.434	41.10318
952.814	47.11414
953.194	44.1156
953.574	49.121
953.954	24.05849
954.334	91.22941
954.714	36.09016
955.093	48.11895
955.473	38.0963
955.853	38.09929
956.232	19.05218
956.611	67.16253
956.99	94.24006
957.37	74.19098
957.749	44.10772
958.128	59.15213
958.506	61.16213
958.885	75.19231
959.264	53.13462
959.643	61.14089
960.021	52.13182
960.4	31.07271
960.778	30.07518
961.156	92.23421
961.535	76.17926
961.913	40.09585
962.291	70.18471
962.669	6.01544
963.047	43.11069
963.424	19.04926
963.802	64.16062
964.18	34.08708
964.557	37.08732
964.935	69.16606
965.312	27.07114
965.69	41.10329
966.067	67.16618
966.444	39.09698
966.821	12.03136
967.198	51.12516
967.575	7.01734
967.952	68.1622
968.329	63.15598
968.705	84.18211
969.082	10.02635
969.458	60.1489
969.835	47.11602
970.211	39.10255
970.587	15.03803
970.963	65.16761
971.339	44.11657
971.715	49.12393
972.091	60.14993
972.467	55.13915
972.843	32.08106
973.219	47.11311
973.594	35.09404
973.97	19.04604
974.345	51.12497
974.721	6.01467
975.096	22.0544
975.471	67.16155
975.846	16.03923
976.221	67.1742
976.596	55.13522
976.971	49.1226
977.346	32.07562
977.72	78.20116
978.095	42.11042
978.469	18.04377
978.844	37.09345
979.218	-4.00985
979.593	25.06099
979.967	30.07448
980.341	31.07291
980.715	64.16385
981.089	46.11553
981.463	97.2299
981.837	67.16715
982.21	42.09918
982.584	55.13547
982.957	37.09474
983.331	93.22272
983.704	-2.00495
984.078	4.01016
984.451	20.05007
984.824	46.1147
985.197	48.11812
985.57	32.08158
985.943	76.18737
986.316	93.22932
986.688	40.09771
987.061	83.19907
987.434	18.04772
987.806	60.14803
988.179	74.1788
988.551	46.11872
988.923	28.07027
989.295	17.04243
989.667	38.09389
990.039	76.19177
990.411	34.0802
990.783	84.19551
991.155	45.11259
991.527	47.11611
991.898	51.12977
992.27	-15.038
992.641	48.12138
993.012	79.18818
993.384	-10.02438
993.755	66.17133
994.126	29.07098
994.497	16.04036
994.868	68.16002
995.239	40.09822
995.61	37.09531
995.98	23.05776
996.351	10.02536
996.722	53.12765
997.092	37.09013
997.462	50.12059
997.833	36.08669
998.203	7.01725
998.573	28.07083
998.943	73.17529
999.313	34.08385
999.683	88.21655
1000.053	51.12055
1000.423	30.07372
1000.792	59.15566
1001.162	16.04004
1001.531	42.10552
1001.901	67.17132
1002.27	42.09633
1002.639	38.09916
1003.009	4.00971
1003.378	-4.01037
1003.747	46.11207
1004.116	47.11517
1004.485	37.08952
1004.853	41.10532
1005.222	21.05349
1005.591	53.12765
1005.959	92.21396
1006.328	46.10647
1006.696	68.16839
1007.064	12.03068
1007.433	74.18599
1007.801	9.02234
1008.169	-22.05638
1008.537	88.19867
1008.905	16.03863
1009.273	18.04487
1009.64	60.14771
1010.008	83.20142
1010.375	-21.05085
1010.743	99.2291
1011.11	74.17901
1011.478	29.07277
1011.845	38.09095
1012.212	69.16063
1012.579	58.14336
1012.946	55.13262
1013.313	41.09856
1013.68	55.12571
1014.047	50.12259
1014.414	47.11406
1014.78	20.05039
1015.147	35.08506
1015.513	39.09606
1015.88	26.0667
1016.246	19.04695
1016.612	14.03252
1016.978	54.13435
1017.344	68.17128
1017.71	3.00736
1018.076	46.10989
1018.442	26.06724
1018.808	67.16975
1019.174	58.14818
1019.539	72.1644
1019.905	17.04115
1020.27	51.12876
1020.636	107.25771
1021.001	47.11397
1021.366	8.01978
1021.731	4.01035
1022.096	63.16154
1022.461	43.10372
1022.826	64.15406
1023.191	15.03985
1023.556	42.10118
1023.92	9.02242
1024.285	50.1239
1024.649	40.09992
1025.014	73.18291
1025.378	33.08459
1025.742	59.14911
1026.107	31.07143
1026.471	13.03062
1026.835	70.17688
1027.199	84.20937
1027.562	44.10439
1027.926	32.07939
1028.29	49.12683
1028.654	33.07785
1029.017	26.06445
1029.381	40.09774
1029.744	-5.01294
1030.107	57.1364
1030.471	29.07011
1030.834	51.11779
1031.197	21.05094
1031.56	36.08626
1031.923	22.0577
1032.286	84.19859
1032.648	75.18303
1033.011	14.03283
1033.374	55.12985
1033.736	14.03757
1034.099	58.14457
1034.461	3.0077
1034.823	7.01775
1035.185	26.06656
1035.548	81.20047
1035.91	35.08557
1036.272	53.12163
1036.634	26.06405
1036.995	82.19694
1037.357	26.06471
1037.719	-9.02218
1038.08	50.11999
1038.442	37.08928
1038.803	38.09251
1039.165	67.17264
1039.526	48.11773
1039.887	34.0833
1040.248	9.02266
1040.609	8.01991
1040.97	54.13475
1041.331	42.10772
1041.692	66.16007
1042.053	54.12583
1042.413	73.17262
1042.774	30.07402
1043.134	64.15493
1043.495	22.05587
1043.855	45.11084
1044.215	66.1666
1044.576	46.11383
1044.936	38.08886
1045.296	73.18351
1045.656	31.07678
1046.016	15.03669
1046.375	22.05406
1046.735	34.07954
1047.095	57.13551
1047.454	52.11259
1047.814	19.04668
1048.173	15.03565
1048.533	33.07722
1048.892	49.12123
1049.251	69.17488
1049.61	31.07762
1049.969	60.14596
1050.328	-16.036
1050.687	13.03224
1051.046	20.04914
1051.405	65.16504
1051.763	42.09926
1052.122	44.1115
1052.48	1.00248
1052.839	25.06021
1053.197	17.04124
1053.555	-35.08003
1053.914	21.05169
1054.272	15.03648
1054.63	31.07801
1054.988	32.07805
1055.345	70.15415
1055.703	51.12409
1056.061	6.01568
1056.419	-3.00791
1056.776	-27.06646
1057.134	62.14641
1057.491	22.05577
1057.848	17.04263
1058.206	58.13898
1058.563	-1.00227
1058.92	21.04887
1059.277	46.11449
1059.634	68.16139
1059.991	53.12896
1060.348	63.14631
1060.704	35.08564
1061.061	42.0986
1061.418	21.05176
1061.774	58.14525
1062.131	25.06746
1062.487	7.01685
1062.843	34.08542
1063.199	37.09418
1063.555	40.0957
1063.911	37.09371
1064.267	75.15826
1064.623	21.05224
1064.979	76.181
1065.335	55.13207
1065.691	46.1114
1066.046	-23.05107
1066.402	63.14782
1066.757	14.03574
1067.112	28.06928
1067.468	72.17757
1067.823	28.06903
1068.178	13.03186
1068.533	20.04956
1068.888	68.16344
1069.243	44.10999
1069.598	24.0596
1069.952	25.0585
1070.307	70.17776
1070.662	-28.06829
1071.016	37.08522
1071.371	-2.00467
1071.725	65.15673
1072.079	13.0317
1072.434	27.06731
1072.788	62.15049
1073.142	63.15735
1073.496	-4.00973
1073.85	9.02117
1074.203	108.26753
1074.557	26.07015
1074.911	40.09577
1075.265	25.05935
1075.618	49.11998
1075.971	19.04613
1076.325	17.04411
1076.678	52.12303
1077.031	39.09101
1077.385	65.14749
1077.738	62.14339
1078.091	30.07057
1078.444	31.0735
1078.796	-29.07269
1079.149	30.07537
1079.502	66.16128
1079.855	65.15519
1080.207	74.18365
1080.56	0
1080.912	23.05665
1081.264	37.09073
1081.617	55.13776
1081.969	71.18269
1082.321	0
1082.673	72.1693
1083.025	29.07059
1083.377	-184.4269
1083.728	60.14081
1084.08	12.03044
1084.432	30.07407
1084.783	40.09504
1085.135	28.07148
1085.486	49.11645
1085.838	39.09793
1086.189	12.02957
1086.54	20.04853
1086.891	53.13662
1087.242	38.09313
1087.593	36.08872
1087.944	-9.02082
1088.295	87.19989
1088.646	61.15097
1088.996	-11.02717
1089.347	34.08487
1089.698	37.08972
1090.048	-14.03654
1090.398	34.07976
1090.749	6.01473
1091.099	72.18685
1091.449	2.00508
1091.799	61.15477
1092.149	63.15928
1092.499	17.0422
1092.849	40.10377
1093.199	19.0479
1093.548	44.10832
1093.898	66.16707
1094.248	5.01301
1094.597	32.08444
1094.947	41.10998
1095.296	26.06502
1095.645	63.16464
1095.994	39.09461
1096.343	49.12455
1096.692	64.17419
1097.041	-6.01639
1097.39	63.16149
1097.739	46.12065
1098.088	71.19109
1098.437	30.08028
1098.785	23.06202
1099.134	53.14096
1099.482	75.20697
1099.83	39.10258
1100.179	12.03221
1100.527	38.10145
1100.875	-14.03775
1101.223	24.06433
1101.571	11.03079
1101.919	23.0619
1102.267	14.03974
1102.615	18.05798
1102.962	13.04181
1103.31	13.04185
1103.658	23.0741
