Data from N2 R0 60C sample10_Subt2__1__11-33-34-190.txt Node

Date: Tue Aug 19 11:33:34 PDT 2025
User: uwsun
Spectrometer: HDX01956
Trigger mode: 0
Integration Time (sec): 5.000000E-1
Scans to average: 1
Nonlinearity correction enabled: true
Boxcar width: 0
Storing dark spectrum: false
XAxis mode: Wavelengths
Number of Pixels in Spectrum: 2068
>>>>>Begin Spectral Data<<<<<
194.03	428.17604
194.578	419.29695
195.127	412.25839
195.676	428.30972
196.225	432.11793
196.773	515.36837
197.321	730.88454
197.87	930.16648
198.418	914.10839
198.966	960.25382
199.513	910.04101
200.061	922.11677
200.609	941.2233
201.156	873.72484
201.704	938.13642
202.251	941.25653
202.798	957.22895
203.345	941.08003
203.892	944.12682
204.438	989.091
204.985	1042.19505
205.532	995.32831
206.078	976.13198
206.624	998.18099
207.17	1021.08182
207.716	993.14047
208.262	996.70521
208.808	1002.21909
209.354	1040.22996
209.899	952.12397
210.445	1009.23691
210.99	1023.19113
211.535	1064.19261
212.08	1027.12239
212.625	1018.25547
213.17	1037.3028
213.715	1039.07847
214.259	1010.07096
214.804	987.13929
215.348	992.98902
215.892	987.08586
216.436	987.01783
216.98	1006.97359
217.524	996.07608
218.068	983.22236
218.612	972.17306
219.155	977.03238
219.698	965.04197
220.242	944.09488
220.785	846.7888
221.328	855.92134
221.871	872.9767
222.414	856.93025
222.956	911.99957
223.499	854.74277
224.041	880.84615
224.583	848.6273
225.126	925.81151
225.668	855.87507
226.21	862.96114
226.751	900.78115
227.293	917.89215
227.835	918.01947
228.376	864.79186
228.918	887.01654
229.459	839.9069
230	842.81211
230.541	894.88376
231.082	841.82195
231.622	829.72801
232.163	898.95743
232.704	870.93631
233.244	898.99698
233.784	843.86732
234.324	900.80853
234.864	853.75213
235.404	887.88901
235.944	840.79853
236.484	919.01957
237.023	889.90308
237.563	886.83834
238.102	892.86559
238.641	919.07843
239.18	869.85066
239.719	916.05113
240.258	935.86989
240.797	950.02981
241.335	948.05946
241.874	901.57551
242.412	944.03691
242.95	910.95516
243.488	954.94175
244.026	921.88599
244.564	962.7438
245.102	959.90292
245.64	910.94177
246.177	949.89617
246.715	958.03901
247.252	894.84342
247.789	994.62743
248.326	932.01697
248.863	968.89539
249.4	942.90343
249.936	951.71726
250.473	934.95348
251.009	986.01261
251.546	938.8383
252.082	965.86685
252.618	939.85021
253.154	979.0959
253.69	947.87646
254.226	919.95549
254.761	1019.03183
255.297	877.71658
255.832	923.93428
256.367	961.01583
256.903	907.75783
257.438	973.00795
257.972	990.95401
258.507	974.99415
259.042	970.87966
259.576	995.91031
260.111	1020.05305
260.645	965.81711
261.179	956.97223
261.713	1000.97285
262.247	1042.1022
262.781	1011.86114
263.315	1034.22561
263.849	1021.25045
264.382	1024.03852
264.915	1084.22093
265.449	1031.24891
265.982	1064.10853
266.515	1001.12559
267.048	998.88441
267.58	1029.9615
268.113	978.87088
268.646	1034.23888
269.178	982.94182
269.71	1053.00009
270.243	1044.05922
270.775	997.21759
271.307	1032.15596
271.838	1038.10748
272.37	1043.23018
272.902	1026.03025
273.433	985.86661
273.965	1031.18936
274.496	1011.17282
275.027	983.14774
275.558	1065.23818
276.089	979.14885
276.62	1064.34381
277.15	1006.1413
277.681	1075.02126
278.211	1026.1321
278.741	1046.01127
279.272	1109.16071
279.802	1031.23002
280.332	1077.19124
280.861	1113.29524
281.391	1024.02252
281.921	1037.17451
282.45	1059.29838
282.98	1055.39094
283.509	1091.08849
284.038	1053.0804
284.567	1056.10235
285.096	1117.31785
285.625	1148.2279
286.153	1059.13023
286.682	1074.12049
287.21	1122.31537
287.739	1158.33662
288.267	1148.36277
288.795	1125.48694
289.323	1162.33511
289.851	1178.3457
290.378	1185.24064
290.906	1177.4209
291.433	1154.42169
291.961	1109.14543
292.488	1170.44779
293.015	1186.37253
293.542	1153.50036
294.069	1162.39907
294.596	1210.48718
295.122	1195.3933
295.649	1193.18369
296.175	1223.50777
296.702	1218.4534
297.228	1257.51191
297.754	1258.37848
298.28	1247.35249
298.806	1256.49667
299.332	1227.27533
299.857	1299.39028
300.383	1257.62934
300.908	1223.48871
301.433	1264.51607
301.958	1291.4121
302.483	1291.65797
303.008	1286.61293
303.533	1287.73684
304.058	1333.55421
304.582	1304.53253
305.107	1319.84823
305.631	1314.40897
306.155	1348.55035
306.679	1335.50311
307.203	1349.5393
307.727	1358.59292
308.251	1390.75583
308.775	1381.65525
309.298	1452.79937
309.822	1409.85729
310.345	1437.73168
310.868	1463.7492
311.391	1427.78431
311.914	1426.86248
312.437	1485.6419
312.96	1546.80083
313.482	1523.7874
314.005	1485.94377
314.527	1531.1621
315.049	1521.96114
315.571	1605.74744
316.093	1597.04132
316.615	1625.99257
317.137	1573.59424
317.659	1661.06256
318.18	1576.87261
318.702	1618.81157
319.223	1643.55283
319.744	1680.80322
320.265	1653.02975
320.786	1694.16134
321.307	1680.1412
321.828	1794.95001
322.348	1800.0934
322.869	1843.17538
323.389	1559.63343
323.909	1791.95066
324.43	1795.09363
324.95	1802.97462
325.47	1809.20113
325.989	1882.13923
326.509	1956.97553
327.029	1877.95121
327.548	1936.00748
328.067	1983.35302
328.587	2009.43881
329.106	1972.99676
329.625	2015.64629
330.144	2102.24915
330.662	1969.07963
331.181	2145.28367
331.7	2153.32464
332.218	2183.04098
332.736	2217.34338
333.255	2219.30167
333.773	2255.37026
334.291	2244.57376
334.808	2345.24284
335.326	2366.26768
335.844	2410.42834
336.361	2457.82999
336.879	2420.48495
337.396	2469.56508
337.913	2473.34494
338.43	2533.28646
338.947	2521.48152
339.464	2533.08296
339.981	2638.55111
340.497	2546.64558
341.014	2677.70982
341.53	2603.22511
342.046	2737.69136
342.562	2745.82662
343.078	2830.54251
343.594	2764.57382
344.11	2793.52049
344.626	2854.8892
345.141	2973.31993
345.657	2984.26657
346.172	2893.63453
346.687	3017.43467
347.202	3039.28428
347.717	3075.60671
348.232	3088.83795
348.747	3103.41261
349.261	3120.18436
349.776	3215.49619
350.29	3276.82431
350.805	3315.85389
351.319	3214.4834
351.833	3301.2315
352.347	3294.44295
352.861	3338.37589
353.374	3433.2485
353.888	3356.60333
354.401	3433.31219
354.915	3488.18697
355.428	3490.7204
355.941	3672.34641
356.454	3543.10213
356.967	3542.36397
357.48	3584.19753
357.993	3692.60418
358.505	3620.55045
359.018	3823.50965
359.53	3843.47695
360.042	3787.9409
360.554	3762.4272
361.066	3907.48594
361.578	3800.80181
362.09	3847.27268
362.602	3833.87833
363.113	4001.16243
363.625	4114.88159
364.136	3999.78048
364.647	4062.20549
365.158	4229.94967
365.669	4110.19004
366.18	4154.06192
366.691	4120.72839
367.201	4165.19432
367.712	4162.91584
368.222	4315.8336
368.733	4394.61569
369.243	4488.57621
369.753	4642.80301
370.263	4715.91631
370.773	4660.99531
371.282	4682.8138
371.792	4919.65629
372.301	5019.76019
372.811	5030.17838
373.32	5076.94553
373.829	5306.42054
374.338	5417.92328
374.847	5658.06484
375.356	5673.18744
375.865	5988.39337
376.373	6240.66636
376.882	6375.19345
377.39	6455.89314
377.898	6730.97616
378.407	6909.45596
378.915	7222.3419
379.423	7471.78076
379.93	7689.70338
380.438	8104.29029
380.946	8567.72179
381.453	8773.04206
381.96	9249.91299
382.468	10025.93133
382.975	10568.77886
383.482	10831.19533
383.989	10811.57041
384.495	11324.36258
385.002	12184.86653
385.509	12704.28181
386.015	13491.40736
386.521	14021.33856
387.028	14575.85041
387.534	15153.27127
388.04	15679.6816
388.546	16003.32946
389.051	16929.10764
389.557	18392.28612
390.063	19638.69158
390.568	20196.02232
391.073	20857.24969
391.578	21696.77889
392.084	22303.62792
392.589	23190.27796
393.093	25091.95154
393.598	27480.12324
394.103	29945.60372
394.607	32768.95935
395.112	35083.7203
395.616	37048.02269
396.12	40222.01056
396.624	44673.62174
397.128	48177.48423
397.632	53520.0367
398.136	57516.01475
398.639	60485.46565
399.143	61096.76637
399.646	61269.15804
400.15	60904.11498
400.653	60560.14334
401.156	60136.25446
401.659	59550.50961
402.162	58431.12733
402.664	54480.21957
403.167	49329.08451
403.67	22278.45323
404.172	2696.20453
404.674	0
405.176	0
405.678	0
406.18	0
406.682	0
407.184	0
407.686	25783.58453
408.187	43316.52985
408.688	51225.60928
409.19	54389.01922
409.691	56215.4214
410.192	57270.57019
410.693	57845.40442
411.194	58219.2365
411.694	58633.01717
412.195	59215.68848
412.696	59364.60701
413.196	59341.61941
413.696	59632.46864
414.196	59367.6054
414.696	59763.40624
415.196	59913.34014
415.696	60584.13941
416.196	61381.18813
416.695	61808.38326
417.195	60791.09782
417.694	57955.06271
418.194	54525.38317
418.693	51586.2753
419.192	49946.19827
419.691	49419.03126
420.19	48243.01959
420.688	46898.98746
421.187	44934.71717
421.685	41875.28323
422.184	37474.8056
422.682	32499.1137
423.18	27791.53573
423.678	25057.4948
424.176	23171.34786
424.674	21923.98484
425.172	20846.93982
425.669	19292.21078
426.167	18362.38199
426.664	16416.7576
427.161	15298.29838
427.659	13969.19323
428.156	13240.90319
428.652	12540.68034
429.149	11953.47547
429.646	11645.37811
430.143	10886.17352
430.639	10212.60238
431.135	9743.08372
431.632	9122.62942
432.128	8627.80427
432.624	8267.55926
433.12	7999.92261
433.616	7792.64818
434.111	7454.71075
434.607	7211.71501
435.103	6912.08893
435.598	6849.08192
436.093	6596.62685
436.588	6136.39736
437.083	5916.57491
437.578	5637.90457
438.073	5367.63785
438.568	5227.49124
439.062	5046.851
439.557	4900.47939
440.051	4715.3226
440.546	4524.50737
441.04	4561.88627
441.534	4427.35386
442.028	4367.90618
442.522	4200.04005
443.015	4169.50793
443.509	4212.18715
444.002	4024.28578
444.496	3999.66949
444.989	3848.28082
445.482	3818.46259
445.975	3837.00976
446.468	3783.63379
446.961	3801.69047
447.454	3626.9305
447.947	3656.30426
448.439	3565.2844
448.931	3555.06377
449.424	3400.61022
449.916	3510.46431
450.408	3372.07443
450.9	3453.50366
451.392	3344.6877
451.884	3256.16262
452.375	3153.72632
452.867	3095.09834
453.358	3082.19546
453.849	3136.83341
454.341	3088.14081
454.832	3035.93077
455.323	2952.55998
455.814	2974.26432
456.304	2864.24136
456.795	2897.24483
457.285	2815.01973
457.776	2872.15019
458.266	2787.40758
458.756	2660.37893
459.247	2713.44169
459.737	2671.46922
460.226	2596.15601
460.716	2581.45916
461.206	2552.44166
461.695	2469.53941
462.185	2440.24535
462.674	2456.26112
463.163	2340.95591
463.653	2379.86708
464.142	2313.37608
464.63	2267.42836
465.119	2233.13
465.608	2311.2164
466.096	2153.87534
466.585	2143.08852
467.073	2125.1963
467.561	2121.2238
468.05	2130.1132
468.538	2076.29658
469.026	2050.1874
469.513	2002.99533
470.001	1907.87365
470.489	1977.13451
470.976	1903.96891
471.463	1900.21898
471.951	1803.1319
472.438	1730.86868
472.925	1674.79917
473.412	1713.97231
473.899	1627.67377
474.385	1606.87941
474.872	1680.8699
475.359	1680.99145
475.845	1591.40293
476.331	1466.31803
476.817	1455.689
477.303	1484.60032
477.789	1462.68399
478.275	1428.7243
478.761	1473.7197
479.247	1450.50356
479.732	1390.72024
480.218	1390.83715
480.703	1325.61646
481.188	1330.22525
481.673	1298.36174
482.158	1288.2131
482.643	1236.51123
483.128	1269.32329
483.612	1171.23665
484.097	1188.34057
484.581	1086.08837
485.066	1113.26766
485.55	1128.06485
486.034	1063.90443
486.518	1139.24124
487.002	1133.34901
487.486	992.07594
487.969	1035.17126
488.453	973.0875
488.936	1022.98621
489.42	936.7792
489.903	985.11237
490.386	912.29592
490.869	905.7131
491.352	886.89136
491.835	952.70116
492.318	1001.9928
492.8	911.6658
493.283	953.12663
493.765	850.86605
494.247	871.78833
494.73	814.61451
495.212	874.85689
495.694	839.74809
496.175	789.71142
496.657	781.6653
497.139	827.29788
497.62	782.68651
498.102	719.63213
498.583	751.69792
499.064	771.59279
499.545	749.56456
500.026	700.45597
500.507	781.64659
500.988	741.6882
501.469	709.6425
501.949	685.5662
502.43	683.51526
502.91	667.30748
503.39	716.62367
503.87	699.53665
504.35	654.42349
504.83	606.26525
505.31	641.44026
505.79	665.49484
506.269	655.43743
506.749	566.23122
507.228	666.46864
507.707	639.331
508.187	601.33152
508.666	633.4646
509.145	603.34648
509.623	567.25558
510.102	651.4735
510.581	568.28206
511.059	615.45099
511.538	619.48691
512.016	625.42033
512.494	631.43802
512.972	572.28953
513.45	589.3114
513.928	624.44291
514.406	578.3449
514.884	580.41288
515.361	612.39216
515.839	575.2585
516.316	550.27012
516.793	565.35299
517.27	543.23926
517.747	532.30451
518.224	548.22529
518.701	578.25203
519.178	509.20344
519.654	541.22526
520.131	493.16826
520.607	560.31218
521.083	516.14178
521.56	570.29913
522.036	553.17307
522.512	485.13423
522.987	484.12149
523.463	585.33416
523.939	575.33607
524.414	531.17575
524.89	499.14328
525.365	509.1265
525.84	503.17593
526.315	486.14167
526.79	503.1044
527.265	521.16699
527.74	431.02425
528.215	527.20608
528.689	519.12094
529.164	463.98461
529.638	495.22866
530.112	471.09196
530.587	520.08879
531.061	461.08727
531.534	479.11185
532.008	458.07955
532.482	457.0087
532.956	460.13356
533.429	477.11897
533.903	491.0504
534.376	472.01773
534.849	476.0785
535.322	441.02027
535.795	457.08407
536.268	441.02753
536.741	453.05596
537.213	456.02933
537.686	501.18633
538.158	415.91975
538.631	455.06562
539.103	483.06886
539.575	469.95221
540.047	447.96671
540.519	452.05755
540.991	491.155
541.463	463.09115
541.934	486.08601
542.406	470.0963
542.877	488.0878
543.348	474.11257
543.82	455.07392
544.291	467.05614
544.762	449.03717
545.233	526.26595
545.703	497.07609
546.174	552.23424
546.645	534.2385
547.115	604.39275
547.585	569.24954
548.056	583.36213
548.526	624.40975
548.996	597.3539
549.466	598.37179
549.935	611.37839
550.405	613.28243
550.875	617.38118
551.344	655.48436
551.814	663.44341
552.283	649.31231
552.752	723.57415
553.221	720.49961
553.69	704.44935
554.159	755.72563
554.628	736.53976
555.096	786.84278
555.565	665.41284
556.033	727.58153
556.502	677.53425
556.97	611.29234
557.438	594.337
557.906	558.26612
558.374	575.26697
558.842	538.23153
559.31	548.18847
559.777	532.23531
560.245	545.23834
560.712	550.23785
561.18	558.2179
561.647	568.2272
562.114	502.12091
562.581	563.32204
563.048	611.34471
563.514	548.29253
563.981	544.19932
564.448	571.24027
564.914	618.37348
565.381	620.34313
565.847	650.44587
566.313	627.39437
566.779	650.37044
567.245	695.53168
567.711	655.49156
568.176	645.38636
568.642	704.65308
569.108	692.60089
569.573	750.66228
570.038	779.54823
570.504	699.46646
570.969	786.83132
571.434	796.65366
571.899	779.72766
572.363	809.69896
572.828	849.76425
573.293	833.75477
573.757	845.75905
574.222	932.90209
574.686	946.94288
575.15	895.92745
575.614	906.87736
576.078	941.99799
576.542	881.82268
577.006	975.95715
577.469	997.16647
577.933	954.9523
578.396	907.92327
578.86	926.96145
579.323	985.11056
579.786	956.84985
580.249	976.0146
580.712	904.98545
581.175	854.91558
581.637	874.79732
582.1	874.75865
582.563	871.69438
583.025	897.96637
583.487	872.62844
583.95	892.77764
584.412	894.71736
584.874	819.80287
585.336	848.82971
585.797	800.60294
586.259	856.83517
586.721	811.74797
587.182	860.80654
587.643	827.72079
588.105	812.77514
588.566	815.5665
589.027	830.84119
589.488	800.68557
589.949	846.86193
590.41	803.46276
590.87	815.68377
591.331	801.57871
591.791	915.92593
592.252	817.73534
592.712	800.75258
593.172	846.75996
593.632	919.826
594.092	969.92814
594.552	901.7603
595.011	892.85573
595.471	893.78087
595.931	913.82416
596.39	985.10695
596.849	959.99388
597.308	1007.9269
597.768	1008.2766
598.227	972.04028
598.685	1042.04665
599.144	1069.16414
599.603	1102.26292
600.062	1109.03554
600.52	1143.18304
600.978	1135.2792
601.437	1219.30176
601.895	1236.16726
602.353	1270.30597
602.811	1374.49805
603.269	1449.77704
603.727	1398.72443
604.184	1449.62769
604.642	1516.92304
605.099	1534.75111
605.557	1630.03402
606.014	1669.73738
606.471	1729.25749
606.928	1825.88146
607.385	1920.41021
607.842	1961.07042
608.299	2087.30783
608.755	2086.42954
609.212	2038.03875
609.668	2172.17596
610.125	2292.55054
610.581	2216.38764
611.037	2210.24054
611.493	2200.37433
611.949	2301.69151
612.405	2325.79522
612.861	2372.4469
613.316	2405.5747
613.772	2418.4233
614.227	2459.57795
614.683	2415.06142
615.138	2450.48909
615.593	2492.47978
616.048	2506.34938
616.503	2471.69043
616.958	2418.84115
617.412	2459.52678
617.867	2455.2377
618.321	2504.9673
618.776	2362.21511
619.23	2394.44645
619.684	2348.27046
620.138	2377.37281
620.592	2300.59557
621.046	2319.38708
621.5	2261.61228
621.954	2255.2107
622.407	2210.14017
622.861	2139.46745
623.314	2113.15929
623.768	2099.27879
624.221	2084.67365
624.674	2043.17543
625.127	2024.2092
625.58	1983.07369
626.033	1921.88147
626.485	1846.18309
626.938	1885.17218
627.39	1878.11229
627.843	1856.05383
628.295	1776.94406
628.747	1721.02107
629.199	1748.89408
629.651	1622.79067
630.103	1679.88258
630.555	1609.52538
631.006	1586.82466
631.458	1607.89069
631.909	1601.73041
632.361	1530.75225
632.812	1530.74529
633.263	1509.47428
633.714	1427.35951
634.165	1481.84933
634.616	1381.64893
635.067	1412.42349
635.518	1406.65269
635.968	1351.11472
636.419	1358.34142
636.869	1333.53592
637.319	1319.45855
637.769	1333.4141
638.219	1288.44832
638.669	1223.41471
639.119	1325.63707
639.569	1242.45627
640.019	1310.42076
640.468	1273.2969
640.918	1269.465
641.367	1295.3403
641.816	1260.31309
642.265	1244.34624
642.714	1231.3256
643.163	1298.45194
643.612	1280.58314
644.061	1318.2913
644.51	1389.57549
644.958	1302.30725
645.406	1249.46728
645.855	1285.58324
646.303	1294.43963
646.751	1287.41521
647.199	1299.38315
647.647	1220.31762
648.095	1311.46877
648.543	1324.15758
648.99	1216.37912
649.438	1308.48764
649.885	1240.54095
650.333	1361.0828
650.78	1340.65287
651.227	1380.73849
651.674	1269.34185
652.121	1263.51003
652.568	1289.57713
653.015	1301.65594
653.461	1323.54469
653.908	1305.47057
654.354	1289.47914
654.801	1233.39493
655.247	1346.36595
655.693	1327.84007
656.139	1271.50732
656.585	1306.52088
657.031	1334.53356
657.477	1333.32175
657.922	1335.48968
658.368	1291.59768
658.813	1269.36623
659.259	1267.50754
659.704	1267.39612
660.149	1344.54768
660.594	1288.50257
661.039	1315.41501
661.484	1271.45259
661.929	1338.50569
662.373	1317.7549
662.818	1337.7136
663.262	1360.63157
663.707	1298.68724
664.151	1359.66879
664.595	1280.50107
665.039	1346.70787
665.483	1314.7372
665.927	1361.5433
666.371	1318.48259
666.814	1269.46965
667.258	1340.61731
667.701	1330.26388
668.145	1376.7381
668.588	1289.56296
669.031	1337.57779
669.474	1314.56162
669.917	1342.34422
670.36	1307.66222
670.803	1350.5739
671.245	1300.20074
671.688	1299.54362
672.13	1286.35158
672.573	1325.68073
673.015	1349.61826
673.457	1369.35613
673.899	1286.50457
674.341	1337.59859
674.783	1314.54117
675.225	1271.53294
675.666	1408.73752
676.108	1378.33729
676.549	1377.57203
676.991	1405.46824
677.432	1394.22211
677.873	1354.47267
678.314	1344.58087
678.755	1368.6621
679.196	1350.47027
679.637	1304.55402
680.078	1266.3809
680.518	1286.40568
680.959	1331.59422
681.399	1300.64022
681.839	1271.51547
682.28	1342.66912
682.72	1302.41902
683.16	1235.50297
683.6	1243.27894
684.039	1317.16099
684.479	1305.60797
684.919	1317.48853
685.358	1319.70117
685.798	1269.73335
686.237	1296.53476
686.676	1245.31223
687.115	1290.43088
687.554	1277.44081
687.993	1234.20203
688.432	1255.33201
688.871	1306.40499
689.309	1327.52812
689.748	1223.02139
690.186	1358.54202
690.625	1261.37666
691.063	1334.57017
691.501	1280.53155
691.939	1283.57922
692.377	1288.52735
692.815	1272.47375
693.253	1339.56451
693.69	1292.28356
694.128	1339.61719
694.565	1320.50207
695.003	1374.77306
695.44	1304.46569
695.877	1322.50345
696.314	1343.23191
696.751	1322.35611
697.188	1356.46148
697.625	1355.42073
698.061	1349.58741
698.498	1377.60097
698.934	1400.6618
699.371	1395.59939
699.807	1436.6243
700.243	1442.71554
700.679	1447.52398
701.115	1349.48013
701.551	1491.67703
701.987	1409.47146
702.422	1463.70917
702.858	1454.6507
703.294	1507.5609
703.729	1496.8189
704.164	1466.73413
704.599	1526.55267
705.035	1468.56414
705.47	1508.87733
705.904	1511.7296
706.339	1467.52842
706.774	1532.71271
707.209	1553.70288
707.643	1565.84465
708.078	1581.95869
708.512	1573.02124
708.946	1523.72229
709.38	1613.81524
709.814	1608.68361
710.248	1608.88885
710.682	1604.85397
711.116	1668.97602
711.549	1621.11223
711.983	1635.77846
712.416	1677.87913
712.85	1663.07985
713.283	1670.91005
713.716	1747.14124
714.149	1623.81517
714.582	1707.7788
715.015	1624.97081
715.448	1735.16194
715.881	1735.61396
716.313	1766.94797
716.746	1744.96904
717.178	1726.98801
717.61	1759.16931
718.043	1729.09617
718.475	1745.0005
718.907	1778.20776
719.339	1828.9083
719.77	1776.01344
720.202	1817.25638
720.634	1841.21003
721.065	1832.05007
721.497	1917.23688
721.928	1882.24738
722.359	1886.23569
722.79	1989.29211
723.221	1927.31618
723.652	1881.33961
724.083	1930.98503
724.514	1930.00146
724.945	1960.12375
725.375	2008.18704
725.806	1907.24379
726.236	1947.41212
726.666	1968.13493
727.096	1961.29437
727.526	2013.4818
727.956	2015.00293
728.386	2012.30638
728.816	2023.45576
729.246	2028.35471
729.675	2031.38603
730.105	1985.22339
730.534	2120.18023
730.964	2001.37482
731.393	2060.31473
731.822	2128.57341
732.251	2105.49774
732.68	2133.15231
733.109	2145.39362
733.537	2122.33128
733.966	2179.54485
734.395	2213.1648
734.823	2169.9781
735.251	2223.41323
735.68	2211.52522
736.108	2206.54739
736.536	2152.19326
736.964	2214.21169
737.392	2256.55535
737.82	2294.38272
738.247	2257.31996
738.675	2311.32878
739.102	2259.59107
739.53	2286.68825
739.957	2289.74075
740.384	2369.46408
740.811	2288.59459
741.238	2300.46827
741.665	2278.18791
742.092	2275.33713
742.519	2280.52758
742.945	2327.40515
743.372	2343.58283
743.798	2332.74519
744.225	2298.3366
744.651	2392.63744
745.077	2353.59021
745.503	2340.45631
745.929	2368.39975
746.355	2435.58227
746.781	2253.49987
747.207	2409.42792
747.632	2372.58765
748.058	2306.57266
748.483	2397.24063
748.908	2411.58384
749.334	2409.56819
749.759	2368.27052
750.184	2344.40718
750.609	2430.57578
751.033	2331.2895
751.458	2326.05849
751.883	2375.54973
752.307	2371.35994
752.732	2312.66357
753.156	2385.61925
753.58	2327.36054
754.005	2256.56928
754.429	2255.28936
754.853	2286.51694
755.277	2229.21937
755.7	2282.53876
756.124	2237.51401
756.548	2304.37166
756.971	2254.35195
757.394	2290.74343
757.818	2173.61219
758.241	2217.59776
758.664	2212.60424
759.087	2154.0361
759.51	2230.47429
759.933	2147.34176
760.356	2090.52006
760.778	2176.48683
761.201	2158.35251
761.623	2111.25304
762.046	2122.20758
762.468	2040.12284
762.89	2108.34257
763.312	2053.34807
763.734	2020.20995
764.156	2038.33873
764.578	2002.04953
765	2033.29873
765.421	1897.36822
765.843	1948.50237
766.264	1943.15435
766.686	1866.20779
767.107	1865.09805
767.528	1798.25705
767.949	1841.29634
768.37	1743.99326
768.791	1803.05884
769.212	1742.17555
769.632	1756.90429
770.053	1743.34245
770.473	1771.04077
770.894	1729.06802
771.314	1694.83593
771.734	1640.78627
772.154	1565.97995
772.575	1612.68888
772.994	1568.61777
773.414	1629.83449
773.834	1612.99272
774.254	1554.89032
774.673	1544.79298
775.093	1495.8136
775.512	1434.70567
775.931	1408.77355
776.351	1415.71818
776.77	1380.63881
777.189	1338.4849
777.607	1354.7277
778.026	1384.71227
778.445	1315.63881
778.864	1312.66942
779.282	1326.51832
779.701	1264.53692
780.119	1287.67681
780.537	1237.5093
780.955	1137.3521
781.373	1193.39148
781.791	1284.26936
782.209	1260.27508
782.627	1226.67154
783.045	1167.20224
783.462	1175.4771
783.88	1055.30322
784.297	1072.26618
784.715	1034.26256
785.132	1076.19464
785.549	1060.24177
785.966	1025.17755
786.383	1013.11017
786.8	1021.99507
787.217	964.95502
787.633	960.06354
788.05	908.83048
788.466	897.77149
788.883	915.0158
789.299	892.85819
789.715	942.97889
790.131	868.90399
790.547	850.83715
790.963	916.97816
791.379	854.896
791.795	823.63428
792.21	835.69433
792.626	756.58443
793.041	772.71107
793.457	764.69333
793.872	745.55689
794.287	694.50745
794.702	692.52984
795.117	688.56014
795.532	729.65484
795.947	663.44158
796.362	699.50384
796.776	702.44588
797.191	663.48303
797.605	650.42615
798.02	593.32849
798.434	561.13721
798.848	621.41578
799.262	591.37058
799.676	549.23081
800.09	577.3365
800.504	515.15921
800.918	520.13915
801.331	494.19735
801.745	490.05797
802.158	481.13364
802.572	490.10217
802.985	486.09673
803.398	428.97201
803.811	437.0449
804.224	403.94651
804.637	446.01613
805.05	386.85139
805.462	398.93313
805.875	401.99947
806.288	396.92699
806.7	374.90659
807.112	329.73161
807.525	370.87597
807.937	373.88631
808.349	370.89083
808.761	311.74527
809.173	323.75896
809.584	328.77986
809.996	334.79778
810.408	342.85911
810.819	389.88794
811.231	435.09244
811.642	419.98561
812.053	561.27679
812.464	519.17061
812.875	428.04025
813.286	355.88486
813.697	311.7065
814.108	266.63612
814.519	211.46514
814.929	222.55712
815.34	275.66479
815.75	229.57768
816.16	228.55896
816.571	194.49455
816.981	192.44898
817.391	204.49327
817.801	290.71514
818.211	161.37863
818.62	197.47823
819.03	177.43097
819.44	229.58489
819.849	149.37253
820.259	166.4181
820.668	134.33412
821.077	180.45076
821.486	169.40487
821.895	189.45881
822.304	170.44796
822.713	165.39363
823.122	128.32159
823.531	223.52892
823.939	144.35435
824.348	173.4228
824.756	177.44381
825.164	123.30864
825.573	180.45806
825.981	137.3398
826.389	134.33932
826.797	119.29666
827.205	158.36832
827.612	181.44728
828.02	123.294
828.428	179.45576
828.835	119.3149
829.243	150.3627
829.65	112.28139
830.057	148.36245
830.464	96.23667
830.871	126.30341
831.278	93.2267
831.685	161.3628
832.092	175.43055
832.499	125.27683
832.905	74.18932
833.312	100.23266
833.718	100.25196
834.124	144.3296
834.531	114.28785
834.937	58.14859
835.343	100.24508
835.749	81.18923
836.155	71.18744
836.561	101.25289
836.966	86.21319
837.372	79.20356
837.777	126.31827
838.183	78.17559
838.588	56.13984
838.993	70.17264
839.399	70.17416
839.804	85.21037
840.209	101.26242
840.613	69.15771
841.018	102.25847
841.423	41.10675
841.828	63.16296
842.232	127.31385
842.637	109.26173
843.041	79.2066
843.445	76.19341
843.849	56.1406
844.253	90.21738
844.657	77.19786
845.061	54.12643
845.465	37.09174
845.869	97.22981
846.272	71.177
846.676	56.13669
847.079	80.20825
847.483	68.17048
847.886	50.12163
848.289	71.19177
848.692	62.15929
849.095	47.11611
849.498	46.11686
849.901	46.10753
850.304	80.19534
850.707	50.12855
851.109	76.19211
851.512	111.27762
851.914	69.17983
852.316	16.04088
852.718	66.17375
853.121	60.14993
853.523	98.23572
853.925	72.19152
854.326	25.06357
854.728	71.18599
855.13	35.0929
855.531	100.24554
855.933	53.1278
856.334	28.07166
856.736	81.1867
857.137	70.16562
857.538	86.22087
857.939	85.21528
858.34	62.15336
858.741	39.10334
859.142	82.20045
859.542	40.10771
859.943	67.16867
860.343	38.0963
860.744	44.10908
861.144	12.02966
861.544	41.10218
861.945	69.18014
862.345	62.15353
862.745	76.19389
863.145	70.16895
863.544	38.09763
863.944	3.00723
864.344	77.19308
864.743	53.13242
865.143	67.17444
865.542	29.06945
865.941	92.23214
866.34	52.12659
866.74	60.16182
867.139	54.13357
867.537	47.12123
867.936	52.12829
868.335	47.12178
868.734	104.27128
869.132	46.11048
869.531	66.15983
869.929	48.11388
870.327	70.17194
870.726	26.06535
871.124	100.23815
871.522	96.24689
871.92	97.2427
872.318	77.19064
872.715	40.09945
873.113	88.21887
873.511	81.20697
873.908	51.13301
874.306	38.09749
874.703	53.13409
875.1	62.16001
875.497	94.23081
875.894	79.19895
876.291	29.07248
876.688	86.22678
877.085	15.03665
877.482	54.13694
877.878	53.13074
878.275	64.16586
878.671	76.17263
879.068	76.18592
879.464	36.08882
879.86	2.00487
880.256	54.13514
880.652	31.08049
881.048	33.08284
881.444	-11.02666
881.84	45.11603
882.236	26.06645
882.631	110.27517
883.027	25.06135
883.422	8.02086
883.817	82.21265
884.213	48.12576
884.608	65.16346
885.003	50.12418
885.398	52.1342
885.793	64.16247
886.188	59.15124
886.582	35.08994
886.977	63.15248
887.371	13.03312
887.766	20.05128
888.16	83.20887
888.554	26.06492
888.949	62.15678
889.343	42.10377
889.737	46.12596
890.131	-3.00765
890.525	24.06245
890.918	19.0484
891.312	-28.06819
891.706	-9.02374
892.099	29.07421
892.492	29.06498
892.886	7.01748
893.279	46.11974
893.672	-16.04114
894.065	21.05347
894.458	101.25826
894.851	82.20261
895.244	-3.00782
895.637	62.15268
896.029	32.0797
896.422	30.07456
896.814	32.08089
897.206	27.06596
897.599	3.00752
897.991	2.00494
898.383	63.15374
898.775	3.00699
899.167	38.09182
899.559	32.0821
899.951	72.17206
900.342	56.14282
900.734	19.04904
901.125	36.09573
901.517	47.11828
901.908	34.08274
902.299	70.17682
902.69	53.12838
903.082	5.01241
903.473	86.21108
903.863	37.096
904.254	54.12954
904.645	35.08865
905.036	26.06492
905.426	51.11831
905.817	44.11059
906.207	38.09358
906.597	-10.02396
906.987	30.07908
907.378	-12.03087
907.768	34.09134
908.158	32.07968
908.547	47.12383
908.937	38.098
909.327	89.22002
909.717	43.10984
910.106	42.10275
910.495	37.09408
910.885	61.15735
911.274	55.13945
911.663	9.02307
912.052	37.09207
912.441	3.00775
912.83	72.16963
913.219	56.14742
913.608	39.09695
913.997	41.10539
914.385	33.08002
914.774	72.17738
915.162	49.12025
915.55	29.07146
915.939	55.14098
916.327	-15.03792
916.715	-19.04969
917.103	60.14858
917.491	48.11938
917.878	-32.07991
918.266	-24.06299
918.654	65.16935
919.041	48.12772
919.429	12.02925
919.816	42.10738
920.203	17.04241
920.591	33.08293
920.978	-6.01484
921.365	17.04542
921.752	82.19933
922.139	98.21862
922.525	50.12404
922.912	13.03229
923.299	38.0966
923.685	18.04798
924.072	20.04664
924.458	29.07329
924.844	46.11636
925.231	18.04321
925.617	42.10922
926.003	43.11119
926.389	25.06442
926.774	55.14128
927.16	44.11118
927.546	65.1697
927.931	34.08643
928.317	38.08883
928.702	22.05282
929.088	42.1024
929.473	30.07745
929.858	6.01504
930.243	47.11555
930.628	75.18752
931.013	54.13645
931.398	70.16241
931.783	38.10051
932.167	115.28607
932.552	34.08576
932.937	45.11304
933.321	50.12801
933.705	39.10042
934.09	43.10891
934.474	25.06053
934.858	45.11824
935.242	18.04315
935.626	72.18768
936.009	-36.09684
936.393	67.1718
936.777	2.00524
937.16	-14.03703
937.544	14.03359
937.927	53.13756
938.311	35.08653
938.694	12.03204
939.077	22.054
939.46	-5.01225
939.843	96.20706
940.226	64.16609
940.609	108.25602
940.991	24.06235
941.374	52.12971
941.757	32.07979
942.139	62.14505
942.522	13.03119
942.904	46.11278
943.286	17.04364
943.668	44.11579
944.05	24.06054
944.432	70.17707
944.814	-3.00749
945.196	36.09084
945.578	83.20474
945.959	61.14603
946.341	10.02452
946.722	44.10511
947.104	50.12213
947.485	17.0407
947.866	79.20455
948.247	33.08397
948.628	-12.02976
949.009	37.09693
949.39	43.10833
949.771	42.1001
950.152	75.18786
950.532	46.11682
950.913	37.09103
951.293	42.11523
951.674	115.28607
952.054	89.22573
952.434	34.08567
952.814	66.15971
953.194	41.10777
953.574	58.14299
953.954	11.02687
954.334	61.15461
954.714	38.09513
955.093	62.15325
955.473	-4.01021
955.853	22.05764
956.232	7.01926
956.611	46.11203
956.99	42.10824
957.37	57.14754
957.749	104.25176
958.128	63.16234
958.506	84.2224
958.885	58.14917
959.264	83.20969
959.643	22.05121
960.021	45.11422
960.4	73.16981
960.778	82.20357
961.156	2.00517
961.535	1.00239
961.913	85.20193
962.291	62.16382
962.669	-6.01547
963.047	50.12855
963.424	7.01819
963.802	37.09331
964.18	27.06923
964.557	42.09903
964.935	40.0968
965.312	12.0317
965.69	30.07573
966.067	42.10465
966.444	12.02999
966.821	30.07815
967.198	29.07146
967.575	-7.01738
967.952	36.08639
968.329	38.09451
968.705	46.10054
969.082	50.13087
969.458	40.09963
969.835	11.02733
970.211	50.13123
970.587	7.01777
970.963	35.09072
971.339	25.06645
971.715	19.04831
972.091	62.15488
972.467	61.15417
972.843	12.03051
973.219	51.12265
973.594	53.14199
973.97	59.14189
974.345	57.13952
974.721	18.0439
975.096	18.04454
975.471	49.11855
975.846	42.10248
976.221	36.0941
976.596	42.10351
976.971	34.0853
977.346	37.08736
977.72	27.07025
978.095	52.13648
978.469	86.20646
978.844	10.02538
979.218	4.00983
979.593	31.07554
979.967	56.13837
980.341	9.02126
980.715	90.22936
981.089	47.11802
981.463	56.13378
981.837	36.09032
982.21	57.13421
982.584	38.09389
982.957	11.0283
983.331	67.16125
983.704	-11.02728
984.078	43.10844
984.451	22.05506
984.824	50.12458
985.197	39.09613
985.57	56.14216
985.943	33.082
986.316	50.12427
986.688	41.10013
987.061	58.13977
987.434	8.02124
987.806	111.27128
988.179	53.12857
988.551	77.19765
988.923	66.16451
989.295	57.14122
989.667	70.17194
990.039	44.11166
990.411	76.1778
990.783	62.14493
991.155	88.21847
991.527	41.1014
991.898	71.18002
992.27	34.08539
992.641	11.028
993.012	52.12451
993.384	0
993.755	74.19184
994.126	19.04659
994.497	30.07548
994.868	49.11573
995.239	18.04438
995.61	53.13614
995.98	34.08521
996.351	6.01523
996.722	82.19641
997.092	23.05617
997.462	75.18002
997.833	56.13434
998.203	51.12469
998.573	38.09595
998.943	13.03157
999.313	64.15697
999.683	70.17283
1000.053	62.14624
1000.423	6.01481
1000.792	93.24395
1001.162	4.01003
1001.531	44.11051
1001.901	88.22419
1002.27	68.15514
1002.639	48.12504
1003.009	-4.00972
1003.378	-18.04676
1003.747	61.1482
1004.116	-5.01237
1004.485	80.19199
1004.853	48.12315
1005.222	4.01022
1005.591	32.07738
1005.959	46.10795
1006.328	2.00467
1006.696	35.08719
1007.064	40.10176
1007.433	21.05328
1007.801	17.04214
1008.169	24.06101
1008.537	36.08214
1008.905	45.10805
1009.273	27.06719
1009.64	62.15257
1010.008	40.09785
1010.375	8.01926
1010.743	79.18355
1011.11	63.15271
1011.478	21.05277
1011.845	19.04564
1012.212	61.14223
1012.579	11.02742
1012.946	70.16831
1013.313	56.13424
1013.68	40.0917
1014.047	56.13715
1014.414	73.17629
1014.78	37.09294
1015.147	9.02198
1015.513	47.1156
1015.88	35.08965
1016.246	-5.01241
1016.612	41.09473
1016.978	37.09234
1017.344	53.13385
1017.71	16.03918
1018.076	67.15941
1018.442	39.10063
1018.808	2.00513
1019.174	34.08723
1019.539	49.1124
1019.905	19.04597
1020.27	10.02543
1020.636	50.12172
1021.001	29.07056
1021.366	-2.00495
1021.731	-16.04155
1022.096	48.1234
1022.461	15.03637
1022.826	21.05096
1023.191	46.12159
1023.556	65.1559
1023.92	8.01993
1024.285	46.11408
1024.649	55.13702
1025.014	36.09081
1025.378	25.06417
1025.742	62.15661
1026.107	5.01158
1026.471	20.04705
1026.835	75.18935
1027.199	77.19217
1027.562	-1.00239
1027.926	14.03485
1028.29	69.17798
1028.654	46.10825
1029.017	64.15755
1029.381	64.15569
1029.744	21.05409
1030.107	59.14113
1030.471	1.00243
1030.834	22.0511
1031.197	52.12541
1031.56	27.06481
1031.923	49.12793
1032.286	54.12841
1032.648	85.20705
1033.011	-3.00706
1033.374	31.07353
1033.736	27.07231
1034.099	61.15196
1034.461	-12.03089
1034.823	9.02282
1035.185	28.07166
1035.548	72.17849
1035.91	49.11949
1036.272	14.03238
1036.634	-10.0248
1036.995	45.10883
1037.357	-7.01753
1037.719	8.01965
1038.08	9.02177
1038.442	35.08449
1038.803	12.02936
1039.165	64.165
1039.526	14.03455
1039.887	44.1076
1040.248	-6.01515
1040.609	3.00747
1040.97	60.14955
1041.331	11.02836
1041.692	81.1959
1042.053	42.0981
1042.413	55.13051
1042.774	52.12778
1043.134	70.16927
1043.495	23.0584
1043.855	35.08637
1044.215	72.18155
1044.576	39.09663
1044.936	73.16954
1045.296	60.15118
1045.656	12.02982
1046.016	28.06832
1046.375	4.00986
1046.735	20.04692
1047.095	58.13787
1047.454	68.14673
1047.814	47.11487
1048.173	-14.03346
1048.533	3.00706
1048.892	46.11387
1049.251	61.15483
1049.61	50.12476
1049.969	64.15557
1050.328	27.06022
1050.687	17.04214
1051.046	30.07358
1051.405	66.16755
1051.763	36.08518
1052.122	35.08884
1052.48	3.00742
1052.839	26.06261
1053.197	41.09901
1053.555	10.02266
1053.914	-5.01237
1054.272	7.01705
1054.63	79.19709
1054.988	29.07077
1055.345	30.06662
1055.703	34.08299
1056.061	19.04954
1056.419	37.09696
1056.776	23.05609
1057.134	31.07364
1057.491	35.08852
1057.848	16.04013
1058.206	7.01694
1058.563	35.07903
1058.92	20.04655
1059.277	16.04004
1059.634	25.05983
1059.991	47.11449
1060.348	47.1095
1060.704	10.02458
1061.061	16.03775
1061.418	5.01236
1061.774	13.03282
1062.131	27.07283
1062.487	16.03844
1062.843	25.06291
1063.199	74.18712
1063.555	29.06953
1063.911	17.04321
1064.267	45.09558
1064.623	-1.0025
1064.979	57.13624
1065.335	7.01696
1065.691	4.00976
1066.046	-11.02436
1066.402	40.09427
1066.757	58.14693
1067.112	22.0545
1067.468	89.21881
1067.823	66.16158
1068.178	23.05625
1068.533	42.10366
1068.888	-15.03662
1069.243	26.06521
1069.598	8.01993
1069.952	30.07013
1070.307	52.13247
1070.662	-29.07075
1071.016	29.0669
1071.371	28.06499
1071.725	55.13287
1072.079	8.01953
1072.434	22.0549
1072.788	51.12404
1073.142	48.12021
1073.496	9.02184
1073.85	23.05397
1074.203	88.21879
1074.557	29.0782
1074.911	14.03369
1075.265	27.06407
1075.618	3.00741
1075.971	33.0799
1076.325	16.04152
1076.678	29.06892
1077.031	-6.01412
1077.385	59.13404
1077.738	57.13196
1078.091	6.01418
1078.444	27.06407
1078.796	20.04969
1079.149	20.05034
1079.502	65.15886
1079.855	48.11497
1080.207	31.07754
1080.56	5.01314
1080.912	30.0738
1081.264	22.0541
1081.617	48.12038
1081.969	19.04933
1082.321	34.08392
1082.673	46.10871
1083.025	30.07301
1083.377	52.11499
1083.728	-10.02379
1084.08	-12.03057
1084.432	42.10347
1084.783	53.12562
1085.135	8.0205
1085.486	54.12821
1085.838	23.05792
1086.189	33.08101
1086.54	38.09189
1086.891	13.03374
1087.242	-27.06697
1087.593	58.14236
1087.944	5.01153
1088.295	73.1682
1088.646	60.14852
1088.996	-3.0074
1089.347	22.05504
1089.698	27.0656
1090.048	-2.00521
1090.398	23.05407
1090.749	45.1097
1091.099	81.20988
1091.449	26.06579
1091.799	41.1044
1092.149	32.08135
1092.499	12.02981
1092.849	49.12692
1093.199	8.02021
1093.548	35.0863
1093.898	0
1094.248	33.08545
1094.597	85.22229
1094.947	5.01349
1095.296	29.07248
1095.645	28.07361
1095.994	21.05111
1096.343	39.0993
1096.692	94.2546
1097.041	1.00273
1097.39	62.15895
1097.739	39.10241
1098.088	14.03803
1098.437	21.05628
1098.785	2.00541
1099.134	43.11455
1099.482	15.04178
1099.83	12.03171
1100.179	59.15712
1100.527	2.00537
1100.875	-2.00538
1101.223	17.04562
1101.571	7.01961
1101.919	15.04042
1102.267	25.07085
1102.615	20.06441
1102.962	13.04181
1103.31	10.0322
1103.658	25.08052
