Data from N2 R0 60C sample10_Subt2__0__11-33-33-190.txt Node

Date: Tue Aug 19 11:33:33 PDT 2025
User: uwsun
Spectrometer: HDX01956
Trigger mode: 0
Integration Time (sec): 5.000000E-1
Scans to average: 1
Nonlinearity correction enabled: true
Boxcar width: 0
Storing dark spectrum: false
XAxis mode: Wavelengths
Number of Pixels in Spectrum: 2068
>>>>>Begin Spectral Data<<<<<
194.03	416.14518
194.578	419.29695
195.127	410.2526
195.676	419.28365
196.225	457.17764
196.773	477.27527
197.321	702.82102
197.87	913.13392
198.418	958.19073
198.966	954.24233
199.513	904.03002
200.061	955.1782
200.609	940.22136
201.156	906.77634
201.704	962.18057
202.251	941.25653
202.798	942.20043
203.345	953.10134
203.892	933.10671
204.438	970.05924
204.985	1036.18525
205.532	987.31317
206.078	1029.22286
206.624	985.15843
207.17	991.03422
207.716	1007.16422
208.262	960.65919
208.808	1029.26621
209.354	1031.2149
209.899	996.20215
210.445	983.19093
210.99	986.12854
211.535	1036.14815
212.08	1026.12079
212.625	1035.28511
213.17	1035.29931
213.715	984.99471
214.259	981.02448
214.804	959.09086
215.348	967.94998
215.892	998.10409
216.436	979.00505
216.98	1022.9975
217.524	947.9968
218.068	990.23503
218.612	995.21405
219.155	916.93267
219.698	927.97934
220.242	911.03534
220.785	859.81116
221.328	862.93431
221.871	883.99719
222.414	864.94513
222.956	910.99779
223.499	888.7983
224.041	881.84784
224.583	905.7131
225.126	867.72096
225.668	836.84069
226.21	885.00228
226.751	888.76229
227.293	926.90689
227.835	930.04078
228.376	889.83351
228.918	888.01841
229.459	886.99465
230	858.84025
230.541	906.90406
231.082	913.94776
231.622	870.7971
232.163	876.91832
232.704	868.93266
233.244	835.88099
233.784	924.01066
234.324	915.83238
234.864	853.75213
235.404	894.90104
235.944	844.80555
236.484	836.8706
237.023	925.96486
237.563	904.86822
238.102	884.8521
238.641	928.09499
239.18	892.89022
239.719	954.1197
240.258	927.85729
240.797	968.06032
241.335	950.06294
241.874	952.64271
242.412	939.02826
242.95	890.92036
243.488	971.96878
244.026	907.86314
244.564	896.65109
245.102	911.82772
245.64	890.90727
246.177	903.8233
246.715	933.99816
247.252	883.8252
247.789	945.56801
248.326	961.06702
248.863	981.915
249.4	933.88909
249.936	921.67566
250.473	983.03223
251.009	928.92042
251.546	965.87929
252.082	988.90095
252.618	933.84095
253.154	962.06696
253.69	952.88419
254.226	958.01965
254.761	939.90817
255.297	911.76895
255.832	915.92088
256.367	1009.09441
256.903	989.87967
257.438	1015.07517
257.972	959.90645
258.507	967.98292
259.042	1020.95323
259.576	963.86297
260.111	956.95375
260.645	947.791
261.179	967.99005
261.713	1022.00446
262.247	1002.03979
262.781	1012.86252
263.315	1005.1765
263.849	980.17841
264.382	1035.05523
264.915	1088.22714
265.449	1080.33162
265.982	1039.07083
266.515	1073.24319
267.048	1005.89441
267.58	1003.92385
268.113	980.87381
268.646	1047.26081
269.178	989.95249
269.71	1062.01284
270.243	987.97399
270.775	1047.30491
271.307	1016.12996
271.838	1033.09968
272.37	1012.17822
272.902	1038.04832
273.433	972.84775
273.965	1063.24178
274.496	998.1508
275.027	1049.26033
275.558	1010.14797
276.089	1053.27571
276.62	1060.33693
277.15	1049.21222
277.681	1067.0101
278.211	1024.12888
278.741	1037.99966
279.272	1041.06047
279.802	1042.24858
280.332	1060.16488
280.861	1099.2734
281.391	1008.99979
281.921	1075.23554
282.45	1111.38484
282.98	1144.54617
283.509	1060.04409
284.038	1098.14679
284.567	1131.21301
285.096	1083.26412
285.625	1109.17191
286.153	1072.15003
286.682	1070.11455
287.21	1085.25735
287.739	1141.31117
288.267	1083.26114
288.795	1110.46139
289.323	1199.38923
289.851	1174.33987
290.378	1185.24064
290.906	1132.35161
291.433	1133.38849
291.961	1151.20469
292.488	1108.34946
293.015	1190.37836
293.542	1212.59562
294.069	1127.34483
294.596	1172.42941
295.122	1207.41073
295.649	1208.20295
296.175	1229.5167
296.702	1187.40775
297.228	1171.38599
297.754	1253.37187
298.28	1289.40718
298.806	1218.44223
299.332	1282.34541
299.857	1259.33947
300.383	1243.60801
300.908	1194.4455
301.433	1230.46746
301.958	1271.38626
302.483	1261.61347
303.008	1325.66861
303.533	1304.76286
304.058	1310.52382
304.582	1297.52307
305.107	1322.8529
305.631	1321.41762
306.155	1307.49709
306.679	1305.4646
307.203	1422.62975
307.727	1321.54446
308.251	1342.68999
308.775	1392.66945
309.298	1361.68019
309.822	1477.94946
310.345	1523.83593
310.868	1431.70979
311.391	1446.80891
311.914	1477.93059
312.437	1469.62399
312.96	1461.70279
313.482	1502.76317
314.005	1459.90948
314.527	1513.1373
315.049	1440.85642
315.571	1528.66813
316.093	1551.98714
316.615	1576.93712
317.137	1606.62523
317.659	1658.05926
318.18	1521.81003
318.702	1538.72757
319.223	1606.52134
319.744	1662.78643
320.265	1641.01658
320.786	1684.15024
321.307	1716.18078
321.828	1715.87988
322.348	1728.02485
322.869	1803.1384
323.389	1492.60349
323.909	1811.96769
324.43	1833.12833
324.95	1807.9789
325.47	1813.20499
325.989	1911.1633
326.509	1887.92681
327.029	1872.94742
327.548	1966.02863
328.067	1975.34643
328.587	1982.41614
329.106	1895.94277
329.625	2036.66533
330.144	2037.2057
330.662	2004.10409
331.181	2072.23685
331.7	2200.35302
332.218	2177.03808
332.736	2208.33826
333.255	2215.29947
333.773	2191.33421
334.291	2237.56934
334.808	2286.21728
335.326	2328.25185
335.844	2409.42792
336.361	2385.79088
336.879	2504.51868
337.396	2387.52853
337.913	2468.34323
338.43	2473.2687
338.947	2599.50646
339.464	2568.09004
339.981	2614.54426
340.497	2587.6605
341.014	2611.6889
341.53	2662.23618
342.046	2598.6509
342.562	2713.81741
343.078	2773.53351
343.594	2810.58202
344.11	2829.52581
344.626	2832.88431
345.141	2861.31648
345.657	2987.26651
346.172	2925.63816
346.687	2979.43424
347.202	2999.28565
347.717	3127.60631
348.232	3113.83906
348.747	3077.41376
349.261	3138.18235
349.776	3139.5016
350.29	3238.82606
350.805	3249.85739
351.319	3344.46704
351.833	3224.24408
352.347	3247.44895
352.861	3276.38562
353.374	3295.27647
353.888	3328.60701
354.401	3414.31635
354.915	3470.19167
355.428	3513.71617
355.941	3556.37942
356.454	3542.10242
356.967	3530.36704
357.48	3509.21877
357.993	3627.62139
358.505	3610.55302
359.018	3748.53383
359.53	3806.48954
360.042	3768.94836
360.554	3867.39085
361.066	3858.50343
361.578	3802.80098
362.09	3821.28226
362.602	3866.86449
363.113	4057.1381
363.625	3936.96256
364.136	4145.71043
364.647	4075.19979
365.158	4156.98508
365.669	4147.17323
366.18	4122.07683
366.691	4114.73133
367.201	4207.17473
367.712	4219.88793
368.222	4322.82999
368.733	4350.63917
369.243	4521.55807
369.753	4662.79194
370.263	4589.98541
370.773	4589.03445
371.282	4696.80602
371.792	4952.63755
372.301	4947.80107
372.811	4979.20718
373.32	5110.92682
373.829	5216.47041
374.338	5402.93098
374.847	5602.09215
375.356	5702.17337
375.865	5895.42471
376.373	6304.64974
376.882	6513.15543
377.39	6509.88156
377.898	6700.97996
378.407	6896.45465
378.915	7309.37758
379.423	7433.76505
379.93	7688.70269
380.438	8056.24841
380.946	8583.74435
381.453	8882.2219
381.96	9352.1382
382.468	9974.77609
382.975	10463.39079
383.482	10779.97444
383.989	10940.08796
384.495	11429.89182
385.002	12120.45906
385.509	12779.79773
386.015	13422.83595
386.521	14035.46238
387.028	14690.95782
387.534	14961.30515
388.04	15669.57239
388.546	16045.8103
389.051	16841.02777
389.557	18418.63965
390.063	19528.13641
390.568	20344.14067
391.073	20936.39564
391.578	21912.92288
392.084	22366.54045
392.589	23012.73468
393.093	24812.12845
393.598	27420.40434
394.103	29749.57814
394.607	32428.01131
395.112	34759.12821
395.616	36901.8365
396.12	40095.76824
396.624	44503.27487
397.128	48494.65811
397.632	53380.91707
398.136	57536.27562
398.639	60516.01751
399.143	61002.76257
399.646	61269.15804
400.15	60904.11498
400.653	60560.14334
401.156	60136.25446
401.659	59550.50961
402.162	58431.12733
402.664	54480.21957
403.167	49329.08451
403.67	22278.45323
404.172	2696.20453
404.674	0
405.176	0
405.678	0
406.18	0
406.682	0
407.184	0
407.686	25783.58453
408.187	43316.52985
408.688	51225.60928
409.19	54389.01922
409.691	56215.4214
410.192	57270.57019
410.693	57845.40442
411.194	58219.2365
411.694	58633.01717
412.195	59215.68848
412.696	59364.60701
413.196	59341.61941
413.696	59632.46864
414.196	59367.6054
414.696	59763.40624
415.196	59913.34014
415.696	60584.13941
416.196	61381.18813
416.695	61808.38326
417.195	60722.84141
417.694	57825.37323
418.194	54329.56875
418.693	51310.76603
419.192	50532.95664
419.691	49267.51869
420.19	48224.72206
420.688	46985.33172
421.187	44986.4548
421.685	41571.91806
422.184	37415.31429
422.682	32027.98142
423.18	27890.70422
423.678	25102.10134
424.176	23247.43992
424.674	21803.22871
425.172	20807.36797
425.669	19374.35145
426.167	18095.8465
426.664	16470.38607
427.161	15116.41543
427.659	14068.04475
428.156	13279.20849
428.652	12416.90044
429.149	11895.14525
429.646	11518.68872
430.143	10876.13082
430.639	10219.6262
431.135	9604.73221
431.632	9246.90138
432.128	8625.80134
432.624	8227.52122
433.12	7880.81274
433.616	7625.51768
434.111	7365.67457
434.607	7277.73212
435.103	7104.14443
435.598	6750.06722
436.093	6456.64762
436.588	6130.39898
437.083	5859.59643
437.578	5644.90127
438.073	5446.59457
438.568	5209.5013
439.062	5028.86093
439.557	4860.50211
440.051	4748.30389
440.546	4463.54094
441.04	4540.89764
441.534	4320.40604
442.028	4375.90203
442.522	4200.04005
443.015	4186.49917
443.509	4137.22182
444.002	3995.29783
444.496	3855.7349
444.989	3880.26874
445.482	3833.45744
445.975	3807.02164
446.468	3835.61112
446.961	3804.68919
447.454	3643.9245
447.947	3594.32261
448.439	3527.29469
448.931	3618.04363
449.424	3487.59473
449.916	3606.44031
450.408	3438.05775
450.9	3342.52289
451.392	3319.69047
451.884	3279.15848
452.375	3213.7247
452.867	3160.08994
453.358	3150.1884
453.849	3133.83396
454.341	3062.14325
454.832	3002.93444
455.323	2971.56117
455.814	3023.26296
456.304	2965.24277
456.795	2842.24262
457.285	2857.01993
457.776	2859.14994
458.266	2716.39659
458.756	2763.39729
459.247	2693.43773
459.737	2671.46922
460.226	2558.14829
460.716	2579.45857
461.206	2573.44801
461.695	2426.52122
462.185	2460.25191
462.674	2414.24678
463.163	2370.96509
463.653	2395.8711
464.142	2366.40091
464.63	2343.46801
465.119	2247.1365
465.608	2254.1906
466.096	2175.88493
466.585	2155.09491
467.073	2119.19269
467.561	2038.17025
468.05	2080.08428
468.538	2070.29242
469.026	2045.18403
469.513	2024.00857
470.001	1969.91468
470.489	1976.13378
470.976	1917.97911
471.463	1882.20341
471.951	1809.13751
472.438	1800.9293
472.925	1718.83934
473.412	1703.96254
473.899	1692.73212
474.385	1630.90491
474.872	1700.88897
475.359	1659.96965
475.845	1616.42313
476.331	1504.35297
476.817	1469.70559
477.303	1467.58171
477.789	1431.6471
478.275	1368.64708
478.761	1437.67659
479.247	1407.45642
479.732	1365.68683
480.218	1337.7613
480.703	1392.70635
481.188	1266.15438
481.673	1259.31298
482.158	1252.17147
482.643	1218.48466
483.128	1198.23181
483.612	1235.323
484.097	1101.21284
484.581	1165.19845
485.066	1145.31613
485.55	1077.99774
486.034	1054.89261
486.518	1108.1959
487.002	1079.26367
487.486	1055.17743
487.969	1042.18262
488.453	978.096
488.936	1093.08731
489.42	976.83741
489.903	983.10898
490.386	953.33707
490.869	915.72785
491.352	951.00007
491.835	938.68211
492.318	1032.03835
492.8	936.70086
493.283	933.09051
493.765	925.99887
494.247	879.80153
494.73	882.72191
495.212	813.75004
495.694	776.63926
496.175	867.84959
496.657	821.73553
497.139	794.2578
497.62	766.65762
498.102	806.79755
498.583	780.75314
499.064	800.64206
499.545	759.58197
500.026	747.53764
500.507	731.55793
500.988	780.76315
501.469	728.68021
501.949	703.60158
502.43	723.59078
502.91	694.35184
503.39	699.59055
503.87	684.50836
504.35	631.38006
504.83	678.39326
505.31	688.5311
505.79	675.51424
506.269	692.50692
506.749	609.31282
507.228	662.46103
507.707	689.41939
508.187	637.40082
508.666	628.45446
509.145	592.32489
509.623	630.377
510.102	604.38003
510.581	605.3554
511.059	608.43641
511.538	616.48054
512.016	664.49716
512.494	612.40001
512.972	543.23129
513.45	577.28783
513.928	598.38984
514.406	612.41457
514.884	614.48631
515.361	587.34196
515.839	581.27005
516.316	588.34775
516.793	583.39136
517.27	545.24333
517.747	542.32661
518.224	514.15719
518.701	564.2253
519.178	519.22475
519.654	517.17653
520.131	480.14025
520.607	542.2744
521.083	528.16545
521.56	536.2299
522.036	493.05923
522.512	457.07448
522.987	523.20266
523.463	523.20745
523.939	535.2528
524.414	534.18167
524.89	501.14741
525.365	548.20311
525.84	517.2054
526.315	525.22407
526.79	521.13967
527.265	558.2405
527.74	470.10874
528.215	528.20813
528.689	499.08227
529.164	439.93845
529.638	539.3273
530.112	517.1879
530.587	516.08136
531.061	497.16415
531.534	457.0653
532.008	516.20283
532.482	471.03662
532.956	465.14486
533.429	477.11897
533.903	417.90801
534.376	435.9472
534.849	473.07234
535.322	455.04981
535.795	505.18706
536.268	435.01472
536.741	479.11098
537.213	450.017
537.686	455.08677
538.158	453.996
538.631	435.02267
539.103	470.04285
539.575	439.8974
540.047	496.05951
540.519	461.07675
540.991	482.13578
541.463	495.15946
541.934	487.08803
542.406	448.0494
542.877	501.11383
543.348	445.05028
543.82	469.10403
544.291	504.1314
544.762	445.02873
545.233	503.21578
545.703	506.09351
546.174	531.19235
546.645	545.2613
547.115	563.30867
547.585	528.16934
548.056	589.37455
548.526	635.43142
548.996	583.32586
549.466	635.44598
549.935	627.40992
550.405	618.29148
550.875	627.40071
551.344	711.59309
551.814	644.40763
552.283	636.2898
552.752	691.5146
553.221	741.53622
553.69	727.48905
554.159	711.63934
554.628	714.50093
555.096	726.72194
555.565	685.44906
556.033	666.46741
556.502	677.53425
556.97	609.28867
557.438	600.34887
557.906	611.37166
558.374	601.31714
558.842	549.25398
559.31	551.19423
559.777	532.23531
560.245	567.28267
560.712	547.23184
561.18	587.27345
561.647	570.231
562.114	576.26679
562.581	541.27575
563.048	556.23758
563.514	512.21591
563.981	561.23247
564.448	583.26315
564.914	578.29511
565.381	601.30718
565.847	663.47085
566.313	694.52214
566.779	558.1999
567.245	660.4651
567.711	630.4418
568.176	688.46525
568.642	696.63682
569.108	728.67223
569.573	800.75478
570.038	812.60155
570.504	718.50007
570.969	791.84117
571.434	819.6928
571.899	855.86643
572.363	864.79266
572.828	863.7878
573.293	875.82638
573.757	853.77257
574.222	916.87616
574.686	911.88563
575.15	913.95867
575.614	919.89882
576.078	911.94684
576.542	914.87711
577.006	911.85542
577.469	908.00993
577.933	986.00172
578.396	894.90104
578.86	960.01682
579.323	944.04037
579.786	972.8737
580.249	933.9458
580.712	905.98723
581.175	967.11718
581.637	867.78571
582.1	912.81922
582.563	908.75098
583.025	908.9859
583.487	858.60778
583.95	844.70055
584.412	861.66696
584.874	846.85183
585.336	850.83324
585.797	842.67089
586.259	831.7911
586.721	816.75688
587.182	792.68841
587.643	830.72589
588.105	823.79504
588.566	800.54316
589.027	805.79495
589.488	799.68383
589.949	878.91947
590.41	832.50461
590.87	818.68885
591.331	823.61378
591.791	852.81796
592.252	845.78396
592.712	807.76532
593.172	859.78188
593.632	875.75622
594.092	902.82253
594.552	865.70423
595.011	910.88566
595.471	896.78562
595.931	895.79558
596.39	937.0248
596.849	944.96919
597.308	1020.94572
597.768	944.15956
598.227	987.065
598.685	1000.98482
599.144	1070.16567
599.603	1108.27221
600.062	1132.06597
600.52	1159.20517
600.978	1123.26126
601.437	1209.28836
601.895	1227.15645
602.353	1252.28347
602.811	1335.45065
603.269	1404.71946
603.727	1415.74663
604.184	1472.65416
604.642	1522.93047
605.099	1519.73444
605.557	1599.99976
606.014	1687.75352
606.471	1741.27072
606.928	1906.9423
607.385	1921.41113
607.842	2060.1376
608.299	2059.28839
608.755	2043.39714
609.212	2123.08879
609.668	2138.15703
610.125	2275.54072
610.581	2300.43402
611.037	2248.26025
611.493	2229.39124
611.949	2316.70066
612.405	2264.7773
612.861	2340.4318
613.316	2343.54382
613.772	2384.40888
614.227	2378.54083
614.683	2469.07632
615.138	2443.48622
615.593	2449.46325
616.048	2465.33584
616.503	2475.69225
616.958	2557.91137
617.412	2501.54346
617.867	2445.23446
618.321	2423.94914
618.776	2465.2514
619.23	2358.43012
619.684	2477.3187
620.138	2336.35458
620.592	2411.65541
621.046	2334.3943
621.5	2277.62219
621.954	2252.20925
622.407	2234.15183
622.861	2249.53916
623.314	2172.19309
623.768	2101.28011
624.221	2067.66631
624.674	2057.1848
625.127	2038.21906
625.58	2011.09283
626.033	1938.89282
626.485	1895.22659
626.938	1887.17389
627.39	1899.12962
627.843	1786.9945
628.295	1795.96054
628.747	1786.08363
629.199	1771.91422
629.651	1651.81926
630.103	1708.91037
630.555	1584.50351
631.006	1632.87299
631.458	1627.91208
631.909	1558.68693
632.361	1567.79278
632.812	1556.77379
633.263	1490.45567
633.714	1466.39862
634.165	1468.83297
634.616	1488.78207
635.067	1334.33625
635.518	1397.6414
635.968	1415.17506
636.419	1417.40576
636.869	1299.49129
637.319	1349.49615
637.769	1336.41773
638.219	1345.52191
638.669	1288.50493
639.119	1320.63013
639.569	1304.54208
640.019	1308.41825
640.468	1312.34419
640.918	1292.49616
641.367	1246.27933
641.816	1319.38624
642.265	1263.37119
642.714	1253.35466
643.163	1330.4931
643.612	1292.60029
644.061	1319.29245
644.51	1322.49136
644.958	1287.28936
645.406	1327.57426
645.855	1266.55601
646.303	1296.44222
646.751	1291.42037
647.199	1202.25801
647.647	1254.36286
648.095	1351.51962
648.543	1321.15445
648.99	1222.38752
649.438	1316.49808
649.885	1362.71518
650.333	1361.0828
650.78	1344.65834
651.227	1312.64419
651.674	1322.40799
652.121	1314.58086
652.568	1263.54011
653.015	1315.67613
653.461	1306.52208
653.908	1375.55949
654.354	1285.47379
654.801	1334.52989
655.247	1365.3877
655.693	1312.81696
656.139	1329.58666
656.585	1305.51954
657.031	1345.54774
657.477	1388.38334
657.922	1355.51472
658.368	1267.56326
658.813	1354.47267
659.259	1379.65896
659.704	1286.42097
660.149	1349.5541
660.594	1337.56801
661.039	1372.48438
661.484	1348.55405
661.929	1288.44125
662.373	1332.77715
662.818	1379.77245
663.262	1288.53442
663.707	1332.73695
664.151	1338.64033
664.595	1319.55388
665.039	1384.76036
665.483	1324.75199
665.927	1319.48991
666.371	1353.52707
666.814	1397.63757
667.258	1354.63604
667.701	1395.33404
668.145	1397.76653
668.588	1325.61282
669.031	1380.63377
669.474	1336.59114
669.917	1354.35789
670.36	1403.79639
670.803	1378.60979
671.245	1399.30658
671.688	1304.55044
672.13	1345.42365
672.573	1357.72568
673.015	1413.70142
673.457	1369.35613
673.899	1409.66544
674.341	1366.63696
674.783	1375.62106
675.225	1374.67379
675.666	1369.68596
676.108	1336.29115
676.549	1410.61263
676.991	1409.47274
677.432	1392.22015
677.873	1302.40831
678.314	1384.63256
678.755	1346.63275
679.196	1300.40817
679.637	1332.5919
680.078	1355.49368
680.518	1350.48629
680.959	1345.61294
681.399	1334.68859
681.839	1318.58029
682.28	1271.56903
682.72	1346.47399
683.16	1281.56932
683.6	1268.31044
684.039	1289.13112
684.479	1328.64002
684.919	1345.52437
685.358	1297.66914
685.798	1303.78634
686.237	1254.4766
686.676	1298.37953
687.115	1245.37151
687.554	1306.47904
687.993	1238.20694
688.432	1328.42381
688.871	1309.40874
689.309	1345.55143
689.748	1260.06177
690.186	1289.45318
690.625	1265.38191
691.063	1363.60809
691.501	1335.60691
691.939	1342.66175
692.377	1345.60433
692.815	1253.44763
693.253	1404.64762
693.69	1355.35656
694.128	1346.62659
694.565	1334.52013
695.003	1327.70664
695.44	1347.52075
695.877	1439.64883
696.314	1287.17101
696.751	1331.36675
697.188	1420.53672
697.625	1443.5209
698.061	1362.60431
698.498	1425.66067
698.934	1432.70188
699.371	1381.58205
699.807	1350.51959
700.243	1382.64012
700.679	1429.50412
701.115	1365.49968
701.551	1441.61968
701.987	1514.58452
702.422	1487.73751
702.858	1425.61647
703.294	1492.54538
703.729	1497.82011
704.164	1518.79548
704.599	1498.52448
705.035	1529.62899
705.47	1577.9598
705.904	1590.81595
706.339	1515.57869
706.774	1576.75957
707.209	1531.67965
707.643	1609.89284
708.078	1693.08194
708.512	1640.10038
708.946	1593.79745
709.38	1591.79248
709.814	1607.68265
710.248	1647.93014
710.682	1692.94405
711.116	1661.96873
711.549	1640.13466
711.983	1626.76967
712.416	1695.89647
712.85	1706.12659
713.283	1712.95124
713.716	1708.10087
714.149	1687.87814
714.582	1801.8576
715.015	1745.0966
715.448	1754.18167
715.881	1735.61396
716.313	1784.96385
716.746	1757.98106
717.178	1810.06513
717.61	1762.17235
718.043	1801.16738
718.475	1800.05128
718.907	1893.31845
719.339	1814.89712
719.77	1721.96297
720.202	1771.21027
720.634	1895.25893
721.065	1907.11224
721.497	1892.21549
721.928	1881.24649
722.359	1940.28219
722.79	1911.22837
723.221	1974.35621
723.652	1943.39632
724.083	1913.97281
724.514	1949.015
724.945	1933.10341
725.375	1997.1791
725.806	1923.25746
726.236	1934.40046
726.666	1997.15601
727.096	1991.31859
727.526	1999.46991
727.956	2062.03167
728.386	2045.33121
728.816	2027.45903
729.246	2072.38777
729.675	2087.42842
730.105	2050.27107
730.534	2121.18083
730.964	2160.49336
731.393	2084.33168
731.822	2175.60782
732.251	2125.51247
732.68	2188.18265
733.109	2148.39559
733.537	2209.38548
733.966	2265.60077
734.395	2213.1648
734.823	2216.99934
735.251	2275.44272
735.68	2216.52842
736.108	2253.57739
736.536	2268.25438
736.964	2220.21478
737.392	2300.5814
737.82	2229.34816
738.247	2258.32048
738.675	2372.35626
739.102	2353.64594
739.53	2338.71995
739.957	2304.75036
740.384	2293.42634
740.811	2363.63688
741.238	2234.43143
741.665	2331.21079
742.092	2329.36351
742.519	2228.49667
742.945	2282.38256
743.372	2364.5939
743.798	2346.75359
744.225	2346.35914
744.651	2422.65238
745.077	2352.58968
745.503	2367.46933
745.929	2304.36965
746.355	2408.56982
746.781	2397.57714
747.207	2428.43579
747.632	2368.58561
748.058	2412.62851
748.483	2431.25273
748.908	2381.56932
749.334	2397.5625
749.759	2370.27133
750.184	2445.45108
750.609	2392.55802
751.033	2384.31186
751.458	2294.0465
751.883	2418.57028
752.307	2335.34397
752.732	2311.66298
753.156	2347.59937
753.58	2404.39456
754.005	2363.63066
754.429	2348.33354
754.853	2213.47369
755.277	2261.23521
755.7	2292.5445
756.124	2303.55274
756.548	2280.35959
756.971	2229.33838
757.394	2283.73888
757.818	2240.65849
758.241	2137.54207
758.664	2272.6432
759.087	2243.07825
759.51	2166.4341
759.933	2163.35182
760.356	2184.58898
760.778	2217.51338
761.201	2109.32081
761.623	2106.24986
762.046	2151.22483
762.468	2045.1261
762.89	2110.34392
763.312	2170.42903
763.734	2068.24333
764.156	1994.30493
764.578	2047.07859
765	2035.30021
765.421	1983.44546
765.843	1968.52086
766.264	1948.15822
766.686	1847.19064
767.107	1911.13594
767.528	1910.36481
767.949	1827.28266
768.37	1749.99891
768.791	1842.09334
769.212	1768.2024
769.632	1767.91392
770.053	1744.34358
770.473	1738.00953
770.894	1696.03443
771.314	1679.82197
771.734	1627.77359
772.154	1598.0178
772.575	1640.71526
772.994	1615.66261
773.414	1595.79954
773.834	1590.96764
774.254	1568.90646
774.673	1551.80077
775.093	1496.81481
775.512	1462.73998
775.931	1455.83506
776.351	1435.74359
776.77	1466.74616
777.189	1420.58459
777.607	1381.76511
778.026	1382.70961
778.445	1354.69302
778.864	1374.75673
779.282	1358.55939
779.701	1268.54263
780.119	1299.69466
780.537	1264.5485
780.955	1196.44193
781.373	1197.39732
781.791	1236.21126
782.209	1137.11628
782.627	1206.63899
783.045	1191.23455
783.462	1179.48337
783.88	1060.31172
784.297	1116.33676
784.715	1033.26084
785.132	1089.21469
785.549	1083.27903
785.966	1094.28965
786.383	1048.16633
786.8	1048.03342
787.217	999.00841
787.633	1010.14797
788.05	955.90465
788.466	947.84855
788.883	903.9961
789.299	933.92604
789.715	932.96216
790.131	938.02567
790.547	838.81583
790.963	869.8954
791.379	789.77518
791.795	842.66468
792.21	773.5905
792.626	768.60535
793.041	776.71851
793.457	848.84686
793.872	740.54813
794.287	737.58634
794.702	740.6197
795.117	692.56795
795.532	688.57464
795.947	660.43596
796.362	641.39605
796.776	659.37029
797.191	660.47723
797.605	630.38802
798.02	626.39301
798.434	610.2229
798.848	589.35139
799.262	620.42968
799.676	537.20683
800.09	601.38555
800.504	513.15517
800.918	517.13328
801.331	522.25868
801.745	505.08693
802.158	459.08631
802.572	500.12241
802.985	452.02693
803.398	437.99064
803.811	425.01847
804.224	413.9681
804.637	489.10463
805.05	411.90178
805.462	418.97618
805.875	370.92741
806.288	393.92051
806.7	384.92907
807.112	362.79947
807.525	356.84511
807.937	334.79961
808.349	354.8549
808.761	348.82803
809.173	325.76336
809.584	343.81316
809.996	298.71671
810.408	296.74972
810.819	343.79021
811.231	382.97055
811.642	471.09455
812.053	539.2321
812.464	469.06842
812.875	430.04473
813.286	345.8615
813.697	315.715
814.108	277.66103
814.519	233.51127
814.929	219.54989
815.34	283.68309
815.75	243.61146
816.16	242.59174
816.571	196.49948
816.981	218.50717
817.391	266.63563
817.801	268.66357
818.211	193.45105
818.62	229.55256
819.03	181.44038
819.44	197.506
819.849	193.47868
820.259	186.46679
820.668	164.40669
821.077	172.43135
821.486	180.43031
821.895	174.42358
822.304	139.36819
822.713	180.42817
823.122	196.48639
823.531	165.39574
823.939	185.45179
824.348	193.46992
824.756	198.49458
825.164	166.4133
825.573	211.53399
825.981	149.36875
826.389	187.46905
826.797	104.25998
827.205	139.32524
827.612	191.47113
828.02	139.33122
828.428	128.32884
828.835	167.43835
829.243	188.45132
829.65	130.32556
830.057	144.35291
830.464	104.25602
830.871	132.3175
831.278	75.18344
831.685	116.2638
832.092	123.30552
832.499	119.26387
832.905	96.24465
833.312	137.31641
833.718	130.32579
834.124	76.17633
834.531	133.33469
834.937	55.14098
835.343	74.18224
835.749	55.12915
836.155	111.29107
836.561	79.19859
836.966	97.23998
837.372	128.327
837.777	130.32814
838.183	105.23506
838.588	42.10514
838.993	111.27169
839.399	77.19133
839.804	47.11713
840.209	84.21889
840.613	78.17796
841.018	28.07189
841.423	99.25518
841.828	70.18084
842.232	110.27268
842.637	79.19078
843.041	74.19369
843.445	51.13036
843.849	55.13811
844.253	95.22924
844.657	117.29854
845.061	119.27506
845.465	83.20406
845.869	96.22749
846.272	63.15729
846.676	50.12218
847.079	86.22364
847.483	45.11328
847.886	35.08538
848.289	99.26618
848.692	52.13383
849.095	68.16734
849.498	96.24171
849.901	32.07501
850.304	76.18571
850.707	37.09534
851.109	45.11438
851.512	88.22101
851.914	80.20811
852.316	13.03323
852.718	49.12936
853.121	56.14004
853.523	64.15493
853.925	47.12554
854.326	51.12908
854.728	48.12623
855.13	62.16382
855.531	115.28158
855.933	60.14448
856.334	73.18535
856.736	110.25208
857.137	63.14926
857.538	74.19045
857.939	75.19029
858.34	74.18264
858.741	67.17671
859.142	51.12539
859.542	50.13441
859.943	74.18605
860.343	13.03309
860.744	65.16052
861.144	-2.00496
861.544	44.10959
861.945	77.20075
862.345	78.19258
862.745	64.16362
863.145	69.16656
863.544	41.10528
863.944	-6.01449
864.344	62.15588
864.743	25.06278
865.143	68.17701
865.542	43.1027
865.941	63.15979
866.34	86.20803
866.74	52.14043
867.139	84.20663
867.537	44.11355
867.936	26.06445
868.335	87.22386
868.734	88.23017
869.132	81.19324
869.531	24.05858
869.929	73.17235
870.327	49.12083
870.726	22.05533
871.124	56.13449
871.522	22.05731
871.92	80.20078
872.318	31.0774
872.715	39.09698
873.113	51.1277
873.511	75.19184
873.908	22.05766
874.306	74.18865
874.703	40.10144
875.1	76.19566
875.497	56.13847
875.894	65.1641
876.291	40.09978
876.688	67.17724
877.085	58.14057
877.482	45.1143
877.878	77.1891
878.275	31.08079
878.671	85.19272
879.068	108.26263
879.464	79.19337
879.86	24.05817
880.256	54.13514
880.652	57.14733
881.048	52.13008
881.444	40.09603
881.84	29.07499
882.236	50.12724
882.631	85.2136
883.027	47.11487
883.422	21.05464
883.817	79.20498
884.213	73.19045
884.608	32.08095
885.003	85.20975
885.398	53.13676
885.793	45.11462
886.188	40.10287
886.582	28.07204
886.977	69.16682
887.371	-24.06155
887.766	27.06914
888.16	55.1391
888.554	14.03504
888.949	30.07629
889.343	18.04467
889.737	60.16393
890.131	32.08112
890.525	30.07799
890.918	28.07121
891.312	26.06268
891.706	-3.00791
892.099	50.12747
892.492	100.22077
892.886	44.10912
893.279	37.09646
893.672	-28.07214
894.065	55.1392
894.458	99.25323
894.851	77.19043
895.244	19.04937
895.637	72.17698
896.029	38.09455
896.422	29.07209
896.814	39.09846
897.206	3.00736
897.599	55.13662
897.991	-9.02228
898.383	83.2018
898.775	50.11546
899.167	40.09661
899.559	51.13041
899.951	44.10571
900.342	20.05133
900.734	27.0696
901.125	11.02937
901.517	66.16552
901.908	16.03907
902.299	52.13177
902.69	41.09953
903.082	63.15472
903.473	48.11864
903.863	54.1397
904.254	75.1792
904.645	34.08613
905.036	57.14153
905.426	75.17315
905.817	59.14789
906.207	52.12773
906.597	-23.05525
906.987	74.19362
907.378	17.04352
907.768	47.126
908.158	29.07225
908.547	22.05821
908.937	-11.02861
909.327	96.23702
909.717	48.1225
910.106	-9.02223
910.495	50.12684
910.885	64.165
911.274	22.05611
911.663	-4.01028
912.052	15.03748
912.441	32.08221
912.83	52.12299
913.219	36.09509
913.608	36.08954
913.997	31.07982
914.385	37.08965
914.774	1.0025
915.162	27.06653
915.55	17.04198
915.939	23.05929
916.327	28.07025
916.715	20.05196
917.103	38.09448
917.491	39.09716
917.878	-10.02487
918.266	-36.09468
918.654	29.07602
919.041	16.0428
919.429	30.07287
919.816	33.0845
920.203	45.1117
920.591	23.0579
920.978	5.01234
921.365	27.07202
921.752	22.05408
922.139	83.18573
922.525	49.12158
922.912	23.05703
923.299	28.07131
923.685	34.09038
924.072	-6.01406
924.458	45.11341
924.844	18.04576
925.231	43.10274
925.617	44.11438
926.003	56.14447
926.389	55.14098
926.774	48.12345
927.16	58.14619
927.546	65.1697
927.931	50.12675
928.317	15.03522
928.702	38.09095
929.088	33.08059
929.473	7.01814
929.858	9.02255
930.243	22.05434
930.628	65.16281
931.013	39.09881
931.398	59.13719
931.783	4.01064
932.167	23.05817
932.552	28.0707
932.937	51.12797
933.321	20.05147
933.705	57.14631
934.09	55.139
934.474	44.10616
934.858	8.02115
935.242	35.08363
935.626	49.12823
936.009	-7.01874
936.393	29.07486
936.777	26.06789
937.16	11.02897
937.544	48.1144
937.927	25.0652
938.311	52.12815
938.694	4.01069
939.077	6.01477
939.46	9.022
939.843	86.18589
940.226	51.13265
940.609	77.18363
940.991	15.03903
941.374	37.09254
941.757	11.02753
942.139	50.11725
942.522	32.0765
942.904	43.10548
943.286	32.08193
943.668	64.16786
944.05	18.04545
944.432	65.16457
944.814	-10.025
945.196	43.10837
945.578	59.14618
945.959	51.12232
946.341	-21.05178
946.722	20.048
947.104	44.1076
947.485	29.06926
947.866	86.22241
948.247	0
948.628	-49.12234
949.009	21.05516
949.39	23.05815
949.771	82.19394
950.152	49.12331
950.532	-2.00512
950.913	32.07881
951.293	47.12884
951.674	97.24208
952.054	41.10488
952.434	18.04548
952.814	42.1021
953.194	26.06852
953.574	29.07188
953.954	44.10684
954.334	19.04852
954.714	51.12737
955.093	66.16301
955.473	10.02547
955.853	8.02101
956.232	-15.04142
956.611	43.10478
956.99	44.11336
957.37	50.12958
957.749	77.18735
958.128	53.13681
958.506	72.19101
958.885	51.13132
959.264	57.14467
959.643	29.0674
960.021	67.16939
960.4	61.14223
960.778	72.17907
961.156	53.13586
961.535	51.12088
961.913	20.04811
962.291	64.16905
962.669	17.04365
963.047	22.05684
963.424	19.04926
963.802	77.1928
964.18	41.10488
964.557	57.134
964.935	84.20159
965.312	59.15461
965.69	46.11578
966.067	78.19308
966.444	-9.02258
966.821	8.02092
967.198	54.13244
967.575	17.04203
967.952	62.14805
968.329	24.05984
968.705	44.09621
969.082	53.13865
969.458	50.12431
969.835	20.04962
970.211	37.09732
970.587	57.14344
970.963	45.11644
971.339	20.0532
971.715	28.07108
972.091	60.14993
972.467	60.15167
972.843	-11.02808
973.219	32.07723
973.594	68.18172
973.97	65.15614
974.345	49.12011
974.721	17.04147
975.096	25.06178
975.471	26.06318
975.846	28.0685
976.221	47.12262
976.596	56.13765
976.971	3.00757
977.346	30.07093
977.72	61.15778
978.095	4.01058
978.469	7.01706
978.844	18.04561
979.218	22.0539
979.593	48.11659
979.967	15.03734
980.341	-27.06422
980.715	62.15879
981.089	-10.02537
981.463	91.21593
981.837	43.10774
982.21	50.11789
982.584	22.05452
982.957	44.11253
983.331	89.2133
983.704	-26.06467
984.078	-11.02801
984.451	11.02758
984.824	13.03261
985.197	40.09858
985.57	33.08412
985.943	27.06717
986.316	61.1513
986.688	46.11224
987.061	67.16119
987.434	31.08201
987.806	58.14315
988.179	43.10451
988.551	88.22545
988.923	23.05778
989.295	-3.00751
989.667	28.06931
990.039	24.06112
990.411	34.0802
990.783	52.12179
991.155	39.09769
991.527	56.13811
991.898	22.05626
992.27	5.01262
992.641	28.07106
993.012	43.10313
993.384	-14.03416
993.755	43.11207
994.126	-15.03701
994.497	34.08549
994.868	38.08994
995.239	14.03454
995.61	67.17168
995.98	47.11751
996.351	12.03042
996.722	79.18933
997.092	10.02448
997.462	38.09185
997.833	16.03867
998.203	29.07119
998.573	-18.04591
998.943	44.10624
999.313	27.06668
999.683	82.20201
1000.053	63.14857
1000.423	-24.05956
1000.792	33.08744
1001.162	2.00502
1001.531	28.07053
1001.901	50.12823
1002.27	21.04837
1002.639	66.17139
1003.009	4.00971
1003.378	-18.04676
1003.747	63.153
1004.116	46.11274
1004.485	11.02674
1004.853	41.10532
1005.222	11.02807
1005.591	43.10376
1005.959	31.07296
1006.328	34.07889
1006.696	49.12176
1007.064	-7.01796
1007.433	31.07852
1007.801	11.02729
1008.169	-5.01278
1008.537	66.14967
1008.905	55.13182
1009.273	20.04983
1009.64	28.06934
1010.008	43.10513
1010.375	19.04566
1010.743	84.19497
1011.11	4.0098
1011.478	12.0302
1011.845	68.16182
1012.212	57.13301
1012.579	-11.02753
1012.946	26.06304
1013.313	33.07945
1013.68	63.14377
1014.047	-3.00743
1014.414	33.08029
1014.78	16.04034
1015.147	11.02685
1015.513	35.08627
1015.88	24.0616
1016.246	11.02722
1016.612	23.05333
1016.978	68.16876
1017.344	65.16381
1017.71	1.00246
1018.076	48.11462
1018.442	-7.01821
1018.808	43.10941
1019.174	30.07702
1019.539	52.11921
1019.905	6.01455
1020.27	17.04318
1020.636	36.08787
1021.001	14.03416
1021.366	10.02472
1021.731	18.04647
1022.096	7.01813
1022.461	18.04362
1022.826	25.06062
1023.191	-7.01867
1023.556	29.07003
1023.92	29.07198
1024.285	24.05976
1024.649	15.03764
1025.014	51.1283
1025.378	36.09223
1025.742	33.08379
1026.107	23.05308
1026.471	33.07743
1026.835	63.15939
1027.199	47.11794
1027.562	62.14658
1027.926	10.02491
1028.29	66.17033
1028.654	42.09891
1029.017	18.04469
1029.381	27.06614
1029.744	15.03868
1030.107	63.15059
1030.471	1.00243
1030.834	13.03025
1031.197	18.04369
1031.56	34.0815
1031.923	32.08379
1032.286	28.06691
1032.648	31.07627
1033.011	12.02815
1033.374	10.02382
1033.736	-13.03505
1034.099	60.1495
1034.461	-46.11913
1034.823	28.07075
1035.185	34.08692
1035.548	56.13923
1035.91	46.11224
1036.272	1.00232
1036.634	22.05424
1036.995	32.07758
1037.357	-1.0025
1037.719	-3.00738
1038.08	7.01694
1038.442	7.01699
1038.803	38.09251
1039.165	57.14713
1039.526	-17.0422
1039.887	27.06623
1040.248	-13.03286
1040.609	21.05214
1040.97	23.05771
1041.331	48.12297
1041.692	69.16726
1042.053	54.12583
1042.413	45.10699
1042.774	11.02723
1043.134	62.15015
1043.495	41.10377
1043.855	-4.00994
1044.215	24.06103
1044.576	49.12118
1044.936	23.05394
1045.296	49.12371
1045.656	6.01493
1046.016	44.10704
1046.375	-7.01729
1046.735	9.02116
1047.095	-9.02167
1047.454	36.07821
1047.814	24.05891
1048.173	-13.03106
1048.533	6.01411
1048.892	17.0423
1049.251	49.12463
1049.61	23.05767
1049.969	70.16997
1050.328	-7.01572
1050.687	36.08892
1051.046	31.07602
1051.405	53.13486
1051.763	2.00476
1052.122	-25.06413
1052.48	-31.0772
1052.839	18.04341
1053.197	19.04607
1053.555	-40.09156
1053.914	-13.0322
1054.272	-4.00976
1054.63	6.01517
1054.988	32.07805
1055.345	25.05557
1055.703	4.00982
1056.061	39.10133
1056.419	11.02895
1056.776	-2.0049
1057.134	32.07601
1057.491	20.05072
1057.848	12.03012
1058.206	49.11761
1058.563	32.0723
1058.92	27.06276
1059.277	37.09224
1059.634	27.06459
1059.991	21.0514
1060.348	-2.0047
1060.704	13.03194
1061.061	70.16344
1061.418	-7.01734
1061.774	53.13285
1062.131	45.12103
1062.487	26.06235
1062.843	17.04284
1063.199	72.18213
1063.555	28.06714
1063.911	-15.03834
1064.267	29.06181
1064.623	34.08438
1064.979	43.10306
1065.335	39.09393
1065.691	28.06804
1066.046	-30.0667
1066.402	72.16864
1066.757	56.14191
1067.112	0
1067.468	108.26459
1067.823	26.06412
1068.178	20.04894
1068.533	55.13542
1068.888	29.07022
1069.243	27.0677
1069.598	32.07936
1069.952	65.1509
1070.307	67.17024
1070.662	20.04834
1071.016	10.02316
1071.371	31.07191
1071.725	54.13048
1072.079	-40.09851
1072.434	63.15603
1072.788	54.13127
1073.142	72.17953
1073.496	-23.05615
1073.85	12.02822
1074.203	60.14993
1074.557	-9.02442
1074.911	36.08626
1075.265	62.14613
1075.618	36.08836
1075.971	25.06062
1076.325	18.0467
1076.678	32.07601
1077.031	10.02347
1077.385	64.14525
1077.738	32.07445
1078.091	-13.03084
1078.444	73.17168
1078.796	19.04721
1079.149	12.03025
1079.502	56.1371
1079.855	30.07211
1080.207	28.07007
1080.56	26.06808
1080.912	20.04929
1081.264	8.01972
1081.617	54.13528
1081.969	11.0286
1082.321	7.01736
1082.673	19.04514
1083.025	40.09716
1083.377	44.09747
1083.728	22.05201
1084.08	7.01777
1084.432	10.02478
1084.783	-2.00479
1085.135	27.06894
1085.486	26.06206
1085.838	46.11537
1086.189	-10.02474
1086.54	9.02188
1086.891	5.013
1087.242	-17.04209
1087.593	80.19556
1087.944	8.01844
1088.295	50.11573
1088.646	25.06228
1088.996	-18.04452
1089.347	9.02257
1089.698	-3.00733
1090.048	-27.07063
1090.398	7.01651
1090.749	29.0709
1091.099	106.27346
1091.449	21.05319
1091.799	57.14473
1092.149	45.11414
1092.499	5.01244
1092.849	42.10892
1093.199	41.10296
1093.548	15.03712
1093.898	18.04595
1094.248	11.02859
1094.597	32.08444
1094.947	7.01888
1095.296	-19.0479
1095.645	33.08668
1095.994	0
1096.343	50.12706
1096.692	51.13909
1097.041	-28.07677
1097.39	45.11571
1097.739	52.13624
1098.088	53.14306
1098.437	8.02149
1098.785	-22.05976
1099.134	25.0668
1099.482	27.07507
1099.83	-15.03981
1100.179	32.0856
1100.527	24.06422
1100.875	-10.02694
1101.223	15.04026
1101.571	16.04476
1101.919	38.10202
1102.267	-18.05134
1102.615	12.03868
1102.962	-2.00644
1103.31	1.00322
1103.658	4.01292
