Data from N2 R0 60C sample9_Subt2__4__11-32-55-184.txt Node

Date: Tue Aug 19 11:32:55 PDT 2025
User: uwsun
Spectrometer: HDX01956
Trigger mode: 0
Integration Time (sec): 5.000000E-1
Scans to average: 1
Nonlinearity correction enabled: true
Boxcar width: 0
Storing dark spectrum: false
XAxis mode: Wavelengths
Number of Pixels in Spectrum: 2068
>>>>>Begin Spectral Data<<<<<
194.03	378.0466
194.578	372.15812
195.127	376.15367
195.676	363.1199
196.225	396.03095
196.773	476.27281
197.321	637.67078
197.87	883.0758
198.418	851.98933
198.966	919.17465
199.513	845.92208
200.061	840.96171
200.609	866.07548
201.156	826.64977
201.704	856.98345
202.251	870.11416
202.798	915.14857
203.345	889.98797
203.892	889.02515
204.438	884.9131
204.985	908.97006
205.532	868.08106
206.078	964.11105
206.624	906.01794
207.17	933.94151
207.716	919.01199
208.262	880.55282
208.808	925.08102
209.354	923.02837
209.899	946.11317
210.445	927.08976
210.99	928.02788
211.535	932.97845
212.08	1003.08378
212.625	984.19541
213.17	881.01897
213.715	896.8525
214.259	895.88381
214.804	879.9503
215.348	895.83435
215.892	883.90972
216.436	904.88404
216.98	938.86941
217.524	844.81952
218.068	881.03262
218.612	896.03415
219.155	852.82267
219.698	850.84497
220.242	812.85259
220.785	818.7401
221.328	814.84449
221.871	796.83209
222.414	754.73541
222.956	853.89495
223.499	804.65917
224.041	822.74635
224.583	740.45662
225.126	797.60759
225.668	796.76721
226.21	814.8698
226.751	800.61992
227.293	781.66026
227.835	804.81225
228.376	829.73259
228.918	842.93334
229.459	791.81516
230	792.72266
230.541	847.803
231.082	772.69688
231.622	780.6434
232.163	787.75552
232.704	806.8175
233.244	799.81306
233.784	832.84715
234.324	795.63582
234.864	741.56014
235.404	799.73386
235.944	830.78093
236.484	778.76148
237.023	816.77414
237.563	787.66868
238.102	786.68212
238.641	838.92799
239.18	810.74693
239.719	790.81612
240.258	873.77072
240.797	817.79696
241.335	822.83475
241.874	856.51429
242.412	861.89219
242.95	825.80471
243.488	909.86893
244.026	815.70857
244.564	844.57528
245.102	828.69271
245.64	841.82117
246.177	857.7485
246.715	871.89016
247.252	828.73241
247.789	836.42825
248.326	899.96085
248.863	905.79815
249.4	852.75675
249.936	862.59148
250.473	822.76148
251.009	896.86736
251.546	842.6872
252.082	912.78644
252.618	835.68509
253.154	892.94681
253.69	820.67256
254.226	863.85852
254.761	876.80547
255.297	850.67424
255.832	865.83576
256.367	905.92319
256.903	852.67269
257.438	845.79485
257.972	915.83744
258.507	926.91627
259.042	923.80844
259.576	855.69633
260.111	944.93442
260.645	908.73342
261.179	849.79319
261.713	922.85193
262.247	901.87737
262.781	897.69793
263.315	919.0263
263.849	950.12471
264.382	889.82614
264.915	981.05604
265.449	984.1675
265.982	947.9288
266.515	949.03769
267.048	962.83225
267.58	978.88708
268.113	934.8055
268.646	918.03629
269.178	920.84537
269.71	932.82309
270.243	912.85536
270.775	956.14426
271.307	958.03373
271.838	929.93403
272.37	945.0629
272.902	977.95667
273.433	936.79472
273.965	971.08855
274.496	905.99055
275.027	980.14252
275.558	937.02394
276.089	985.15933
276.62	950.14208
277.15	935.02047
277.681	929.80994
278.211	922.96145
278.741	952.87279
279.272	965.94505
279.802	974.13207
280.332	1062.16799
280.861	990.09721
281.391	949.9084
281.921	978.07714
282.45	988.17631
282.98	978.25073
283.509	999.9557
284.038	957.9342
284.567	979.98502
285.096	1049.20933
285.625	1025.04664
286.153	988.01942
286.682	968.95957
287.21	1008.13261
287.739	1029.13693
288.267	1024.16555
288.795	1003.27308
289.323	1053.16846
289.851	1119.25833
290.378	1063.06894
290.906	1071.25473
291.433	1023.20801
291.961	1053.06395
292.488	1071.28911
293.015	1050.16565
293.542	1076.37123
294.069	1063.24275
294.596	1097.31154
295.122	1090.23525
295.649	1032.9658
296.175	1129.36349
296.702	1130.32153
297.228	1091.26284
297.754	1160.24486
298.28	1164.2398
298.806	1087.24456
299.332	1204.24523
299.857	1138.17712
300.383	1123.41781
300.908	1136.3568
301.433	1122.3061
301.958	1112.1681
302.483	1197.51583
303.008	1159.4221
303.533	1156.52748
304.058	1197.36767
304.582	1181.35981
305.107	1213.6781
305.631	1221.28988
306.155	1200.35105
306.679	1133.22837
307.203	1206.34845
307.727	1190.36308
308.251	1210.49827
308.775	1252.48067
309.298	1313.61436
309.822	1262.64385
310.345	1315.5726
310.868	1218.42436
311.391	1347.67723
311.914	1279.65314
312.437	1357.49242
312.96	1279.47158
313.482	1331.55159
314.005	1344.75056
314.527	1342.88869
315.049	1349.73181
315.571	1436.56674
316.093	1470.88514
316.615	1442.77478
317.137	1441.46113
317.659	1471.83944
318.18	1452.7278
318.702	1493.67792
319.223	1500.42491
319.744	1501.62414
320.265	1450.79154
320.786	1539.98081
321.307	1547.98647
321.828	1625.79366
322.348	1636.93198
322.869	1692.02876
323.389	1424.56977
323.909	1592.76323
324.43	1684.98642
324.95	1689.87243
325.47	1746.13864
325.989	1756.02669
326.509	1776.84052
327.029	1737.83746
327.548	1791.89605
328.067	1832.21981
328.587	1820.26754
329.106	1763.83925
329.625	1810.44101
330.144	1864.07382
330.662	1825.9696
331.181	1967.16222
331.7	1927.16422
332.218	2005.94421
332.736	1950.16498
333.255	1986.15339
333.773	2037.23464
334.291	2064.44813
334.808	2147.14706
335.326	2188.18457
335.844	2190.3182
336.361	2171.65133
336.879	2238.3944
337.396	2146.39238
337.913	2206.22875
338.43	2318.21138
338.947	2272.37336
339.464	2353.03386
339.981	2405.46795
340.497	2355.56032
341.014	2403.6031
341.53	2371.15945
342.046	2451.59366
342.562	2562.76451
343.078	2579.48722
343.594	2521.50754
344.11	2600.4779
344.626	2587.80794
345.141	2648.28933
345.657	2683.24632
346.172	2630.58031
346.687	2691.40329
347.202	2758.27472
347.717	2819.58584
348.232	2803.79871
348.747	2818.40438
349.261	2853.19409
349.776	2877.49578
350.29	2995.81812
350.805	3010.84972
351.319	3004.49116
351.833	2948.26451
352.347	3016.46177
352.861	2961.40461
353.374	3094.30086
353.888	3005.61972
354.401	3143.35715
354.915	3202.24462
355.428	3216.75071
355.941	3281.4343
356.454	3139.18721
356.967	3255.41951
357.48	3240.27491
357.993	3308.6783
358.505	3315.60859
359.018	3420.61238
359.53	3495.57398
360.042	3460.05178
360.554	3402.51858
361.066	3481.60684
361.578	3416.93614
362.09	3443.39274
362.602	3538.98632
363.113	3666.28734
363.625	3660.07008
364.136	3683.91269
364.647	3700.34322
365.158	3823.12958
365.669	3804.31383
366.18	3844.1946
366.691	3849.85241
367.201	3846.32706
367.712	3863.0495
368.222	3912.02375
368.733	4065.78312
369.243	4109.77326
369.753	4175.04617
370.263	4239.16545
370.773	4161.24922
371.282	4309.01287
371.792	4508.88504
372.301	4507.04495
372.811	4507.46205
373.32	4617.20496
373.829	4757.72989
374.338	4998.15077
374.847	5133.34178
375.356	5146.46778
375.865	5361.657
376.373	5674.87891
376.882	5768.4396
377.39	5800.12443
377.898	6164.11705
378.407	6396.47736
378.915	6579.23661
379.423	6886.6488
379.93	7129.44048
380.438	7522.91149
380.946	7841.95303
381.453	8133.22562
381.96	8371.43963
382.468	9104.6111
382.975	9667.91115
383.482	9773.32409
383.989	9840.34075
384.495	10359.21406
385.002	10999.28101
385.509	11582.54524
386.015	12168.50859
386.521	12811.724
387.028	13378.34239
387.534	13854.86229
388.04	14318.06549
388.546	14605.64874
389.051	15517.7305
389.557	16885.94618
390.063	17652.785
390.568	18460.89636
391.073	19271.63828
391.578	19980.01952
392.084	20377.68292
392.589	21219.75436
393.093	23007.69019
393.598	24910.07831
394.103	27258.46351
394.607	29940.603
395.112	32054.45966
395.616	33747.55569
396.12	36679.68818
396.624	40420.8268
397.128	43887.54939
397.632	48721.0877
398.136	52946.65413
398.639	56181.96707
399.143	60374.45505
399.646	60882.95396
400.15	60904.11498
400.653	60560.14334
401.156	60136.25446
401.659	59550.50961
402.162	58431.12733
402.664	54480.21957
403.167	49329.08451
403.67	22278.45323
404.172	2696.20453
404.674	0
405.176	0
405.678	0
406.18	0
406.682	0
407.184	0
407.686	25783.58453
408.187	43316.52985
408.688	51225.60928
409.19	54389.01922
409.691	56215.4214
410.192	57270.57019
410.693	57845.40442
411.194	58219.2365
411.694	58633.01717
412.195	59215.68848
412.696	59364.60701
413.196	59341.61941
413.696	59632.46864
414.196	59367.6054
414.696	59763.40624
415.196	59913.34014
415.696	60584.13941
416.196	61381.18813
416.695	61808.38326
417.195	55043.46581
417.694	52718.77284
418.194	49667.65144
418.693	46740.96496
419.192	45520.72686
419.691	44840.63109
420.19	44054.33471
420.688	42579.23906
421.187	40300.30182
421.685	37718.14211
422.184	33861.77399
422.682	29107.49851
423.18	25159.10842
423.678	22841.30598
424.176	21151.05564
424.674	19813.47818
425.172	18865.91901
425.669	17632.04113
426.167	16423.97854
426.664	14841.69416
427.161	13896.84243
427.659	12945.1434
428.156	12033.3061
428.652	11310.86762
429.149	10922.32209
429.646	10511.98413
430.143	9792.28787
430.639	9270.95457
431.135	8792.10233
431.632	8340.29869
432.128	7887.98168
432.624	7362.02055
433.12	7178.40244
433.616	7016.2289
434.111	6799.57062
434.607	6556.69142
435.103	6417.05454
435.598	6163.09661
436.093	5899.81456
436.588	5606.59108
437.083	5407.80032
437.578	5169.14721
438.073	4916.89221
438.568	4729.77258
439.062	4636.08253
439.557	4468.72074
440.051	4305.54908
440.546	4190.68507
441.04	4175.08409
441.534	4019.53731
442.028	4028.07032
442.522	3884.17908
443.015	3803.68154
443.509	3860.33617
444.002	3664.41558
444.496	3662.81332
444.989	3587.36565
445.482	3462.55877
445.975	3548.11133
446.468	3418.76881
446.961	3470.81423
447.454	3394.00173
447.947	3338.38114
448.439	3205.35611
448.931	3289.13101
449.424	3178.63281
449.916	3253.50796
450.408	3121.11991
450.9	3100.5435
451.392	3014.69735
451.884	2931.19291
452.375	2955.71721
452.867	2828.10966
453.358	2849.20094
453.849	2833.8668
454.341	2769.14551
454.832	2722.94225
455.323	2653.5123
455.814	2708.24781
456.304	2624.21388
456.795	2720.23135
457.285	2582
457.776	2511.10563
458.266	2568.36332
458.756	2492.33422
459.247	2410.35329
459.737	2458.40531
460.226	2421.11261
460.716	2351.37365
461.206	2293.33816
461.695	2217.4136
462.185	2169.12877
462.674	2273.18959
463.163	2213.91019
463.653	2214.81559
464.142	2082.2435
464.63	2083.31433
465.119	2043.02745
465.608	2120.12059
466.096	1959.77553
466.585	2012.01169
467.073	1897.03981
467.561	1911.07788
468.05	1930.98674
468.538	1828.10082
469.026	1855.04137
469.513	1780.83425
470.001	1734.74314
470.489	1772.96923
470.976	1748.84541
471.463	1673.00289
471.951	1653.98284
472.438	1605.75034
472.925	1597.72499
473.412	1524.77329
473.899	1527.57714
474.385	1546.81349
474.872	1565.75369
475.359	1458.74177
475.845	1421.25205
476.331	1352.20596
476.817	1417.6431
477.303	1428.53808
477.789	1355.5531
478.275	1274.51967
478.761	1286.48337
479.247	1275.30169
479.732	1281.5705
480.218	1264.65267
480.703	1220.4675
481.188	1229.1118
481.673	1209.24849
482.158	1187.09344
482.643	1130.35056
483.128	1178.20524
483.612	1077.10317
484.097	1040.11919
484.581	1027.00249
485.066	1062.18848
485.55	1036.94105
486.034	997.81608
486.518	998.02796
487.002	1015.15908
487.486	990.07265
487.969	946.02299
488.453	909.97849
488.936	928.84347
489.42	903.7301
489.903	841.86058
490.386	884.267
490.869	856.63952
491.352	838.80735
491.835	854.56411
492.318	879.7991
492.8	889.63448
493.283	859.95549
493.765	779.73553
494.247	769.61489
494.73	798.58862
495.212	785.69985
495.694	734.56467
496.175	741.6236
496.657	745.60083
497.139	733.1812
497.62	716.56582
498.102	726.6457
498.583	668.53556
499.064	697.46355
499.545	677.43649
500.026	612.29757
500.507	674.45404
500.988	723.65313
501.469	656.53553
501.949	627.45014
502.43	613.37953
502.91	619.22696
503.39	601.39435
503.87	664.47033
504.35	555.23305
504.83	625.2995
505.31	596.35135
505.79	627.42028
506.269	556.24524
506.749	580.25797
507.228	592.32543
507.707	585.23295
508.187	532.19533
508.666	537.26582
509.145	568.27737
509.623	496.11432
510.102	561.29273
510.581	568.28206
511.059	532.27509
511.538	550.33824
512.016	569.30754
512.494	593.36166
512.972	544.23332
513.45	545.22433
513.928	561.31324
514.406	592.37372
514.884	534.31184
515.361	552.2707
515.839	544.19832
516.316	539.2474
516.793	508.22949
517.27	427.99895
517.747	500.23319
518.224	549.22728
518.701	572.2406
519.178	469.11728
519.654	506.15401
520.131	463.10338
520.607	455.0876
521.083	450.00915
521.56	524.2052
522.036	491.05538
522.512	470.10231
522.987	502.15913
523.463	511.18251
523.939	447.06438
524.414	466.04553
524.89	514.17417
525.365	493.09466
525.84	473.11217
526.315	494.15869
526.79	468.03496
527.265	471.06563
527.74	435.03298
528.215	488.12541
528.689	466.01766
529.164	440.94039
529.638	437.0959
530.112	403.94872
530.587	424.90816
531.061	435.031
531.534	396.93605
532.008	426.01021
532.482	377.84771
532.956	393.98238
533.429	435.02862
533.903	417.90801
534.376	395.86741
534.849	440.00405
535.322	444.02662
535.795	425.01422
536.268	392.92409
536.741	398.93969
537.213	402.91927
537.686	401.96964
538.158	380.84833
538.631	421.99455
539.103	420.94341
539.575	388.80232
540.047	459.99011
540.519	431.01246
540.991	443.05161
541.463	417.99349
541.934	432.97791
542.406	388.92141
542.877	428.96768
543.348	456.074
543.82	410.97813
544.291	435.99211
544.762	416.96922
545.233	441.07809
545.703	441.968
546.174	473.07451
546.645	454.06928
547.115	529.23776
547.585	486.08557
548.056	521.23185
548.526	510.17856
548.996	521.19949
549.466	540.25292
549.935	578.31262
550.405	537.14205
550.875	583.31409
551.344	520.21026
551.814	591.30607
552.283	538.11512
552.752	624.38683
553.221	648.371
553.69	557.18414
554.159	620.45517
554.628	624.33743
555.096	634.53016
555.565	616.32253
556.033	567.27486
556.502	526.22809
556.97	504.09058
557.438	496.13844
557.906	470.08512
558.374	454.02523
558.842	429.00305
559.31	389.87362
559.777	359.86354
560.245	367.86534
560.712	378.8821
561.18	467.03855
561.647	389.87397
562.114	369.84806
562.581	366.89386
563.048	414.95012
563.514	334.8218
563.981	369.84467
564.448	346.78869
564.914	375.87665
565.381	392.89172
565.847	369.86972
566.313	417.96906
566.779	346.77914
567.245	426.9929
567.711	404.96787
568.176	361.82437
568.642	396.98683
569.108	403.98693
569.573	420.99583
570.038	441.9464
570.504	399.89349
570.969	451.11888
571.434	456.01802
571.899	422.00416
572.363	453.02484
572.828	478.07426
573.293	459.04517
573.757	457.03222
574.222	501.1212
574.686	493.11459
575.15	464.09033
575.614	473.07364
576.078	470.09888
576.542	458.03596
577.006	498.1083
577.469	522.24824
577.933	480.08625
578.396	426.99875
578.86	502.16051
579.323	540.26772
579.786	439.95509
580.249	503.14785
580.712	480.1468
581.175	454.10067
581.637	447.00631
582.1	515.12083
582.563	450.96384
583.025	490.16493
583.487	484.9914
583.95	462.01146
584.412	427.9132
584.874	449.06383
585.336	453.05886
585.797	472.01643
586.259	506.1656
586.721	439.02046
587.182	446.02104
587.643	467.04842
588.105	464.08779
588.566	463.96619
589.027	437.04728
589.488	469.05895
589.949	489.15564
590.41	450.89383
590.87	465.03495
591.331	462.98398
591.791	505.15751
592.252	452.03521
592.712	462.0831
593.172	485.0889
593.632	497.08342
594.092	509.11994
594.552	486.0417
595.011	507.14396
595.471	514.11415
595.931	536.1634
596.39	534.25313
596.849	526.19776
597.308	545.15808
597.768	566.39309
598.227	483.12248
598.685	505.1167
599.144	615.37387
599.603	603.37692
600.062	605.25059
600.52	611.31657
600.978	609.37052
601.437	593.2903
601.895	646.30713
602.353	694.44347
602.811	754.5851
603.269	738.65532
603.727	761.70588
604.184	757.61269
604.642	802.80921
605.099	808.71733
605.557	797.78807
606.014	894.77998
606.471	939.10739
606.928	1036.00151
607.385	1068.30961
607.842	1072.10472
608.299	1214.39746
608.755	1092.28346
609.212	1119.12476
609.668	1152.20397
610.125	1176.40644
610.581	1192.36487
611.037	1181.2688
611.493	1176.33955
611.949	1246.58636
612.405	1151.96263
612.861	1234.41214
613.316	1217.44859
613.772	1218.36629
614.227	1280.52686
614.683	1226.1821
615.138	1236.41946
615.593	1309.50452
616.048	1275.38562
616.503	1285.59266
616.958	1306.72173
617.412	1289.51101
617.867	1259.31298
618.321	1330.23731
618.776	1309.38123
619.23	1250.42859
619.684	1267.36365
620.138	1299.45681
620.592	1218.49136
621.046	1208.35679
621.5	1257.57179
621.954	1184.24363
622.407	1247.29884
622.861	1174.41095
623.314	1153.21488
623.768	1113.22882
624.221	1093.87235
624.674	1078.14029
625.127	1082.17211
625.58	1041.05186
626.033	997.90682
626.485	993.09582
626.938	1007.09395
627.39	1008.06593
627.843	1021.06399
628.295	946.92371
628.747	978.0466
629.199	908.84889
629.651	881.81294
630.103	849.77833
630.555	833.59885
631.006	820.74738
631.458	845.81429
631.909	803.66118
632.361	770.65282
632.812	774.65642
633.263	737.46669
633.714	696.38209
634.165	753.70037
634.616	732.62237
635.067	673.38204
635.518	683.51526
635.968	759.39084
636.419	662.35178
636.869	657.45391
637.319	639.39052
637.769	645.37149
638.219	647.42045
638.669	651.45677
639.119	651.49735
639.569	602.36773
640.019	590.28513
640.468	576.22326
640.918	613.37559
641.367	624.31959
641.816	589.26259
642.265	555.22233
642.714	554.21885
643.163	604.33345
643.612	584.36527
644.061	652.33193
644.51	600.32957
644.958	569.19918
645.406	641.44555
645.855	643.48246
646.303	622.36465
646.751	611.33627
647.199	595.2837
647.647	608.32606
648.095	657.43457
648.543	638.23846
648.99	597.33801
649.438	663.45744
649.885	621.4493
650.333	627.167
650.78	637.46687
651.227	691.59004
651.674	639.36402
652.121	603.38134
652.568	642.47458
653.015	654.52965
653.461	640.43184
653.908	679.48078
654.354	663.46598
654.801	634.40617
655.247	623.30108
655.693	694.68697
656.139	655.47775
656.585	646.4429
657.031	707.54645
657.477	643.32272
657.922	659.43348
658.368	656.51156
658.813	702.49186
659.259	666.50228
659.704	635.38531
660.149	703.53963
660.594	700.54947
661.039	667.42324
661.484	717.56636
661.929	744.59628
662.373	687.63598
662.818	683.5916
663.262	723.61071
663.707	703.64785
664.151	745.67342
664.595	650.45841
665.039	755.72425
665.483	710.67623
665.927	725.5665
666.371	741.59223
666.814	755.64804
667.258	797.75589
667.701	791.54073
668.145	770.74688
668.588	714.60866
669.031	805.7491
669.474	776.70497
669.917	818.62471
670.36	802.82023
670.803	791.71139
671.245	869.64164
671.688	830.80459
672.13	821.6765
672.573	820.84982
673.015	873.88568
673.457	842.65148
673.899	862.84724
674.341	882.89904
674.783	857.83771
675.225	880.91253
675.666	926.00397
676.108	861.663
676.549	914.90153
676.991	905.79648
677.432	918.66049
677.873	922.86637
678.314	916.93942
678.755	909.96095
679.196	898.82933
679.637	908.94419
680.078	926.88642
680.518	892.83025
680.959	953.02179
681.399	919.0263
681.839	908.9492
682.28	930.02458
682.72	916.86435
683.16	893.95104
683.6	924.82956
684.039	870.60388
684.479	892.95254
684.919	945.94735
685.358	964.13047
685.798	922.13189
686.237	968.0381
686.676	882.78533
687.115	898.85416
687.554	920.90978
687.993	877.7085
688.432	898.81609
688.871	896.81865
689.309	915.91667
689.748	884.59723
690.186	943.94496
690.625	939.90904
691.063	993.06754
691.501	903.94303
691.939	956.06459
692.377	942.99882
692.815	922.94194
693.253	945.98128
693.69	1011.9169
694.128	956.03563
694.565	951.9641
695.003	953.10658
695.44	947.94624
695.877	1004.04664
696.314	981.79138
696.751	992.91778
697.188	981.94933
697.625	1028.99032
698.061	978.04121
698.498	970.012
698.934	970.03429
699.371	937.94293
699.807	986.00354
700.243	985.05991
700.679	1012.96582
701.115	971.95358
701.551	1051.09673
701.987	1036.99344
702.422	1006.07199
702.858	958.96402
703.294	1003.934
703.729	1076.23318
704.164	1020.10931
704.599	986.89074
705.035	1068.05858
705.47	1109.31752
705.904	1125.22913
706.339	985.91375
706.774	1100.16284
707.209	1107.14969
707.643	1145.29932
708.078	1171.40962
708.512	1127.39443
708.946	1105.18436
709.38	1114.19553
709.814	1136.13681
710.248	1156.31348
710.682	1199.35294
711.116	1178.36299
711.549	1081.3422
711.983	1175.24
712.416	1194.30971
712.85	1185.45258
713.283	1181.31863
713.716	1223.48983
714.149	1203.31447
714.582	1229.2633
715.015	1195.41851
715.448	1257.56373
715.881	1213.1074
716.313	1263.39316
716.746	1281.4473
717.178	1270.45938
717.61	1250.54085
718.043	1283.55689
718.475	1276.46402
718.907	1319.65409
719.339	1346.42975
719.77	1348.54666
720.202	1292.62277
720.634	1363.67042
721.065	1375.5708
721.497	1381.66408
721.928	1397.71545
722.359	1354.64718
722.79	1482.78839
723.221	1361.68891
723.652	1415.80999
724.083	1442.54078
724.514	1413.52095
724.945	1480.67403
725.375	1518.73885
725.806	1369.65966
726.236	1401.80008
726.666	1509.71087
727.096	1529.86386
727.526	1494.93233
727.956	1568.64327
728.386	1508.81684
728.816	1471.87704
729.246	1562.90809
729.675	1540.90487
730.105	1522.78487
730.534	1549.71133
730.964	1561.93962
731.393	1554.84931
731.822	1571.02739
732.251	1533.93842
732.68	1617.7535
733.109	1640.96001
733.537	1634.91652
733.966	1689.1129
734.395	1641.75317
734.823	1644.62731
735.251	1669.96798
735.68	1711.10403
736.108	1679.08981
736.536	1611.77089
736.964	1671.81746
737.392	1660.05092
737.82	1663.90907
738.247	1665.87795
738.675	1716.91327
739.102	1696.11586
739.53	1732.21685
739.957	1700.22039
740.384	1711.99047
740.811	1742.15348
741.238	1799.10382
741.665	1707.80795
742.092	1768.98156
742.519	1683.04381
742.945	1717.96689
743.372	1847.22224
743.798	1732.23883
744.225	1716.92411
744.651	1774.17484
745.077	1737.11687
745.503	1772.05288
745.929	1780.00587
746.355	1792.13446
746.781	1775.12774
747.207	1813.04337
747.632	1810.17924
748.058	1832.21651
748.483	1817.9044
748.908	1734.08714
749.334	1795.1357
749.759	1789.91363
750.184	1751.99447
750.609	1762.10229
751.033	1816.96375
751.458	1893.83378
751.883	1801.13976
752.307	1747.94507
752.732	1734.18759
753.156	1818.20651
753.58	1815.02068
754.005	1716.12169
754.429	1775.95754
754.853	1725.07648
755.277	1717.86007
755.7	1776.14635
756.124	1747.11912
756.548	1804.02893
756.971	1714.95161
757.394	1765.2936
757.818	1653.1288
758.241	1723.17117
758.664	1739.19604
759.087	1673.7049
759.51	1672.01396
759.933	1675.95444
760.356	1681.13621
760.778	1733.11435
761.201	1649.93073
761.623	1670.89646
762.046	1640.82481
762.468	1640.79813
762.89	1628.92643
763.312	1628.96189
763.734	1596.83532
764.156	1610.94363
764.578	1584.70337
765	1546.84302
765.421	1544.987
765.843	1532.04067
766.264	1546.78256
766.686	1400.70018
767.107	1475.70727
767.528	1509.93085
767.949	1473.8823
768.37	1394.61216
768.791	1416.64834
769.212	1371.73001
769.632	1401.53902
770.053	1368.85723
770.473	1331.54915
770.894	1340.61363
771.314	1288.39058
771.734	1298.40445
772.154	1296.62615
772.575	1274.31792
772.994	1214.21948
773.414	1245.38178
773.834	1292.58609
774.254	1252.50018
774.673	1214.37742
775.093	1154.35078
775.512	1125.28078
775.931	1224.51374
776.351	1179.3915
776.77	1110.25899
777.189	1113.18078
777.607	1102.34683
778.026	1111.31558
778.445	1054.24067
778.864	1051.26368
779.282	1049.12454
779.701	1001.12927
780.119	1042.28389
780.537	990.11992
780.955	979.0959
781.373	975.05151
781.791	951.82571
782.209	924.81083
782.627	979.24367
783.045	936.86628
783.462	911.03034
783.88	867.96894
784.297	875.93019
784.715	848.92929
785.132	858.83709
785.549	824.83317
785.966	801.78529
786.383	775.70028
786.8	841.71273
787.217	737.57141
787.633	769.72171
788.05	733.53652
788.466	697.44039
788.883	660.53225
789.299	691.50315
789.715	697.5425
790.131	703.59514
790.547	610.38537
790.963	669.5204
791.379	615.43248
791.795	626.29956
792.21	645.36495
792.626	587.27561
793.041	611.39912
793.457	580.33417
793.872	572.2406
794.287	534.19885
794.702	518.18616
795.117	504.18494
795.532	487.1589
795.947	500.12424
796.362	509.13913
796.776	473.0236
797.191	488.13032
797.605	481.09227
798.02	396.92445
798.434	418.87635
798.848	474.11214
799.262	441.05247
799.676	401.92785
800.09	444.055
800.504	346.80713
800.918	381.86057
801.331	377.93558
801.745	368.81679
802.158	326.79294
802.572	334.77669
802.985	317.74138
803.398	365.83954
803.811	325.79538
804.224	277.66659
804.637	341.795
805.05	311.69675
805.462	302.72137
805.875	266.67926
806.288	273.65448
806.7	273.67434
807.112	224.50898
807.525	247.59869
807.937	199.48869
808.349	235.58028
808.761	267.64521
809.173	216.51814
809.584	217.52697
809.996	230.56031
810.408	228.58449
810.819	280.65319
811.231	331.8486
811.642	409.96397
812.053	398.93714
812.464	340.79625
812.875	270.67707
813.286	235.59853
813.697	236.54428
814.108	204.49364
814.519	181.40152
814.929	184.46492
815.34	233.56773
815.75	170.43338
816.16	153.38031
816.571	175.44762
816.981	153.36052
817.391	193.46764
817.801	199.49896
818.211	122.2891
818.62	180.43835
819.03	129.31692
819.44	179.46122
819.849	157.39196
820.259	130.32954
820.668	138.34384
821.077	118.29881
821.486	102.24748
821.895	152.37155
822.304	153.40432
822.713	153.36584
823.122	105.26489
823.531	155.37246
823.939	121.29902
824.348	142.34904
824.756	117.29654
825.164	115.28898
825.573	167.42596
825.981	94.23498
826.389	162.40817
826.797	91.22801
827.205	102.2404
827.612	132.32913
828.02	93.22357
828.428	127.32633
828.835	103.27329
829.243	120.29181
829.65	71.1797
830.057	113.27853
830.464	97.2391
830.871	111.26805
831.278	71.17378
831.685	111.25269
832.092	119.2958
832.499	65.14575
832.905	82.20949
833.312	107.2486
833.718	120.30127
834.124	73.16947
834.531	97.24567
834.937	63.16126
835.343	125.30493
835.749	83.19383
836.155	54.14297
836.561	80.20107
836.966	102.25211
837.372	95.24411
837.777	97.24628
838.183	84.18886
838.588	49.12251
838.993	69.1702
839.399	23.05771
839.804	33.08245
840.209	53.13884
840.613	26.05994
841.018	13.03346
841.423	62.16084
841.828	70.18084
842.232	73.18219
842.637	56.13582
843.041	55.14442
843.445	82.20846
843.849	14.03541
844.253	91.21975
844.657	48.12396
845.061	55.12874
845.465	38.0942
845.869	54.129
846.272	61.15235
846.676	41.10035
847.079	53.1386
847.483	72.18038
847.886	41.09991
848.289	34.09239
848.692	47.12107
849.095	58.14299
849.498	62.15706
849.901	36.08432
850.304	46.11303
850.707	24.06198
851.109	43.10933
851.512	64.16143
851.914	81.21067
852.316	30.07645
852.718	17.04512
853.121	49.12269
853.523	58.14057
853.925	44.11759
854.326	25.06357
854.728	62.16266
855.13	68.17949
855.531	68.16795
855.933	18.04369
856.334	35.08946
856.736	61.14117
857.137	45.10699
857.538	94.24108
857.939	88.22276
858.34	34.08453
858.741	44.1165
859.142	53.13026
859.542	51.13708
859.943	41.10369
860.343	33.0837
860.744	78.19216
861.144	35.08615
861.544	28.06994
861.945	77.20075
862.345	37.09204
862.745	47.12052
863.145	65.15703
863.544	19.04898
863.944	37.08864
864.344	20.05066
864.743	64.15958
865.143	82.21294
865.542	16.03841
865.941	47.11955
866.34	74.17941
866.74	58.15648
867.139	60.14825
867.537	36.09304
867.936	45.11117
868.335	86.22133
868.734	99.25846
869.132	94.22369
869.531	27.06587
869.929	43.10211
870.327	47.11594
870.726	23.05784
871.124	67.16058
871.522	70.18084
871.92	107.26723
872.318	19.04754
872.715	16.03995
873.113	52.13018
873.511	80.20445
873.908	32.08373
874.306	61.15587
874.703	36.09136
875.1	52.13443
875.497	83.20421
875.894	41.10395
876.291	65.1614
876.688	72.19031
877.085	47.11414
877.482	29.07387
877.878	47.11607
878.275	44.11442
878.671	97.21939
879.068	48.11803
879.464	54.13279
879.86	1.00243
880.256	60.14999
880.652	52.13453
881.048	12.03024
881.444	12.02896
881.84	44.11348
882.236	23.05881
882.631	65.16392
883.027	56.13664
883.422	33.08568
883.817	83.21521
884.213	59.1543
884.608	56.14105
885.003	41.10199
885.398	49.12652
885.793	25.0639
886.188	51.13091
886.582	30.07716
886.977	77.18588
887.371	-4.01022
887.766	-6.01545
888.16	46.11653
888.554	48.11938
888.949	44.11162
889.343	42.10377
889.737	33.09055
890.131	4.01019
890.525	42.10896
890.918	-34.08741
891.312	18.04346
891.706	-17.04491
892.099	25.06402
892.492	108.23804
892.886	65.16057
893.279	58.15067
893.672	-36.09288
894.065	11.02806
894.458	62.15962
894.851	35.08722
895.244	33.08554
895.637	39.09645
896.029	38.09455
896.422	17.04235
896.814	81.20296
897.206	6.01472
897.599	62.15381
897.991	17.04189
898.383	84.20419
898.775	30.06955
899.167	17.04124
899.559	63.16075
899.951	64.15318
900.342	23.059
900.734	37.09521
901.125	58.15366
901.517	76.19026
901.908	17.0415
902.299	62.15683
902.69	60.14514
903.082	68.16684
903.473	29.07193
903.863	62.16018
904.254	61.14614
904.645	80.201
905.036	66.16361
905.426	34.07914
905.817	43.10809
906.207	24.05926
906.597	23.05477
906.987	49.12875
907.378	-19.04894
907.768	32.086
908.158	46.11424
908.547	20.05293
908.937	9.02333
909.327	33.08242
909.717	92.23297
910.106	18.04423
910.495	41.10417
910.885	63.16245
911.274	7.0179
911.663	28.07153
912.052	-7.01756
912.441	1.00258
912.83	90.21129
913.219	20.05297
913.608	-20.05025
913.997	2.00518
914.385	54.13043
914.774	50.12368
915.162	43.10564
915.55	34.0837
915.939	-5.01295
916.327	-8.0202
916.715	17.04419
917.103	22.05486
917.491	53.1317
917.878	-4.00994
918.266	-6.0157
918.654	80.20789
919.041	17.04547
919.429	47.1138
919.816	27.06921
920.203	21.05235
920.591	19.04787
920.978	15.03695
921.365	58.15392
921.752	33.08095
922.139	58.13046
922.525	56.13877
922.912	8.01989
923.299	38.0966
923.685	50.13256
924.072	10.02337
924.458	6.01523
924.844	-5.01276
925.231	97.22937
925.617	1.00262
926.003	44.11375
926.389	40.1028
926.774	31.07996
927.16	29.07348
927.546	48.12568
927.931	80.20172
928.317	59.13735
928.702	-7.0169
929.088	36.08787
929.473	5.01296
929.858	44.10955
930.243	10.02475
930.628	45.11312
931.013	29.07361
931.398	29.06783
931.783	3.00798
932.167	38.09585
932.552	18.04553
932.937	18.04544
933.321	10.02578
933.705	71.1818
934.09	12.03056
934.474	23.05571
934.858	53.13908
935.242	25.05985
935.626	37.09703
936.009	-1.00267
936.393	34.08769
936.777	7.01834
937.16	33.08659
937.544	39.09311
937.927	71.18371
938.311	18.04464
938.694	39.10365
939.077	43.10513
939.46	14.03418
939.843	104.22393
940.226	34.08869
940.609	93.2211
940.991	7.01824
941.374	54.13465
941.757	17.0425
942.139	58.13579
942.522	27.06461
942.904	10.02468
943.286	19.04875
943.668	79.20667
944.05	30.07559
944.432	60.15205
944.814	-3.00749
945.196	23.05817
945.578	23.05736
945.959	51.12232
946.341	9.02207
946.722	38.09088
947.104	16.03933
947.485	32.07639
947.866	72.18665
948.247	17.04338
948.628	-4.00991
949.009	18.04731
949.39	38.09582
949.771	57.13546
950.152	72.18044
950.532	-2.00512
950.913	13.03213
951.293	-1.00276
951.674	89.22244
952.054	45.11503
952.434	-5.01269
952.814	46.11174
953.194	15.0396
953.574	11.02735
953.954	34.08271
954.334	30.07645
954.714	41.10258
955.093	22.05478
955.473	7.01784
955.853	38.09929
956.232	17.04671
956.611	60.14574
956.99	64.16431
957.37	37.0961
957.749	47.115
958.128	15.03897
958.506	71.18839
958.885	76.19484
959.264	56.14216
959.643	49.11344
960.021	58.14687
960.4	37.08668
960.778	47.11743
961.156	55.14093
961.535	25.05955
961.913	45.10773
962.291	83.21853
962.669	-6.01547
963.047	19.04911
963.424	24.06218
963.802	39.09832
964.18	39.09979
964.557	48.11304
964.935	71.17081
965.312	15.0396
965.69	45.11328
966.067	30.07491
966.444	10.025
966.821	24.06258
967.198	27.06655
967.575	-14.03481
967.952	41.0983
968.329	47.1167
968.705	44.09621
969.082	42.11008
969.458	41.1021
969.835	12.02981
970.211	67.17534
970.587	36.09094
970.963	72.18543
971.339	23.06115
971.715	44.11138
972.091	34.08536
972.467	21.05345
972.843	15.03811
973.219	60.14405
973.594	46.12338
973.97	32.07735
974.345	62.15161
974.721	-3.00735
975.096	-3.00745
975.471	22.0535
975.846	28.0685
976.221	68.17677
976.596	44.1084
976.971	24.06032
977.346	4.0095
977.72	45.11672
978.095	44.11564
978.469	33.08002
978.844	6.01524
979.218	-24.0593
979.593	35.08522
979.967	53.13103
980.341	11.02597
980.715	30.07726
981.089	-43.10972
981.463	58.1385
981.837	50.12513
982.21	83.19444
982.584	8.01988
982.957	23.05904
983.331	21.05098
983.704	7.01731
984.078	40.10093
984.451	19.04757
984.824	21.0526
985.197	62.15218
985.57	63.15973
985.943	20.04982
986.316	34.08475
986.688	19.04659
987.061	109.26014
987.434	25.0662
987.806	12.02987
988.179	24.05854
988.551	52.13406
988.923	42.10514
989.295	-27.06792
989.667	41.10125
990.039	41.1041
990.411	25.05907
990.783	21.04948
991.155	47.11755
991.527	54.13323
991.898	62.15745
992.27	28.0704
992.641	47.11887
993.012	73.17409
993.384	-25.06112
993.755	55.14305
994.126	20.04904
994.497	25.06296
994.868	71.16698
995.239	-11.02726
995.61	19.04909
995.98	65.16199
996.351	22.05567
996.722	29.07016
997.092	35.08529
997.462	26.06299
997.833	33.07951
998.203	36.08826
998.573	38.09595
998.943	58.13967
999.313	68.16666
999.683	61.15086
1000.053	67.15788
1000.423	18.04433
1000.792	69.18174
1001.162	30.07489
1001.531	30.07554
1001.901	24.06183
1002.27	73.16638
1002.639	48.12504
1003.009	24.05803
1003.378	0
1003.747	84.20319
1004.116	68.16598
1004.485	4.00974
1004.853	27.06952
1005.222	15.03825
1005.591	16.03881
1005.959	65.15197
1006.328	43.09959
1006.696	40.09956
1007.064	6.01536
1007.433	40.10115
1007.801	35.08646
1008.169	6.0153
1008.537	23.05261
1008.905	26.06266
1009.273	5.01249
1009.64	34.0841
1010.008	27.06621
1010.375	-3.00724
1010.743	43.10062
1011.11	63.15271
1011.478	20.05027
1011.845	2.00482
1012.212	24.05637
1012.579	30.07453
1012.946	28.06786
1013.313	-8.01941
1013.68	10.02306
1014.047	41.10069
1014.414	55.13327
1014.78	51.12779
1015.147	34.08265
1015.513	58.14236
1015.88	37.09474
1016.246	-13.03232
1016.612	-14.0327
1016.978	70.17366
1017.344	59.14885
1017.71	5.01227
1018.076	32.07665
1018.442	-13.03385
1018.808	25.06381
1019.174	16.04118
1019.539	13.03004
1019.905	11.02665
1020.27	21.0533
1020.636	55.13377
1021.001	35.08506
1021.366	7.01731
1021.731	-3.00777
1022.096	4.01036
1022.461	18.04362
1022.826	62.1493
1023.191	28.07423
1023.556	70.16773
1023.92	11.02739
1024.285	30.07461
1024.649	34.08502
1025.014	57.14324
1025.378	27.06928
1025.742	58.14661
1026.107	59.13518
1026.471	4.00944
1026.835	46.11673
1027.199	82.20446
1027.562	63.14891
1027.926	59.14564
1028.29	65.16778
1028.654	48.11291
1029.017	37.09154
1029.381	4.00984
1029.744	-16.04148
1030.107	20.0482
1030.471	-22.0537
1030.834	18.04185
1031.197	13.03158
1031.56	28.0672
1031.923	-8.02109
1032.286	33.07879
1032.648	95.23097
1033.011	10.02347
1033.374	-13.0311
1033.736	14.03757
1034.099	83.20594
1034.461	11.02821
1034.823	32.0808
1035.185	25.06402
1035.548	20.05005
1035.91	32.07828
1036.272	-10.02324
1036.634	27.0665
1036.995	46.11123
1037.357	22.0548
1037.719	21.05146
1038.08	39.09379
1038.442	45.10842
1038.803	25.06101
1039.165	63.16245
1039.526	57.13957
1039.887	44.1076
1040.248	3.00756
1040.609	9.0224
1040.97	58.14462
1041.331	48.12297
1041.692	74.17921
1042.053	61.14195
1042.413	57.1352
1042.774	22.05436
1043.134	68.16449
1043.495	17.04321
1043.855	-3.00745
1044.215	45.11401
1044.576	45.11137
1044.936	14.03289
1045.296	57.1437
1045.656	3.00747
1046.016	25.06103
1046.375	-13.03215
1046.735	4.00941
1047.095	29.06932
1047.454	14.03056
1047.814	19.04668
1048.173	-19.04545
1048.533	15.03522
1048.892	68.16765
1049.251	73.18489
1049.61	67.16667
1049.969	79.1915
1050.328	-12.02698
1050.687	-10.02491
1051.046	5.01232
1051.405	76.19259
1051.763	10.02378
1052.122	15.03821
1052.48	-9.02232
1052.839	12.02897
1053.197	33.07981
1053.555	-31.07083
1053.914	21.05169
1054.272	-10.02444
1054.63	14.03534
1054.988	30.0732
1055.345	48.10619
1055.703	18.04407
1056.061	32.08324
1056.419	-10.02641
1056.776	-14.03438
1057.134	47.11131
1057.491	0
1057.848	43.10732
1058.206	23.05548
1058.563	50.11256
1058.92	10.02332
1059.277	23.05749
1059.634	16.03835
1059.991	13.03187
1060.348	41.09564
1060.704	35.08564
1061.061	-18.04275
1061.418	-7.01734
1061.774	34.08552
1062.131	26.07015
1062.487	41.09804
1062.843	24.06041
1063.199	63.15962
1063.555	64.15242
1063.911	-5.01276
1064.267	15.03207
1064.623	25.06214
1064.979	45.10781
1065.335	36.08676
1065.691	25.06078
1066.046	-51.11389
1066.402	73.17095
1066.757	20.05101
1067.112	5.01242
1067.468	60.1483
1067.823	69.16883
1068.178	24.05869
1068.533	57.14029
1068.888	-1.00243
1069.243	-18.0455
1069.598	28.06949
1069.952	11.02581
1070.307	60.15264
1070.662	-10.02431
1071.016	5.01159
1071.371	-14.03277
1071.725	45.10892
1072.079	25.06083
1072.434	27.06731
1072.788	49.11922
1073.142	59.14746
1073.496	3.00729
1073.85	-5.0118
1074.203	84.20899
1074.557	22.05939
1074.911	27.06481
1075.265	51.12046
1075.618	-18.04462
1075.971	28.06786
1076.325	42.10851
1076.678	39.09251
1077.031	32.07477
1077.385	46.10478
1077.738	33.07676
1078.091	4.00946
1078.444	16.03805
1078.796	-24.0601
1079.149	6.01514
1079.502	28.0689
1079.855	37.08881
1080.207	50.12463
1080.56	39.10189
1080.912	17.04192
1081.264	21.05165
1081.617	73.18225
1081.969	46.11888
1082.321	0
1082.673	27.06404
1083.025	55.13322
1083.377	-153.3528
1083.728	4.00949
1084.08	10.02538
1084.432	49.12056
1084.783	43.10211
1085.135	26.0664
1085.486	13.03111
1085.838	57.14267
1086.189	10.02465
1086.54	38.09189
1086.891	40.10334
1087.242	4.00987
1087.593	25.06174
1087.944	-5.01156
1088.295	70.16138
1088.646	35.08703
1088.996	-18.04452
1089.347	24.06002
1089.698	-14.03427
1090.048	-24.06275
1090.398	8.01886
1090.749	7.01718
1091.099	49.12766
1091.449	22.05571
1091.799	71.17982
1092.149	57.14426
1092.499	16.03972
1092.849	22.05725
1093.199	33.08299
1093.548	8.01982
1093.898	33.08403
1094.248	16.04155
1094.597	23.06078
1094.947	9.02427
1095.296	-5.01257
1095.645	39.10234
1095.994	4.00977
1096.343	13.03325
1096.692	83.2252
1097.041	-34.09331
1097.39	49.12591
1097.739	-4.01058
1098.088	44.11894
1098.437	-18.04855
1098.785	15.0405
1099.134	31.08275
1099.482	40.11099
1099.83	-15.03981
1100.179	42.11217
1100.527	12.03217
1100.875	1.00269
1101.223	12.03223
1101.571	15.04197
1101.919	35.09401
1102.267	39.11029
1102.615	2.00645
1102.962	3.00966
1103.31	6.01933
1103.658	17.05481
