Data from N2 R0 60C sample2_Subt2__3__11-10-51-721.txt Node

Date: Tue Aug 19 11:10:51 PDT 2025
User: uwsun
Spectrometer: HDX01956
Trigger mode: 0
Integration Time (sec): 5.000000E-1
Scans to average: 1
Nonlinearity correction enabled: true
Boxcar width: 0
Storing dark spectrum: false
XAxis mode: Wavelengths
Number of Pixels in Spectrum: 2068
>>>>>Begin Spectral Data<<<<<
194.03	95.27527
194.578	100.32272
195.127	104.33112
195.676	93.29756
196.225	112.30639
196.773	104.29556
197.321	198.55842
197.87	237.62774
198.418	238.6233
198.966	257.68638
199.513	220.56379
200.061	203.53337
200.609	235.63137
201.156	163.37586
201.704	232.60408
202.251	241.6551
202.798	210.56116
203.345	225.57205
203.892	224.57925
204.438	269.65885
204.985	233.5783
205.532	250.67045
206.078	221.56009
206.624	248.62817
207.17	230.55361
207.716	197.49732
208.262	238.49083
208.808	212.5469
209.354	260.65153
209.899	198.51079
210.445	227.58528
210.99	242.606
211.535	250.60971
212.08	233.56751
212.625	278.71114
213.17	266.68546
213.715	273.6435
214.259	250.60106
214.804	217.54781
215.348	191.4539
215.892	196.48621
216.436	256.61057
216.98	260.6001
217.524	180.44342
218.068	270.69938
218.612	242.62276
219.155	224.54447
219.698	279.67953
220.242	208.53248
220.785	190.45959
221.328	210.53439
221.871	203.52268
222.414	232.58995
222.956	219.55068
223.499	157.37124
224.041	268.63845
224.583	202.44838
225.126	188.43255
225.668	208.51842
226.21	255.65152
226.751	217.49837
227.293	259.61358
227.835	200.50661
228.376	200.47648
228.918	238.61268
229.459	198.50848
230	212.5182
230.541	261.62667
231.082	119.29753
231.622	208.49363
232.163	207.51733
232.704	172.43817
233.244	155.39772
233.784	222.55552
234.324	228.52939
234.864	219.51442
235.404	195.47781
235.944	199.48525
236.484	190.48179
237.023	249.60693
237.563	165.39754
238.102	174.42184
238.641	237.61085
239.18	189.46207
239.719	216.55373
240.258	234.54418
240.797	228.56372
241.335	214.53782
241.874	236.48539
242.412	250.62015
242.95	186.46191
243.488	246.58155
244.026	192.45812
244.564	226.48681
245.102	244.56519
245.64	196.48301
246.177	254.58952
246.715	222.54849
247.252	225.53387
247.789	218.43483
248.326	255.6322
248.863	245.56199
249.4	242.56766
249.936	226.48409
250.473	249.5999
251.009	231.55275
251.546	197.45389
252.082	246.55806
252.618	200.46273
253.154	251.62228
253.69	247.56976
254.226	235.57452
254.761	242.5701
255.297	183.41726
255.832	170.41555
256.367	230.56073
256.903	167.38109
257.438	253.607
257.972	249.57712
258.507	267.63424
259.042	250.56805
259.576	223.50804
260.111	236.56115
260.645	198.44334
261.179	225.54045
261.713	288.66339
262.247	240.57373
262.781	211.4667
263.315	288.7196
263.849	243.62304
264.382	231.54514
264.915	260.6322
265.449	234.59672
265.982	272.63927
266.515	188.47011
267.048	254.56731
267.58	230.52367
268.113	262.58832
268.646	264.66584
269.178	243.56388
269.71	253.57475
270.243	225.52954
270.775	231.59559
271.307	204.50458
271.838	229.5511
272.37	223.56154
272.902	261.60947
273.433	201.45404
273.965	254.63099
274.496	207.52201
275.027	276.69361
275.558	220.54853
276.089	291.73169
276.62	223.57776
277.15	260.64353
277.681	265.59811
278.211	218.53485
278.741	251.57552
279.272	214.50591
279.802	262.66009
280.332	243.58855
280.861	277.67869
281.391	278.64572
281.921	277.67869
282.45	267.67737
282.98	291.76194
283.509	208.48353
284.038	260.60964
284.567	256.60495
285.096	273.67335
285.625	273.64075
286.153	249.59468
286.682	265.62294
287.21	261.64281
287.739	258.62828
288.267	276.67962
288.795	215.56528
289.323	263.63818
289.851	351.83373
290.378	265.61419
290.906	293.72267
291.433	280.70088
291.961	306.70625
292.488	310.77203
293.015	309.74386
293.542	303.77602
294.069	233.58125
294.596	258.64395
295.122	314.75718
295.649	281.63318
296.175	364.89129
296.702	323.78462
297.228	289.70704
297.754	362.83481
298.28	305.70857
298.806	310.75206
299.332	315.71732
299.857	306.70372
300.383	283.71922
300.908	304.748
301.433	333.80648
301.958	323.7483
302.483	319.80006
303.008	330.81645
303.533	323.83041
304.058	338.80332
304.582	300.72206
305.107	325.85035
305.631	320.73385
306.155	341.80406
306.679	306.71944
307.203	318.75027
307.727	346.82265
308.251	313.77624
308.775	338.81289
309.298	346.84377
309.822	363.91135
310.345	380.90797
310.868	307.74073
311.391	331.81337
311.914	335.84108
312.437	347.79943
312.96	373.87744
313.482	345.81885
314.005	325.81803
314.527	380.98623
315.049	374.92594
315.571	371.8455
316.093	447.08631
316.615	345.83867
317.137	390.85481
317.659	437.05006
318.18	390.92402
318.702	359.83168
319.223	465.97208
319.744	397.89597
320.265	412.99079
320.786	428.04606
321.307	436.06289
321.828	468.05131
322.348	422.99208
322.869	480.12493
323.389	271.43488
323.909	439.99477
324.43	425.99972
324.95	489.0988
325.47	432.03547
325.989	466.07715
326.509	506.10051
327.029	486.06992
327.548	452.00533
328.067	509.20159
328.587	510.22044
329.106	484.06016
329.625	497.24258
330.144	519.17299
330.662	503.12014
331.181	527.1911
331.7	527.20028
332.218	560.18561
332.736	578.29776
333.255	525.18078
333.773	532.20705
334.291	604.40932
334.808	581.25988
335.326	614.32672
335.844	577.29313
336.361	628.4957
336.879	664.47704
337.396	570.30697
337.913	603.31598
338.43	603.29598
338.947	599.33919
339.464	680.37791
339.981	664.47399
340.497	648.4765
341.014	640.46588
341.53	631.32713
342.046	664.50447
342.562	686.58324
343.078	735.59354
343.594	709.55735
344.11	703.52993
344.626	741.70176
345.141	750.55386
345.657	720.48698
346.172	789.7165
346.687	723.5382
347.202	707.46957
347.717	763.6578
348.232	789.77084
348.747	705.50052
349.261	787.5794
349.776	800.69442
350.29	852.88374
350.805	814.82286
351.319	848.7735
351.833	805.63043
352.347	805.69055
352.861	771.61483
353.374	816.66139
353.888	839.79832
354.401	839.71793
354.915	877.7465
355.428	886.9215
355.941	888.82777
356.454	946.83134
356.967	822.71151
357.48	811.65007
357.993	926.96997
358.505	872.85584
359.018	955.00059
359.53	947.98112
360.042	930.78319
360.554	947.95758
361.066	947.9907
361.578	928.73835
362.09	954.93033
362.602	917.75021
363.113	993.97594
363.625	979.88225
364.136	1070.9587
364.647	1065.10611
365.158	1083.07214
365.669	1037.06588
366.18	1046.04395
366.691	1071.96201
367.201	1095.16254
367.712	1104.07848
368.222	1053.00493
368.733	1190.12539
369.243	1072.97713
369.753	1168.21538
370.263	1158.25585
370.773	1144.25267
371.282	1200.27073
371.792	1330.42868
372.301	1281.42971
372.811	1256.55306
373.32	1257.09159
373.829	1334.42627
374.338	1273.17504
374.847	1448.48169
375.356	1517.61511
375.865	1484.25357
376.373	1624.56445
376.882	1585.82934
377.39	1683.77569
377.898	1685.85341
378.407	1745.56882
378.915	1827.47297
379.423	1925.83313
379.93	1935.64603
380.438	2116.04595
380.946	2263.96254
381.453	2282.00061
381.96	2414.96317
382.468	2548.97966
382.975	2684.99946
383.482	2719.58042
383.989	2774.21909
384.495	2894.67611
385.002	3128.22108
385.509	3201.72984
386.015	3417.7353
386.521	3658.21333
387.028	3689.0465
387.534	3917.72328
388.04	4034.00366
388.546	4174.62553
389.051	4419.27612
389.557	4745.2436
390.063	5042.03688
390.568	5110.11734
391.073	5310.70187
391.578	5614.88254
392.084	5685.35108
392.589	5850.0568
393.093	6444.33204
393.598	6968.37095
394.103	7688.06113
394.607	8235.96256
395.112	8790.19583
395.616	9492.48516
396.12	10159.93394
396.624	11336.96078
397.128	12213.47738
397.632	13780.40658
398.136	14742.11733
398.639	15661.21222
399.143	17817.0741
399.646	19888.59414
400.15	21534.53863
400.653	24384.40216
401.156	27262.88301
401.659	31346.58768
402.162	39333.49244
402.664	51894.61714
403.167	48861.04542
403.67	22278.45323
404.172	2696.20453
404.674	0
405.176	0
405.678	0
406.18	0
406.682	0
407.184	0
407.686	25783.58453
408.187	43316.52985
408.688	51225.60928
409.19	54389.01922
409.691	56215.4214
410.192	50874.44771
410.693	45308.1556
411.194	42621.2719
411.694	40964.42554
412.195	37599.98788
412.696	34820.33487
413.196	33608.44483
413.696	33941.63891
414.196	34185.96294
414.696	33242.88962
415.196	31106.55246
415.696	26812.36853
416.196	20884.4542
416.695	16779.16188
417.195	15234.09229
417.694	14518.763
418.194	13663.91012
418.693	12838.81797
419.192	12639.1488
419.691	12434.27892
420.19	11944.21942
420.688	11677.06365
421.187	11024.9606
421.685	10268.3985
422.184	9009.98436
422.682	7742.11524
423.18	6764.2883
423.678	6067.30944
424.176	5600.50394
424.674	5352.47379
425.172	5145.99028
425.669	4694.56738
426.167	4355.57423
426.664	3987.81332
427.161	3617.01318
427.659	3435.56843
428.156	3180.99651
428.652	3046.04996
429.149	2945.84359
429.646	2755.45279
430.143	2559.83295
430.639	2447.81345
431.135	2348.10254
431.632	2197.69667
432.128	2099.88316
432.624	2029.13535
433.12	1895.57858
433.616	1907.47429
434.111	1805.69688
434.607	1765.7352
435.103	1734.28338
435.598	1626.21968
436.093	1550.51479
436.588	1398.19958
437.083	1428.28188
437.578	1387.33943
438.073	1360.56069
438.568	1255.33775
439.062	1210.99595
439.557	1185.17334
440.051	1109.98199
440.546	1099.99629
441.04	1109.14645
441.534	1096.25964
442.028	1021.99225
442.522	1006.98563
443.015	1005.80671
443.509	1018.05089
444.002	987.00694
444.496	1000.82569
444.989	898.84257
445.482	912.91584
445.975	979.88406
446.468	884.6208
446.961	907.67348
447.454	870.67118
447.947	909.84799
448.439	825.69609
448.931	870.70406
449.424	858.83551
449.916	852.78894
450.408	767.52789
450.9	803.7115
451.392	768.69303
451.884	744.50708
452.375	773.70938
452.867	737.47145
453.358	726.47929
453.849	741.40559
454.341	743.49305
454.832	727.40649
455.323	698.52642
455.814	709.46719
456.304	672.39642
456.795	680.41118
457.285	606.22439
457.776	682.38952
458.266	639.3811
458.756	627.35687
459.247	652.41734
459.737	610.34671
460.226	615.28038
460.716	643.41343
461.206	584.2973
461.695	579.31887
462.185	533.15958
462.674	621.32899
463.163	536.10304
463.653	641.2588
464.142	541.21931
464.63	553.26262
465.119	520.1267
465.608	540.17806
466.096	492.02006
466.585	537.16037
467.073	467.05099
467.561	470.06401
468.05	490.07694
468.538	516.18347
469.026	476.0785
469.513	479.045
470.001	415.90634
470.489	464.05339
470.976	448.99555
471.463	457.07407
471.951	404.96123
472.438	398.9028
472.925	363.82527
473.412	400.93525
473.899	343.76559
474.385	377.88926
474.872	409.93734
475.359	439.03008
475.845	333.69369
476.331	332.6973
476.817	330.7813
477.303	338.77077
477.789	322.76059
478.275	326.7879
478.761	341.8078
479.247	313.70441
479.732	295.72653
480.218	351.88471
480.703	299.73231
481.188	265.57339
481.673	276.63271
482.158	240.52851
482.643	231.57668
483.128	254.58439
483.612	264.61539
484.097	253.60815
484.581	246.56915
485.066	283.68567
485.55	265.59126
486.034	165.3642
486.518	238.56787
487.002	277.68422
487.486	215.52759
487.969	275.67404
488.453	252.62511
488.936	215.49832
489.42	161.36398
489.903	213.5331
490.386	132.23431
490.869	255.55977
491.352	170.41925
491.835	211.44952
492.318	269.62692
492.8	193.41725
493.283	257.65639
493.765	179.4485
494.247	177.42047
494.73	172.39257
495.212	170.41663
495.694	152.36518
496.175	162.3985
496.657	217.51965
497.139	182.33957
497.62	166.40547
498.102	183.46083
498.583	168.42511
499.064	156.36695
499.545	193.45318
500.026	168.39117
500.507	157.37655
500.988	163.41487
501.469	164.42117
501.949	184.46343
502.43	153.37712
502.91	158.34736
503.39	124.31511
503.87	206.50016
504.35	158.38046
504.83	153.35196
505.31	119.29623
505.79	163.40443
506.269	186.4489
506.749	83.1993
507.228	156.38105
507.707	124.28815
508.187	107.2617
508.666	126.3211
509.145	125.30698
509.623	103.25042
510.102	124.31098
510.581	103.25482
511.059	125.32321
511.538	104.27443
512.016	157.39097
512.494	164.40936
512.972	116.28619
513.45	98.24063
513.928	152.38476
514.406	133.33697
514.884	134.35394
515.361	122.3053
515.839	124.29758
516.316	155.38655
516.793	125.32477
517.27	75.18752
517.747	113.29892
518.224	119.28997
518.701	166.39168
519.178	78.20004
519.654	104.25677
520.131	70.17965
520.607	83.21283
521.083	91.21951
521.56	94.23506
522.036	124.28804
522.512	77.19474
522.987	115.28638
523.463	82.20617
523.939	74.18912
524.414	120.28885
524.89	92.22831
525.365	128.30624
525.84	115.28971
526.315	143.35895
526.79	104.24787
527.265	146.35277
527.74	110.27805
528.215	123.30474
528.689	61.14486
529.164	105.24067
529.638	108.28737
530.112	88.21982
530.587	114.26051
531.061	77.19544
531.534	78.19569
532.008	91.23015
532.482	78.18612
532.956	64.16945
533.429	101.25471
533.903	59.13822
534.376	103.24006
534.849	117.28488
535.322	86.21335
535.795	75.1913
536.268	78.19505
536.741	77.19308
537.213	104.25205
537.686	98.25045
538.158	56.13337
538.631	57.14411
539.103	89.21346
539.575	23.05145
540.047	66.15434
540.519	69.17383
540.991	94.23854
541.463	78.19787
541.934	66.1605
542.406	71.17886
542.877	122.293
543.348	74.18752
543.82	50.12747
544.291	59.14473
544.762	91.22554
545.233	109.2834
545.703	55.13051
546.174	108.2639
546.645	78.19745
547.115	91.23146
547.585	44.1074
548.056	144.36581
548.526	124.30896
548.996	82.20558
549.466	123.3093
549.935	128.31754
550.405	114.26512
550.875	75.18677
551.344	129.32381
551.814	154.37181
552.283	66.15143
552.752	121.29726
553.221	120.28348
553.69	130.30245
554.159	158.40463
554.628	101.24114
555.096	164.43128
555.565	153.36164
556.033	133.32602
556.502	102.25829
556.97	56.13296
557.438	70.17461
557.906	101.2507
558.374	58.14178
558.842	45.11332
559.31	88.20982
559.777	17.04353
560.245	84.20892
560.712	95.23399
561.18	111.26552
561.647	59.14151
562.114	64.15604
562.581	95.24368
563.048	71.17411
563.514	50.12944
563.981	39.09518
564.448	77.18503
564.914	91.22455
565.381	53.12881
565.847	99.24555
566.313	86.21288
566.779	36.0862
567.245	79.19666
567.711	83.21096
568.176	31.07548
568.642	61.16121
569.108	102.26369
569.573	123.3083
570.038	99.2281
570.504	100.2377
570.969	130.34199
571.434	118.28232
571.899	106.26804
572.363	50.12259
572.828	90.21869
573.293	98.23983
573.757	97.23557
574.222	163.39079
574.686	105.25653
575.15	123.30875
575.614	85.20844
576.078	118.2954
576.542	110.26689
577.006	113.27195
577.469	154.39467
577.933	167.40267
578.396	90.22482
578.86	134.33291
579.323	136.34487
579.786	132.30589
580.249	117.28818
580.712	97.24907
581.175	123.31726
581.637	63.15323
582.1	106.25109
582.563	100.23036
583.025	104.26597
583.487	120.26604
583.95	100.23605
584.412	128.29144
584.874	65.16568
585.336	53.13381
585.797	93.21693
586.259	107.26646
586.721	75.18718
587.182	128.31231
587.643	129.31022
588.105	151.3763
588.566	61.13864
589.027	89.22781
589.488	91.22166
589.949	106.26947
590.41	56.12146
590.87	83.19968
591.331	108.2477
591.791	133.32807
592.252	98.2408
592.712	87.21925
593.172	157.37684
593.632	155.36296
594.092	154.36464
594.552	136.31404
595.011	147.35659
595.471	109.25704
595.931	115.27235
596.39	133.33697
596.849	176.42973
597.308	140.32417
597.768	181.47767
598.227	127.31638
598.685	123.29411
599.144	135.33178
599.603	242.5935
600.062	232.52032
600.52	165.39
600.978	214.52114
601.437	213.5015
601.895	191.42722
602.353	217.49977
602.811	288.66815
603.269	301.73639
603.727	282.69491
604.184	312.72955
604.642	301.74894
605.099	302.71308
605.557	280.69531
606.014	348.7814
606.471	335.84591
606.928	404.89966
607.385	426.04618
607.842	372.85171
608.299	491.13257
608.755	383.92718
609.212	394.88103
609.668	425.95679
610.125	488.15261
610.581	483.11541
611.037	489.09475
611.493	395.92917
611.949	565.34939
612.405	452.91623
612.861	498.14167
613.316	519.21054
613.772	519.17489
614.227	532.23288
614.683	599.23817
615.138	495.13727
615.593	511.16473
616.048	504.12121
616.503	540.27413
616.958	546.32801
617.412	487.12778
617.867	543.17586
618.321	626.25387
618.776	523.13971
619.23	505.15381
619.684	514.1364
620.138	544.21733
620.592	471.12462
621.046	479.09475
621.5	564.33339
621.954	492.08859
622.407	470.03377
622.861	482.14281
623.314	451.01161
623.768	440.01695
624.221	407.82596
624.674	420.96273
625.127	426.98548
625.58	409.92681
626.033	423.92185
626.485	414.98577
626.938	399.94296
627.39	411.95701
627.843	389.90116
628.295	348.80445
628.747	361.85945
629.199	362.82915
629.651	326.7551
630.103	370.85767
630.555	328.70681
631.006	314.74314
631.458	326.77868
631.909	283.65409
632.361	306.72309
632.812	292.69054
633.263	280.6171
633.714	273.59625
634.165	316.77781
634.616	311.75038
635.067	282.63088
635.518	274.66025
635.968	218.45444
636.419	260.57999
636.869	255.61226
637.319	246.58065
637.769	236.5471
638.219	250.59535
638.669	270.65233
639.119	342.8362
639.569	270.65553
640.019	283.65746
640.468	292.65944
640.918	251.60586
641.367	258.59003
641.816	291.66482
642.265	290.67519
642.714	246.57705
643.163	326.76257
643.612	379.92301
644.061	325.71402
644.51	385.8926
644.958	330.73307
645.406	333.79919
645.855	371.90286
646.303	389.89652
646.751	357.82377
647.199	367.83166
647.647	311.72193
648.095	439.00197
648.543	364.75371
648.99	333.78794
649.438	442.01591
649.885	395.96412
650.333	415.81411
650.78	440.05228
651.227	463.11307
651.674	391.88063
652.121	345.83239
652.568	385.93097
653.015	417.01969
653.461	395.92954
653.908	439.00518
654.354	389.91043
654.801	355.83413
655.247	415.90787
655.693	416.06273
656.139	378.90216
656.585	336.79949
657.031	378.88522
657.477	353.77454
657.922	388.89368
658.368	377.91814
658.813	336.77177
659.259	359.86157
659.704	361.83432
660.149	357.83981
660.594	404.95052
661.039	321.73718
661.484	307.72952
661.929	328.76755
662.373	332.84535
662.818	351.87235
663.262	352.84526
663.707	316.79752
664.151	338.82335
664.595	261.63309
665.039	321.79782
665.483	311.79176
665.927	275.65198
666.371	244.58084
666.814	336.79918
667.258	313.76005
667.701	304.66128
668.145	285.71069
668.588	290.71067
669.031	313.75178
669.474	300.72562
669.917	322.71412
670.36	328.81655
670.803	264.63591
671.245	342.73001
671.688	276.6711
672.13	283.64889
672.573	299.74667
673.015	333.80284
673.457	310.68493
673.899	295.7099
674.341	313.75663
674.783	289.69599
675.225	285.69803
675.666	370.8969
676.108	294.64551
676.549	291.68964
676.991	359.80394
677.432	356.73681
677.873	295.68317
678.314	315.75486
678.755	324.7869
679.196	274.63769
679.637	269.65567
680.078	249.58556
680.518	305.70913
680.959	295.71635
681.399	281.703
681.839	257.62923
682.28	239.59708
682.72	315.72919
683.16	223.55631
683.6	261.59725
684.039	260.55307
684.479	242.60249
684.919	310.73027
685.358	261.66192
685.798	255.66816
686.237	259.63083
686.676	260.60153
687.115	258.60944
687.554	215.51663
687.993	259.57907
688.432	215.50306
688.871	225.52686
689.309	248.59625
689.748	219.46332
690.186	239.57101
690.625	231.54557
691.063	252.61161
691.501	227.5595
691.939	204.51177
692.377	195.48117
692.815	236.57214
693.253	241.58393
693.69	275.61535
694.128	261.64021
694.565	211.50817
695.003	253.6414
695.44	266.63077
695.877	250.59741
696.314	235.51044
696.751	193.44467
697.188	243.56611
697.625	202.46847
698.061	228.55544
698.498	246.59324
698.934	285.6887
699.371	235.56382
699.807	239.56883
700.243	259.62918
700.679	284.64765
701.115	277.64658
701.551	222.52848
701.987	265.60469
702.422	274.65775
702.858	238.56743
703.294	261.59317
703.729	281.68696
704.164	272.65716
704.599	291.65195
705.035	255.58797
705.47	297.73253
705.904	331.77806
706.339	228.52311
706.774	280.6573
707.209	254.59395
707.643	350.83215
708.078	302.74308
708.512	246.62289
708.946	244.57995
709.38	262.62009
709.814	252.57747
710.248	240.58227
710.682	270.64618
711.116	302.72853
711.549	301.76089
711.983	278.64572
712.416	315.73786
712.85	372.9102
713.283	315.74507
713.716	338.82673
714.149	312.72926
714.582	347.78091
715.015	313.76147
715.448	338.83317
715.881	303.65392
716.313	387.89049
716.746	350.81966
717.178	356.84023
717.61	336.82519
718.043	362.87586
718.475	400.93489
718.907	403.9818
719.339	376.84737
719.77	352.82725
720.202	407.99302
720.634	409.9819
721.065	430.99196
721.497	425.0057
721.928	409.9819
722.359	406.97192
722.79	493.15071
723.221	436.04587
723.652	418.02044
724.083	460.01681
724.514	471.04312
724.945	470.06617
725.375	484.10198
725.806	405.9675
726.236	457.11065
726.666	497.12273
727.096	489.14851
727.526	496.19996
727.956	495.07632
728.386	528.22311
728.816	511.224
729.246	571.32207
729.675	509.2002
730.105	515.17952
730.534	549.21162
730.964	513.21198
731.393	513.1848
731.822	581.38341
732.251	546.29328
732.68	606.31109
733.109	578.32374
733.537	618.38995
733.966	642.49102
734.395	579.25127
734.823	625.28738
735.251	627.41337
735.68	615.42405
736.108	609.41905
736.536	613.33331
736.964	628.35701
737.392	599.39189
737.82	603.34648
738.247	624.37478
738.675	627.37534
739.102	647.49938
739.53	647.52301
739.957	637.51686
740.384	629.4098
740.811	631.46286
741.238	611.38512
741.665	609.30552
742.092	661.44757
742.519	637.45696
742.945	639.41815
743.372	650.4888
743.798	658.55401
744.225	604.33512
744.651	645.48708
745.077	592.37209
745.503	619.39191
745.929	662.45494
746.355	688.55005
746.781	626.43149
747.207	638.41211
747.632	662.50964
748.058	678.54739
748.483	607.30291
748.908	606.39127
749.334	627.42947
749.759	578.25895
750.184	563.2674
750.609	674.52158
751.033	651.40647
751.458	609.26337
751.883	621.41692
752.307	595.31493
752.732	609.43294
753.156	628.44872
753.58	606.34177
754.005	582.36059
754.429	588.297
754.853	620.4189
755.277	568.2429
755.7	567.31746
756.124	590.3653
756.548	602.3401
756.971	557.25286
757.394	583.40302
757.818	546.31017
758.241	556.32003
758.664	529.26476
759.087	524.1204
759.51	535.24253
759.933	571.29487
760.356	543.2958
760.778	600.38901
761.201	536.22498
761.623	493.11957
762.046	546.21278
762.468	485.08266
762.89	544.24728
763.312	586.3453
763.734	536.21171
764.156	538.24729
764.578	512.12396
765	542.24567
765.421	465.12886
765.843	482.1883
766.264	477.09148
766.686	474.11517
767.107	461.05988
767.528	424.03358
767.949	487.17263
768.37	420.97623
768.791	478.09925
769.212	427.03452
769.632	408.92661
770.053	392.99524
770.473	448.03916
770.894	409.97406
771.314	404.91529
771.734	469.04688
772.154	384.94024
772.575	419.92823
772.994	363.80687
773.414	456.03729
773.834	421.0104
774.254	439.0401
774.673	333.78824
775.093	376.90184
775.512	336.8044
775.931	350.86052
776.351	333.80617
776.77	329.789
777.189	334.77546
777.607	335.8326
778.026	367.8918
778.445	334.8218
778.864	368.90943
779.282	341.80312
779.701	325.79361
780.119	370.92641
780.537	344.84015
780.955	323.7902
781.373	288.69817
781.791	326.72058
782.209	277.62621
782.627	312.81121
783.045	319.7276
783.462	296.74439
783.88	277.70448
784.297	280.6948
784.715	304.76806
785.132	308.73823
785.549	274.67942
785.966	255.63289
786.383	266.64655
786.8	281.64559
787.217	228.54026
787.633	239.59384
788.05	242.56278
788.466	215.49279
788.883	219.55325
789.299	263.62474
789.715	225.54742
790.131	227.56526
790.547	192.47351
790.963	251.61933
791.379	226.56736
791.795	217.49218
792.21	167.39075
792.626	173.40955
793.041	233.57471
793.457	230.56679
793.872	144.34123
794.287	158.38262
794.702	185.45263
795.117	184.46028
795.532	158.40037
795.947	186.44584
796.362	204.486
796.776	149.34536
797.191	162.40011
797.605	150.36407
798.02	131.32171
798.434	138.30721
798.848	212.52378
799.262	188.4713
799.676	106.25959
800.09	144.36256
800.504	121.29473
800.918	142.33636
801.331	112.29135
801.745	129.30054
802.158	158.39638
802.572	89.21695
802.985	125.30334
803.398	98.23742
803.811	93.23738
804.224	51.12797
804.637	95.23218
805.05	61.14368
805.462	104.25781
805.875	84.22135
806.288	83.20617
806.7	90.22977
807.112	34.08023
807.525	66.1654
807.937	71.17848
808.349	96.2431
808.761	81.20259
809.173	43.10654
809.584	60.14999
809.996	62.15577
810.408	36.09538
810.819	67.16284
811.231	94.25095
811.642	110.27428
812.053	104.25885
812.464	95.23313
812.875	83.21513
813.286	60.15752
813.697	57.13614
814.108	63.15649
814.519	58.13196
814.929	56.14472
815.34	96.23989
815.75	46.11983
816.16	60.15167
816.571	14.03682
816.981	52.12493
817.391	79.19552
817.801	74.18972
818.211	8.01937
818.62	43.10739
819.03	-5.01259
819.44	42.11079
819.849	0
820.259	14.03622
820.668	10.02549
821.077	65.16615
821.486	45.11035
821.895	-1.00251
822.304	31.0836
822.713	15.03681
823.122	32.08178
823.531	40.09822
823.939	38.09534
824.348	43.10763
824.756	29.07465
825.164	17.04347
825.573	66.17133
825.981	41.10347
826.389	57.14631
826.797	-17.04342
827.205	43.10251
827.612	52.13154
828.02	8.01954
828.428	56.14568
828.835	31.08324
829.243	65.15969
829.65	3.00768
830.057	5.01257
830.464	0
830.871	16.03933
831.278	7.01734
831.685	44.10152
832.092	21.05313
832.499	16.03624
832.905	46.11826
833.312	65.15227
833.718	6.01537
834.124	23.05392
834.531	14.03598
834.937	-2.00518
835.343	23.05717
835.749	-15.0357
836.155	7.01868
836.561	42.10628
836.966	15.03767
837.372	16.04168
837.777	27.0694
838.183	-40.09222
838.588	-11.0278
838.993	20.04978
839.399	10.02515
839.804	7.01757
840.209	67.1751
840.613	18.04156
841.018	24.06166
841.423	30.07825
841.828	31.08063
842.232	37.09294
842.637	23.05613
843.041	21.05546
843.445	19.04884
843.849	-27.0688
844.253	33.08056
844.657	20.0519
845.061	13.03068
845.465	29.07201
845.869	-5.01208
846.272	-5.01264
846.676	-1.00247
847.079	15.03948
847.483	-19.04838
847.886	-19.04682
848.289	-4.01094
848.692	25.06464
849.095	38.09403
849.498	-1.00256
849.901	38.08897
850.304	20.04938
850.707	-12.03118
851.109	-35.09022
851.512	26.06603
851.914	2.00527
852.316	-15.03853
852.718	-12.03201
853.121	48.12021
853.523	33.08035
853.925	16.04296
854.326	-25.06413
854.728	16.04231
855.13	11.02931
855.531	34.0845
855.933	-2.00487
856.334	11.02824
856.736	-9.02112
857.137	1.0024
857.538	2.00521
857.939	27.06909
858.34	-12.03008
858.741	18.04786
859.142	21.05192
859.542	46.12374
859.943	-4.0102
860.343	-4.01021
860.744	52.12872
861.144	-6.01488
861.544	-6.01508
861.945	55.14393
862.345	3.00751
862.745	31.07971
863.145	21.05115
863.544	-8.02072
863.944	5.01205
864.344	1.00254
864.743	18.04526
865.143	4.01053
865.542	34.08135
865.941	14.03582
866.34	34.08305
866.74	1.00272
867.139	46.11395
867.537	-11.02866
867.936	29.07185
868.335	5.01305
868.734	54.14206
869.132	43.10333
869.531	-18.04428
869.929	17.04057
870.327	-2.00498
870.726	36.09032
871.124	57.13687
871.522	-1.00262
871.92	37.09358
872.318	-5.01256
872.715	-6.01504
873.113	19.04785
873.511	33.08503
873.908	12.03151
874.306	34.08729
874.703	9.02295
875.1	15.03903
875.497	31.077
875.894	14.03567
876.291	-4.01006
876.688	25.0666
877.085	-22.05412
877.482	-16.04108
877.878	-7.01746
878.275	27.07042
878.671	46.10512
879.068	4.00992
879.464	8.01984
879.86	-9.02195
880.256	35.08789
880.652	-16.04188
881.048	-15.03798
881.444	-20.04856
881.84	13.03371
882.236	-4.01028
882.631	64.16143
883.027	-1.00247
883.422	-29.0761
883.817	37.0967
884.213	14.03689
884.608	27.06836
885.003	27.06734
885.398	55.14187
885.793	-7.01799
886.188	26.06703
886.582	-15.03888
886.977	46.11169
887.371	-44.11324
887.766	-3.00772
888.16	8.0204
888.554	-4.01004
888.949	11.02807
889.343	-33.08266
889.737	24.06595
890.131	-11.0281
890.525	26.06764
890.918	-26.06675
891.312	-10.02427
891.706	-34.09008
892.099	-34.08796
892.492	-19.04299
892.886	-42.10579
893.279	29.07571
893.672	-80.20796
894.065	20.05093
894.458	32.08281
894.851	4.01002
895.244	-27.07071
895.637	12.02982
896.029	-13.03264
896.422	-15.03759
896.814	-12.03057
897.206	-22.05424
897.599	27.06741
897.991	-16.03966
898.383	21.05165
898.775	-5.01167
899.167	-23.05621
899.559	-22.05697
899.951	13.03142
900.342	-19.04909
900.734	4.01035
901.125	-3.00803
901.517	6.01521
901.908	-21.05163
902.299	41.1041
902.69	2.00489
903.082	45.11088
903.473	4.00997
903.863	3.00783
904.254	31.07469
904.645	40.10122
905.036	-3.00753
905.426	32.07451
905.817	25.06305
906.207	12.02969
906.597	-41.09882
906.987	-6.01591
907.378	-53.13733
907.768	6.01619
908.158	-11.0276
908.547	17.04502
908.937	28.07234
909.327	32.07994
909.717	-4.0103
910.106	-10.0247
910.495	52.13187
910.885	66.1701
911.274	33.084
911.663	-12.03087
912.052	1.0025
912.441	-12.03107
912.83	36.08541
913.219	-3.00798
913.608	5.01251
913.997	17.04388
914.385	16.03892
914.774	4.00998
915.162	16.0395
915.55	-11.0273
915.939	-4.01036
916.327	-37.09391
916.715	-10.02611
917.103	29.07222
917.491	-16.04026
917.878	-10.02487
918.266	-15.03931
918.654	38.09946
919.041	6.01608
919.429	27.06562
919.816	3.00772
920.203	35.08703
920.591	8.02019
920.978	-26.06452
921.365	14.03743
921.752	4.00987
922.139	31.07011
922.525	44.10927
922.912	8.01989
923.299	11.0281
923.685	24.0639
924.072	14.03269
924.458	10.02536
924.844	23.05842
925.231	-3.00723
925.617	20.05221
926.003	-10.02609
926.389	19.04901
926.774	12.03106
927.16	12.0305
927.546	20.05262
927.931	47.11921
928.317	3.00706
928.702	-29.0703
929.088	-5.0123
929.473	-4.01039
929.858	-6.01507
930.243	10.02475
930.628	35.08814
931.013	14.03563
931.398	10.02348
931.783	15.03983
932.167	9.02282
932.552	-22.05605
932.937	20.05047
933.321	0
933.705	-14.03638
934.09	-4.01022
934.474	-4.00974
934.858	-16.04248
935.242	-15.03618
935.626	-20.05295
936.009	-50.13481
936.393	-19.04945
936.777	-4.0105
937.16	-17.04499
937.544	26.06223
937.927	60.15554
938.311	39.09634
938.694	12.03204
939.077	31.07596
939.46	-25.06149
939.843	79.17101
940.226	31.0809
940.609	20.04822
940.991	26.06752
941.374	6.01509
941.757	-23.05792
942.139	46.10795
942.522	0
942.904	51.12492
943.286	-10.02579
943.668	42.11057
944.05	-11.02792
944.432	27.06882
944.814	23.05715
945.196	16.04052
945.578	41.10192
945.959	3.00726
946.341	-14.03448
946.722	-15.03624
947.104	18.04423
947.485	2.0048
947.866	42.10944
948.247	-4.01024
948.628	2.00495
949.009	26.06824
949.39	21.05311
949.771	50.11899
950.152	17.04303
950.532	14.03575
950.913	44.10812
951.293	2.00552
951.674	27.06824
952.054	28.07179
952.434	-2.00507
952.814	29.07067
953.194	-28.07446
953.574	-16.03998
953.954	12.02931
954.334	16.04088
954.714	-8.02019
955.093	19.04733
955.473	-33.08468
955.853	20.05242
956.232	-42.11647
956.611	15.03674
956.99	43.1108
957.37	-7.01832
957.749	12.02955
958.128	30.07775
958.506	47.12521
958.885	10.02593
959.264	49.12455
959.643	16.03728
960.021	10.02554
960.4	12.02825
960.778	36.09012
961.156	23.05927
961.535	0
961.913	13.03131
962.291	38.10081
962.669	18.04621
963.047	-9.02338
963.424	-15.03912
963.802	25.06318
964.18	52.13276
964.557	42.09903
964.935	5.01218
965.312	-10.02651
965.69	9.0228
966.067	31.0774
966.444	-22.05531
966.821	-3.00786
967.198	2.00495
967.575	0
967.952	3.00724
968.329	-30.07554
968.705	5.01102
969.082	44.11528
969.458	8.02004
969.835	-6.01496
970.211	18.0475
970.587	33.0834
970.963	-1.00261
971.339	13.03462
971.715	0
972.091	18.04532
972.467	35.08887
972.843	9.02289
973.219	-33.08062
973.594	38.10205
973.97	18.04362
974.345	-10.02478
974.721	-45.11104
975.096	29.07161
975.471	-8.01956
975.846	-2.00492
976.221	67.1742
976.596	6.01488
976.971	-2.00505
977.346	37.08736
977.72	1.00261
978.095	4.01058
978.469	11.02678
978.844	3.00762
979.218	-30.07421
979.593	2.0049
979.967	-20.0501
980.341	-37.08817
980.715	3.00776
981.089	-25.06359
981.463	44.10535
981.837	26.06535
982.21	50.11789
982.584	-13.03242
982.957	17.04368
983.331	17.0413
983.704	-71.17803
984.078	26.06577
984.451	-9.02265
984.824	-21.053
985.197	-29.07238
985.57	11.02815
985.943	-7.01752
986.316	31.07731
986.688	-42.10416
987.061	46.11111
987.434	8.02124
987.806	7.01744
988.179	28.06824
988.551	50.12895
988.923	-14.0354
989.295	-18.04521
989.667	-11.02742
990.039	1.00256
990.411	-19.04528
990.783	3.00709
991.155	-22.05571
991.527	46.11366
991.898	20.05117
992.27	-24.0609
992.641	15.03815
993.012	42.10076
993.384	-26.06358
993.755	30.07836
994.126	-26.06429
994.497	-4.01013
994.868	45.10637
995.239	-9.0223
995.61	37.09531
995.98	21.05275
996.351	-6.01526
996.722	29.07016
997.092	27.06589
997.462	11.02672
997.833	-14.03403
998.203	-29.07196
998.573	-11.02802
998.943	30.07262
999.313	9.0223
999.683	40.0993
1000.053	14.03333
1000.423	-24.05956
1000.792	37.09798
1001.162	-38.09602
1001.531	29.07303
1001.901	66.16879
1002.27	-42.09795
1002.639	6.01574
1003.009	-38.09296
1003.378	-40.1043
1003.747	40.09756
1004.116	8.01974
1004.485	-52.12792
1004.853	17.04385
1005.222	-23.05904
1005.591	14.03397
1005.959	16.03777
1006.328	-29.06812
1006.696	20.04996
1007.064	-14.03596
1007.433	6.01526
1007.801	-6.01493
1008.169	-26.06668
1008.537	24.05489
1008.905	8.01934
1009.273	-1.0025
1009.64	6.01492
1010.008	18.04421
1010.375	-17.04113
1010.743	27.06338
1011.11	-4.00982
1011.478	6.01512
1011.845	-33.08005
1012.212	48.11221
1012.579	-18.04511
1012.946	-18.044
1013.313	14.03383
1013.68	24.0552
1014.047	-13.03224
1014.414	10.02444
1014.78	34.08545
1015.147	-59.14591
1015.513	28.06911
1015.88	6.01545
1016.246	18.04449
1016.612	-26.06087
1016.978	20.05007
1017.344	34.08616
1017.71	-11.02707
1018.076	-7.01689
1018.442	-10.02602
1018.808	13.03325
1019.174	25.06424
1019.539	19.04385
1019.905	-25.06099
1020.27	12.03051
1020.636	27.06601
1021.001	16.03902
1021.366	-19.04721
1021.731	-29.07548
1022.096	-15.03899
1022.461	-23.05617
1022.826	-11.02685
1023.191	-39.10455
1023.556	26.06282
1023.92	37.09171
1024.285	6.01499
1024.649	-1.00252
1025.014	33.08328
1025.378	33.08459
1025.742	-10.02558
1026.107	-6.01393
1026.471	-19.04503
1026.835	18.04591
1027.199	48.12042
1027.562	20.04767
1027.926	30.07445
1028.29	6.01565
1028.654	14.03315
1029.017	-40.10035
1029.381	-2.00493
1029.744	-30.07796
1030.107	9.02173
1030.471	-15.03657
1030.834	18.04185
1031.197	-11.02684
1031.56	-17.04115
1031.923	17.04462
1032.286	27.06454
1032.648	43.10556
1033.011	-58.13792
1033.374	-3.00716
1033.736	-40.10831
1034.099	26.06518
1034.461	-19.04898
1034.823	-13.03309
1035.185	3.00771
1035.548	66.16379
1035.91	5.01229
1036.272	-9.02091
1036.634	24.05915
1036.995	-11.02688
1037.357	-34.08555
1037.719	-32.07918
1038.08	-22.05352
1038.442	-9.02191
1038.803	10.02447
1039.165	41.10612
1039.526	-8.01982
1039.887	27.06623
1040.248	-16.04046
1040.609	14.03481
1040.97	17.0427
1041.331	6.01548
1041.692	22.0538
1042.053	67.15573
1042.413	-2.0048
1042.774	-5.01242
1043.134	37.09003
1043.495	-26.06659
1043.855	-22.05486
1044.215	36.09136
1044.576	38.09417
1044.936	9.02117
1045.296	14.03557
1045.656	4.00996
1046.016	20.04887
1046.375	-22.0545
1046.735	-6.01415
1047.095	3.00721
1047.454	-54.11957
1047.814	-21.05197
1048.173	-16.03825
1048.533	9.02116
1048.892	-40.10057
1049.251	14.03583
1049.61	-16.0404
1049.969	45.10978
1050.328	32.0713
1050.687	21.05201
1051.046	-23.05696
1051.405	54.13738
1051.763	5.0119
1052.122	-17.04355
1052.48	-27.06719
1052.839	24.05782
1053.197	26.06297
1053.555	-48.11004
1053.914	-21.05209
1054.272	-29.07111
1054.63	-12.03043
1054.988	4.00981
1055.345	12.02675
1055.703	6.01472
1056.061	0
1056.419	-13.03436
1056.776	-25.06151
1057.134	8.01909
1057.491	3.00763
1057.848	-24.06062
1058.206	-17.04132
1058.563	-22.05025
1058.92	-22.05163
1059.277	-18.04532
1059.634	6.01441
1059.991	9.02208
1060.348	10.02347
1060.704	15.03684
1061.061	3.0071
1061.418	-40.0997
1061.774	29.07301
1062.131	-4.01084
1062.487	-15.03625
1062.843	-16.04056
1063.199	28.07138
1063.555	9.02166
1063.911	-18.04603
1064.267	-37.07999
1064.623	-25.06271
1064.979	32.07685
1065.335	-13.03162
1065.691	-15.03674
1066.046	-42.09362
1066.402	27.0638
1066.757	-39.10049
1067.112	-4.00996
1067.468	37.09184
1067.823	16.03953
1068.178	-32.07907
1068.533	10.02483
1068.888	-27.06606
1069.243	-19.04804
1069.598	2.00499
1069.952	1.00235
1070.307	17.04358
1070.662	-19.04626
1071.016	-26.06063
1071.371	13.03026
1071.725	12.02922
1072.079	-27.06633
1072.434	-5.01254
1072.788	14.03429
1073.142	60.14993
1073.496	-38.09303
1073.85	-37.08783
1074.203	56.14004
1074.557	-7.01899
1074.911	-12.02902
1075.265	15.03568
1075.618	-11.02723
1075.971	26.06304
1076.325	35.09053
1076.678	7.01671
1077.031	25.0585
1077.385	29.06628
1077.738	-15.03522
1078.091	-35.08337
1078.444	-22.0527
1078.796	-65.16398
1079.149	-4.01011
1079.502	40.09822
1079.855	-23.05584
1080.207	16.04013
1080.56	-2.00526
1080.912	-2.00495
1081.264	-11.02721
1081.617	5.01264
1081.969	17.04415
1082.321	6.01488
1082.673	30.07112
1083.025	-6.0147
1083.377	-196.45582
1083.728	-19.04528
1084.08	-7.01782
1084.432	-3.00745
1084.783	9.02151
1085.135	-29.07478
1085.486	0
1085.838	-11.02787
1086.189	-31.077
1086.54	1.00243
1086.891	27.06991
1087.242	-46.11449
1087.593	2.00496
1087.944	-49.11425
1088.295	6.01401
1088.646	67.16564
1088.996	-39.09684
1089.347	-3.00754
1089.698	1.00244
1090.048	-9.02347
1090.398	-13.03078
1090.749	20.04898
1091.099	21.05498
1091.449	14.0355
1091.799	-34.08772
1092.149	13.03316
1092.499	-53.13323
1092.849	-11.02879
1093.199	-9.0228
1093.548	-12.02985
1093.898	-17.04367
1094.248	-37.09696
1094.597	18.04761
1094.947	-24.06507
1095.296	-3.00754
1095.645	33.08668
1095.994	-27.06631
1096.343	5.01281
1096.692	58.15801
1097.041	-41.11265
1097.39	45.11571
1097.739	-2.00529
1098.088	13.03532
1098.437	-23.06208
1098.785	-19.05159
1099.134	-5.01343
1099.482	26.0723
1099.83	-23.06113
1100.179	11.02953
1100.527	9.02414
1100.875	-41.11103
1101.223	15.04026
1101.571	-4.01122
1101.919	-1.0027
1102.267	-24.06852
1102.615	3.00968
1102.962	8.02575
1103.31	-3.00968
1103.658	8.02582
