Data from N2 R0 60C sample12_Subt2__3__11-36-54-685.txt Node

Date: Tue Aug 19 11:36:54 PDT 2025
User: uwsun
Spectrometer: HDX01956
Trigger mode: 0
Integration Time (sec): 5.000000E-1
Scans to average: 1
Nonlinearity correction enabled: true
Boxcar width: 0
Storing dark spectrum: false
XAxis mode: Wavelengths
Number of Pixels in Spectrum: 2068
>>>>>Begin Spectral Data<<<<<
194.03	363.00733
194.578	338.05655
195.127	318.98564
195.676	341.05486
196.225	378.98946
196.773	395.06992
197.321	603.59064
197.87	784.88015
198.418	799.88672
198.966	820.97908
199.513	715.66881
200.061	771.82482
200.609	811.96581
201.156	746.51734
201.704	813.89978
202.251	786.94179
202.798	787.89555
203.345	840.89725
203.892	782.82129
204.438	785.73449
204.985	791.75864
205.532	789.92179
206.078	851.90924
206.624	847.91112
207.17	805.72244
207.716	813.82099
208.262	719.32137
208.808	794.83547
209.354	841.8814
209.899	799.84009
210.445	835.91918
210.99	846.88212
211.535	848.83283
212.08	859.84279
212.625	884.01254
213.17	794.85286
213.715	846.76854
214.259	826.76474
214.804	828.85649
215.348	784.64678
215.892	814.78625
216.436	806.71604
216.98	844.71845
217.524	764.67508
218.068	882.03453
218.612	803.85884
219.155	753.64506
219.698	743.64915
220.242	718.66893
220.785	745.60975
221.328	750.7214
221.871	648.5351
222.414	735.69805
222.956	746.69379
223.499	709.494
224.041	774.66141
224.583	709.40565
225.126	748.52555
225.668	683.55161
226.21	757.75857
226.751	714.47392
227.293	763.62829
227.835	727.66427
228.376	770.63012
228.918	760.77351
229.459	724.68354
230	704.55962
230.541	749.62805
231.082	701.5636
231.622	723.5422
232.163	697.58344
232.704	730.67148
233.244	714.64789
233.784	714.62372
234.324	764.58289
234.864	690.46888
235.404	687.52604
235.944	756.64779
236.484	755.71734
237.023	763.67744
237.563	712.53413
238.102	703.53122
238.641	745.74564
239.18	815.75585
239.719	752.7418
240.258	709.49139
240.797	796.75844
241.335	727.65429
241.874	763.38203
242.412	764.71296
242.95	774.71124
243.488	736.57165
244.026	742.58037
244.564	758.44454
245.102	735.53393
245.64	768.68879
246.177	784.62582
246.715	794.7511
247.252	741.57994
247.789	805.38658
248.326	800.78123
248.863	753.54861
249.4	778.63058
249.936	751.42459
250.473	783.69191
251.009	780.66712
251.546	789.60017
252.082	808.62123
252.618	810.64393
253.154	838.84971
253.69	800.63911
254.226	740.63535
254.761	807.68881
255.297	758.52498
255.832	788.70019
256.367	793.72593
256.903	752.51081
257.438	809.73175
257.972	804.65547
258.507	811.7211
259.042	775.57103
259.576	834.66269
260.111	788.67116
260.645	851.64679
261.179	830.7603
261.713	792.63804
262.247	857.803
262.781	845.61958
263.315	842.88789
263.849	823.8901
264.382	835.73591
264.915	879.8849
265.449	888.99671
265.982	931.90305
266.515	841.84899
267.048	861.67966
267.58	861.70745
268.113	829.64238
268.646	867.94513
269.178	840.71572
269.71	865.71858
270.243	837.73158
270.775	853.95509
271.307	851.84988
271.838	821.74989
272.37	888.96334
272.902	850.75184
273.433	840.64755
273.965	882.9347
274.496	830.85413
275.027	867.94195
275.558	875.91653
276.089	885.98227
276.62	847.9514
277.15	892.94681
277.681	899.76384
278.211	798.74306
278.741	821.66438
279.272	866.78484
279.802	893.98955
280.332	963.00941
280.861	939.01102
281.391	877.79258
281.921	895.9365
282.45	900.01856
282.98	919.13959
283.509	882.77395
284.038	918.8718
284.567	888.83758
285.096	947.03861
285.625	922.88591
286.153	860.80971
286.682	936.90854
287.21	976.07916
287.739	883.89429
288.267	903.96128
288.795	932.14229
289.323	938.98256
289.851	991.0579
290.378	971.93212
290.906	968.08342
291.433	928.04319
291.961	980.95501
292.488	969.11623
293.015	999.08372
293.542	981.2044
294.069	952.05681
294.596	995.14296
295.122	1002.09505
295.649	984.89596
296.175	1052.23931
296.702	1038.17614
297.228	1019.14702
297.754	1051.0861
298.28	1061.09136
298.806	1007.11615
299.332	1060.04604
299.857	1072.08305
300.383	1041.28026
300.908	963.07398
301.433	1062.21188
301.958	1044.06786
302.483	1034.25025
303.008	1045.23829
303.533	1059.36231
304.058	1101.22599
304.582	1063.18127
305.107	1060.41434
305.631	1068.07722
306.155	1111.22175
306.679	1091.16665
307.203	1150.26873
307.727	1099.22799
308.251	1097.3216
308.775	1161.34854
309.298	1158.38762
309.822	1181.51787
310.345	1195.40317
310.868	1179.3677
311.391	1139.37191
311.914	1205.54038
312.437	1205.29623
312.96	1218.38751
313.482	1209.3848
314.005	1188.51594
314.527	1214.68418
315.049	1240.57276
315.571	1267.36133
316.093	1310.66654
316.615	1315.60631
317.137	1341.3504
317.659	1371.7087
318.18	1290.51828
318.702	1342.49849
319.223	1408.33362
319.744	1365.46979
320.265	1373.69131
320.786	1409.81222
321.307	1377.76464
321.828	1490.65151
322.348	1526.81027
322.869	1483.79501
323.389	1363.53662
323.909	1496.66088
324.43	1463.73986
324.95	1562.74484
325.47	1554.92852
325.989	1549.81404
326.509	1621.70328
327.029	1592.70272
327.548	1627.7486
328.067	1707.09518
328.587	1621.05476
329.106	1623.71396
329.625	1649.25458
330.144	1734.9597
330.662	1697.85705
331.181	1811.0351
331.7	1814.0687
332.218	1808.80833
332.736	1811.04974
333.255	1809.01222
333.773	1765.0129
334.291	1891.30301
334.808	1900.987
335.326	1922.01618
335.844	2029.21454
336.361	1994.50858
336.879	2027.25819
337.396	2020.30347
337.913	2072.15072
338.43	2108.10626
338.947	2084.26144
339.464	2138.94649
339.981	2161.33912
340.497	2112.41274
341.014	2226.50527
341.53	2159.06686
342.046	2209.46535
342.562	2319.64524
343.078	2247.3482
343.594	2368.44505
344.11	2336.37897
344.626	2348.69274
345.141	2408.22395
345.657	2437.18806
346.172	2366.47917
346.687	2430.32965
347.202	2480.21801
347.717	2625.54296
348.232	2549.71945
348.747	2525.34449
349.261	2486.13951
349.776	2633.45334
350.29	2767.77834
350.805	2756.80376
351.319	2731.46341
351.833	2705.24738
352.347	2703.43063
352.861	2766.38848
353.374	2828.30006
353.888	2820.6002
354.401	2881.36031
354.915	2852.25955
355.428	2922.73789
355.941	2954.4505
356.454	2940.19997
356.967	2959.43368
357.48	2938.29563
357.993	3013.68482
358.505	2995.61919
359.018	3082.63956
359.53	3171.61509
360.042	3113.12086
360.554	3170.54582
361.066	3164.64366
361.578	3107.00139
362.09	3136.4359
362.602	3197.06922
363.113	3259.3802
363.625	3332.16092
364.136	3397.00353
364.647	3295.43759
365.158	3404.25773
365.669	3379.42935
366.18	3328.34096
366.691	3453.99326
367.201	3444.44351
367.712	3439.18889
368.222	3458.17884
368.733	3624.96601
369.243	3733.93727
369.753	3752.22267
370.263	3910.30867
370.773	3745.41295
371.282	3859.21429
371.792	4072.10251
372.301	4181.20755
372.811	4160.62376
373.32	4132.46881
373.829	4339.9559
374.338	4417.4775
374.847	4639.62088
375.356	4702.71888
375.865	4893.90865
376.373	5059.19978
376.882	5267.70579
377.39	5317.36987
377.898	5502.41935
378.407	5716.69269
378.915	5886.37707
379.423	6222.73949
379.93	6243.4424
380.438	6659.79327
380.946	7017.60594
381.453	7399.73617
381.96	7630.77387
382.468	8192.22647
382.975	8668.84549
383.482	8847.05985
383.989	9061.5685
384.495	9275.97361
385.002	9934.98068
385.509	10427.39741
386.015	10932.4342
386.521	11600.102
387.028	12036.86393
387.534	12359.30915
388.04	12798.68177
388.546	13041.10251
389.051	13937.05962
389.557	15201.83512
390.063	16116.02847
390.568	16690.30419
391.073	17330.64976
391.578	18058.61457
392.084	18498.25702
392.589	19246.40366
393.093	20830.10302
393.598	22815.63273
394.103	24447.75503
394.607	26822.40855
395.112	28837.61327
395.616	30619.84668
396.12	33331.81742
396.624	36984.83086
397.128	40037.3986
397.632	44586.0838
398.136	47980.57514
398.639	51261.3666
399.143	57077.67183
399.646	60184.41465
400.15	60577.26601
400.653	60560.14334
401.156	60136.25446
401.659	59550.50961
402.162	58431.12733
402.664	54480.21957
403.167	49329.08451
403.67	22278.45323
404.172	2696.20453
404.674	0
405.176	0
405.678	0
406.18	0
406.682	0
407.184	0
407.686	25783.58453
408.187	43316.52985
408.688	51225.60928
409.19	54389.01922
409.691	56215.4214
410.192	57270.57019
410.693	57845.40442
411.194	58219.2365
411.694	58633.01717
412.195	59215.68848
412.696	59364.60701
413.196	59341.61941
413.696	59632.46864
414.196	59367.6054
414.696	59763.40624
415.196	59913.34014
415.696	60584.13941
416.196	61381.18813
416.695	55954.50147
417.195	49552.46485
417.694	47042.10417
418.194	44686.92019
418.693	41621.62671
419.192	40725.67752
419.691	39818.32621
420.19	38892.29072
420.688	38190.75123
421.187	36562.70983
421.685	33840.87196
422.184	30457.61614
422.682	26409.9925
423.18	22778.72983
423.678	20671.82531
424.176	19332.00775
424.674	17988.28281
425.172	17146.34507
425.669	16050.00028
426.167	14975.14259
426.664	13599.34787
427.161	12748.72493
427.659	11454.99926
428.156	10806.62819
428.652	10278.72051
429.149	9869.51066
429.646	9390.29463
430.143	8835.07701
430.639	8296.26752
431.135	8033.19045
431.632	7578.57249
432.128	7060.60359
432.624	6740.98274
433.12	6532.33174
433.616	6298.20591
434.111	6092.69265
434.607	5872.89174
435.103	5771.20093
435.598	5610.27076
436.093	5262.12222
436.588	4956.92589
437.083	4760.15483
437.578	4516.51467
438.073	4484.12961
438.568	4198.05269
439.062	4137.35662
439.557	3998.95508
440.051	3867.76244
440.546	3777.87378
441.04	3693.27873
441.534	3649.65803
442.028	3566.24071
442.522	3476.31022
443.015	3461.80933
443.509	3437.45836
444.002	3364.485
444.496	3277.93044
444.989	3259.43196
445.482	3197.59308
445.975	3173.19301
446.468	3086.84687
446.961	3086.90469
447.454	2980.06969
447.947	3012.41008
448.439	2914.36683
448.931	3008.16653
449.424	2847.61628
449.916	2900.51231
450.408	2794.13117
450.9	2772.51935
451.392	2641.63089
451.884	2644.17108
452.375	2726.67703
452.867	2518.07121
453.358	2621.17595
453.849	2549.85278
454.341	2549.11414
454.832	2464.90923
455.323	2499.46513
455.814	2398.17307
456.304	2421.16218
456.795	2389.15356
457.285	2367.95214
457.776	2270.02921
458.266	2205.21857
458.756	2236.22875
459.247	2239.27524
459.737	2195.28253
460.226	2142.0001
460.716	2143.26354
461.206	2036.18694
461.695	2031.29002
462.185	1929.98089
462.674	2040.06337
463.163	1970.79057
463.653	1892.65966
464.142	1909.11725
464.63	1915.18714
465.119	1867.90867
465.608	1859.94576
466.096	1775.65456
466.585	1763.82977
467.073	1750.91788
467.561	1722.91733
468.05	1689.79175
468.538	1678.959
469.026	1676.88118
469.513	1694.76124
470.001	1609.6338
470.489	1655.85905
470.976	1597.70622
471.463	1533.84903
471.951	1510.82196
472.438	1480.61883
472.925	1368.47462
473.412	1371.5896
473.899	1382.42198
474.385	1364.59442
474.872	1386.5503
475.359	1324.57024
475.845	1287.11613
476.331	1206.04629
476.817	1253.43041
477.303	1216.2777
477.789	1203.34977
478.275	1114.28453
478.761	1141.2787
479.247	1157.15044
479.732	1115.32188
480.218	1140.45704
480.703	1109.2992
481.188	1036.87161
481.673	1026.99494
482.158	1050.91815
482.643	984.11248
483.128	1036.00627
483.612	979.95707
484.097	977.01891
484.581	928.85288
485.066	890.90563
485.55	917.76794
486.034	853.60979
486.518	931.92191
487.002	916.99162
487.486	826.79285
487.969	850.85669
488.453	816.81087
488.936	830.68609
489.42	814.59273
489.903	782.75118
490.386	821.19948
490.869	770.5051
491.352	730.61055
491.835	737.38916
492.318	820.70054
492.8	761.4436
493.283	757.75857
493.765	679.54377
494.247	692.4776
494.73	702.42838
495.212	653.45345
495.694	699.50126
496.175	682.51273
496.657	674.47017
497.139	703.14233
497.62	606.3557
498.102	602.39859
498.583	602.4019
499.064	668.41152
499.545	640.36881
500.026	620.31226
500.507	611.33571
500.988	641.48957
501.469	613.44683
501.949	553.29752
502.43	580.31397
502.91	588.17384
503.39	515.21483
503.87	590.32636
504.35	562.24682
504.83	531.12682
505.31	521.19901
505.79	573.31202
506.269	559.2512
506.749	531.16353
507.228	531.20356
507.707	530.13031
508.187	512.15503
508.666	546.28482
509.145	549.23938
509.623	505.13249
510.102	545.2598
510.581	474.09004
511.059	500.20556
511.538	495.21659
512.016	540.24798
512.494	568.3107
512.972	459.05821
513.45	479.09036
513.928	544.27762
514.406	509.2002
514.884	504.24488
515.361	514.19205
515.839	473.05713
516.316	511.18905
516.793	476.15884
517.27	386.91031
517.747	450.11985
518.224	512.15315
518.701	529.15768
519.178	414.99861
519.654	438.01232
520.131	442.05748
520.607	403.97484
521.083	393.89345
521.56	458.06701
522.036	468.01082
522.512	402.95721
522.987	462.07508
523.463	462.0793
523.939	422.00954
524.414	437.98822
524.89	437.0134
525.365	449.00587
525.84	473.11217
526.315	452.06869
526.79	423.94606
527.265	452.02651
527.74	392.94056
528.215	494.13791
528.689	424.93597
529.164	415.89176
529.638	445.11439
530.112	471.09196
530.587	426.91205
531.061	384.92103
531.534	382.90542
532.008	417.99272
532.482	431.95838
532.956	390.97541
533.429	411.97845
533.903	443.95929
534.376	448.97281
534.849	419.96217
535.322	401.93704
535.795	417.99881
536.268	394.92845
536.741	422.9917
537.213	439.99638
537.686	451.07802
538.158	387.8627
538.631	409.96845
539.103	442.98833
539.575	426.8734
540.047	415.90366
540.519	428.00598
540.991	453.07332
541.463	472.11046
541.934	482.07795
542.406	436.02363
542.877	523.15753
543.348	466.09547
543.82	431.02189
544.291	514.15152
544.762	479.10002
545.233	522.25726
545.703	501.08384
546.174	563.25603
546.645	536.24265
547.115	632.44928
547.585	541.19494
548.056	642.4828
548.526	681.52083
548.996	621.40155
549.466	642.45988
549.935	701.55265
550.405	711.45558
550.875	697.53481
551.344	791.74339
551.814	811.71064
552.283	789.54484
552.752	839.7821
553.221	920.8318
553.69	859.70744
554.159	956.09526
554.628	924.8534
555.096	957.16705
555.565	939.87703
556.033	949.96783
556.502	943.02047
556.97	950.86185
557.438	917.92845
557.906	972.01973
558.374	955.93807
558.842	930.96222
559.31	979.93002
559.777	1015.13112
560.245	1069.17101
560.712	1109.21061
561.18	1186.24634
561.647	1185.22435
562.114	1249.36085
562.581	1242.52912
563.048	1291.43809
563.514	1279.58756
563.981	1345.47153
564.448	1395.50394
564.914	1420.63381
565.381	1536.68497
565.847	1678.94534
566.313	1646.8948
566.779	1658.73635
567.245	1706.97319
567.711	1765.12435
568.176	1814.9377
568.642	1886.4106
569.108	1989.42743
569.573	2017.312
570.038	2116.94854
570.504	2055.06006
570.969	2157.68327
571.434	2268.22476
571.899	2303.53048
572.363	2358.32769
572.828	2376.3271
573.293	2459.4078
573.757	2384.33453
574.222	2522.38239
574.686	2497.41932
575.15	2530.61101
575.614	2563.44064
576.078	2583.60798
576.542	2581.41074
577.006	2571.36414
577.469	2639.8162
577.933	2623.44856
578.396	2524.54338
578.86	2567.57381
579.323	2540.69162
579.786	2542.1662
580.249	2448.46074
580.712	2434.67942
581.175	2387.71021
581.637	2262.25343
582.1	2282.16795
582.563	2318.03568
583.025	2231.54975
583.487	2131.80095
583.95	2160.08623
584.412	2078.90157
584.874	2051.37036
585.336	2000.27214
585.797	1952.90372
586.259	1939.20495
586.721	1850.11355
587.182	1798.01068
587.643	1724.88502
588.105	1707.03337
588.566	1654.55458
589.027	1720.11499
589.488	1646.83373
589.949	1566.92982
590.41	1557.31075
590.87	1513.64386
591.331	1455.43509
591.791	1472.72254
592.252	1437.64382
592.712	1377.65131
593.172	1382.53534
593.632	1420.49666
594.092	1379.48516
594.552	1327.33421
595.011	1274.42631
595.471	1286.33278
595.931	1280.34174
596.39	1289.57831
596.849	1246.42537
597.308	1223.21865
597.768	1246.67869
598.227	1091.23079
598.685	1177.23951
599.144	1172.3176
599.603	1195.40317
600.062	1159.10109
600.52	1143.18304
600.978	1132.27473
601.437	1120.16522
601.895	1074.96309
602.353	1105.08898
602.811	1156.21588
603.269	1166.38488
603.727	1123.32929
604.184	1175.27664
604.642	1165.43251
605.099	1190.31942
605.557	1166.41696
606.014	1209.23189
606.471	1139.45228
606.928	1269.31749
607.385	1282.64705
607.842	1291.4062
608.299	1343.57342
608.755	1295.58795
609.212	1218.25803
609.668	1233.31358
610.125	1289.57122
610.581	1244.43857
611.037	1294.4195
611.493	1231.41812
611.949	1252.59538
612.405	1164.97798
612.861	1221.39396
613.316	1187.40448
613.772	1236.39114
614.227	1228.4533
614.683	1192.13987
615.138	1196.36295
615.593	1184.33268
616.048	1224.31851
616.503	1216.49173
616.958	1201.56052
617.412	1215.4078
617.867	1175.20337
618.321	1192.07891
618.776	1162.19118
619.23	1139.27052
619.684	1098.13267
620.138	1167.27717
620.592	1109.32362
621.046	1159.28706
621.5	1134.38385
621.954	1124.16059
622.407	1058.0412
622.861	1046.20925
623.314	1058.07814
623.768	1020.08587
624.221	1042.80898
624.674	973.98001
625.127	981.01456
625.58	968.94175
626.033	929.80566
626.485	910.95684
626.938	933.97328
627.39	965.99836
627.843	922.90714
628.295	869.79784
628.747	857.84244
629.199	856.76343
629.651	757.60083
630.103	814.71809
630.555	822.58187
631.006	836.77534
631.458	784.70525
631.909	780.62183
632.361	758.63123
632.812	722.56234
633.263	696.39816
633.714	655.31296
634.165	759.71184
634.616	702.56551
635.067	658.35575
635.518	651.45378
635.968	679.269
636.419	628.29211
636.869	604.35122
637.319	583.28355
637.769	582.25427
638.219	593.3165
638.669	567.29047
639.119	609.41237
639.569	552.26666
640.019	575.25638
640.468	563.19899
640.918	540.22968
641.367	537.15691
641.816	592.26821
642.265	527.16737
642.714	543.19736
643.163	587.30046
643.612	539.27103
644.061	532.11593
644.51	583.29642
644.958	489.04837
645.406	529.21987
645.855	527.2427
646.303	517.15897
646.751	539.19647
647.199	476.05269
647.647	452.0178
648.095	516.1598
648.543	534.0619
648.99	472.08456
649.438	534.20522
649.885	516.22871
650.333	550.04296
650.78	534.2546
651.227	523.24326
651.674	507.11273
652.121	493.15387
652.568	529.24211
653.015	505.21511
653.461	491.13167
653.908	500.13113
654.354	489.11988
654.801	492.12293
655.247	562.18934
655.693	519.30232
656.139	454.06555
656.585	467.08096
657.031	487.11396
657.477	528.11386
657.922	491.10555
658.368	436.04785
658.813	494.09665
659.259	481.1253
659.704	402.92148
660.149	564.27095
660.594	487.12511
661.039	487.07907
661.484	500.14168
661.929	463.0526
662.373	558.36127
662.818	515.23921
663.262	456.07109
663.707	550.32727
664.151	468.10999
664.595	454.05892
665.039	504.20835
665.483	509.24782
665.927	483.09682
666.371	467.06171
666.814	490.12869
667.258	544.26122
667.701	479.00124
668.145	510.21719
668.588	430.02402
669.031	480.11396
669.474	471.10014
669.917	528.11873
670.36	540.28987
670.803	453.04975
671.245	529.08152
671.688	509.18114
672.13	494.08256
672.573	451.09277
673.015	502.16923
673.457	506.07017
673.899	467.08481
674.341	491.14469
674.783	457.06321
675.225	494.16049
675.666	479.13503
676.108	484.0182
676.549	522.17954
676.991	565.20951
677.432	546.08026
677.873	497.10264
678.314	543.24225
678.755	548.27251
679.196	508.12545
679.637	519.20342
680.078	501.11798
680.518	508.13152
680.959	565.29989
681.399	510.22044
681.839	539.24789
682.28	534.25995
682.72	543.19786
683.16	546.27933
683.6	551.18508
684.039	519.03993
684.479	550.28972
684.919	560.25267
685.358	588.40143
685.798	546.35662
686.237	577.31907
686.676	566.22757
687.115	568.25858
687.554	524.18262
687.993	551.15559
688.432	630.35147
688.871	595.28973
689.309	613.36884
689.748	561.09625
690.186	594.32009
690.625	588.28997
691.063	590.33828
691.501	587.34787
691.939	589.37186
692.377	614.39502
692.815	622.39553
693.253	619.39021
693.69	623.29188
694.128	595.36626
694.565	609.35318
695.003	650.528
695.44	602.33235
695.877	627.38746
696.314	616.22755
696.751	629.3206
697.188	623.34016
697.625	602.283
698.061	575.30711
698.498	602.35116
698.934	663.48486
699.371	611.35819
699.807	601.3282
700.243	638.43673
700.679	682.42793
701.115	608.32438
701.551	646.40963
701.987	663.38902
702.422	627.40129
702.858	624.37478
703.294	641.34228
703.729	642.46105
704.164	628.41246
704.599	647.34112
705.035	625.33237
705.47	623.44145
705.904	663.455
706.339	576.22698
706.774	605.32759
707.209	633.36753
707.643	647.44781
708.078	676.5453
708.512	576.36966
708.946	537.20189
709.38	620.36311
709.814	571.22237
710.248	534.22139
710.682	600.34281
711.116	608.37915
711.549	534.29104
711.983	550.20649
712.416	592.3091
712.85	580.36174
713.283	603.34427
713.716	530.2476
714.149	539.20142
714.582	607.29115
715.015	551.27823
715.448	523.24278
715.881	509.04809
716.313	517.15659
716.746	562.25922
717.178	508.16137
717.61	505.19904
718.043	521.22045
718.475	513.17023
718.907	530.25823
719.339	538.17022
719.77	464.06445
720.202	462.11339
720.634	524.2282
721.065	521.17799
721.497	498.16217
721.928	479.13241
722.359	491.15411
722.79	499.16337
723.221	447.07007
723.652	440.06987
724.083	517.12948
724.514	471.04312
724.945	426.97687
725.375	499.13276
725.806	387.92769
726.236	399.98221
726.666	438.00108
727.096	447.05827
727.526	429.05065
727.956	396.88075
728.386	409.97144
728.816	387.95057
729.246	442.04903
729.675	407.98044
730.105	389.91506
730.534	391.89286
730.964	396.95846
731.393	366.87152
731.822	413.01438
732.251	386.94409
732.68	347.79337
733.109	361.86407
733.537	353.83815
733.966	390.9521
734.395	400.89887
734.823	333.7319
735.251	391.92513
735.68	361.87919
736.108	327.80532
736.536	329.75978
736.964	348.79805
737.392	372.90445
737.82	368.86282
738.247	334.78159
738.675	391.90149
739.102	364.89195
739.53	330.8257
739.957	354.88988
740.384	332.79058
740.811	329.80935
741.238	306.73762
741.665	315.71906
742.092	308.72556
742.519	260.64047
742.945	320.75821
743.372	320.78242
743.798	330.82987
744.225	284.67059
744.651	288.71204
745.077	294.7226
745.503	257.62152
745.929	283.67224
746.355	334.80783
746.781	278.68102
747.207	289.68702
747.632	292.71636
748.058	293.72134
748.483	277.63768
748.908	230.56846
749.334	295.7185
749.759	220.51627
750.184	242.58138
750.609	311.75491
751.033	273.63824
751.458	302.67032
751.883	253.62082
752.307	260.61559
752.732	243.61321
753.156	263.65155
753.58	294.6942
754.005	205.5153
754.429	239.56643
754.853	223.55167
755.277	184.43584
755.7	244.60394
756.124	218.54236
756.548	197.47589
756.971	176.42733
757.394	226.58139
757.818	225.57367
758.241	221.5593
758.664	221.56029
759.087	194.4451
759.51	205.50788
759.933	205.50007
760.356	182.46495
760.778	219.54593
761.201	209.50983
761.623	214.51432
762.046	169.40533
762.468	164.39102
762.89	162.40041
763.312	218.53801
763.734	143.34962
764.156	159.39681
764.578	203.47535
765	183.45139
765.421	126.32585
765.843	156.4083
766.264	174.42311
766.686	131.3293
767.107	138.33834
767.528	167.42746
767.949	154.39481
768.37	126.30983
768.791	168.41097
769.212	121.31059
769.632	98.23652
770.053	109.29056
770.473	124.3066
770.894	117.29422
771.314	90.21689
771.734	122.29233
772.154	91.23489
772.575	145.33954
772.994	131.3052
773.414	141.34178
773.834	100.25512
774.254	129.32451
774.673	132.32459
775.093	118.29689
775.512	87.21815
775.931	117.30001
776.351	93.23529
776.77	113.28212
777.189	105.25481
777.607	96.24896
778.026	125.31749
778.445	71.18314
778.864	57.14886
779.282	74.18331
779.701	72.18407
780.119	136.35487
780.537	122.31025
780.955	98.24975
781.373	107.2682
781.791	73.16987
782.209	105.24569
782.627	109.29326
783.045	110.26147
783.462	71.18574
783.88	66.1741
784.297	90.23106
784.715	87.22829
785.132	98.24427
785.549	99.25332
785.966	80.20488
786.383	77.19377
786.8	85.20294
787.217	81.19738
787.633	48.1234
788.05	47.1135
788.466	42.0996
788.883	66.17128
789.299	70.17245
789.715	91.22695
790.131	98.24975
790.547	70.1765
790.963	101.25608
791.379	52.13462
791.795	93.21624
792.21	27.06491
792.626	36.08748
793.041	88.22284
793.457	108.27212
793.872	43.10388
794.287	31.07686
794.702	77.19217
795.117	90.22896
795.532	29.07517
795.947	74.18116
796.362	120.29049
796.776	74.17407
797.191	82.2055
797.605	97.23777
798.02	35.08748
798.434	52.11783
798.848	79.19994
799.262	81.20697
799.676	61.15064
800.09	115.29105
800.504	48.11851
800.918	69.16575
801.331	48.12623
801.745	44.10423
802.158	60.15318
802.572	40.0984
802.985	95.23184
803.398	56.13674
803.811	66.16927
804.224	10.02528
804.637	71.1743
805.05	11.02616
805.462	65.16228
805.875	36.09563
806.288	44.11007
806.7	43.11069
807.112	7.0166
807.525	48.12068
807.937	-1.00255
808.349	53.13524
808.761	71.1779
809.173	54.13352
809.584	-5.01265
809.996	46.11591
810.408	81.21298
810.819	93.22492
811.231	134.35536
811.642	167.41208
812.053	258.62405
812.464	208.49971
812.875	135.34676
813.286	79.20674
813.697	136.3199
814.108	76.18833
814.519	79.17897
814.929	69.17792
815.34	96.23989
815.75	67.1739
816.16	67.16915
816.571	47.12291
816.981	22.05316
817.391	77.19064
817.801	52.13383
818.211	24.05795
818.62	91.2253
819.03	40.09988
819.44	61.16039
819.849	49.12472
820.259	28.07226
820.668	53.13409
821.077	81.20646
821.486	29.07133
821.895	37.09238
822.304	78.20872
822.713	47.11466
823.122	37.09448
823.531	82.19978
823.939	66.16475
824.348	80.1989
824.756	55.14093
825.164	57.14473
825.573	85.21994
825.981	19.04814
826.389	76.19444
826.797	13.03303
827.205	98.23115
827.612	108.27046
828.02	44.10676
828.428	52.13536
828.835	62.16563
829.243	92.22489
829.65	8.02047
830.057	77.19106
830.464	1.00251
830.871	53.12939
831.278	25.06171
831.685	64.14708
832.092	113.2812
832.499	48.10801
832.905	37.09527
833.312	72.16844
833.718	51.12963
834.124	29.06791
834.531	39.09979
834.937	2.00517
835.343	37.09174
835.749	6.01422
836.155	50.13247
836.561	81.20354
836.966	62.15437
837.372	68.17555
837.777	87.22129
838.183	3.00686
838.588	11.02769
838.993	35.08688
839.399	28.0702
839.804	16.0401
840.209	70.18284
840.613	55.12607
841.018	-12.03102
841.423	40.10416
841.828	38.09872
842.232	53.13275
842.637	54.13102
843.041	32.08435
843.445	82.20846
843.849	29.07316
844.253	71.1721
844.657	18.04673
845.061	73.17028
845.465	50.12368
845.869	18.0433
846.272	43.10774
846.676	33.08089
847.079	78.20311
847.483	45.11328
847.886	44.10716
848.289	69.18643
848.692	10.02592
849.095	40.09894
849.498	27.06882
849.901	12.02824
850.304	51.1252
850.707	16.04138
851.109	38.09671
851.512	58.14645
851.914	54.1411
852.316	1.00256
852.718	3.00798
853.121	44.11027
853.523	88.21207
853.925	73.19415
854.326	-6.01534
854.728	40.10534
855.13	57.15074
855.531	65.16063
855.933	21.05094
856.334	26.06656
856.736	32.07448
857.137	26.06204
857.538	39.10098
857.939	53.135
858.34	43.10673
858.741	27.07169
859.142	30.07404
859.542	66.17696
859.943	32.08106
860.343	25.0635
860.744	51.12627
861.144	-5.0124
861.544	59.14655
861.945	77.20075
862.345	36.08957
862.745	59.15097
863.145	78.18797
863.544	51.13073
863.944	26.06242
864.344	18.04561
864.743	18.04526
865.143	76.19757
865.542	56.13342
865.941	75.18982
866.34	33.08062
866.74	8.02176
867.139	61.15069
867.537	21.05441
867.936	63.15512
868.335	67.173
868.734	68.17847
869.132	73.17442
869.531	11.02691
869.929	85.20022
870.327	59.14522
870.726	27.06785
871.124	70.16767
871.522	9.0235
871.92	92.2304
872.318	58.1441
872.715	33.08215
873.113	78.19435
873.511	97.24716
873.908	65.16912
874.306	51.13055
874.703	39.09892
875.1	50.12931
875.497	75.1848
875.894	61.15411
876.291	9.02258
876.688	74.19553
877.085	10.02445
877.482	36.09158
877.878	19.04716
878.275	54.14018
878.671	124.27891
879.068	68.1666
879.464	48.11816
879.86	13.03157
880.256	68.16974
880.652	39.10112
881.048	24.06034
881.444	-12.02909
881.84	78.19997
882.236	27.06899
882.631	61.15395
883.027	16.03933
883.422	50.12944
883.817	49.12779
884.213	72.18787
884.608	67.16842
885.003	47.11679
885.398	52.1342
885.793	42.10704
886.188	79.20179
886.582	45.11543
886.977	52.12612
887.371	11.02804
887.766	31.07932
888.16	61.15411
888.554	31.07734
888.949	19.04841
889.343	52.12825
889.737	24.06595
890.131	23.0584
890.525	14.03649
890.918	15.03823
891.312	19.04587
891.706	10.0263
892.099	56.14261
892.492	69.15332
892.886	-22.05521
893.279	65.16865
893.672	-19.04887
894.065	20.05093
894.458	68.17488
894.851	80.19774
895.244	27.07006
895.637	49.12096
896.029	37.09207
896.422	44.10908
896.814	38.09595
897.206	-20.04929
897.599	31.07734
897.991	30.07374
898.383	55.13442
898.775	4.00932
899.167	34.08222
899.559	49.12534
899.951	34.08184
900.342	38.09722
900.734	11.02843
901.125	38.10101
901.517	55.13821
901.908	36.08758
902.299	63.15934
902.69	50.12118
903.082	35.0864
903.473	50.12354
903.863	49.12688
904.254	35.08427
904.645	54.13631
905.036	-9.02262
905.426	55.12748
905.817	32.0806
906.207	49.12043
906.597	13.03101
906.987	51.13396
907.378	46.11715
907.768	52.13929
908.158	29.07225
908.547	14.03709
908.937	-7.01819
909.327	82.20298
909.717	38.09715
910.106	0
910.495	48.12181
910.885	83.21327
911.274	31.07893
911.663	10.02563
912.052	64.15848
912.441	19.04892
912.83	71.1673
913.219	34.08984
913.608	78.19251
913.997	47.12069
914.385	42.10167
914.774	18.04478
915.162	26.06408
915.55	67.16393
915.939	-4.01036
916.327	21.05275
916.715	9.02342
917.103	46.1142
917.491	15.03753
917.878	-23.05734
918.266	-1.00261
918.654	63.16419
919.041	18.04814
919.429	34.08252
919.816	17.04365
920.203	37.09197
920.591	14.0353
920.978	20.04922
921.365	8.02141
921.752	32.07851
922.139	73.16369
922.525	51.1265
922.912	-12.02994
923.299	29.07384
923.685	31.08245
924.072	44.10213
924.458	3.00762
924.844	26.066
925.231	47.11221
925.617	39.10147
926.003	14.03638
926.389	18.04644
926.774	35.09022
927.16	60.15118
927.546	41.10748
927.931	34.08643
928.317	46.10736
928.702	39.09333
929.088	8.01963
929.473	6.01555
929.858	32.07985
930.243	51.12529
930.628	64.16033
931.013	21.05338
931.398	49.11416
931.783	19.05041
932.167	61.15323
932.552	4.01014
932.937	64.16022
933.321	0
933.705	31.07994
934.09	33.08373
934.474	43.10376
934.858	3.00794
935.242	4.00961
935.626	39.10224
936.009	-4.0107
936.393	46.11839
936.777	15.03924
937.16	-15.03968
937.544	3.00721
937.927	28.07299
938.311	17.04217
938.694	34.09044
939.077	13.03196
939.46	-13.0319
939.843	89.19225
940.226	57.1481
940.609	102.24208
940.991	37.0959
941.374	45.11239
941.757	-13.03268
942.139	67.15659
942.522	36.086
942.904	61.14914
943.286	40.10226
943.668	63.16526
944.05	36.09061
944.432	45.11434
944.814	15.03733
945.196	16.04052
945.578	60.14863
945.959	57.13656
946.341	19.04651
946.722	47.11221
947.104	25.06135
947.485	22.05262
947.866	108.27824
948.247	-1.00256
948.628	29.07138
949.009	68.17719
949.39	27.06821
949.771	70.16594
950.152	47.11832
950.532	23.05865
950.913	65.1591
951.293	21.05781
951.674	98.24454
952.054	67.1706
952.434	29.07314
952.814	20.04882
953.194	29.07638
953.574	37.09157
953.954	39.09479
954.334	34.08659
954.714	23.05773
955.093	8.01997
955.473	-2.0051
955.853	4.01051
956.232	6.01651
956.611	72.1745
956.99	75.19218
957.37	60.15522
957.749	82.19933
958.128	73.18778
958.506	68.18052
958.885	56.14407
959.264	55.13965
959.643	28.06509
960.021	14.03573
960.4	41.09597
960.778	35.08764
961.156	30.07721
961.535	72.16996
961.913	48.11484
962.291	87.22891
962.669	3.00772
963.047	8.02072
963.424	12.03115
963.802	46.11582
964.18	68.17311
964.557	64.15025
964.935	40.0968
965.312	5.01322
965.69	-1.00254
966.067	55.13672
966.444	38.09451
966.821	17.04438
967.198	27.06655
967.575	-1.00248
967.952	38.09116
968.329	68.1682
968.705	36.07885
969.082	32.08401
969.458	41.1021
969.835	-11.02744
970.211	80.20889
970.587	61.1534
970.963	73.18797
971.339	31.08231
971.715	52.13145
972.091	60.14993
972.467	80.2015
972.843	33.08358
973.219	21.05079
973.594	55.1473
973.97	36.08695
974.345	41.10065
974.721	-31.0763
975.096	28.06916
975.471	43.10415
975.846	38.09279
976.221	51.13296
976.596	52.12792
976.971	11.02771
977.346	5.01188
977.72	44.11415
978.095	54.14168
978.469	1.00244
978.844	-2.00509
979.218	15.0368
979.593	42.10213
979.967	85.2089
980.341	20.04714
980.715	61.15625
981.089	-8.02029
981.463	67.15972
981.837	-7.0177
982.21	61.14352
982.584	10.02484
982.957	62.15806
983.331	14.03403
983.704	6.01484
984.078	21.05317
984.451	36.08986
984.824	-8.02014
985.197	16.03961
985.57	26.06635
985.943	13.03242
986.316	56.13903
986.688	27.06611
987.061	107.25546
987.434	39.10303
987.806	39.09659
988.179	43.10451
988.551	62.15956
988.923	18.04526
989.295	0
989.667	73.17921
990.039	45.11418
990.411	36.08488
990.783	51.11948
991.155	64.15958
991.527	-2.00499
991.898	24.06136
992.27	10.02522
992.641	17.04323
993.012	35.08407
993.384	-15.03661
993.755	49.12758
994.126	26.06368
994.497	4.01011
994.868	82.19243
995.239	33.08113
995.61	45.11575
995.98	15.03772
996.351	-22.05611
996.722	40.09658
997.092	2.0049
997.462	36.08705
997.833	48.11532
998.203	9.02218
998.573	14.0355
998.943	25.06058
999.313	21.05192
999.683	52.12881
1000.053	60.14158
1000.423	-8.0198
1000.792	42.11113
1001.162	-6.01507
1001.531	89.22172
1001.901	77.19654
1002.27	15.03459
1002.639	24.06278
1003.009	-6.01459
1003.378	0
1003.747	67.16259
1004.116	27.06641
1004.485	15.03644
1004.853	30.07721
1005.222	8.02042
1005.591	51.12288
1005.959	78.1819
1006.328	17.03958
1006.696	19.04747
1007.064	34.08659
1007.433	39.09864
1007.801	21.05201
1008.169	19.04834
1008.537	87.19645
1008.905	37.08898
1009.273	-3.00751
1009.64	56.13796
1010.008	41.10028
1010.375	13.03128
1010.743	60.13993
1011.11	48.11668
1011.478	32.08025
1011.845	41.09808
1012.212	76.17668
1012.579	-16.04008
1012.946	45.10871
1013.313	34.08184
1013.68	-23.0534
1014.047	33.08116
1014.414	58.14046
1014.78	24.06043
1015.147	-24.05897
1015.513	18.04451
1015.88	17.04368
1016.246	-13.03232
1016.612	24.05564
1016.978	33.08242
1017.344	47.11883
1017.71	24.05869
1018.076	41.09804
1018.442	9.02334
1018.808	68.17226
1019.174	21.054
1019.539	21.04844
1019.905	25.06042
1020.27	0
1020.636	37.09029
1021.001	37.08989
1021.366	-16.03974
1021.731	-11.02854
1022.096	16.04136
1022.461	39.09415
1022.826	41.09912
1023.191	23.06103
1023.556	54.12979
1023.92	33.08185
1024.285	38.09437
1024.649	12.03013
1025.014	43.10833
1025.378	20.05138
1025.742	38.0964
1026.107	24.05538
1026.471	37.08675
1026.835	41.10414
1027.199	68.16999
1027.562	30.07136
1027.926	50.12363
1028.29	34.08823
1028.654	10.0237
1029.017	10.02486
1029.381	55.13402
1029.744	-12.03109
1030.107	32.07694
1030.471	20.04843
1030.834	1.00233
1031.197	22.05336
1031.56	51.12186
1031.923	27.07075
1032.286	27.06454
1032.648	47.1153
1033.011	-2.0047
1033.374	21.04991
1033.736	5.01344
1034.099	35.0876
1034.461	-3.00771
1034.823	25.06321
1035.185	39.09962
1035.548	31.07742
1035.91	25.06124
1036.272	-24.05593
1036.634	-6.01487
1036.995	60.1447
1037.357	7.01748
1037.719	-60.14923
1038.08	15.03624
1038.442	1.00243
1038.803	13.0318
1039.165	32.08296
1039.526	67.16375
1039.887	25.06135
1040.248	-36.09136
1040.609	3.00747
1040.97	50.12485
1041.331	29.07454
1041.692	53.12886
1042.053	22.05159
1042.413	33.07864
1042.774	45.11072
1043.134	57.13817
1043.495	-24.06144
1043.855	42.10351
1044.215	46.11653
1044.576	60.14809
1044.936	20.04694
1045.296	54.13621
1045.656	20.04963
1046.016	27.06589
1046.375	25.0614
1046.735	-6.01415
1047.095	53.1261
1047.454	20.0436
1047.814	29.07111
1048.173	7.01666
1048.533	34.07954
1048.892	41.10158
1049.251	36.09178
1049.61	1.00252
1049.969	57.13874
1050.328	-24.05409
1050.687	27.0668
1051.046	21.05159
1051.405	88.22252
1051.763	54.12732
1052.122	27.06863
1052.48	-15.03725
1052.839	39.09368
1053.197	30.0726
1053.555	-32.07313
1053.914	19.04678
1054.272	3.00731
1054.63	51.12788
1054.988	-2.00491
1055.345	56.12369
1055.703	17.04163
1056.061	3.00784
1056.419	37.09696
1056.776	10.02445
1057.134	4.00955
1057.491	17.04313
1057.848	5.01256
1058.206	29.06987
1058.563	21.04755
1058.92	-9.02107
1059.277	8.02005
1059.634	50.11908
1059.991	64.1554
1060.348	53.12333
1060.704	25.06128
1061.061	40.09394
1061.418	-4.00991
1061.774	52.13037
1062.131	48.12904
1062.487	23.05519
1062.843	4.0101
1063.199	34.08659
1063.555	43.10282
1063.911	-2.0051
1064.267	9.01927
1064.623	11.02741
1064.979	56.13388
1065.335	19.04594
1065.691	23.05594
1066.046	-8.01771
1066.402	52.12227
1066.757	28.07131
1067.112	7.01739
1067.468	58.14341
1067.823	79.19293
1068.178	21.05138
1068.533	53.13055
1068.888	46.11102
1069.243	30.07518
1069.598	34.08429
1069.952	12.02815
1070.307	53.135
1070.662	21.05075
1071.016	8.01853
1071.371	8.01864
1071.725	35.08487
1072.079	-10.02449
1072.434	47.11675
1072.788	25.0611
1073.142	73.18199
1073.496	37.08932
1073.85	9.02117
1074.203	72.17953
1074.557	40.10767
1074.911	32.07674
1075.265	7.01667
1075.618	38.09324
1075.971	89.21322
1076.325	2.0052
1076.678	72.16969
1077.031	28.06548
1077.385	50.1138
1077.738	59.13654
1078.091	40.09391
1078.444	46.10875
1078.796	8.01992
1079.149	2.00505
1079.502	44.10796
1079.855	42.10072
1080.207	25.0626
1080.56	20.05242
1080.912	38.09334
1081.264	0
1081.617	75.18718
1081.969	33.08548
1082.321	17.04209
1082.673	58.13675
1083.025	16.03904
1083.377	-192.44616
1083.728	35.08254
1084.08	-8.02037
1084.432	51.12543
1084.783	33.07852
1085.135	11.02817
1085.486	27.06444
1085.838	5.01263
1086.189	-35.087
1086.54	12.02916
1086.891	11.02856
1087.242	-29.07196
1087.593	45.11072
1087.944	37.08481
1088.295	28.06509
1088.646	42.10431
1088.996	-32.07936
1089.347	25.06251
1089.698	28.06801
1090.048	-1.0026
1090.398	23.05407
1090.749	22.05386
1091.099	65.16888
1091.449	14.0355
1091.799	18.04602
1092.149	29.07376
1092.499	16.03972
1092.849	36.09346
1093.199	50.12535
1093.548	71.17391
1093.898	9.02301
1094.248	-2.00521
1094.597	40.10541
1094.947	32.08597
1095.296	-12.03021
1095.645	26.06838
1095.994	-34.08361
1096.343	11.02815
1096.692	71.19302
1097.041	-20.05477
1097.39	47.12081
1097.739	34.08936
1098.088	8.02175
1098.437	-7.01885
1098.785	18.04858
1099.134	47.12513
1099.482	10.02788
1099.83	12.03171
1100.179	24.06429
1100.527	-11.02961
1100.875	12.03222
1101.223	23.06166
1101.571	35.09762
1101.919	38.10202
1102.267	16.0454
1102.615	12.03868
1102.962	0
1103.31	9.02899
1103.658	13.04193
