Data from N2 R0 60C sample7_Subt2__6__11-45-07-174.txt Node

Date: Tue Aug 19 11:45:07 PDT 2025
User: uwsun
Spectrometer: HDX01956
Trigger mode: 0
Integration Time (sec): 5.000000E-1
Scans to average: 1
Nonlinearity correction enabled: true
Boxcar width: 0
Storing dark spectrum: false
XAxis mode: Wavelengths
Number of Pixels in Spectrum: 2068
>>>>>Begin Spectral Data<<<<<
194.03	485.32087
194.578	465.43103
195.127	456.3849
195.676	470.43048
196.225	467.20137
196.773	552.45776
197.321	783.00059
197.87	1042.3743
198.418	1045.34825
198.966	1048.41849
199.513	979.16499
200.061	1052.35294
200.609	1087.4961
201.156	1001.91909
201.704	1024.29217
202.251	1064.49211
202.798	1053.40655
203.345	1007.1956
203.892	1047.3097
204.438	1078.23535
204.985	1101.28967
205.532	1114.54642
206.078	1136.39847
206.624	1074.3098
207.17	1139.26111
207.716	1065.26065
208.262	1046.76722
208.808	1139.45123
209.354	1064.26975
209.899	1155.46982
210.445	1109.40796
210.99	1119.34767
211.535	1184.37504
212.08	1158.32387
212.625	1103.40099
213.17	1049.3237
213.715	1073.12985
214.259	1098.20731
214.804	1100.32745
215.348	1105.15696
215.892	1066.21435
216.436	1088.17418
216.98	1057.04752
217.524	1048.15959
218.068	1096.42133
218.612	1068.3409
219.155	1008.0826
219.698	1052.18427
220.242	1069.31129
220.785	1052.12338
221.328	992.16514
221.871	947.11237
222.414	993.17506
222.956	962.08726
223.499	927.8607
224.041	967.99005
224.583	954.78451
225.126	899.7713
225.668	915.98146
226.21	975.16595
226.751	961.87503
227.293	1019.05338
227.835	979.12643
228.376	970.96452
228.918	1034.28148
229.459	931.07495
230	1014.10061
230.541	1062.15433
231.082	983.06385
231.622	963.94811
232.163	990.11447
232.704	979.12822
233.244	950.08819
233.784	986.11768
234.324	1003.96816
234.864	996.98054
235.404	960.01064
235.944	972.02062
236.484	981.12808
237.023	985.06353
237.563	1015.04437
238.102	939.94363
238.641	1007.23708
239.18	1014.09036
239.719	1031.25457
240.258	1022.00165
240.797	1048.19231
241.335	981.11638
241.874	1084.80598
242.412	1034.18862
242.95	1001.10721
243.488	984.98927
244.026	999.00841
244.564	981.76976
245.102	970.91985
245.64	973.0464
246.177	1027.01382
246.715	979.07432
247.252	997.00713
247.789	1027.66627
248.326	1053.22067
248.863	1057.02519
249.4	1077.10812
249.936	1012.79937
250.473	1068.16652
251.009	1107.19849
251.546	1069.02958
252.082	1042.97913
252.618	993.93206
253.154	1061.23171
253.69	1037.0106
254.226	1054.17584
254.761	1091.13959
255.297	1034.94965
255.832	1009.07308
256.367	1092.22531
256.903	1015.91703
257.438	1113.22576
257.972	1072.07418
258.507	1051.11315
259.042	1164.15122
259.576	1051.99094
260.111	1018.04996
260.645	1110.01552
261.179	1044.11008
261.713	1079.08825
262.247	1078.15713
262.781	1083.95822
263.315	1108.34743
263.849	1150.46702
264.382	1078.11949
264.915	1189.37909
265.449	1125.40564
265.982	1136.21395
266.515	1109.30022
267.048	1153.0944
267.58	1119.08576
268.113	1180.14739
268.646	1139.41159
269.178	1125.14961
269.71	1126.10142
270.243	1085.11983
270.775	1109.40999
271.307	1117.29018
271.838	1106.21123
272.37	1153.40744
272.902	1127.17826
273.433	1164.10965
273.965	1134.35473
274.496	1146.39228
275.027	1138.40582
275.558	1149.37062
276.089	1143.42321
276.62	1128.45181
277.15	1161.38902
277.681	1177.15862
278.211	1123.28394
278.741	1167.17977
279.272	1129.18939
279.802	1199.50136
280.332	1172.33373
280.861	1172.38534
281.391	1165.22623
281.921	1193.41665
282.45	1178.49259
282.98	1224.67948
283.509	1195.23113
284.038	1203.29462
284.567	1153.2445
285.096	1204.45055
285.625	1240.35458
286.153	1151.26701
286.682	1206.30865
287.21	1177.39931
287.739	1195.39111
288.267	1231.48695
288.795	1232.66323
289.323	1286.51164
289.851	1276.48388
290.378	1291.37905
290.906	1248.52649
291.433	1201.49453
291.961	1296.39718
292.488	1253.57393
293.015	1303.53715
293.542	1300.73181
294.069	1252.53345
294.596	1346.68324
295.122	1317.56446
295.649	1341.36506
296.175	1340.67617
296.702	1333.6152
297.228	1392.69617
297.754	1425.58659
298.28	1408.55368
298.806	1371.65353
299.332	1417.50619
299.857	1374.48175
300.383	1365.78796
300.908	1356.67715
301.433	1377.6702
301.958	1377.51923
302.483	1442.86961
303.008	1380.7448
303.533	1406.9135
304.058	1505.76666
304.582	1375.62608
305.107	1408.98318
305.631	1459.5795
306.155	1512.74861
306.679	1503.70414
307.203	1503.72466
307.727	1446.7033
308.251	1442.82483
308.775	1471.7683
309.298	1583.95813
309.822	1553.04636
310.345	1688.01698
310.868	1586.89236
311.391	1608.00459
311.914	1671.16754
312.437	1583.7468
312.96	1603.86309
313.482	1640.91539
314.005	1627.11935
314.527	1674.34888
315.049	1627.08829
315.571	1705.84298
316.093	1776.23947
316.615	1771.14464
317.137	1834.81495
317.659	1812.21874
318.18	1779.08027
318.702	1793.97653
319.223	1809.6805
319.744	1866.96115
320.265	1815.19545
320.786	1881.35317
321.307	1917.38155
321.828	1964.08304
322.348	1919.1973
322.869	2005.31174
323.389	1712.6899
323.909	2013.12093
324.43	1958.23409
324.95	2015.13837
325.47	2012.38007
325.989	2103.30563
326.509	2137.08528
327.029	2137.12085
327.548	2128.13075
328.067	2244.54006
328.587	2201.58312
329.106	2148.10247
329.625	2230.82423
330.144	2230.32524
330.662	2287.26743
331.181	2407.41873
331.7	2357.43581
332.218	2433.13903
332.736	2522.48187
333.255	2460.41241
333.773	2460.46548
334.291	2485.70324
334.808	2551.31299
335.326	2605.34428
335.844	2676.51571
336.361	2650.91614
336.879	2704.57943
337.396	2721.64801
337.913	2841.42566
338.43	2765.33299
338.947	2857.56039
339.464	2828.11889
339.981	2800.58742
340.497	2783.71608
341.014	2922.76236
341.53	2852.2572
342.046	2955.72953
342.562	3038.88016
343.078	3029.55851
343.594	3115.60399
344.11	3186.53711
344.626	3186.92658
345.141	3162.31002
345.657	3148.25616
346.172	3187.64532
346.687	3208.42486
347.202	3372.24098
347.717	3365.58603
348.232	3379.82929
348.747	3414.37212
349.261	3461.11992
349.776	3467.45755
350.29	3564.78699
350.805	3677.79586
351.319	3584.41588
351.833	3557.1704
352.347	3683.35413
352.861	3602.31485
353.374	3634.19305
353.888	3746.51455
354.401	3630.25996
354.915	3842.06906
355.428	3887.61534
355.941	3916.26046
356.454	3977.93901
356.967	3854.26438
357.48	3900.08503
357.993	3955.51773
358.505	3974.43437
359.018	4124.39306
359.53	4175.34373
360.042	4193.75739
360.554	4170.26582
361.066	4158.38411
361.578	4198.61609
362.09	4086.17454
362.602	4392.60814
363.113	4344.00109
363.625	4373.75107
364.136	4468.54107
364.647	4518.98137
365.158	4569.77175
365.669	4569.96
366.18	4606.82882
366.691	4622.46141
367.201	4565.99232
367.712	4680.64216
368.222	4687.63233
368.733	4838.36823
369.243	4880.356
369.753	5009.59615
370.263	5170.65934
370.773	5047.77796
371.282	5205.51856
371.792	5383.39641
372.301	5540.47141
372.811	5532.89547
373.32	5564.69371
373.829	5788.17329
374.338	6048.64924
374.847	6046.89767
375.356	6282.9415
375.865	6498.28648
376.373	6826.58712
376.882	7022.09237
377.39	7137.85715
377.898	7332.00653
378.407	7676.73744
378.915	7835.71915
379.423	8383.5074
379.93	8459.49121
380.438	8927.34126
380.946	9414.28066
381.453	9828.32696
381.96	10317.87263
382.468	11017.59545
382.975	11593.31356
383.482	11792.99986
383.989	11879.54079
384.495	12522.26808
385.002	13170.81789
385.509	14086.96187
386.015	14659.07843
386.521	15566.37791
387.028	16077.54257
387.534	16452.67873
388.04	17088.97311
388.546	17516.56033
389.051	18597.76685
389.557	20256.21676
390.063	21594.81418
390.568	22183.78661
391.073	22880.61896
391.578	23935.09013
392.084	24704.75995
392.589	25541.81925
393.093	27775.27304
393.598	30338.56853
394.103	32643.01656
394.607	35936.7265
395.112	38455.12606
395.616	40883.52926
396.12	44462.54762
396.624	48882.33635
397.128	53446.4797
397.632	59125.37494
398.136	60987.12881
398.639	61425.32915
399.143	61679.31033
399.646	61269.15804
400.15	60904.11498
400.653	60560.14334
401.156	60136.25446
401.659	59550.50961
402.162	58431.12733
402.664	54480.21957
403.167	49329.08451
403.67	22278.45323
404.172	2696.20453
404.674	0
405.176	0
405.678	0
406.18	0
406.682	0
407.184	0
407.686	25783.58453
408.187	43316.52985
408.688	51225.60928
409.19	54389.01922
409.691	56215.4214
410.192	57270.57019
410.693	57845.40442
411.194	58219.2365
411.694	58633.01717
412.195	59215.68848
412.696	59364.60701
413.196	59341.61941
413.696	59632.46864
414.196	59367.6054
414.696	59763.40624
415.196	59913.34014
415.696	60584.13941
416.196	61381.18813
416.695	61808.38326
417.195	62018.52935
417.694	61732.81608
418.194	59817.94741
418.693	56272.05095
419.192	54779.83348
419.691	53786.79478
420.19	52391.35636
420.688	51034.55722
421.187	48772.40937
421.685	44826.34468
422.184	40668.71755
422.682	35150.91641
423.18	30171.64298
423.678	27546.54216
424.176	25477.51151
424.674	24029.22724
425.172	23038.74298
425.669	21462.17521
426.167	19765.70296
426.664	18200.06499
427.161	16652.48175
427.659	15453.29111
428.156	14567.60649
428.652	13743.35619
429.149	13307.46001
429.646	12646.6048
430.143	11995.72823
430.639	11394.51374
431.135	10610.81819
431.632	9942.75602
432.128	9369.17765
432.624	9074.64999
433.12	8716.86481
433.616	8534.53277
434.111	8153.21226
434.607	7970.10568
435.103	7730.5176
435.598	7510.35505
436.093	7115.64339
436.588	6679.32134
437.083	6423.43889
437.578	6200.68546
438.073	5864.38174
438.568	5738.22307
439.062	5523.60516
439.557	5408.19736
440.051	5166.0687
440.546	4992.24325
441.04	4905.69436
441.534	4872.11606
442.028	4783.67934
442.522	4641.80954
443.015	4549.30241
443.509	4562.00958
444.002	4520.04712
444.496	4366.4825
444.989	4294.08536
445.482	4223.29791
445.975	4307.79131
446.468	4188.43992
446.961	4137.5326
447.454	4041.75804
447.947	4011.17255
448.439	3823.19972
448.931	3948.91528
449.424	3853.49363
449.916	3849.36305
450.408	3814.93012
450.9	3625.46284
451.392	3744.60344
451.884	3616.07125
452.375	3551.68084
452.867	3466.02388
453.358	3511.11411
453.849	3418.76371
454.341	3291.11017
454.832	3326.87581
455.323	3243.5558
455.814	3318.22835
456.304	3229.22046
456.795	3216.22492
457.285	3190.98805
457.776	3097.13988
458.266	3089.42077
458.756	3038.41478
459.247	2942.46936
459.737	2946.50843
460.226	2960.18528
460.716	2821.51054
461.206	2746.48921
461.695	2733.62307
462.185	2623.29534
462.674	2761.33018
463.163	2618.01822
463.653	2618.91008
464.142	2576.4797
464.63	2488.53198
465.119	2527.23755
465.608	2517.29054
466.096	2474.98186
466.585	2441.21644
467.073	2385.32669
467.561	2308.32535
468.05	2300.19765
468.538	2331.44778
469.026	2268.31572
469.513	2331.16452
470.001	2160.0222
470.489	2157.25298
470.976	2129.11451
471.463	2019.31532
471.951	2017.3138
472.438	1979.06564
472.925	1934.01292
473.412	1894.134
473.899	1786.81039
474.385	1834.1012
474.872	1804.98281
475.359	1828.1337
475.845	1771.53722
476.331	1667.48944
476.817	1689.94414
477.303	1700.81545
477.789	1532.76422
478.275	1558.88077
478.761	1552.81034
479.247	1602.65762
479.732	1531.8983
480.218	1555.05595
480.703	1461.79476
481.188	1435.33393
481.673	1428.51469
482.158	1395.33025
482.643	1301.60473
483.128	1344.41509
483.612	1352.47147
484.097	1279.46689
484.581	1284.35378
485.066	1311.55276
485.55	1201.15883
486.034	1208.0838
486.518	1251.39787
487.002	1202.45419
487.486	1190.38273
487.969	1177.39283
488.453	1116.32141
488.936	1160.17995
489.42	1097.00339
489.903	1077.26441
490.386	1014.39568
490.869	1018.87452
491.352	1041.14658
491.835	1018.78862
492.318	1089.12266
492.8	994.78005
493.283	1017.23977
493.765	1009.13982
494.247	920.86826
494.73	941.81168
495.212	973.02136
495.694	941.91657
496.175	937.96881
496.657	911.88815
497.139	883.36371
497.62	878.85488
498.102	838.85663
498.583	804.79825
499.064	929.85188
499.545	843.72458
500.026	815.65221
500.507	812.7004
500.988	851.89597
501.469	770.76239
501.949	828.83903
502.43	787.70853
502.91	770.47313
503.39	710.61201
503.87	765.65863
504.35	725.55448
504.83	753.52151
505.31	729.60868
505.79	757.66981
506.269	753.61873
506.749	709.49596
507.228	739.60494
507.707	769.55601
508.187	684.48949
508.666	708.61395
509.145	719.56742
509.623	668.44846
510.102	694.55721
510.581	642.42747
511.059	674.57215
511.538	657.5669
512.016	724.6126
512.494	684.54229
512.972	658.45763
513.45	665.45756
513.928	677.54914
514.406	674.53887
514.884	673.61119
515.361	676.51803
515.839	641.38366
516.316	670.5107
516.793	640.5109
517.27	590.33395
517.747	618.49152
518.224	624.37364
518.701	664.41224
519.178	570.33199
519.654	616.37413
520.131	610.41329
520.607	586.36621
521.083	543.19487
521.56	575.30922
522.036	591.24344
522.512	540.24947
522.987	572.30265
523.463	585.33416
523.939	548.28002
524.414	624.35525
524.89	578.3036
525.365	586.2764
525.84	585.34595
526.315	534.24289
526.79	618.32455
527.265	591.30499
527.74	555.28802
528.215	579.31144
528.689	586.24777
529.164	539.12541
529.638	577.41105
530.112	526.20644
530.587	546.13677
531.061	576.32865
531.534	488.13077
532.008	523.21749
532.482	484.06239
532.956	539.30925
533.429	537.24522
533.903	472.01382
534.376	511.09279
534.849	552.23171
535.322	550.24542
535.795	531.24196
536.268	468.08478
536.741	510.17576
537.213	540.19844
537.686	559.30906
538.158	499.08457
538.631	482.12302
539.103	503.10857
539.575	506.01688
540.047	538.13896
540.519	494.1465
540.991	510.19534
541.463	530.23308
541.934	486.08601
542.406	449.05154
542.877	564.23777
543.348	564.30094
543.82	530.23308
544.291	492.10713
544.762	505.15381
545.233	562.3435
545.703	522.1243
546.174	612.35169
546.645	538.2468
547.115	599.38258
547.585	618.34335
548.056	634.46663
548.526	697.55147
548.996	680.51641
549.466	628.43204
549.935	743.6314
550.405	710.45386
550.875	692.52538
551.344	732.63312
551.814	759.61905
552.283	694.38901
552.752	783.68326
553.221	833.69181
553.69	771.56362
554.159	798.80823
554.628	799.64848
555.096	866.99872
555.565	810.66709
556.033	766.65269
556.502	751.67657
556.97	737.51635
557.438	632.4116
557.906	679.50326
558.374	693.48964
558.842	669.49155
559.31	636.3538
559.777	562.29735
560.245	680.50329
560.712	603.34261
561.18	708.49679
561.647	635.35254
562.114	666.43737
562.581	659.51878
563.048	658.43403
563.514	687.57706
563.981	714.5187
564.448	735.54139
564.914	756.63249
565.381	802.67057
565.847	756.64501
566.313	805.72466
566.779	817.66003
567.245	856.82335
567.711	872.89914
568.176	901.83088
568.642	913.05484
569.108	945.07503
569.573	1013.12134
570.038	1004.89206
570.504	1018.98686
570.969	1095.39459
571.434	1137.18303
571.899	1128.31949
572.363	1177.27189
572.828	1231.34139
573.293	1303.4632
573.757	1197.29741
574.222	1287.41638
574.686	1335.50311
575.15	1341.61252
575.614	1313.47495
576.078	1357.62141
576.542	1341.4911
577.006	1371.5032
577.469	1420.8115
577.933	1423.60629
578.396	1413.66787
578.86	1410.67313
579.323	1427.76997
579.786	1396.42125
580.249	1451.68158
580.712	1313.636
581.175	1323.68153
581.637	1318.44162
582.1	1347.41866
582.563	1346.32675
583.025	1340.66391
583.487	1371.25019
583.95	1325.37779
584.412	1345.30728
584.874	1253.50735
585.336	1218.41989
585.797	1232.22434
586.259	1188.36455
586.721	1157.30859
587.182	1170.29001
587.643	1134.19859
588.105	1147.32966
588.566	1089.95712
589.027	1111.31966
589.488	996.00741
589.949	1095.28321
590.41	1032.7727
590.87	1006.99026
591.331	997.87564
591.791	997.05939
592.252	1012.05739
592.712	979.06264
593.172	963.95166
593.632	1020.9795
594.092	1005.98319
594.552	1006.91712
595.011	959.96563
595.471	917.81864
595.931	959.89585
596.39	956.05757
596.849	994.04907
597.308	982.89029
597.768	896.06929
598.227	935.98009
598.685	941.89317
599.144	949.97482
599.603	978.06367
600.062	1002.88921
600.52	1008.98865
600.978	953.99455
601.437	996.98329
601.895	1001.86293
602.353	996.93378
602.811	1041.04994
603.269	1065.22743
603.727	1103.29788
604.184	1059.10785
604.642	1110.34557
605.099	1053.11814
605.557	1206.47785
606.014	1201.22147
606.471	1226.59084
606.928	1264.31121
607.385	1377.78353
607.842	1443.59048
608.299	1465.72624
608.755	1381.70575
609.212	1398.47815
609.668	1384.50241
610.125	1503.852
610.581	1466.72611
611.037	1412.56483
611.493	1376.61228
611.949	1425.8416
612.405	1365.19586
612.861	1364.58569
613.316	1355.64109
613.772	1459.67514
614.227	1457.75916
614.683	1427.4112
615.138	1473.72507
615.593	1440.66972
616.048	1395.53446
616.503	1444.80897
616.958	1474.95894
617.412	1430.69418
617.867	1432.51916
618.321	1451.36276
618.776	1400.48936
619.23	1349.56027
619.684	1409.53817
620.138	1453.64688
620.592	1363.69785
621.046	1389.59578
621.5	1433.81698
621.954	1360.46877
622.407	1285.34681
622.861	1316.61733
623.314	1352.47518
623.768	1333.53592
624.221	1256.0586
624.674	1245.37721
625.127	1249.41233
625.58	1233.32262
626.033	1151.11921
626.485	1239.47588
626.938	1202.39246
627.39	1222.38528
627.843	1135.23544
628.295	1128.19832
628.747	1113.26051
629.199	1099.14017
629.651	1067.10321
630.103	1041.08726
630.555	980.81521
631.006	1024.08465
631.458	1031.12404
631.909	965.92461
632.361	933.93292
632.812	922.91054
633.263	903.72843
633.714	850.62801
634.165	910.98944
634.616	869.87144
635.067	816.62224
635.518	826.77842
635.968	813.4698
636.419	804.58945
636.869	763.65148
637.319	743.58147
637.769	718.50272
638.219	703.5254
638.669	728.60346
639.119	744.6797
639.569	711.58004
640.019	678.44955
640.468	668.39056
640.918	627.40301
641.367	609.29204
641.816	698.46146
642.265	643.39035
642.714	636.37549
643.163	666.45148
643.612	629.45764
644.061	644.31794
644.51	717.55052
644.958	645.33697
645.406	663.48851
645.855	670.53648
646.303	665.44593
646.751	664.43611
647.199	669.42073
647.647	593.2974
648.095	635.39291
648.543	742.4051
648.99	635.41218
649.438	659.44985
649.885	662.53266
650.333	649.20145
650.78	666.52486
651.227	669.54612
651.674	640.36586
652.121	633.44142
652.568	649.48859
653.015	603.42431
653.461	614.38094
653.908	664.45262
654.354	687.51151
654.801	597.33417
655.247	687.41463
655.693	648.5886
656.139	678.52253
656.585	600.35273
657.031	640.41949
657.477	600.24606
657.922	646.40904
658.368	583.36267
658.813	587.27831
659.259	610.39152
659.704	577.27404
660.149	584.31072
660.594	605.3654
661.039	583.26637
661.484	542.22728
661.929	592.31128
662.373	622.49948
662.818	598.41658
663.262	583.33601
663.707	571.37256
664.151	579.34431
664.595	548.25496
665.039	544.29448
665.483	566.37311
665.927	583.29749
666.371	582.29285
666.814	531.2133
667.258	603.38189
667.701	578.18215
668.145	567.33868
668.588	593.36872
669.031	618.39562
669.474	572.30999
669.917	540.14121
670.36	559.33047
670.803	534.21796
671.245	572.15823
671.688	531.22692
672.13	560.21041
672.573	515.23312
673.015	555.27939
673.457	551.15407
673.899	545.24683
674.341	555.27787
674.783	538.23203
675.225	480.13062
675.666	575.33765
676.108	510.06687
676.549	571.27757
676.991	569.21703
677.432	582.14194
677.873	577.25916
678.314	581.31917
678.755	531.23711
679.196	536.18067
679.637	519.20342
680.078	505.12599
680.518	573.25939
680.959	559.2876
681.399	546.29775
681.839	535.2396
682.28	483.15068
682.72	546.20374
683.16	533.252
683.6	571.2229
684.039	560.11163
684.479	556.30229
684.919	596.32344
685.358	530.27703
685.798	580.43228
686.237	552.26817
686.676	523.14453
687.115	567.25662
687.554	552.23881
687.993	567.18502
688.432	569.23644
688.871	610.31807
689.309	575.29392
689.748	535.05178
690.186	567.26705
690.625	570.25515
691.063	604.36619
691.501	580.33364
691.939	606.40679
692.377	537.23883
692.815	600.35218
693.253	660.46995
693.69	588.2287
694.128	583.34188
694.565	610.35512
695.003	630.4867
695.44	630.38628
695.877	653.43724
696.314	620.23439
696.751	621.30607
697.188	651.39207
697.625	646.36379
698.061	669.49217
698.498	653.45045
698.934	666.49067
699.371	628.39111
699.807	660.44082
700.243	657.47383
700.679	669.40469
701.115	687.47167
701.551	693.4973
701.987	743.5294
702.422	753.63952
702.858	681.48263
703.294	728.49546
703.729	704.58225
704.164	678.50945
704.599	700.434
705.035	747.55073
705.47	711.61656
705.904	746.60882
706.339	654.36984
706.774	741.57994
707.209	745.57131
707.643	783.70344
708.078	782.74975
708.512	746.71631
708.946	692.49992
709.38	738.58272
709.814	713.48008
710.248	687.52351
710.682	759.64351
711.116	742.63773
711.549	710.66005
711.983	760.59422
712.416	773.64538
712.85	706.61715
713.283	761.64154
713.716	714.6211
714.149	727.5581
714.582	727.50649
715.015	748.66815
715.448	707.62106
715.881	766.48737
716.313	738.5766
716.746	675.47764
717.178	671.4843
717.61	676.55273
718.043	714.60997
718.475	688.51466
718.907	701.60986
719.339	659.39704
719.77	723.57349
720.202	618.44596
720.634	665.51618
721.065	720.56265
721.497	697.56363
721.928	656.49835
722.359	682.54403
722.79	683.53533
723.221	620.43592
723.652	679.57793
724.083	691.45476
724.514	627.34416
724.945	620.36425
725.375	652.43474
725.806	625.42777
726.236	582.38182
726.666	633.39085
727.096	621.42147
727.526	577.37493
727.956	614.30181
728.386	556.28094
728.816	546.29924
729.246	603.38741
729.675	580.34902
730.105	514.17746
730.534	576.26414
730.964	542.27341
731.393	522.20346
731.822	605.434
732.251	549.29964
732.68	541.18647
733.109	495.15222
733.537	566.28637
733.966	562.32558
734.395	538.1727
734.823	529.1128
735.251	566.29156
735.68	523.23277
736.108	531.25601
736.536	486.08512
736.964	533.17479
737.392	513.21198
737.82	537.21521
738.247	495.11957
738.675	511.14784
739.102	526.24777
739.53	491.1903
739.957	497.21477
740.384	453.0514
740.811	458.09749
741.238	477.11026
741.665	430.95873
742.092	467.06385
742.519	418.99949
742.945	415.96518
743.372	455.08222
743.798	447.09804
744.225	434.99481
744.651	429.03081
745.077	422.01031
745.503	454.05477
745.929	416.96273
746.355	460.08386
746.781	439.0409
747.207	422.97739
747.632	401.9638
748.058	408.98303
748.483	415.92893
748.908	373.89754
749.334	406.96822
749.759	382.86792
750.184	397.92551
750.609	396.94582
751.033	418.94931
751.458	412.89351
751.883	385.92149
752.307	381.88088
752.732	354.87548
753.156	379.91888
753.58	403.93136
754.005	351.85899
754.429	353.81811
754.853	327.79344
755.277	321.74013
755.7	307.75106
756.124	330.80417
756.548	348.81657
756.971	319.75365
757.394	319.80724
757.818	284.71652
758.241	284.71063
758.664	305.76165
759.087	310.69466
759.51	271.66326
759.933	317.75704
760.356	289.72431
760.778	359.87204
761.201	359.85108
761.623	322.75794
762.046	316.73658
762.468	282.65708
762.89	277.67013
763.312	322.7794
763.734	258.61723
764.156	282.68799
764.578	306.70204
765	315.75802
765.421	288.72376
765.843	262.67327
766.264	292.69428
766.686	234.57728
767.107	256.61385
767.528	271.68092
767.949	233.58903
768.37	175.42642
768.791	276.66154
769.212	234.58871
769.632	252.59043
770.053	264.6855
770.473	224.54366
770.894	222.54768
771.314	164.38967
771.734	185.43795
772.154	173.44017
772.575	187.43429
772.994	180.4153
773.414	260.61607
773.834	221.55172
774.254	253.6222
774.673	184.44809
775.093	183.45504
775.512	148.36701
775.931	206.51995
776.351	170.42418
776.77	179.44153
777.189	136.32811
777.607	159.40784
778.026	174.43809
778.445	160.4063
778.864	178.45521
779.282	217.52341
779.701	162.40759
780.119	196.50615
780.537	160.40414
780.955	110.27974
781.373	155.38514
781.791	127.29238
782.209	152.35238
782.627	188.49922
783.045	190.44465
783.462	152.39213
783.88	118.30853
784.297	139.35379
784.715	145.37673
785.132	129.31972
785.549	102.26086
785.966	138.34982
786.383	153.37976
786.8	132.31231
787.217	130.31387
787.633	95.24223
788.05	131.31132
788.466	57.13478
788.883	128.32861
789.299	104.2546
789.715	147.36287
790.131	131.3319
790.547	76.19143
790.963	157.39409
791.379	119.30449
791.795	105.24357
792.21	71.16925
792.626	96.23065
793.041	128.32182
793.457	125.31399
793.872	82.19664
794.287	92.22556
794.702	112.27774
795.117	104.26392
795.532	101.25853
795.947	107.26034
796.362	128.30939
796.776	96.22485
797.191	94.23506
797.605	103.2522
798.02	97.23971
798.434	106.23754
798.848	86.21739
799.262	124.31444
799.676	76.18716
800.09	105.26622
800.504	82.20119
800.918	111.2645
801.331	68.17822
801.745	72.16963
802.158	55.14054
802.572	51.1252
802.985	61.14981
803.398	64.15604
803.811	44.11328
804.224	89.2218
804.637	92.22498
805.05	119.27713
805.462	103.25538
805.875	73.19272
806.288	112.27673
806.7	91.23228
807.112	34.08023
807.525	72.18025
807.937	41.10362
808.349	111.28033
808.761	91.22719
809.173	74.1823
809.584	100.24817
809.996	72.18057
810.408	101.26467
810.819	150.35887
811.231	214.55989
811.642	252.61206
812.053	352.83626
812.464	297.70142
812.875	227.57366
813.286	159.4104
813.697	94.22292
814.108	92.22731
814.519	53.1207
814.929	88.22616
815.34	167.41193
815.75	73.18928
816.16	65.16416
816.571	35.09172
816.981	58.13919
817.391	117.28754
817.801	94.24015
818.211	36.08672
818.62	117.28829
819.03	57.1419
819.44	91.23806
819.849	42.10704
820.259	39.10046
820.668	107.2681
821.077	53.13576
821.486	59.14431
821.895	41.10229
822.304	68.18226
822.713	90.21779
823.122	69.17519
823.531	99.24043
823.939	82.20409
824.348	90.22335
824.756	116.29405
825.164	73.18482
825.573	89.23013
825.981	84.21036
826.389	74.18939
826.797	7.0178
827.205	91.21493
827.612	122.30475
828.02	67.16186
828.428	87.22511
828.835	75.19993
829.243	79.19358
829.65	50.12702
830.057	48.11973
830.464	49.12185
830.871	55.13422
831.278	45.11068
831.685	78.17875
832.092	91.22736
832.499	30.06776
832.905	73.18679
833.312	73.17075
833.718	82.20728
834.124	81.18775
834.531	41.10488
834.937	22.05672
835.343	49.12123
835.749	40.0942
836.155	51.1351
836.561	59.14885
836.966	73.1814
837.372	98.25169
837.777	84.21377
838.183	59.13333
838.588	28.07027
838.993	51.12622
839.399	70.17416
839.804	38.09486
840.209	64.16734
840.613	53.12153
841.018	37.09484
841.423	52.13513
841.828	42.10903
842.232	57.14267
842.637	124.2969
843.041	63.1652
843.445	44.11261
843.849	36.09071
844.253	57.13853
844.657	63.16228
845.061	63.14724
845.465	78.19195
845.869	79.18782
846.272	22.05533
846.676	14.03444
847.079	104.26961
847.483	55.13821
847.886	20.04893
848.289	48.13013
848.692	68.17452
849.095	57.14055
849.498	21.05358
849.901	45.10521
850.304	64.15674
850.707	21.05426
851.109	33.08406
851.512	81.20369
851.914	70.18241
852.316	46.1169
852.718	20.05306
853.121	44.11027
853.523	69.16688
853.925	47.12554
854.326	35.08884
854.728	93.24271
855.13	71.18732
855.531	83.20444
855.933	41.09909
856.334	23.05892
856.736	47.10907
857.137	25.05967
857.538	81.20821
857.939	55.14004
858.34	62.15336
858.741	27.07169
859.142	35.0863
859.542	53.14241
859.943	43.10871
860.343	4.0102
860.744	62.15319
861.144	-1.00248
861.544	13.03256
861.945	72.18787
862.345	60.14863
862.745	57.1459
863.145	32.07779
863.544	40.10273
863.944	34.0815
864.344	52.13098
864.743	57.14231
865.143	46.1202
865.542	50.11926
865.941	56.14221
866.34	49.11936
866.74	39.10555
867.139	78.19209
867.537	69.1773
867.936	42.10381
868.335	59.15256
868.734	79.20695
869.132	73.17442
869.531	29.07072
869.929	108.25325
870.327	63.15495
870.726	48.12016
871.124	65.15584
871.522	65.16807
871.92	73.18344
872.318	44.10959
872.715	27.06729
873.113	70.17467
873.511	92.23462
873.908	75.1948
874.306	48.12293
874.703	41.10395
875.1	76.19566
875.497	89.21873
875.894	69.17407
876.291	41.10225
876.688	49.13002
877.085	48.11655
877.482	50.12688
877.878	53.13074
878.275	60.1556
878.671	81.1838
879.068	86.20999
879.464	83.203
879.86	-5.01218
880.256	72.17959
880.652	44.11399
881.048	54.13504
881.444	28.06737
881.84	41.10579
882.236	53.13481
882.631	78.19625
883.027	38.09303
883.422	46.11917
883.817	106.27375
884.213	70.18272
884.608	33.08346
885.003	76.18785
885.398	51.13164
885.793	63.15996
886.188	54.13854
886.582	52.13322
886.977	97.23327
887.371	-8.02046
887.766	30.07678
888.16	69.17407
888.554	46.11445
888.949	39.09902
889.343	61.15019
889.737	33.09055
890.131	-4.0102
890.525	42.10896
890.918	9.02296
891.312	43.10333
891.706	8.02105
892.099	31.0793
892.492	44.09828
892.886	17.04237
893.279	48.12491
893.672	-30.07732
894.065	43.10906
894.458	90.23057
894.851	57.14148
895.244	32.08296
895.637	57.1405
896.029	40.09949
896.422	54.13362
896.814	31.07838
897.206	37.09023
897.599	77.1905
897.991	45.11031
898.383	88.21375
898.775	-3.007
899.167	24.05814
899.559	55.14054
899.951	64.15318
900.342	8.02057
900.734	32.08241
901.125	64.16939
901.517	52.13074
901.908	67.16204
902.299	69.17432
902.69	57.13796
903.082	50.12309
903.473	61.15042
903.863	69.17804
904.254	57.13666
904.645	48.12129
905.036	65.16116
905.426	41.0953
905.817	87.21697
906.207	74.18103
906.597	-1.00239
906.987	36.0948
907.378	17.04352
907.768	35.09401
908.158	43.10685
908.547	15.03973
908.937	-1.0026
909.327	56.13928
909.717	84.21301
910.106	39.09546
910.495	70.17694
910.885	89.22845
911.274	36.09158
911.663	14.03586
912.052	10.02501
912.441	3.00775
912.83	30.07126
913.219	55.14481
913.608	55.13632
913.997	42.10794
914.385	68.16381
914.774	63.15546
915.162	62.15178
915.55	28.06901
915.939	30.07724
916.327	39.09765
916.715	33.08554
917.103	7.0175
917.491	43.10704
917.878	-27.06736
918.266	11.0287
918.654	69.17965
919.041	48.12772
919.429	34.08252
919.816	32.08195
920.203	63.15586
920.591	21.05288
920.978	29.07125
921.365	59.15655
921.752	29.07119
922.139	104.23172
922.525	84.20709
922.912	43.10623
923.299	50.12684
923.685	30.0798
924.072	8.0187
924.458	69.17314
924.844	84.21104
925.231	36.08613
925.617	1.00262
926.003	43.11119
926.389	40.1028
926.774	48.12345
927.16	75.18847
927.546	65.1697
927.931	56.14181
928.317	32.07489
928.702	26.06237
929.088	49.11931
929.473	16.04141
929.858	46.11449
930.243	63.15443
930.628	69.1727
931.013	42.10636
931.398	55.12799
931.783	36.09525
932.167	69.17308
932.552	27.06819
932.937	48.12051
933.321	35.08984
933.705	50.1285
934.09	53.134
934.474	24.05812
934.858	5.01323
935.242	19.04554
935.626	63.16447
936.009	-28.07522
936.393	35.09025
936.777	23.06009
937.16	52.13601
937.544	59.14032
937.927	96.24732
938.311	27.06685
938.694	37.09837
939.077	26.06377
939.46	16.03905
939.843	80.17314
940.226	28.07311
940.609	126.29765
940.991	27.0701
941.374	35.08757
941.757	1.00251
942.139	106.24584
942.522	53.1262
942.904	53.12977
943.286	15.03852
943.668	40.10534
944.05	7.01771
944.432	73.18456
944.814	52.12853
945.196	32.0808
945.578	73.1804
945.959	24.05786
946.341	-4.00983
946.722	33.079
947.104	75.18235
947.485	71.16821
947.866	93.24022
948.247	-12.03078
948.628	34.08361
949.009	50.13069
949.39	40.10082
949.771	117.27484
950.152	59.14821
950.532	24.06119
950.913	59.14457
951.293	44.12068
951.674	123.30552
952.054	67.1706
952.434	46.11566
952.814	40.09727
953.194	43.11299
953.574	39.09649
953.954	13.03175
954.334	35.08912
954.714	15.03771
955.093	38.09434
955.473	25.0635
955.853	28.07329
956.232	-3.00827
956.611	20.04894
956.99	56.14397
957.37	73.18843
957.749	76.18495
958.128	79.203
958.506	47.12521
958.885	57.14662
959.264	53.13462
959.643	58.13404
960.021	25.06368
960.4	17.03998
960.778	58.14462
961.156	28.07209
961.535	22.05243
961.913	41.09823
962.291	62.16382
962.669	13.0334
963.047	7.01813
963.424	17.04409
963.802	56.14075
964.18	56.14287
964.557	80.18723
964.935	60.14465
965.312	-3.00794
965.69	49.12327
966.067	80.19796
966.444	-8.02006
966.821	30.07815
967.198	22.05428
967.575	11.02722
967.952	34.08163
968.329	44.10931
968.705	22.04833
969.082	85.22115
969.458	6.01504
969.835	71.17449
970.211	64.16757
970.587	22.05571
970.963	24.06233
971.339	10.02664
971.715	24.06097
972.091	41.10281
972.467	23.05852
972.843	41.10369
973.219	25.06042
973.594	49.13136
973.97	56.13475
974.345	41.10065
974.721	19.04633
975.096	34.08388
975.471	52.12574
975.846	7.01719
976.221	58.15103
976.596	27.06672
976.971	86.21374
977.346	45.10608
977.72	37.0961
978.095	74.19349
978.469	63.15191
978.844	54.13596
979.218	-15.037
979.593	28.06827
979.967	88.21615
980.341	48.11251
980.715	87.22183
981.089	21.05298
981.463	57.13614
981.837	62.15482
982.21	58.13654
982.584	6.01491
982.957	66.16814
983.331	73.17549
983.704	11.02717
984.078	37.09341
984.451	5.01255
984.824	30.07502
985.197	5.0124
985.57	53.13462
985.943	-2.005
986.316	65.1611
986.688	60.14601
987.061	55.13262
987.434	13.03449
987.806	58.14315
988.179	52.12617
988.551	74.19005
988.923	41.10266
989.295	-1.0025
989.667	9.02236
990.039	90.22653
990.411	41.09657
990.783	72.16798
991.155	52.12994
991.527	50.12345
991.898	3.0077
992.27	-9.02278
992.641	44.11134
993.012	64.15289
993.384	-27.06604
993.755	73.18928
994.126	33.08071
994.497	14.03533
994.868	80.18781
995.239	35.08602
995.61	51.13105
995.98	55.13732
996.351	24.06071
996.722	51.12288
997.092	1.00245
997.462	46.11102
997.833	54.12959
998.203	42.10286
998.573	4.01016
998.943	63.15156
999.313	29.07159
999.683	65.16063
1000.053	64.1509
1000.423	19.04678
1000.792	67.17653
1001.162	14.03505
1001.531	36.09055
1001.901	61.15614
1002.27	54.12355
1002.639	51.13278
1003.009	11.02666
1003.378	2.00518
1003.747	68.16499
1004.116	25.06151
1004.485	47.1135
1004.853	24.06183
1005.222	29.07376
1005.591	78.18697
1005.959	36.08465
1006.328	35.08119
1006.696	60.14879
1007.064	-2.00513
1007.433	23.05834
1007.801	-11.0274
1008.169	6.0153
1008.537	60.13623
1008.905	16.03863
1009.273	24.05976
1009.64	31.07672
1010.008	50.12209
1010.375	0
1010.743	94.21775
1011.11	48.11668
1011.478	37.09271
1011.845	76.18058
1012.212	62.14453
1012.579	33.08194
1012.946	65.15643
1013.313	48.11524
1013.68	37.08488
1014.047	34.08361
1014.414	77.18581
1014.78	29.07295
1015.147	19.04632
1015.513	51.12534
1015.88	24.0616
1016.246	16.03956
1016.612	-8.01866
1016.978	48.11956
1017.344	62.15633
1017.71	33.08056
1018.076	8.01925
1018.442	44.11344
1018.808	52.1321
1019.174	28.07191
1019.539	62.14185
1019.905	30.07243
1020.27	64.1612
1020.636	56.13618
1021.001	12.02929
1021.366	0
1021.731	26.06703
1022.096	29.0748
1022.461	32.07735
1022.826	49.11829
1023.191	2.00533
1023.556	45.10834
1023.92	24.05963
1024.285	6.01499
1024.649	47.11726
1025.014	40.10082
1025.378	36.09223
1025.742	75.18901
1026.107	36.08286
1026.471	9.02122
1026.835	58.14687
1027.199	83.20692
1027.562	41.09733
1027.926	-2.00499
1028.29	27.07015
1028.654	53.12455
1029.017	9.02238
1029.381	11.02702
1029.744	22.05666
1030.107	67.16002
1030.471	11.02668
1030.834	33.07649
1031.197	32.07747
1031.56	37.08864
1031.923	23.06031
1032.286	30.07167
1032.648	72.17581
1033.011	37.08637
1033.374	0
1033.736	32.08563
1034.099	51.12728
1034.461	-4.01028
1034.823	32.0808
1035.185	61.15521
1035.548	42.10469
1035.91	39.09528
1036.272	49.11254
1036.634	4.00989
1036.995	58.13993
1037.357	22.0548
1037.719	0
1038.08	67.16027
1038.442	20.04842
1038.803	24.05858
1039.165	47.12153
1039.526	19.04685
1039.887	29.07111
1040.248	18.04524
1040.609	12.02985
1040.97	60.14955
1041.331	41.10517
1041.692	49.11922
1042.053	48.11198
1042.413	65.15394
1042.774	28.06911
1043.134	85.20496
1043.495	21.05334
1043.855	67.16436
1044.215	74.18652
1044.576	64.15784
1044.936	71.16496
1045.296	53.13371
1045.656	8.0199
1046.016	24.0586
1046.375	21.05161
1046.735	4.00941
1047.095	7.0168
1047.454	80.17218
1047.814	31.07599
1048.173	-18.04305
1048.533	26.06092
1048.892	18.04478
1049.251	62.15734
1049.61	23.05767
1049.969	74.17954
1050.328	48.10659
1050.687	35.08646
1051.046	11.02707
1051.405	91.22999
1051.763	35.08283
1052.122	44.1115
1052.48	-31.0772
1052.839	15.0362
1053.197	51.12293
1053.555	3.00681
1053.914	47.11513
1054.272	43.10404
1054.63	39.098
1054.988	27.06592
1055.345	63.13894
1055.703	26.06356
1056.061	11.02872
1056.419	31.08132
1056.776	-2.0049
1057.134	3.00717
1057.491	4.01017
1057.848	34.08499
1058.206	36.08662
1058.563	-6.01366
1058.92	-15.03515
1059.277	53.13175
1059.634	47.112
1059.991	37.09029
1060.348	28.06548
1060.704	4.00984
1061.061	70.16344
1061.418	13.03209
1061.774	28.0705
1062.131	27.07283
1062.487	34.08141
1062.843	31.07793
1063.199	59.14959
1063.555	51.12176
1063.911	2.0051
1064.267	35.0745
1064.623	-3.0075
1064.979	21.05054
1065.335	69.16524
1065.691	52.12579
1066.046	-28.06223
1066.402	49.11528
1066.757	16.04083
1067.112	21.05203
1067.468	91.22365
1067.823	20.04938
1068.178	-7.01722
1068.533	51.12567
1068.888	26.06299
1069.243	35.08764
1069.598	11.02738
1069.952	53.12333
1070.307	30.07672
1070.662	4.0097
1071.016	16.03701
1071.371	12.02794
1071.725	26.06315
1072.079	47.11389
1072.434	42.10442
1072.788	37.09023
1073.142	66.16475
1073.496	9.02184
1073.85	14.03291
1074.203	80.19919
1074.557	34.09161
1074.911	1.00241
1075.265	76.17863
1075.618	1.00247
1075.971	50.12068
1076.325	27.06994
1076.678	21.04998
1077.031	9.02113
1077.385	56.1273
1077.738	26.06056
1078.091	33.07758
1078.444	67.15776
1078.796	17.04226
1079.149	7.01766
1079.502	71.17333
1079.855	52.12446
1080.207	27.06758
1080.56	8.02101
1080.912	10.02469
1081.264	38.09317
1081.617	111.27521
1081.969	69.17761
1082.321	11.02726
1082.673	32.07583
1083.025	44.1068
1083.377	-165.38138
1083.728	19.04495
1084.08	51.12848
1084.432	44.10836
1084.783	72.17002
1085.135	51.12967
1085.486	66.15634
1085.838	60.1501
1086.189	-9.02227
1086.54	5.01217
1086.891	52.13406
1087.242	-7.0173
1087.593	40.09851
1087.944	20.046
1088.295	47.10885
1088.646	48.11908
1088.996	4.00985
1089.347	25.06251
1089.698	46.11136
1090.048	2.00521
1090.398	-5.01182
1090.749	28.06847
1091.099	50.13025
1091.449	25.06327
1091.799	47.11955
1092.149	78.19667
1092.499	11.02733
1092.849	19.04947
1093.199	19.0479
1093.548	33.0814
1093.898	11.02812
1094.248	19.04932
1094.597	19.05025
1094.947	34.09131
1095.296	24.06004
1095.645	39.10234
1095.994	-13.03184
1096.343	64.16224
1096.692	44.12014
1097.041	-15.04104
1097.39	63.16149
1097.739	12.03165
1098.088	50.13503
1098.437	27.07229
1098.785	-22.05976
1099.134	56.14886
1099.482	33.09167
1099.83	36.09474
1100.179	33.08826
1100.527	15.0402
1100.875	10.02686
1101.223	38.10162
1101.571	33.09207
1101.919	47.126
1102.267	9.02557
1102.615	2.00645
1102.962	10.03217
1103.31	9.02899
1103.658	14.04515
