Data from N2 R0 60C sample8_Subt2__1__11-44-14-175.txt Node

Date: Tue Aug 19 11:44:14 PDT 2025
User: uwsun
Spectrometer: HDX01956
Trigger mode: 0
Integration Time (sec): 5.000000E-1
Scans to average: 1
Nonlinearity correction enabled: true
Boxcar width: 0
Storing dark spectrum: false
XAxis mode: Wavelengths
Number of Pixels in Spectrum: 2068
>>>>>Begin Spectral Data<<<<<
194.03	489.33092
194.578	468.43971
195.127	465.41058
195.676	481.46186
196.225	497.27199
196.773	540.4289
197.321	822.08599
197.87	1104.48435
198.418	1095.43562
198.966	1114.53729
199.513	1034.26066
200.061	1084.40868
200.609	1073.4708
201.156	1087.0399
201.704	1111.44279
202.251	1098.55476
202.798	1122.52894
203.345	1123.38901
203.892	1117.42841
204.438	1174.38296
204.985	1134.3412
205.532	1154.61679
206.078	1175.45987
206.624	1130.40132
207.17	1133.2523
207.716	1187.45346
208.262	1115.84921
208.808	1180.51736
209.354	1195.47768
209.899	1151.46337
210.445	1233.60733
210.99	1180.44276
211.535	1215.42005
212.08	1225.42091
212.625	1193.54783
213.17	1224.61349
213.715	1158.25373
214.259	1114.23134
214.804	1117.35474
215.348	1077.11604
215.892	1129.31274
216.436	1190.32269
216.98	1179.21846
217.524	1131.28777
218.068	1154.51888
218.612	1106.40499
219.155	1096.22039
219.698	1161.35281
220.242	1074.31964
220.785	1002.04532
221.328	1021.21492
221.871	1049.29108
222.414	1022.22505
222.956	983.12341
223.499	968.92481
224.041	1031.08992
224.583	967.80309
225.126	1062.01187
225.668	1053.21197
226.21	1031.26401
226.751	1042.99446
227.293	1086.15521
227.835	1033.21825
228.376	1011.027
228.918	1055.3177
229.459	1029.24737
230	984.05194
230.541	1101.21385
231.082	1020.1243
231.622	1039.06415
232.163	1048.21059
232.704	986.14029
233.244	1006.18558
233.784	1016.1682
234.324	1070.06539
234.864	1061.07674
235.404	1076.19661
235.944	1027.10918
236.484	1042.23138
237.023	1104.25284
237.563	1085.15073
238.102	1048.11529
238.641	1051.31372
239.18	1048.14418
239.719	1052.29041
240.258	1018.99716
240.797	1109.28902
241.335	1099.31172
241.874	1119.84671
242.412	1145.36551
242.95	1059.20125
243.488	1102.16678
244.026	1085.13876
244.564	1114.94254
245.102	1093.10036
245.64	1019.12175
246.177	1082.09457
246.715	1136.32553
247.252	1057.099
247.789	1134.78572
248.326	1105.30408
248.863	1142.14394
249.4	1166.2351
249.936	1104.91697
250.473	1129.25884
251.009	1131.23378
251.546	1138.12493
252.082	1085.03813
252.618	1097.08087
253.154	1126.335
253.69	1095.09415
254.226	1132.29655
254.761	1159.23707
255.297	1106.04776
255.832	1096.20831
256.367	1192.37471
256.903	1059.97887
257.438	1093.19573
257.972	1164.2035
258.507	1124.22251
259.042	1154.13797
259.576	1165.14507
260.111	1144.23797
260.645	1075.97034
261.179	1094.18619
261.713	1147.18438
262.247	1147.25912
262.781	1118.00246
263.315	1136.39222
263.849	1205.55472
264.382	1256.36779
264.915	1239.4509
265.449	1224.56196
265.982	1170.2621
266.515	1224.47448
267.048	1175.12267
267.58	1140.11404
268.113	1173.13837
268.646	1202.51038
269.178	1190.23867
269.71	1203.20316
270.243	1205.2885
270.775	1174.51637
271.307	1140.32536
271.838	1230.38965
272.37	1276.59259
272.902	1258.3566
273.433	1175.12375
273.965	1235.5075
274.496	1204.48146
275.027	1238.56067
275.558	1228.48933
276.089	1278.6306
276.62	1224.60677
277.15	1233.49665
277.681	1214.20615
278.211	1151.32617
278.741	1217.24559
279.272	1176.25539
279.802	1250.57864
280.332	1231.41812
280.861	1278.5393
281.391	1256.34824
281.921	1282.54491
282.45	1296.67242
282.98	1306.81004
283.509	1268.32551
284.038	1330.46027
284.567	1300.44383
285.096	1332.63335
285.625	1308.44336
286.153	1277.44198
286.682	1244.35992
287.21	1295.57016
287.739	1333.58348
288.267	1357.66361
288.795	1288.75132
289.323	1397.658
289.851	1380.62115
290.378	1377.48405
290.906	1333.64692
291.433	1330.68417
291.961	1317.42351
292.488	1359.72598
293.015	1355.60638
293.542	1335.78402
294.069	1396.73328
294.596	1358.69974
295.122	1406.68094
295.649	1416.44969
296.175	1404.76309
296.702	1436.7501
297.228	1434.75019
297.754	1528.70281
298.28	1441.59212
298.806	1428.72691
299.332	1474.56932
299.857	1506.63088
300.383	1464.92414
300.908	1472.82861
301.433	1411.71435
301.958	1529.69279
302.483	1469.90531
303.008	1542.95361
303.533	1477.01145
304.058	1558.82692
304.582	1526.81027
305.107	1509.12625
305.631	1592.72
306.155	1601.84643
306.679	1536.74075
307.203	1570.79887
307.727	1589.86826
308.251	1566.97972
308.775	1612.93119
309.298	1697.08311
309.822	1671.18879
310.345	1740.06958
310.868	1716.02852
311.391	1695.10096
311.914	1734.23787
312.437	1668.83118
312.96	1753.01278
313.482	1714.99032
314.005	1733.23992
314.527	1693.37234
315.049	1812.28911
315.571	1864.97791
316.093	1877.33923
316.615	1858.22736
317.137	1865.83752
317.659	1890.2919
318.18	1862.15567
318.702	1854.02726
319.223	1949.77133
319.744	1905.99072
320.265	1938.30658
320.786	1963.42804
321.307	1943.40505
321.828	2057.14658
322.348	2042.29263
322.869	2099.38118
323.389	1799.71486
323.909	2166.21638
324.43	2164.38111
324.95	2097.1922
325.47	2235.53844
325.989	2241.39018
326.509	2268.14992
327.029	2280.19277
327.548	2265.20167
328.067	2375.61412
328.587	2353.67696
329.106	2321.18456
329.625	2404.94131
330.144	2420.41575
330.662	2380.30818
331.181	2489.45079
331.7	2516.50143
332.218	2575.17568
332.736	2551.4916
333.255	2553.44415
333.773	2557.50012
334.291	2637.76323
334.808	2639.33425
335.326	2757.37336
335.844	2840.54626
336.361	2805.9664
336.879	2841.60585
337.396	2882.67898
337.913	2949.43332
338.43	2996.34655
338.947	2935.56848
339.464	2951.11874
339.981	3081.61178
340.497	3038.75146
341.014	3114.7775
341.53	3218.23986
342.046	3135.73927
342.562	3171.88714
343.078	3262.54871
343.594	3338.58713
344.11	3316.52391
344.626	3377.91924
345.141	3431.26486
345.657	3427.20762
346.172	3393.62476
346.687	3494.37586
347.202	3574.18968
347.717	3589.54162
348.232	3574.79901
348.747	3642.31405
349.261	3703.04413
349.776	3708.3938
350.29	3823.72079
350.805	3915.72616
351.319	3920.30479
351.833	3739.1108
352.347	3913.2731
352.861	3890.21646
353.374	3937.08102
353.888	3999.4245
354.401	4095.08054
354.915	4131.94221
355.428	4113.52899
355.941	4210.13203
356.454	4196.83597
356.967	4150.13963
357.48	4232.93365
357.993	4327.35711
358.505	4253.31383
359.018	4377.27505
359.53	4470.20066
360.042	4451.62239
360.554	4445.13168
361.066	4432.25356
361.578	4385.51762
362.09	4488.97633
362.602	4547.52347
363.113	4708.80534
363.625	4693.57595
364.136	4753.38169
364.647	4820.81505
365.158	4811.63666
365.669	4896.77818
366.18	4928.64817
366.691	4918.2938
367.201	5007.74564
367.712	5092.40904
368.222	5052.42569
368.733	5222.15266
369.243	5281.13209
369.753	5368.3956
370.263	5408.52706
370.773	5457.54902
371.282	5615.29836
371.792	5726.22007
372.301	5863.31111
372.811	5904.70267
373.32	6006.51483
373.829	6165.01845
374.338	6542.53345
374.847	6653.7464
375.356	6706.85359
375.865	6984.31136
376.373	7450.7222
376.882	7529.17744
377.39	7572.98255
377.898	7874.23985
378.407	8153.14475
378.915	8371.3134
379.423	8787.07038
379.93	9141.6737
380.438	9592.70144
380.946	10194.43698
381.453	10583.77087
381.96	11057.75823
382.468	11819.50847
382.975	12387.80984
383.482	12694.65673
383.989	12899.74317
384.495	13415.70569
385.002	14254.98067
385.509	14943.85237
386.015	15998.36261
386.521	16642.49524
387.028	17260.62258
387.534	17640.32868
388.04	18315.65132
388.546	18882.65304
389.051	19893.80485
389.557	21505.25937
390.063	22984.99258
390.568	23764.59233
391.073	24602.04825
391.578	25860.62616
392.084	26377.05713
392.589	27491.47833
393.093	29776.6671
393.598	32376.67361
394.103	35159.77557
394.607	38590.54624
395.112	41323.25334
395.616	43502.16765
396.12	47534.06726
396.624	52587.344
397.128	57191.15404
397.632	61004.14829
398.136	61500.89282
398.639	61850.40973
399.143	61679.31033
399.646	61269.15804
400.15	60904.11498
400.653	60560.14334
401.156	60136.25446
401.659	59550.50961
402.162	58431.12733
402.664	54480.21957
403.167	49329.08451
403.67	22278.45323
404.172	2696.20453
404.674	0
405.176	0
405.678	0
406.18	0
406.682	0
407.184	0
407.686	25783.58453
408.187	43316.52985
408.688	51225.60928
409.19	54389.01922
409.691	56215.4214
410.192	57270.57019
410.693	57845.40442
411.194	58219.2365
411.694	58633.01717
412.195	59215.68848
412.696	59364.60701
413.196	59341.61941
413.696	59632.46864
414.196	59367.6054
414.696	59763.40624
415.196	59913.34014
415.696	60584.13941
416.196	61381.18813
416.695	61808.38326
417.195	62018.52935
417.694	61837.40139
418.194	62001.51623
418.693	60111.67869
419.192	58363.6743
419.691	57485.04169
420.19	56202.72652
420.688	54613.94102
421.187	52401.15946
421.685	48459.73577
422.184	43649.48903
422.682	37711.544
423.18	32739.6353
423.678	29641.25078
424.176	27454.85051
424.674	25749.76439
425.172	24528.92114
425.669	22791.49242
426.167	21252.02755
426.664	19381.1383
427.161	18045.96709
427.659	16531.17183
428.156	15563.84499
428.652	14661.29048
429.149	14206.8108
429.646	13645.18755
430.143	12709.19193
430.639	12153.65947
431.135	11316.75313
431.632	10890.2468
432.128	10200.46024
432.624	9613.75505
433.12	9314.05439
433.616	9085.54777
434.111	8676.87331
434.607	8457.60966
435.103	8285.12869
435.598	7963.74317
436.093	7657.84861
436.588	7350.46416
437.083	6850.42022
437.578	6698.59651
438.073	6269.21637
438.568	6066.08023
439.062	5946.43252
439.557	5785.01129
440.051	5501.89214
440.546	5312.06663
441.04	5265.49111
441.534	5240.9072
442.028	5197.44517
442.522	4928.64817
443.015	5044.02279
443.509	4847.85155
444.002	4729.93287
444.496	4742.27295
444.989	4666.88891
445.482	4639.08672
445.975	4573.64873
446.468	4473.28582
446.961	4513.33102
447.454	4311.62261
447.947	4329.02347
448.439	4145.06323
448.931	4185.80419
449.424	4135.38233
449.916	4138.2449
450.408	4002.84903
450.9	4045.31487
451.392	3940.53796
451.884	3854.98303
452.375	3809.61214
452.867	3790.9123
453.358	3780.02381
453.849	3583.70817
454.341	3627.01907
454.832	3597.79218
455.323	3500.51559
455.814	3507.18453
456.304	3391.18971
456.795	3393.19188
457.285	3293.96718
457.776	3351.0974
458.266	3265.40527
458.756	3225.40248
459.247	3123.46948
459.737	3076.51125
460.226	3119.17456
460.716	2966.52416
461.206	2923.51175
461.695	2852.64571
462.185	2865.32853
462.674	2923.34322
463.163	2813.03342
463.653	2822.91936
464.142	2727.51784
464.63	2742.60884
465.119	2653.26578
465.608	2631.3192
466.096	2588.00308
466.585	2584.25596
467.073	2491.36591
467.561	2437.38051
468.05	2464.25951
468.538	2479.51345
469.026	2402.3771
469.513	2485.21736
470.001	2301.08481
470.489	2334.34554
470.976	2288.19437
471.463	2166.41877
471.951	2089.3667
472.438	2072.12694
472.925	2028.07726
473.412	2018.23006
473.899	2001.96291
474.385	1922.17568
474.872	2006.13927
475.359	1905.20105
475.845	1917.62757
476.331	1740.54363
476.817	1754.00582
477.303	1810.91009
477.789	1707.94641
478.275	1686.01949
478.761	1693.95881
479.247	1641.69402
479.732	1638.02071
480.218	1601.11305
480.703	1612.97367
481.188	1496.39279
481.673	1474.56531
482.158	1424.36031
482.643	1461.81876
483.128	1465.55289
483.612	1379.50403
484.097	1382.60097
484.581	1318.39586
485.066	1414.6872
485.55	1356.34289
486.034	1222.10027
486.518	1328.49905
487.002	1317.61992
487.486	1197.39292
487.969	1259.51245
488.453	1163.39421
488.936	1188.21748
489.42	1163.08922
489.903	1106.31073
490.386	1087.46176
490.869	1118.00655
491.352	1081.20932
491.835	1103.89558
492.318	1165.23051
492.8	1072.88182
493.283	1070.3306
493.765	1012.14479
494.247	1008.00476
494.73	989.8824
495.212	972.01973
495.694	970.96273
496.175	971.02345
496.657	951.9536
497.139	953.44218
497.62	893.88042
498.102	970.08862
498.583	896.96623
499.064	962.90312
499.545	913.83846
500.026	916.81454
500.507	843.75333
500.988	906.99566
501.469	794.80861
501.949	824.83165
502.43	800.73198
502.91	797.51495
503.39	735.66038
503.87	862.83058
504.35	777.64746
504.83	787.57795
505.31	767.67919
505.79	775.70313
506.269	774.65642
506.749	753.57362
507.228	792.7008
507.707	787.58594
508.187	687.49508
508.666	740.67609
509.145	745.61523
509.623	676.46334
510.102	736.63732
510.581	701.53976
511.059	752.72737
511.538	705.66602
512.016	766.69143
512.494	742.6534
512.972	659.45955
513.45	695.51378
513.928	707.60811
514.406	747.68065
514.884	685.63619
515.361	664.49472
515.839	725.53711
516.316	643.45773
516.793	684.60111
517.27	604.36175
517.747	657.57406
518.224	654.43072
518.701	682.44491
519.178	604.40214
519.654	607.35654
520.131	558.30596
520.607	659.51456
521.083	641.38188
521.56	645.44807
522.036	629.31247
522.512	579.32948
522.987	600.35878
523.463	614.39221
523.939	631.45016
524.414	644.39281
524.89	594.33537
525.365	640.37825
525.84	610.39655
526.315	580.33789
526.79	627.34127
527.265	657.43094
527.74	556.29009
528.215	641.43378
528.689	625.31969
529.164	590.21818
529.638	582.42197
530.112	620.39559
530.587	591.21833
531.061	550.27515
531.534	573.30572
532.008	602.37987
532.482	557.20417
532.956	526.28074
533.429	569.31118
533.903	557.17488
534.376	537.14205
534.849	603.33152
535.322	580.30546
535.795	545.27126
536.268	516.18489
536.741	537.23146
537.213	583.28247
537.686	546.28183
538.158	528.14065
538.631	566.29727
539.103	579.25607
539.575	568.12544
540.047	582.22044
540.519	554.27074
540.991	560.2999
541.463	567.30968
541.934	583.27711
542.406	562.28757
542.877	609.32404
543.348	587.34787
543.82	564.30352
544.291	584.28978
544.762	550.24542
545.233	587.39664
545.703	626.31862
546.174	652.42814
546.645	615.40378
547.115	718.61834
547.585	670.44046
548.056	738.67223
548.526	745.64196
548.996	741.63177
549.466	757.68163
549.935	808.75005
550.405	813.6264
550.875	803.72924
551.344	799.75809
551.814	805.7002
552.283	774.52078
552.752	912.9066
553.221	892.7875
553.69	853.69786
554.159	937.06174
554.628	997.96647
555.096	931.11919
555.565	898.81195
556.033	898.8831
556.502	826.81563
556.97	828.66904
557.438	776.68213
557.906	831.78193
558.374	790.66303
558.842	703.55644
559.31	801.64448
559.777	734.63691
560.245	796.71746
560.712	809.72504
561.18	838.72168
561.647	817.67209
562.114	875.80462
562.581	840.86646
563.048	897.85664
563.514	862.90981
563.981	882.80809
564.448	918.84812
564.914	934.94058
565.381	1004.99831
565.847	1031.11172
566.313	1048.12685
566.779	1092.07988
567.245	1129.26195
567.711	1151.35786
568.176	1187.25532
568.642	1220.5748
569.108	1275.60749
569.573	1307.56171
570.038	1327.30521
570.504	1366.44856
570.969	1430.9084
571.434	1464.59438
571.899	1502.83298
572.363	1573.75501
572.828	1620.79747
573.293	1603.81366
573.757	1654.83414
574.222	1736.90996
574.686	1815.01253
575.15	1787.12162
575.614	1753.95842
576.078	1820.13625
576.542	1796.97107
577.006	1852.985
577.469	1855.30819
577.933	1902.07764
578.396	1825.10799
578.86	1740.03972
579.323	1811.20143
579.786	1880.85984
580.249	1801.0457
580.712	1765.18178
581.175	1744.20132
581.637	1681.84052
582.1	1811.87851
582.563	1682.65699
583.025	1706.10804
583.487	1644.5008
583.95	1641.71323
584.412	1682.63441
584.874	1623.97561
585.336	1635.93982
585.797	1511.53902
586.259	1487.75783
586.721	1442.69054
587.182	1454.65865
587.643	1349.48383
588.105	1389.66812
588.566	1365.2823
589.027	1321.63152
589.488	1324.47092
589.949	1343.64837
590.41	1308.08405
590.87	1268.35566
591.331	1156.08982
591.791	1249.43637
592.252	1218.36182
592.712	1223.4405
593.172	1201.3018
593.632	1222.25764
594.092	1154.19722
594.552	1136.09619
595.011	1164.27504
595.471	1109.10064
595.931	1077.06954
596.39	1173.40836
596.849	1142.27703
597.308	1130.09751
597.768	1086.41412
598.227	1084.21994
598.685	1066.08214
599.144	1078.17793
599.603	1136.31511
600.062	1081.99922
600.52	1156.20104
600.978	1119.25524
601.437	1117.16094
601.895	1073.96175
602.353	1070.03984
602.811	1206.28433
603.269	1199.43432
603.727	1165.39405
604.184	1184.28923
604.642	1176.44957
605.099	1234.38047
605.557	1283.59097
606.014	1344.39916
606.471	1308.71513
606.928	1367.43603
607.385	1503.95208
607.842	1521.67724
608.299	1567.84403
608.755	1512.87257
609.212	1499.58934
609.668	1534.67032
610.125	1568.92929
610.581	1595.87335
611.037	1528.69587
611.493	1488.74953
611.949	1534.983
612.405	1494.31842
612.861	1479.72677
613.316	1532.86321
613.772	1567.79705
614.227	1553.87361
614.683	1573.55597
615.138	1619.88888
615.593	1628.88066
616.048	1597.75678
616.503	1609.00866
616.958	1635.16149
617.412	1617.91023
617.867	1520.61411
618.321	1573.47679
618.776	1581.6832
619.23	1571.8242
619.684	1581.72612
620.138	1631.84094
620.592	1529.91123
621.046	1523.75414
621.5	1551.96594
621.954	1513.64248
622.407	1525.62069
622.861	1491.84685
623.314	1557.70706
623.768	1435.66369
624.221	1453.25487
624.674	1424.60359
625.127	1428.64218
625.58	1354.47638
626.033	1311.31909
626.485	1321.59041
626.938	1320.55642
627.39	1294.48345
627.843	1283.44056
628.295	1208.31027
628.747	1259.47322
629.199	1202.28444
629.651	1165.2444
630.103	1166.27147
630.555	1093.96833
631.006	1094.19222
631.458	1075.19309
631.909	1033.02656
632.361	1013.05989
632.812	1002.03795
633.263	1016.8923
633.714	982.82163
634.165	996.13644
634.616	926.96997
635.067	896.74845
635.518	909.9225
635.968	858.5336
636.419	823.61985
636.869	816.74636
637.319	844.75735
637.769	786.62054
638.219	740.59314
638.669	730.6072
639.119	765.71976
639.569	775.69956
640.019	770.6138
640.468	724.48857
640.918	712.56558
641.367	723.49619
641.816	723.50553
642.265	635.37537
642.714	648.39789
643.163	739.58589
643.612	678.55608
644.061	704.42141
644.51	723.56151
644.958	654.35293
645.406	659.48073
645.855	601.39709
646.303	628.37609
646.751	673.45281
647.199	658.40068
647.647	610.32987
648.095	667.45335
648.543	635.23351
648.99	619.38111
649.438	617.36927
649.885	648.50437
650.333	684.25534
650.78	667.52685
651.227	645.49769
651.674	581.25559
652.121	614.40346
652.568	632.45448
653.015	615.44931
653.461	667.48403
653.908	658.44129
654.354	586.31629
654.801	575.29076
655.247	657.36188
655.693	630.54958
656.139	608.38472
656.585	600.35273
657.031	551.2444
657.477	563.17872
657.922	599.31937
658.368	556.30634
658.813	571.24763
659.259	528.22408
659.704	530.18158
660.149	576.29486
660.594	566.28741
661.039	500.10494
661.484	569.28145
661.929	541.21086
662.373	543.32832
662.818	572.3617
663.262	510.18556
663.707	534.2925
664.151	517.21484
664.595	553.26515
665.039	506.21269
665.483	531.29653
665.927	527.18626
666.371	458.0431
666.814	497.14324
667.258	501.17124
667.701	481.00499
668.145	491.17603
668.588	448.06329
669.031	509.17462
669.474	504.16975
669.917	469.00628
670.36	498.19893
670.803	511.17081
671.245	470.97535
671.688	451.05829
672.13	487.06876
672.573	469.13263
673.015	488.13969
673.457	507.07206
673.899	482.1164
674.341	456.07025
674.783	435.01631
675.225	418.99835
675.666	480.13719
676.108	426.90929
676.549	504.14297
676.991	515.11418
677.432	515.02619
677.873	442.99363
678.314	457.06321
678.755	510.19301
679.196	507.12346
679.637	493.14891
680.078	412.93796
680.518	476.06713
680.959	468.09719
681.399	483.16167
681.839	480.12405
682.28	474.13115
682.72	447.00549
683.16	430.02989
683.6	480.04785
684.039	444.90659
684.479	439.05129
684.919	473.07668
685.358	459.12051
685.798	460.16049
686.237	485.12891
686.676	472.04382
687.115	466.05409
687.554	511.15629
687.993	428.92345
688.432	467.0364
688.871	465.03537
689.309	522.1872
689.748	441.8876
690.186	439.00639
690.625	496.10885
691.063	515.18565
691.501	476.11684
691.939	434.04107
692.377	422.99749
692.815	514.1784
693.253	505.16028
693.69	500.06484
694.128	465.09502
694.565	499.13367
695.003	516.24419
695.44	527.18432
695.877	518.17191
696.314	494.01189
696.751	502.083
697.188	502.10751
697.625	492.07318
698.061	500.15359
698.498	501.14741
698.934	499.1547
699.371	518.17334
699.807	495.11776
700.243	507.17185
700.679	555.19421
701.115	530.17329
701.551	534.19247
701.987	546.17305
702.422	539.22617
702.858	520.17024
703.294	482.04422
703.729	511.19326
704.164	506.16606
704.599	525.11745
705.035	516.12562
705.47	508.20177
705.904	527.18916
706.339	509.09977
706.774	510.14114
707.209	466.0421
707.643	539.23259
708.078	533.25297
708.512	464.12664
708.946	460.04556
709.38	461.04678
709.814	505.09624
710.248	430.00362
710.682	558.25946
711.116	516.19197
711.549	467.14303
711.983	477.06214
712.416	482.0899
712.85	529.25417
713.283	488.11334
713.716	502.18801
714.149	447.01493
714.582	528.14211
715.015	441.04484
715.448	497.1868
715.881	463.9649
716.313	435.99131
716.746	491.11592
717.178	442.0236
717.61	434.04422
718.043	467.10528
718.475	416.96922
718.907	449.08221
719.339	479.0547
719.77	411.95475
720.202	444.07357
720.634	481.13671
721.065	429.98986
721.497	457.0749
721.928	447.06316
722.359	455.07683
722.79	494.15283
723.221	464.10725
723.652	402.98649
724.083	427.95224
724.514	410.92133
724.945	386.89226
725.375	464.06062
725.806	383.9188
726.236	390.96165
726.666	405.93375
727.096	407.97301
727.526	390.96412
727.956	380.84798
728.386	386.92089
728.816	348.86096
729.246	410.98112
729.675	363.88175
730.105	350.82959
730.534	394.89917
730.964	337.82474
731.393	358.85378
731.822	393.971
732.251	311.77128
732.68	358.8167
733.109	306.74013
733.537	340.80932
733.966	357.87691
734.395	357.80933
734.823	336.73802
735.251	377.89443
735.68	370.89959
736.108	329.80995
736.536	323.74682
736.964	353.80871
737.392	313.76943
737.82	323.76399
738.247	316.74208
738.675	335.78101
739.102	334.82301
739.53	303.76185
739.957	339.85448
740.384	301.72104
740.811	283.70212
741.238	328.78735
741.665	276.63499
742.092	291.68778
742.519	261.64281
742.945	321.76043
743.372	321.78472
743.798	299.75611
744.225	293.69063
744.651	297.73307
745.077	297.72957
745.503	319.7624
745.929	292.69241
746.355	297.72337
746.781	279.68334
747.207	312.7384
747.632	291.71404
748.058	300.73762
748.483	275.63333
748.908	228.56372
749.334	308.74833
749.759	233.54538
750.184	273.65198
750.609	305.74118
751.033	266.62273
751.458	262.58638
751.883	238.58564
752.307	285.67152
752.732	237.59871
753.156	289.71255
753.58	280.66294
754.005	241.60186
754.429	248.58673
754.853	259.63648
755.277	202.47681
755.7	268.66042
756.124	229.56858
756.548	243.5819
756.971	201.48574
757.394	258.65999
757.818	176.45262
758.241	224.56659
758.664	193.49174
759.087	193.4429
759.51	232.57193
759.933	235.57003
760.356	194.49455
760.778	295.72519
761.201	218.53088
761.623	229.5488
762.046	197.46996
762.468	174.41406
762.89	166.40999
763.312	251.61568
763.734	193.46746
764.156	200.49541
764.578	246.57118
765	223.546
765.421	180.46113
765.843	171.44641
766.264	235.56489
766.686	180.44848
767.107	141.3455
767.528	120.30969
767.949	155.3973
768.37	136.3338
768.791	154.3777
769.212	129.33066
769.632	159.37931
770.053	139.36868
770.473	164.40252
770.894	169.421
771.314	139.33186
771.734	182.4311
772.154	109.28047
772.575	175.40738
772.994	103.24129
773.414	147.35592
773.834	164.41365
774.254	171.42691
774.673	117.2885
775.093	146.36549
775.512	102.25507
775.931	100.25718
776.351	131.32918
776.77	129.32113
777.189	100.2429
777.607	117.30231
778.026	128.32493
778.445	106.27175
778.864	123.3176
779.282	124.30435
779.701	101.25689
780.119	150.39046
780.537	121.30776
780.955	101.25726
781.373	73.1841
781.791	118.27215
782.209	101.23651
782.627	138.36951
783.045	126.29857
783.462	103.26798
783.88	122.31877
784.297	79.20321
784.715	96.25152
785.132	133.3294
785.549	109.27842
785.966	114.29022
786.383	125.31185
786.8	102.24273
787.217	109.26421
787.633	54.13869
788.05	106.25312
788.466	56.13245
788.883	92.23768
789.299	37.09171
789.715	128.31707
790.131	113.28721
790.547	68.17152
790.963	136.34267
791.379	100.25673
791.795	69.1612
792.21	91.2161
792.626	95.22829
793.041	116.29228
793.457	143.35804
793.872	106.25303
794.287	67.16503
794.702	91.22653
795.117	92.23396
795.532	93.23839
795.947	125.30311
796.362	106.25728
796.776	118.27518
797.191	61.15345
797.605	60.14809
798.02	69.17139
798.434	74.16692
798.848	97.24471
799.262	87.22207
799.676	88.21623
800.09	100.25377
800.504	39.09645
800.918	98.23411
801.331	54.14187
801.745	58.13702
802.158	78.1985
802.572	94.22893
802.985	61.14981
803.398	66.16086
803.811	28.07229
804.224	37.09308
804.637	53.13055
805.05	32.0758
805.462	46.11524
805.875	57.15089
806.288	76.18902
806.7	67.17174
807.112	40.09427
807.525	75.18765
807.937	53.13366
808.349	47.12005
808.761	101.2517
809.173	47.11636
809.584	132.32566
809.996	81.20281
810.408	71.187
810.819	155.37048
811.231	192.50422
811.642	250.60744
812.053	343.8163
812.464	288.68135
812.875	208.52743
813.286	100.26076
813.697	147.34504
814.108	79.19566
814.519	78.17674
814.929	66.17027
815.34	106.2644
815.75	109.28086
816.16	65.16416
816.571	45.11772
816.981	72.17233
817.391	123.30195
817.801	106.27023
818.211	10.02421
818.62	87.21555
819.03	73.1812
819.44	77.20192
819.849	31.07916
820.259	61.15653
820.668	61.15411
821.077	85.21651
821.486	89.21647
821.895	41.10229
822.304	62.16634
822.713	70.17003
823.122	76.19273
823.531	77.18777
823.939	46.11524
824.348	114.28167
824.756	100.25422
825.164	70.17732
825.573	99.25554
825.981	53.13347
826.389	66.16915
826.797	11.02796
827.205	75.17769
827.612	92.23106
828.02	29.07056
828.428	80.20725
828.835	60.16034
829.243	100.24408
829.65	35.08915
830.057	121.29781
830.464	51.12677
830.871	86.20866
831.278	63.15443
831.685	101.23039
832.092	97.24208
832.499	33.07449
832.905	40.10295
833.312	70.16382
833.718	75.18982
834.124	33.07722
834.531	64.16305
834.937	18.04644
835.343	96.23545
835.749	32.07548
836.155	40.10615
836.561	71.17874
836.966	95.23511
837.372	68.17555
837.777	87.22129
838.183	64.14449
838.588	22.05527
838.993	28.06959
839.399	60.14955
839.804	50.12454
840.209	67.1751
840.613	56.12833
841.018	22.05654
841.423	56.14543
841.828	65.16807
842.232	71.17726
842.637	81.19553
843.041	41.10792
843.445	28.07186
843.849	22.05557
844.253	81.19598
844.657	40.10345
845.061	40.09391
845.465	68.16765
845.869	80.19016
846.272	39.09779
846.676	54.13186
847.079	89.23132
847.483	35.08827
847.886	47.1144
848.289	78.21044
848.692	49.12617
849.095	70.1722
849.498	65.16457
849.901	83.19261
850.304	56.13735
850.707	75.19198
851.109	50.12697
851.512	109.27272
851.914	58.15145
852.316	4.01024
852.718	40.10576
853.121	53.13261
853.523	94.22627
853.925	55.14671
854.326	22.05597
854.728	102.26579
855.13	36.09554
855.531	73.18014
855.933	-12.02929
856.334	49.12494
856.736	54.12514
857.137	19.0454
857.538	77.19806
857.939	95.24018
858.34	72.17777
858.741	55.14535
859.142	41.10099
859.542	58.15572
859.943	57.14375
860.343	18.04578
860.744	61.15075
861.144	21.05182
861.544	65.16128
861.945	83.21617
862.345	45.11178
862.745	60.1535
863.145	69.16656
863.544	77.19648
863.944	60.14311
864.344	64.16085
864.743	55.13736
865.143	105.27159
865.542	66.15694
865.941	77.19481
866.34	69.16744
866.74	26.07051
867.139	69.1702
867.537	78.20011
867.936	89.21808
868.335	70.18065
868.734	75.1966
869.132	68.16263
869.531	52.12626
869.929	109.25555
870.327	108.26341
870.726	8.02017
871.124	93.22178
871.522	74.19104
871.92	101.25252
872.318	34.08484
872.715	59.14618
873.113	47.11777
873.511	91.23212
873.908	61.15882
874.306	111.28113
874.703	17.04329
875.1	66.17021
875.497	68.16777
875.894	60.15161
876.291	48.11956
876.688	64.16939
877.085	91.21917
877.482	54.13694
877.878	72.17698
878.275	74.19144
878.671	85.19272
879.068	50.12291
879.464	48.11816
879.86	38.09185
880.256	79.1968
880.652	55.14221
881.048	54.13504
881.444	25.06019
881.84	45.11603
882.236	7.01795
882.631	73.18384
883.027	64.15592
883.422	46.11917
883.817	77.19986
884.213	94.24436
884.608	25.06332
885.003	79.19516
885.398	59.15208
885.793	48.1222
886.188	91.23195
886.582	61.15603
886.977	64.15487
887.371	-2.00511
887.766	47.11993
888.16	43.10899
888.554	45.11198
888.949	35.08893
889.343	37.0915
889.737	71.19364
890.131	19.04828
890.525	42.10896
890.918	-3.00767
891.312	-25.06085
891.706	9.02367
892.099	31.0793
892.492	84.18607
892.886	53.13122
893.279	86.22233
893.672	-14.03598
894.065	42.10655
894.458	97.2482
894.851	70.17334
895.244	40.10355
895.637	78.19152
896.029	25.06235
896.422	81.19944
896.814	46.11599
897.206	21.05136
897.599	41.1021
897.991	46.11274
898.383	99.23998
898.775	49.11317
899.167	50.12054
899.559	51.13041
899.951	44.10571
900.342	2.00515
900.734	29.07473
901.125	80.21117
901.517	59.14815
901.908	58.14051
902.299	85.21413
902.69	68.16424
903.082	71.17411
903.473	85.20867
903.863	54.1397
904.254	50.12004
904.645	67.16873
905.036	56.13908
905.426	49.11371
905.817	28.07058
906.207	62.15201
906.597	17.04053
906.987	31.08171
907.378	14.03586
907.768	77.2054
908.158	22.05488
908.547	53.1395
908.937	37.09544
909.327	70.17366
909.717	62.15784
910.106	50.12213
910.495	70.17694
910.885	79.20314
911.274	30.0764
911.663	11.02819
912.052	29.07227
912.441	-6.01552
912.83	83.19512
913.219	44.11607
913.608	44.10927
913.997	55.14103
914.385	39.09447
914.774	60.14814
915.162	61.14936
915.55	36.08859
915.939	36.09259
916.327	-11.02779
916.715	33.08554
917.103	76.18764
917.491	64.15871
917.878	36.08879
918.266	-19.04982
918.654	51.13319
919.041	12.03212
919.429	62.1497
919.816	39.09976
920.203	42.10431
920.591	25.06291
920.978	1.00247
921.365	16.04276
921.752	52.12711
922.139	61.13712
922.525	74.18277
922.912	28.06936
923.299	47.11929
923.685	55.14569
924.072	10.02337
924.458	-3.00763
924.844	35.08871
925.231	55.13111
925.617	39.10147
926.003	43.11119
926.389	19.04901
926.774	56.14382
927.16	56.1412
927.546	86.22371
927.931	73.1843
928.317	26.06092
928.702	38.09095
929.088	62.1506
929.473	2.00519
929.858	14.03505
930.243	26.06417
930.628	57.14298
931.013	34.08622
931.398	51.11877
931.783	42.11101
932.167	87.21752
932.552	36.09077
932.937	27.06804
933.321	69.17606
933.705	76.19444
934.09	40.10136
934.474	49.11811
934.858	25.06591
935.242	51.12148
935.626	53.1386
936.009	3.00802
936.393	30.07742
936.777	20.05228
937.16	5.01318
937.544	18.04315
937.927	27.07039
938.311	90.22025
938.694	22.05864
939.077	58.14141
939.46	21.05121
939.843	100.2155
940.226	49.12749
940.609	125.29535
940.991	42.10877
941.374	38.09503
941.757	33.08227
942.139	120.27753
942.522	54.12856
942.904	20.04927
943.286	-13.03354
943.668	80.20925
944.05	70.17511
944.432	66.16707
944.814	-10.025
945.196	40.10086
945.578	75.18528
945.959	51.12232
946.341	29.07085
946.722	50.11931
947.104	42.10275
947.485	79.18688
947.866	81.20966
948.247	1.00256
948.628	62.15167
949.009	61.15914
949.39	51.1283
949.771	55.13076
950.152	32.08077
950.532	31.07893
950.913	53.13002
951.293	33.09067
951.674	110.27388
952.054	80.20323
952.434	36.09068
952.814	61.14775
953.194	64.16757
953.574	19.04718
953.954	73.17629
954.334	66.16713
954.714	29.07272
955.093	32.07953
955.473	2.0051
955.853	19.04981
956.232	7.01926
956.611	28.06842
956.99	48.12358
957.37	44.11415
957.749	63.15369
958.128	73.18778
958.506	76.20149
958.885	69.17712
959.264	98.24693
959.643	26.06047
960.021	0
960.4	63.14684
960.778	69.17171
961.156	38.09766
961.535	18.04293
961.913	43.10298
962.291	65.17166
962.669	-9.02322
963.047	25.06455
963.424	43.11103
963.802	94.23464
964.18	60.15296
964.557	75.1757
964.935	43.104
965.312	14.03697
965.69	41.10329
966.067	86.21257
966.444	40.09945
966.821	18.04699
967.198	65.1591
967.575	22.05434
967.952	31.07447
968.329	70.17308
968.705	1.00221
969.082	55.14383
969.458	58.14399
969.835	42.10377
970.211	85.22176
970.587	33.0834
970.963	37.09587
971.339	13.03462
971.715	40.10133
972.091	44.11027
972.467	66.16666
972.843	21.0533
973.219	44.10595
973.594	59.15791
973.97	41.09894
974.345	38.09334
974.721	3.00734
975.096	63.1546
975.471	71.17107
975.846	44.10732
976.221	62.16134
976.596	24.05934
976.971	62.15476
977.346	52.12241
977.72	42.10899
978.095	54.14168
978.469	35.08484
978.844	11.02791
979.218	-20.04938
979.593	32.07796
979.967	63.15546
980.341	6.01418
980.715	69.1765
981.089	13.03284
981.463	83.19725
981.837	14.03526
982.21	65.15281
982.584	56.13791
982.957	62.15806
983.331	47.11354
983.704	20.04933
984.078	74.18559
984.451	16.04008
984.824	19.04761
985.197	36.08879
985.57	51.12958
985.943	33.082
986.316	68.16845
986.688	40.09771
987.061	81.19435
987.434	34.0899
987.806	75.18453
988.179	80.19308
988.551	63.16211
988.923	33.08275
989.295	36.08954
989.667	31.07669
990.039	50.12675
990.411	68.15933
990.783	54.12643
991.155	38.0952
991.527	17.04223
991.898	51.12977
992.27	20.05036
992.641	23.05842
993.012	51.12214
993.384	41.09901
993.755	69.17903
994.126	6.01475
994.497	30.07548
994.868	92.21548
995.239	6.01483
995.61	36.09275
995.98	65.16199
996.351	-7.0178
996.722	80.19169
997.092	13.03181
997.462	52.12536
997.833	49.1177
998.203	47.115
998.573	29.07335
998.943	72.17292
999.313	32.07895
999.683	47.11653
1000.053	20.04756
1000.423	55.13452
1000.792	77.20253
1001.162	11.02755
1001.531	58.1453
1001.901	86.21917
1002.27	33.07582
1002.639	61.15855
1003.009	41.09882
1003.378	15.03875
1003.747	75.18173
1004.116	12.0296
1004.485	44.10632
1004.853	55.14093
1005.222	23.05856
1005.591	63.15145
1005.959	58.13579
1006.328	54.12479
1006.696	57.14143
1007.064	76.19211
1007.433	49.12371
1007.801	16.03966
1008.169	21.05341
1008.537	24.05489
1008.905	13.03141
1009.273	-21.05271
1009.64	42.10374
1010.008	85.20619
1010.375	-14.03385
1010.743	97.22456
1011.11	70.16946
1011.478	27.06778
1011.845	49.11703
1012.212	46.10757
1012.579	22.05474
1012.946	100.23907
1013.313	57.13661
1013.68	23.05291
1014.047	28.06893
1014.414	41.09961
1014.78	4.01011
1015.147	21.05117
1015.513	27.06665
1015.88	13.03343
1016.246	34.08379
1016.612	14.03252
1016.978	57.14174
1017.344	90.22579
1017.71	8.01962
1018.076	-2.00482
1018.442	51.13132
1018.808	51.12958
1019.174	21.054
1019.539	42.09648
1019.905	-2.00486
1020.27	36.09113
1020.636	29.07088
1021.001	33.08023
1021.366	36.08856
1021.731	1.00259
1022.096	33.08506
1022.461	53.1276
1022.826	64.15406
1023.191	27.07159
1023.556	48.1155
1023.92	29.07198
1024.285	28.06967
1024.649	27.0676
1025.014	76.19033
1025.378	15.03857
1025.742	60.15161
1026.107	76.17354
1026.471	45.10534
1026.835	63.15939
1027.199	75.18725
1027.562	57.13489
1027.926	25.0621
1028.29	76.1958
1028.654	53.12455
1029.017	25.06199
1029.381	7.01721
1029.744	19.04896
1030.107	44.10555
1030.471	-24.0586
1030.834	34.07879
1031.197	24.05819
1031.56	-6.01449
1031.923	39.10199
1032.286	70.16594
1032.648	90.21902
1033.011	33.0771
1033.374	28.06645
1033.736	33.08829
1034.099	90.22303
1034.461	7.01796
1034.823	-26.06633
1035.185	37.09454
1035.548	62.15398
1035.91	66.16044
1036.272	-7.01626
1036.634	9.02224
1036.995	86.20639
1037.357	0
1037.719	-4.00985
1038.08	48.11524
1038.442	60.14415
1038.803	51.12386
1039.165	73.18791
1039.526	49.12016
1039.887	38.09303
1040.248	-9.02273
1040.609	45.11125
1040.97	53.13227
1041.331	44.11281
1041.692	67.16247
1042.053	55.12814
1042.413	45.10699
1042.774	55.13507
1043.134	89.21444
1043.495	19.04828
1043.855	16.03962
1044.215	63.15911
1044.576	57.14076
1044.936	48.11203
1045.296	53.13371
1045.656	9.02238
1046.016	41.0998
1046.375	38.0931
1046.735	34.07954
1047.095	7.0168
1047.454	90.19329
1047.814	48.11729
1048.173	-21.05025
1048.533	49.1143
1048.892	5.01247
1049.251	63.15985
1049.61	40.09999
1049.969	73.17715
1050.328	49.10879
1050.687	29.07172
1051.046	12.02953
1051.405	37.09441
1051.763	66.15525
1052.122	20.0509
1052.48	-26.06469
1052.839	29.06979
1053.197	82.19649
1053.555	7.01587
1053.914	12.02958
1054.272	38.09203
1054.63	44.11047
1054.988	43.10466
1055.345	23.05115
1055.703	42.10236
1056.061	20.05213
1056.419	26.06826
1056.776	7.01712
1057.134	24.05709
1057.491	35.08852
1057.848	9.0226
1058.206	49.11761
1058.563	24.05431
1058.92	18.04191
1059.277	96.23676
1059.634	39.09308
1059.991	67.16259
1060.348	37.08637
1060.704	20.04907
1061.061	40.09394
1061.418	22.05422
1061.774	21.05294
1062.131	2.00542
1062.487	47.11226
1062.843	25.06291
1063.199	56.14206
1063.555	58.13829
1063.911	-4.0102
1064.267	33.07028
1064.623	-7.0175
1064.979	70.1669
1065.335	38.09154
1065.691	25.06078
1066.046	-25.05553
1066.402	23.05439
1066.757	24.06116
1067.112	46.11345
1067.468	128.31242
1067.823	82.20015
1068.178	43.10478
1068.533	74.18156
1068.888	40.09665
1069.243	27.0677
1069.598	48.11869
1069.952	47.1095
1070.307	69.17526
1070.662	-7.01701
1071.016	20.04622
1071.371	22.05112
1071.725	40.09691
1072.079	20.04871
1072.434	75.18535
1072.788	18.04405
1073.142	60.14993
1073.496	29.07011
1073.85	-7.01652
1074.203	106.26267
1074.557	27.07283
1074.911	7.01687
1075.265	30.07115
1075.618	37.0908
1075.971	45.10871
1076.325	19.04928
1076.678	56.13239
1077.031	56.13024
1077.385	67.15197
1077.738	28.0652
1078.091	26.06121
1078.444	67.15776
1078.796	22.05464
1079.149	50.12517
1079.502	69.16851
1079.855	50.11972
1080.207	27.06758
1080.56	47.12262
1080.912	26.06401
1081.264	29.07122
1081.617	72.17979
1081.969	15.03897
1082.321	13.03221
1082.673	16.03803
1083.025	48.11642
1083.377	-144.33145
1083.728	14.03315
1084.08	30.07586
1084.432	51.12543
1084.783	25.05957
1085.135	13.03328
1085.486	63.14932
1085.838	47.11785
1086.189	8.01973
1086.54	24.05819
1086.891	51.13151
1087.242	23.05653
1087.593	62.15207
1087.944	-20.04637
1088.295	27.06278
1088.646	47.11662
1088.996	-26.06441
1089.347	0
1089.698	20.04865
1090.048	-7.01825
1090.398	30.07043
1090.749	68.16505
1091.099	73.18941
1091.449	32.08089
1091.799	24.06129
1092.149	62.15678
1092.499	-6.01496
1092.849	84.21626
1093.199	3.00758
1093.548	32.07895
1093.898	54.13699
1094.248	3.00781
1094.597	58.15238
1094.947	37.09932
1095.296	24.06004
1095.645	50.13096
1095.994	2.00489
1096.343	52.1321
1096.692	97.26259
1097.041	-37.10159
1097.39	68.17415
1097.739	49.12845
1098.088	93.24939
1098.437	26.06962
1098.785	33.08884
1099.134	25.0668
1099.482	31.08614
1099.83	43.11303
1100.179	47.12542
1100.527	30.0802
1100.875	22.05897
1101.223	5.01344
1101.571	22.06148
1101.919	52.13929
1102.267	25.07085
1102.615	22.07083
1102.962	17.05465
1103.31	16.05149
1103.658	24.07731
