Data from N2 R0 60C sample11_Subt2__6__11-34-30-688.txt Node

Date: Tue Aug 19 11:34:30 PDT 2025
User: uwsun
Spectrometer: HDX01956
Trigger mode: 0
Integration Time (sec): 5.000000E-1
Scans to average: 1
Nonlinearity correction enabled: true
Boxcar width: 0
Storing dark spectrum: false
XAxis mode: Wavelengths
Number of Pixels in Spectrum: 2068
>>>>>Begin Spectral Data<<<<<
194.03	338.94408
194.578	340.06255
195.127	333.02716
195.676	325.0073
196.225	334.88086
196.773	443.19086
197.321	579.53344
197.87	823.95908
198.418	790.8687
198.966	776.88838
199.513	740.71873
200.061	810.90273
200.609	764.86816
201.156	760.54094
201.704	787.84835
202.251	779.92696
202.798	813.94857
203.345	796.8139
203.892	794.84489
204.438	839.83304
204.985	847.86141
205.532	847.03873
206.078	825.86073
206.624	826.87168
207.17	828.76291
207.716	819.83218
208.262	753.37219
208.808	835.9146
209.354	812.82731
209.899	837.91307
210.445	848.94402
210.99	860.90775
211.535	917.95292
212.08	848.82347
212.625	833.91763
213.17	819.90185
213.715	840.75831
214.259	834.77877
214.804	815.8322
215.348	851.76135
215.892	803.76616
216.436	844.78224
216.98	850.72833
217.524	777.69895
218.068	901.07059
218.612	822.89569
219.155	801.7323
219.698	797.7493
220.242	762.75592
220.785	725.57317
221.328	715.65249
221.871	723.68815
222.414	751.72954
222.956	761.72263
223.499	735.54004
224.041	748.61451
224.583	732.44355
225.126	690.42559
225.668	703.59063
226.21	701.64635
226.751	717.47913
227.293	742.59062
227.835	731.6721
228.376	720.54077
228.918	759.77153
229.459	751.73708
230	671.49663
230.541	741.61337
231.082	707.57504
231.622	728.55119
232.163	694.57757
232.704	743.69684
233.244	722.66372
233.784	747.6875
234.324	779.60861
234.864	727.53532
235.404	701.55265
235.944	726.59238
236.484	739.68634
237.023	740.63467
237.563	765.62975
238.102	740.59928
238.641	713.68104
239.18	729.5993
239.719	773.78304
240.258	760.5809
240.797	695.56742
241.335	766.72939
241.874	745.35553
242.412	791.76372
242.95	785.7316
243.488	720.54276
244.026	770.63012
244.564	768.46009
245.102	733.53043
245.64	791.73103
246.177	730.5319
246.715	801.76397
247.252	741.57994
247.789	770.33849
248.326	798.77751
248.863	802.63137
249.4	797.66345
249.936	736.40118
250.473	805.73133
251.009	764.63852
251.546	718.47954
252.082	820.64079
252.618	812.64724
253.154	821.81858
253.69	813.66089
254.226	786.72045
254.761	824.71796
255.297	739.49319
255.832	788.70019
256.367	799.7368
256.903	780.55706
257.438	806.72643
257.972	835.70742
258.507	814.72634
259.042	781.58104
259.576	834.66269
260.111	796.68521
260.645	803.57155
261.179	792.69351
261.713	849.73373
262.247	817.73384
262.781	841.61345
263.315	834.873
263.849	842.92642
264.382	813.69838
264.915	890.904
265.449	837.90159
265.982	860.78594
266.515	858.87968
267.048	844.65307
267.58	850.68992
268.113	851.67739
268.646	842.89869
269.178	824.68909
269.71	841.68015
270.243	839.73495
270.775	830.9111
271.307	885.90998
271.838	853.80557
272.37	859.91065
272.902	890.81794
273.433	817.61104
273.965	877.92574
274.496	836.86524
275.027	836.88439
275.558	916.9891
276.089	894.99874
276.62	870.99524
277.15	838.84971
277.681	910.78084
278.211	819.78104
278.741	860.72807
279.272	873.79647
279.802	900.00044
280.332	858.83314
280.861	864.88172
281.391	879.79586
281.921	962.05019
282.45	929.07134
282.98	910.12235
283.509	977.92248
284.038	930.89115
284.567	905.8657
285.096	950.04377
285.625	920.88267
286.153	883.84878
286.682	881.81862
287.21	908.96422
287.739	953.01216
288.267	943.02912
288.795	882.04738
289.323	955.00937
289.851	990.05628
290.378	909.83459
290.906	947.0473
291.433	899.99302
291.961	927.87181
292.488	961.10227
293.015	1038.14658
293.542	981.2044
294.069	943.04124
294.596	994.14126
295.122	965.03399
295.649	959.85875
296.175	1022.18945
296.702	1051.19715
297.228	1015.14044
297.754	1116.18206
298.28	982.97257
298.806	1047.18109
299.332	1098.10041
299.857	1050.05082
300.383	1029.25962
300.908	985.11147
301.433	1010.12757
301.958	1039.06032
302.483	992.17786
303.008	1074.28618
303.533	1054.35356
304.058	1105.23206
304.582	1026.12268
305.107	1109.50116
305.631	1105.13057
306.155	1097.20076
306.679	1069.13369
307.203	1139.25274
307.727	1087.20962
308.251	1137.38547
308.775	1167.35749
309.298	1175.41355
309.822	1202.5511
310.345	1186.38994
310.868	1183.37358
311.391	1168.41683
311.914	1204.53882
312.437	1215.30977
312.96	1196.35637
313.482	1187.3533
314.005	1249.61031
314.527	1182.63071
315.049	1199.51015
315.571	1279.37674
316.093	1353.72754
316.615	1353.65822
317.137	1309.31315
317.659	1333.65668
318.18	1289.51692
318.702	1283.42294
319.223	1389.31387
319.744	1387.49584
320.265	1342.64947
320.786	1401.80136
321.307	1389.78114
321.828	1460.61781
322.348	1447.7164
322.869	1493.80711
323.389	1212.44242
323.909	1470.6318
324.43	1470.74831
324.95	1536.71703
325.47	1509.87442
325.989	1553.81851
326.509	1568.65178
327.029	1598.70865
327.548	1568.69008
328.067	1663.04816
328.587	1698.14111
329.106	1616.70727
329.625	1666.27533
330.144	1715.94173
330.662	1666.82776
331.181	1728.9603
331.7	1771.0296
332.218	1849.83912
332.736	1789.03006
333.255	1790.99644
333.773	1811.05463
334.291	1882.29479
334.808	1924.00396
335.326	1922.01618
335.844	1950.15628
336.361	1983.49887
336.879	2006.24274
337.396	2025.30724
337.913	2058.14177
338.43	2112.10857
338.947	2111.27917
339.464	2195.97294
339.981	2145.32911
340.497	2195.46823
341.014	2178.47465
341.53	2198.08633
342.046	2255.49311
342.562	2297.63228
343.078	2335.39274
343.594	2311.41748
344.11	2336.37897
344.626	2358.6984
345.141	2379.21342
345.657	2366.16373
346.172	2377.48437
346.687	2435.33149
347.202	2526.23085
347.717	2608.53803
348.232	2565.72575
348.747	2577.35918
349.261	2595.16453
349.776	2594.44301
350.29	2645.7432
350.805	2780.80988
351.319	2762.46886
351.833	2640.23674
352.347	2701.43024
352.861	2717.3808
353.374	2792.29683
353.888	2865.60687
354.401	2825.35592
354.915	2832.25834
355.428	2882.73217
355.941	2926.44914
356.454	3040.19618
356.967	2948.43328
357.48	2922.29535
357.993	2981.68257
358.505	2967.61739
359.018	3082.63956
359.53	3159.61558
360.042	3144.11699
360.554	3080.54884
361.066	3146.64419
361.578	3156.99385
362.09	3129.43633
362.602	3266.05664
363.113	3289.37593
363.625	3198.18454
364.136	3360.01286
364.647	3355.42826
365.158	3453.24639
365.669	3486.40743
366.18	3479.3095
366.691	3455.9927
367.201	3479.43603
367.712	3557.15695
368.222	3575.14619
368.733	3700.93881
369.243	3753.92959
369.753	3733.22927
370.263	3794.35129
370.773	3801.39426
371.282	3900.1983
371.792	3999.13456
372.301	4082.25216
372.811	4039.67243
373.32	4175.44667
373.829	4301.97517
374.338	4527.41688
374.847	4598.64369
375.356	4743.69589
375.865	4927.88957
376.373	5072.19249
376.882	5327.67228
377.39	5255.40398
377.898	5433.4562
378.407	5767.67089
378.915	5920.36538
379.423	6155.75989
379.93	6483.39957
380.438	6682.79072
380.946	7048.61036
381.453	7327.71062
381.96	7610.76231
382.468	8119.15068
382.975	8797.05012
383.482	8858.08107
383.989	8982.42606
384.495	9344.13599
385.002	9895.85047
385.509	10496.65639
386.015	10991.72573
386.521	11482.46976
387.028	12036.86393
387.534	12367.36319
388.04	12841.99153
388.546	13099.54999
389.051	13887.6199
389.557	15030.06238
390.063	16123.10966
390.568	16603.26395
391.073	17173.66742
391.578	18008.96204
392.084	18503.32601
392.589	19274.80341
393.093	20863.5881
393.598	22748.66791
394.103	24375.75749
394.607	27002.62973
395.112	28718.29751
395.616	30205.77477
396.12	33110.98705
396.624	36754.95163
397.128	40176.77922
397.632	43991.90563
398.136	47540.4123
398.639	50785.5779
399.143	56884.1838
399.646	60172.1808
400.15	60646.882
400.653	60560.14334
401.156	60136.25446
401.659	59550.50961
402.162	58431.12733
402.664	54480.21957
403.167	49329.08451
403.67	22278.45323
404.172	2696.20453
404.674	0
405.176	0
405.678	0
406.18	0
406.682	0
407.184	0
407.686	25783.58453
408.187	43316.52985
408.688	51225.60928
409.19	54389.01922
409.691	56215.4214
410.192	57270.57019
410.693	57845.40442
411.194	58219.2365
411.694	58633.01717
412.195	59215.68848
412.696	59364.60701
413.196	59341.61941
413.696	59632.46864
414.196	59367.6054
414.696	59763.40624
415.196	59913.34014
415.696	60584.13941
416.196	61381.18813
416.695	56319.28454
417.195	50158.54483
417.694	47332.77619
418.194	44706.19524
418.693	42010.07505
419.192	40928.80951
419.691	40222.30448
420.19	39424.20038
420.688	38290.61921
421.187	36678.65568
421.685	33742.06859
422.184	30411.16125
422.682	26430.24793
423.18	22718.86654
423.678	20681.97202
424.176	19151.48528
424.674	18128.1459
425.172	17109.89157
425.669	16123.83365
426.167	14801.40637
426.664	13585.23049
427.161	12505.02057
427.659	11730.45914
428.156	10904.08369
428.652	10376.05264
429.149	9786.26875
429.646	9400.32077
430.143	8963.31363
430.639	8472.50011
431.135	7989.15373
431.632	7434.49048
432.128	7168.62497
432.624	6772.97931
433.12	6637.32625
433.616	6353.19756
434.111	6108.68743
434.607	5984.8469
435.103	5782.19699
435.598	5672.24571
436.093	5301.10117
436.588	5020.89024
437.083	4808.12757
437.578	4649.44046
438.073	4370.18789
438.568	4317.99359
439.062	4184.33205
439.557	3997.95553
440.051	3887.75368
440.546	3754.88291
441.04	3645.29385
441.534	3574.67587
442.028	3670.20889
442.522	3463.31332
443.015	3477.80426
443.509	3378.46937
444.002	3302.49422
444.496	3219.94279
444.989	3220.43646
445.482	3196.59315
445.975	3140.19706
446.468	3187.82827
446.961	3161.89219
447.454	2974.07005
447.947	2973.40974
448.439	2893.36578
448.931	2936.16907
449.424	2773.60359
449.916	2888.51121
450.408	2715.12484
450.9	2714.50826
451.392	2724.65337
451.884	2680.17653
452.375	2646.65501
452.867	2592.08578
453.358	2626.17684
453.849	2512.84742
454.341	2452.09055
454.832	2496.91557
455.323	2421.43502
455.814	2452.19066
456.304	2408.15793
456.795	2373.14795
457.285	2343.94489
457.776	2303.04203
458.266	2269.25091
458.756	2224.22266
459.247	2202.25555
459.737	2165.26529
460.226	2166.01197
460.716	2124.25187
461.206	2056.20052
461.695	1991.2599
462.185	1961.00255
462.674	2032.05832
463.163	1896.7454
463.653	1975.70714
464.142	1878.09211
464.63	1873.15179
465.119	1879.91758
465.608	1819.91414
466.096	1746.63308
466.585	1787.84952
467.073	1780.94435
467.561	1681.87845
468.05	1729.82738
468.538	1709.99004
469.026	1630.8355
469.513	1658.72888
470.001	1567.59416
470.489	1585.78764
470.976	1539.64768
471.463	1525.83967
471.951	1504.81483
472.438	1354.47267
472.925	1386.49593
473.412	1420.65066
473.899	1391.43214
474.385	1328.54764
474.872	1337.48976
475.359	1314.55681
475.845	1299.12892
476.331	1201.0405
476.817	1219.38332
477.303	1232.29873
477.789	1183.32148
478.275	1165.36199
478.761	1207.3742
479.247	1165.16108
479.732	1130.34538
480.218	1107.40261
480.703	1085.26134
481.188	1060.90341
481.673	1003.96078
482.158	1063.93562
482.643	998.13616
483.128	1026.99305
483.612	973.94775
484.097	958.98959
484.581	958.89961
485.066	932.97759
485.55	907.75281
486.034	825.5675
486.518	951.95447
487.002	884.93503
487.486	834.80716
487.969	891.92948
488.453	794.77005
488.936	854.72545
489.42	768.5189
489.903	775.73799
490.386	772.14462
490.869	778.51788
491.352	752.65152
491.835	772.44279
492.318	816.69374
492.8	750.4265
493.283	750.7447
493.765	729.64081
494.247	703.49755
494.73	690.40776
495.212	688.52036
495.694	660.42927
496.175	707.5601
496.657	667.45704
497.139	714.15668
497.62	641.42377
498.102	602.39859
498.583	547.28742
499.064	664.40428
499.545	642.3725
500.026	615.30308
500.507	613.33952
500.988	653.5139
501.469	561.33727
501.949	571.33511
502.43	564.28182
502.91	554.11455
503.39	545.27823
503.87	603.35202
504.35	599.31882
504.83	558.17725
505.31	535.22784
505.79	543.2507
506.269	580.29267
506.749	521.14399
507.228	491.12177
507.707	531.13221
508.187	486.10208
508.666	498.18262
509.145	507.1542
509.623	472.06552
510.102	509.18486
510.581	470.08168
511.059	494.19242
511.538	505.23892
512.016	507.17927
512.494	483.13307
512.972	511.16613
513.45	460.05104
513.928	482.14545
514.406	517.2172
514.884	512.26282
515.361	467.09292
515.839	488.08735
516.316	496.1575
516.793	486.18102
517.27	487.12377
517.747	477.18134
518.224	470.06746
518.701	506.11263
519.178	438.04948
519.654	442.02077
520.131	392.94878
520.607	444.06348
521.083	435.9805
521.56	421.98993
522.036	453.98345
522.512	381.91088
522.987	395.93315
523.463	437.02578
523.939	439.04689
524.414	490.09407
524.89	431.00064
525.365	452.01198
525.84	414.98653
526.315	462.09026
526.79	461.02094
527.265	478.07996
527.74	401.9605
528.215	440.02419
528.689	409.9057
529.164	400.86231
529.638	426.07037
530.112	429.00266
530.587	420.90037
531.061	421.00044
531.534	395.93387
532.008	410.97738
532.482	414.92383
532.956	392.98005
533.429	430.01775
533.903	400.87414
534.376	401.87947
534.849	400.92205
535.322	461.06241
535.795	388.93451
536.268	375.88695
536.741	405.95491
537.213	429.97566
537.686	416.00083
538.158	397.88316
538.631	385.91587
539.103	416.93519
539.575	416.85482
540.047	367.80729
540.519	447.04685
540.991	403.96603
541.463	413.98471
541.934	447.00672
542.406	476.10901
542.877	486.08378
543.348	432.0221
543.82	447.05664
544.291	456.03352
544.762	466.07289
545.233	492.19161
545.703	505.09158
546.174	522.17427
546.645	517.20303
547.115	575.33344
547.585	530.17329
548.056	535.26158
548.526	635.43142
548.996	549.257
549.466	599.37381
549.935	642.43926
550.405	682.40527
550.875	655.4549
551.344	677.52742
551.814	673.4621
552.283	681.36704
552.752	758.63821
553.221	820.67029
553.69	769.56027
554.159	792.79681
554.628	872.76989
555.096	871.00636
555.565	863.75519
556.033	787.69042
556.502	792.75323
556.97	776.58272
557.438	775.68032
557.906	875.85861
558.374	787.6578
558.842	802.73926
559.31	830.69298
559.777	796.75259
560.245	883.86992
560.712	892.86805
561.18	997.97565
561.647	927.85045
562.114	1009.01742
562.581	991.13161
563.048	1050.09811
563.514	1056.24395
563.981	1052.0731
564.448	1103.1257
564.914	1201.34696
565.381	1194.27139
565.847	1271.46424
566.313	1305.49565
566.779	1302.35597
567.245	1363.58566
567.711	1388.69348
568.176	1433.56331
568.642	1492.96379
569.108	1525.9453
569.573	1621.9469
570.038	1651.63046
570.504	1624.7237
570.969	1775.33163
571.434	1762.88898
571.899	1829.18071
572.363	1858.01891
572.828	1962.09207
573.293	1909.09166
573.757	1925.06809
574.222	1989.11315
574.686	2064.20221
575.15	1973.28473
575.614	2060.19955
576.078	2029.31024
576.542	2113.20396
577.006	2058.13268
577.469	2137.54588
577.933	2098.2169
578.396	2013.26227
578.86	1969.24103
579.323	2052.40954
579.786	1972.92181
580.249	1926.15136
580.712	1947.35266
581.175	1918.37211
581.637	1804.95044
582.1	1856.91363
582.563	1850.78728
583.025	1744.14765
583.487	1749.581
583.95	1755.81365
584.412	1749.68827
584.874	1613.96453
585.336	1652.9578
585.797	1607.63194
586.259	1587.87184
586.721	1534.79854
587.182	1431.63144
587.643	1451.6049
588.105	1435.72656
588.566	1400.31901
589.027	1340.65778
589.488	1330.47851
589.949	1316.61131
590.41	1252.02592
590.87	1213.28373
591.331	1245.20071
591.791	1250.43775
592.252	1165.28716
592.712	1149.33162
593.172	1168.25609
593.632	1163.17974
594.092	1141.17921
594.552	1092.03679
595.011	1103.18648
595.471	1040.00257
595.931	1040.01595
596.39	1064.23754
596.849	1018.08739
597.308	1052.99139
597.768	1032.31951
598.227	939.98684
598.685	1016.00762
599.144	985.03184
599.603	1045.17308
600.062	991.87345
600.52	955.90729
600.978	974.02747
601.437	921.86562
601.895	945.78286
602.353	952.86753
602.811	1032.03645
603.269	985.0961
603.727	1004.13704
604.184	999.01576
604.642	1033.2192
605.099	985.01192
605.557	1012.16894
606.014	1066.03709
606.471	1028.26542
606.928	1089.07765
607.385	1150.44385
607.842	1118.17161
608.299	1187.35875
608.755	1105.30408
609.212	1108.10942
609.668	1175.23569
610.125	1169.39585
610.581	1081.19939
611.037	1121.18414
611.493	1021.1034
611.949	1059.28868
612.405	1025.80612
612.861	1107.22797
613.316	1046.1862
613.772	1097.19169
614.227	1055.19099
614.683	1046.94829
615.138	1058.1569
615.593	1060.14832
616.048	1016.0207
616.503	1084.2866
616.958	1039.29204
617.412	1082.20988
617.867	1031.00083
618.321	1079.93811
618.776	1055.04073
619.23	1037.11545
619.684	1061.07869
620.138	1019.05713
620.592	1023.18362
621.046	1013.06641
621.5	1049.2459
621.954	1032.02697
622.407	972.91487
622.861	928.01001
623.314	931.88418
623.768	895.88299
624.221	898.61763
624.674	910.87811
625.127	855.80666
625.58	924.87213
626.033	920.79196
626.485	853.85658
626.938	833.80001
627.39	841.78945
627.843	840.76914
628.295	782.64906
628.747	831.79645
629.199	770.61664
629.651	763.61142
630.103	759.62115
630.555	686.36284
631.006	726.57835
631.458	719.58528
631.909	692.46676
632.361	684.49515
632.812	716.55132
633.263	648.31597
633.714	674.34519
634.165	695.5878
634.616	607.37994
635.067	584.22303
635.518	579.31197
635.968	600.14296
636.419	564.17691
636.869	514.17087
637.319	548.21521
637.769	581.25238
638.219	524.17973
638.669	504.16145
639.119	550.29022
639.569	494.1465
640.019	489.08756
640.468	520.11759
640.918	480.10605
641.367	495.07586
641.816	505.10182
642.265	470.05322
642.714	430.9722
643.163	494.11527
643.612	488.16195
644.061	485.02769
644.51	523.17724
644.958	421.9175
645.406	443.03868
645.855	452.08103
646.303	498.12065
646.751	423.96319
647.199	430.9619
647.647	417.94761
648.095	469.06411
648.543	416.85135
648.99	391.91476
649.438	439.00961
649.885	447.0782
650.333	420.82295
650.78	475.12857
651.227	466.11966
651.674	360.81596
652.121	404.96382
652.568	407.98006
653.015	430.04901
653.461	376.88811
653.908	435.9989
654.354	381.89311
654.801	344.81003
655.247	477.02788
655.693	410.04847
656.139	377.89994
656.585	389.91613
657.031	394.91979
657.477	347.76234
657.922	432.98626
658.368	404.97891
658.813	375.85461
659.259	355.85262
659.704	323.75215
660.149	421.97797
660.594	397.93533
661.039	395.89364
661.484	381.89241
661.929	363.84361
662.373	437.08961
662.818	361.89557
663.262	342.82281
663.707	381.95033
664.151	355.862
664.595	302.72688
665.039	353.87221
665.483	372.93678
665.927	365.85026
666.371	337.78784
666.814	375.88523
667.258	426.01021
667.701	381.81519
668.145	360.88542
668.588	292.7153
669.031	395.93387
669.474	332.79816
669.917	340.7512
670.36	374.92323
670.803	358.84691
671.245	361.76739
671.688	329.792
672.13	336.76219
672.573	356.87978
673.015	399.94989
673.457	345.75667
673.899	365.86664
674.341	313.75663
674.783	340.81087
675.225	360.86939
675.666	420.00628
676.108	338.73523
676.549	373.86992
676.991	381.84933
677.432	377.77661
677.873	330.75891
678.314	384.90805
678.755	353.85265
679.196	380.86583
679.637	334.80418
680.078	374.85801
680.518	353.81292
680.959	356.85454
681.399	375.92213
681.839	376.90013
682.28	377.91814
682.72	347.79815
683.16	369.89598
683.6	380.84868
684.039	365.75865
684.479	363.88373
684.919	404.93423
685.358	366.91078
685.798	362.93112
686.237	413.97679
686.676	366.82888
687.115	346.80332
687.554	334.78434
687.993	384.83634
688.432	379.85814
688.871	403.91062
689.309	384.89926
689.748	336.69262
690.186	381.88543
690.625	374.85869
691.063	373.8846
691.501	358.86097
691.939	368.89573
692.377	383.91216
692.815	357.84569
693.253	383.90306
693.69	373.81773
694.128	402.96015
694.565	322.75912
695.003	418.02612
695.44	386.89404
695.877	396.91973
696.314	395.82869
696.751	385.85292
697.188	400.90292
697.625	404.89929
698.061	442.03128
698.498	415.9686
698.934	400.94551
699.371	372.86912
699.807	370.85835
700.243	428.00442
700.679	416.92331
701.115	377.86263
701.551	410.94057
701.987	418.92427
702.422	419.97793
702.858	355.8273
703.294	384.85088
703.729	374.89841
704.164	446.03982
704.599	446.96723
705.035	430.95675
705.47	399.96553
705.904	450.03104
706.339	318.71639
706.774	430.97972
707.209	385.87704
707.643	407.95702
708.078	436.04389
708.512	354.87901
708.946	325.76038
709.38	358.8315
709.814	339.76322
710.248	350.83151
710.682	374.87722
711.116	385.91411
711.549	313.78953
711.983	354.80986
712.416	381.88088
712.85	366.89652
713.283	365.85495
713.716	352.85872
714.149	347.80548
714.582	409.90872
715.015	319.77519
715.448	354.87003
715.881	345.73785
716.313	339.78754
716.746	295.69831
717.178	360.84901
717.61	271.67358
718.043	369.89162
718.475	282.67438
718.907	366.89785
719.339	321.73157
719.77	305.72337
720.202	305.75834
720.634	345.83836
721.065	286.67871
721.497	346.83307
721.928	337.82015
722.359	302.73732
722.79	374.895
723.221	315.77463
723.652	279.70026
724.083	312.71236
724.514	323.7388
724.945	322.75381
725.375	342.8025
725.806	286.69879
726.236	290.72826
726.666	338.78971
727.096	283.69262
727.526	264.66774
727.956	262.59893
728.386	279.67928
728.816	275.68948
729.246	284.69597
729.675	238.59168
730.105	254.61322
730.534	268.62717
730.964	235.58603
731.393	220.53855
731.822	267.67497
732.251	256.64128
732.68	271.62909
733.109	228.55959
733.537	276.66507
733.966	260.65012
734.395	259.59886
734.823	235.52715
735.251	285.68818
735.68	270.66877
736.108	255.63635
736.536	218.51457
736.964	222.52198
737.392	266.65959
737.82	257.61566
738.247	191.45948
738.675	242.57453
739.102	271.67554
739.53	215.54914
739.957	245.62795
740.384	190.46478
740.811	203.51101
741.238	191.47043
741.665	210.48953
742.092	234.55918
742.519	216.53641
742.945	196.47553
743.372	234.58131
743.798	234.59861
744.225	197.47302
744.651	170.4294
745.077	205.51215
745.503	190.4653
745.929	195.47106
746.355	206.51027
746.781	239.58972
747.207	199.48127
747.632	182.4556
748.058	206.5153
748.483	219.51
748.908	157.39324
749.334	193.47903
749.759	159.37757
750.184	127.31177
750.609	199.4932
751.033	200.47428
751.458	221.49881
751.883	175.43563
752.307	160.38615
752.732	172.43956
753.156	198.49637
753.58	207.49703
754.005	146.37089
754.429	158.38032
754.853	129.32462
755.277	142.33908
755.7	182.4556
756.124	123.3113
756.548	178.43154
756.971	132.32315
757.394	151.39353
757.818	132.34207
758.241	149.38192
758.664	160.41004
759.087	100.23376
759.51	122.30684
759.933	133.32879
760.356	98.25405
760.778	152.38353
761.201	167.41057
761.623	105.25758
762.046	127.30703
762.468	116.27912
762.89	90.22539
763.312	141.35291
763.734	92.22706
764.156	98.24728
764.578	161.38011
765	121.30187
765.421	101.26233
765.843	118.31084
766.264	126.30915
766.686	61.15527
767.107	89.22018
767.528	79.20533
767.949	79.20519
768.37	107.26404
768.791	104.25743
769.212	96.2475
769.632	94.22704
770.053	99.26435
770.473	91.22637
770.894	84.21248
771.314	54.13102
771.734	92.22171
772.154	88.22726
772.575	83.19672
772.994	61.14408
773.414	88.21543
773.834	83.21238
774.254	89.22549
774.673	64.15935
775.093	86.21762
775.512	25.06339
775.931	71.18352
776.351	59.15018
776.77	57.14375
777.189	42.10313
777.607	33.08651
778.026	113.28762
778.445	73.18823
778.864	46.12036
779.282	89.21986
779.701	15.03873
780.119	125.32678
780.537	56.14407
780.955	71.1818
781.373	34.08634
781.791	55.12844
782.209	85.19967
782.627	105.28268
783.045	76.18183
783.462	61.15985
783.88	47.12438
784.297	99.25376
784.715	66.1738
785.132	97.24182
785.549	87.22308
785.966	44.1134
786.383	20.05084
786.8	88.20998
787.217	34.08358
787.633	61.15647
788.05	112.26714
788.466	-19.04559
788.883	43.11203
789.299	59.14564
789.715	97.24165
790.131	82.20956
790.547	11.02803
790.963	67.1709
791.379	73.1883
791.795	25.05891
792.21	87.20676
792.626	64.1547
793.041	103.26013
793.457	76.19259
793.872	30.07265
794.287	52.12844
794.702	58.14525
795.117	74.18879
795.532	66.16998
795.947	115.27939
796.362	115.27865
796.776	54.12752
797.191	73.18324
797.605	93.22814
798.02	42.10484
798.434	54.12231
798.848	103.25957
799.262	110.27964
799.676	33.08191
800.09	72.18362
800.504	39.09645
800.918	85.20356
801.331	43.11318
801.745	76.17891
802.158	47.12026
802.572	53.13006
802.985	59.14495
803.398	71.17288
803.811	25.06458
804.224	66.16517
804.637	71.1743
805.05	50.11803
805.462	54.13509
805.875	33.08771
806.288	80.19883
806.7	60.15399
807.112	-4.00951
807.525	38.09571
807.937	32.081
808.349	74.18812
808.761	32.08075
809.173	55.13597
809.584	46.11528
809.996	48.1209
810.408	50.13216
810.819	107.2581
811.231	127.3372
811.642	182.44785
812.053	241.5848
812.464	226.54109
812.875	89.23044
813.286	78.20416
813.697	111.26237
814.108	43.1072
814.519	45.10265
814.929	35.09078
815.34	130.32285
815.75	69.17903
816.16	42.10651
816.571	52.13587
816.981	20.04834
817.391	93.22957
817.801	74.18972
818.211	40.09629
818.62	46.11482
819.03	18.04513
819.44	32.08455
819.849	48.1222
820.259	37.09534
820.668	43.10899
821.077	99.25154
821.486	-1.00247
821.895	31.07748
822.304	19.05134
822.713	75.18201
823.122	67.17018
823.531	15.037
823.939	24.06036
824.348	54.13489
824.756	86.21917
825.164	20.05111
825.573	87.22503
825.981	33.0834
826.389	57.14631
826.797	16.04063
827.205	74.17536
827.612	99.24833
828.02	39.09471
828.428	67.17396
828.835	23.06184
829.243	74.1815
829.65	51.12954
830.057	73.18126
830.464	33.0823
830.871	70.17035
831.278	14.03463
831.685	19.04406
832.092	28.07075
832.499	-10.02277
832.905	77.19689
833.312	39.09183
833.718	43.10945
834.124	32.07489
834.531	45.11503
834.937	22.05672
835.343	52.12858
835.749	55.12915
836.155	13.03466
836.561	50.12634
836.966	83.20587
837.372	53.13718
837.777	50.12801
838.183	32.07271
838.588	24.06028
838.993	62.15313
839.399	26.06521
839.804	25.06255
840.209	54.14144
840.613	20.04616
841.018	25.06422
841.423	26.06787
841.828	55.14246
842.232	72.17972
842.637	51.12381
843.041	29.07649
843.445	42.10753
843.849	24.0606
844.253	68.16493
844.657	29.07514
845.061	53.12411
845.465	48.11877
845.869	40.09581
846.272	37.09281
846.676	53.12944
847.079	48.12564
847.483	40.10079
847.886	8.01961
848.289	36.09779
848.692	29.07493
849.095	70.1722
849.498	76.19204
849.901	36.08432
850.304	80.19534
850.707	29.07483
851.109	69.17463
851.512	71.17886
851.914	55.14369
852.316	12.03068
852.718	28.07418
853.121	26.06537
853.523	73.17642
853.925	64.17047
854.326	-17.04355
854.728	24.06337
855.13	31.08234
855.531	22.0548
855.933	7.01703
856.334	40.10216
856.736	53.12285
857.137	30.07153
857.538	52.13434
857.939	53.135
858.34	43.10673
858.741	32.08489
859.142	47.11564
859.542	25.06748
859.943	44.11122
860.343	-9.023
860.744	26.06467
861.144	-2.00496
861.544	58.1441
861.945	72.18787
862.345	41.10192
862.745	63.16109
863.145	38.09227
863.544	28.07206
863.944	-1.00241
864.344	54.13596
864.743	84.20869
865.143	50.13056
865.542	41.09796
865.941	59.14975
866.34	57.13864
866.74	38.10286
867.139	42.10412
867.537	47.12123
867.936	74.18183
868.335	37.09604
868.734	88.23017
869.132	64.15318
869.531	20.04885
869.929	48.11388
870.327	67.16466
870.726	40.10028
871.124	39.09397
871.522	23.0599
871.92	72.18096
872.318	29.07243
872.715	39.09698
873.113	92.22865
873.511	75.19184
873.908	27.07071
874.306	36.09239
874.703	16.04075
875.1	46.11905
875.497	83.20421
875.894	48.12155
876.291	62.15403
876.688	76.20075
877.085	7.01713
877.482	15.0383
877.878	51.12585
878.275	35.09116
878.671	50.11417
879.068	32.07892
879.464	30.0741
879.86	16.03884
880.256	36.09038
880.652	9.02346
881.048	29.07285
881.444	-7.01696
881.84	-18.04692
882.236	33.08423
882.631	96.24076
883.027	24.05891
883.422	14.03647
883.817	78.20242
884.213	43.11276
884.608	41.10355
885.003	40.09952
885.398	55.14187
885.793	29.07408
886.188	54.13854
886.582	30.07716
886.977	50.12131
887.371	13.03312
887.766	17.04361
888.16	47.11904
888.554	38.09468
888.949	38.0965
889.343	18.04467
889.737	62.16934
890.131	29.07355
890.525	56.14492
890.918	15.03823
891.312	-2.00485
891.706	-21.05552
892.099	4.01028
892.492	39.0872
892.886	-4.01001
893.279	24.06271
893.672	14.0358
894.065	2.00511
894.458	67.17234
894.851	73.18067
895.244	15.039
895.637	69.1697
896.029	19.04744
896.422	36.08937
896.814	45.11349
897.206	31.07568
897.599	20.05
897.991	6.01481
898.383	29.07122
898.775	52.12003
899.167	79.18941
899.559	71.18091
899.951	65.15554
900.342	24.06155
900.734	30.07729
901.125	35.09309
901.517	62.1556
901.908	59.14291
902.299	77.19426
902.69	51.12358
903.082	47.11577
903.473	53.13088
903.863	45.1166
904.254	33.07948
904.645	53.13381
905.036	20.05
905.426	76.17542
905.817	84.2096
906.207	18.04449
906.597	17.04053
906.987	52.13657
907.378	31.07916
907.768	20.05385
908.158	33.08215
908.547	49.12906
908.937	-4.01039
909.327	64.15894
909.717	55.14019
910.106	28.06868
910.495	40.10165
910.885	84.21581
911.274	53.13443
911.663	1.00257
912.052	53.13151
912.441	12.03094
912.83	59.13935
913.219	31.08195
913.608	65.16081
913.997	21.05417
914.385	35.08484
914.774	31.07695
915.162	62.15178
915.55	53.13002
915.939	6.01551
916.327	12.03019
916.715	55.14202
917.103	29.07222
917.491	39.09716
917.878	-12.02986
918.266	10.02609
918.654	47.12283
919.041	50.133
919.429	37.08976
919.816	16.04109
920.203	56.13872
920.591	57.14262
920.978	-9.02227
921.365	27.07202
921.752	59.14404
922.139	84.18793
922.525	58.14368
922.912	29.07183
923.299	32.08144
923.685	58.15356
924.072	15.03502
924.458	43.1084
924.844	9.02292
925.231	29.06948
925.617	13.03397
926.003	17.04415
926.389	32.08236
926.774	63.1616
927.16	30.076
927.546	38.09966
927.931	51.12926
928.317	25.05859
928.702	70.16652
929.088	42.1024
929.473	14.03624
929.858	11.02755
930.243	35.08624
930.628	69.1727
931.013	46.1164
931.398	73.16927
931.783	17.04512
932.167	68.1706
932.552	31.07824
932.937	39.09807
933.321	47.12039
933.705	47.12086
934.09	62.1565
934.474	45.10855
934.858	31.08165
935.242	13.03119
935.626	66.17222
936.009	8.02137
936.393	22.05686
936.777	45.11712
937.16	14.03686
937.544	49.11676
937.927	41.10664
938.311	61.15008
938.694	10.02671
939.077	14.03441
939.46	-40.09865
939.843	117.25122
940.226	32.0835
940.609	82.19536
940.991	48.12418
941.374	66.16421
941.757	32.07979
942.139	78.1819
942.522	24.05746
942.904	33.0811
943.286	24.06153
943.668	29.07651
944.05	-9.02284
944.432	63.15956
944.814	-7.01749
945.196	30.07578
945.578	41.10192
945.959	44.10567
946.341	31.07571
946.722	17.04082
947.104	52.12697
947.485	61.1448
947.866	41.10686
948.247	-37.09531
948.628	11.02716
949.009	29.07607
949.39	35.0883
949.771	74.17529
950.152	51.1283
950.532	18.04594
950.913	37.09103
951.293	22.06055
951.674	82.20521
952.054	38.09725
952.434	10.02531
952.814	38.09244
953.194	39.10255
953.574	-24.06006
953.954	25.06092
954.334	32.08152
954.714	30.07521
955.093	40.09927
955.473	18.04578
955.853	40.10448
956.232	-4.01103
956.611	71.1721
956.99	52.13378
957.37	55.14241
957.749	19.04673
958.128	74.19031
958.506	55.14633
958.885	40.1032
959.264	57.14467
959.643	82.18859
960.021	60.15188
960.4	26.06104
960.778	82.20357
961.156	24.06183
961.535	20.04769
961.913	42.1006
962.291	65.17166
962.669	-8.02063
963.047	4.01037
963.424	33.08536
963.802	34.08579
964.18	43.10995
964.557	53.12469
964.935	54.13033
965.312	15.0396
965.69	34.08576
966.067	18.04505
966.444	31.0772
966.821	43.11176
967.198	46.11299
967.575	19.04695
967.952	44.10543
968.329	50.12409
968.705	8.01763
969.082	31.0814
969.458	35.08726
969.835	28.06936
970.211	97.25254
970.587	26.06579
970.963	17.0442
971.339	17.04524
971.715	40.10133
972.091	49.12269
972.467	54.13665
972.843	25.06341
973.219	38.09161
973.594	70.18701
973.97	38.09175
974.345	75.18296
974.721	-12.02943
975.096	9.02231
975.471	19.04623
975.846	38.09279
976.221	50.13038
976.596	47.11572
976.971	33.08281
977.346	-13.03099
977.72	43.11157
978.095	44.11564
978.469	34.08243
978.844	26.06579
979.218	18.04413
979.593	47.11419
979.967	55.13592
980.341	-14.03321
980.715	48.12323
981.089	29.07306
981.463	86.20426
981.837	53.13256
982.21	48.11322
982.584	63.15495
982.957	24.0616
983.331	27.06547
983.704	-17.04221
984.078	-1.00254
984.451	37.09234
984.824	27.06756
985.197	12.02973
985.57	64.16224
985.943	59.14591
986.316	57.14148
986.688	4.00984
987.061	59.14216
987.434	46.12138
987.806	34.08429
988.179	30.07309
988.551	60.15447
988.923	49.12251
989.295	18.04492
989.667	48.11838
990.039	82.20669
990.411	41.09657
990.783	24.05652
991.155	66.16451
991.527	26.06448
991.898	54.13733
992.27	12.03026
992.641	35.08871
993.012	97.23026
993.384	6.01459
993.755	78.20207
994.126	21.05148
994.497	23.05794
994.868	57.13442
995.239	32.07869
995.61	41.10554
995.98	58.14473
996.351	1.00254
996.722	68.16331
997.092	19.04644
997.462	11.02672
997.833	32.07712
998.203	63.15369
998.573	-3.00763
998.943	55.13252
999.313	55.13512
999.683	25.06224
1000.053	87.20421
1000.423	11.02712
1000.792	95.24912
1001.162	29.0724
1001.531	39.09804
1001.901	52.13332
1002.27	47.10769
1002.639	34.08878
1003.009	-13.03165
1003.378	-24.06241
1003.747	33.08059
1004.116	16.03943
1004.485	27.06545
1004.853	11.0284
1005.222	-15.03845
1005.591	22.0533
1005.959	28.06594
1006.328	-2.00467
1006.696	20.04996
1007.064	5.0128
1007.433	15.0381
1007.801	42.10362
1008.169	19.04834
1008.537	63.14295
1008.905	49.11757
1009.273	15.03741
1009.64	24.05947
1010.008	42.10271
1010.375	-7.0169
1010.743	21.04935
1011.11	42.10221
1011.478	14.03523
1011.845	36.0862
1012.212	13.0306
1012.579	20.04978
1012.946	26.06304
1013.313	42.10095
1013.68	27.06206
1014.047	47.1153
1014.414	60.14525
1014.78	11.02776
1015.147	41.09953
1015.513	28.06911
1015.88	32.08201
1016.246	-33.08233
1016.612	45.10389
1016.978	60.14912
1017.344	71.17874
1017.71	1.00246
1018.076	25.05996
1018.442	-9.02342
1018.808	48.12203
1019.174	21.054
1019.539	52.11921
1019.905	19.04597
1020.27	34.0861
1020.636	53.12896
1021.001	15.03659
1021.366	0
1021.731	-17.04415
1022.096	15.03879
1022.461	34.08215
1022.826	1.00244
1023.191	17.04515
1023.556	22.0532
1023.92	22.05468
1024.285	56.13862
1024.649	0
1025.014	28.07073
1025.378	26.06673
1025.742	45.11401
1026.107	-4.00928
1026.471	-5.01182
1026.835	61.15439
1027.199	69.17245
1027.562	63.14891
1027.926	32.07939
1028.29	32.08307
1028.654	69.16164
1029.017	7.01741
1029.381	-13.03208
1029.744	6.0155
1030.107	37.08888
1030.471	-19.04635
1030.834	1.00233
1031.197	5.01217
1031.56	-5.01207
1031.923	23.06031
1032.286	33.07879
1032.648	82.19985
1033.011	-30.07095
1033.374	33.07824
1033.736	14.03757
1034.099	82.2035
1034.461	10.02565
1034.823	13.03294
1035.185	21.05381
1035.548	69.17114
1035.91	31.07585
1036.272	-27.06295
1036.634	25.0616
1036.995	77.1851
1037.357	0
1037.719	-24.0593
1038.08	22.05308
1038.442	-11.02678
1038.803	45.10941
1039.165	56.14457
1039.526	38.09337
1039.887	9.02215
1040.248	-17.043
1040.609	-40.10043
1040.97	31.07768
1041.331	45.11535
1041.692	38.09265
1042.053	17.0399
1042.413	21.05016
1042.774	33.08137
1043.134	60.14536
1043.495	10.02545
1043.855	53.13035
1044.215	23.0585
1044.576	46.11383
1044.936	24.05628
1045.296	14.03557
1045.656	2.00498
1046.016	-9.02211
1046.375	-13.03215
1046.735	15.03522
1047.095	53.1261
1047.454	14.03056
1047.814	27.06623
1048.173	-46.1106
1048.533	-10.0236
1048.892	31.07695
1049.251	46.11707
1049.61	24.06017
1049.969	41.10009
1050.328	11.02462
1050.687	13.03224
1051.046	-3.0074
1051.405	56.14241
1051.763	24.05692
1052.122	27.06863
1052.48	-14.03476
1052.839	27.06501
1053.197	57.13723
1053.555	-15.03416
1053.914	-11.02723
1054.272	-16.03914
1054.63	65.16258
1054.988	1.00245
1055.345	48.10619
1055.703	22.05382
1056.061	7.01829
1056.419	0
1056.776	0
1057.134	32.07601
1057.491	28.0709
1057.848	21.05262
1058.206	18.04346
1058.563	30.06781
1058.92	30.06969
1059.277	-19.04785
1059.634	36.08597
1059.991	43.10482
1060.348	45.10488
1060.704	23.0564
1061.061	21.0495
1061.418	-41.10221
1061.774	42.10549
1062.131	16.04324
1062.487	22.0528
1062.843	-25.06348
1063.199	52.13201
1063.555	34.08144
1063.911	3.00764
1064.267	33.07028
1064.623	45.11145
1064.979	59.14097
1065.335	22.05316
1065.691	18.04382
1066.046	-20.04438
1066.402	40.09427
1066.757	41.10417
1067.112	12.02978
1067.468	83.20429
1067.823	72.17607
1068.178	17.04163
1068.533	45.111
1068.888	37.08945
1069.243	13.03268
1069.598	33.08182
1069.952	8.01878
1070.307	65.16521
1070.662	0
1071.016	2.00464
1071.371	29.0673
1071.725	41.09931
1072.079	4.00977
1072.434	46.11428
1072.788	34.08296
1073.142	103.25538
1073.496	30.07252
1073.85	-37.08783
1074.203	131.32314
1074.557	13.03515
1074.911	40.09577
1075.265	7.01667
1075.618	10.02466
1075.971	48.11589
1076.325	54.13922
1076.678	45.10661
1077.031	66.15319
1077.385	53.12056
1077.738	51.11821
1078.091	14.03303
1078.444	57.13447
1078.796	13.03234
1079.149	5.01262
1079.502	68.1661
1079.855	50.11972
1080.207	14.03512
1080.56	10.02625
1080.912	-2.00495
1081.264	17.04184
1081.617	49.12287
1081.969	41.10605
1082.321	-11.02737
1082.673	22.05223
1083.025	30.07301
1083.377	94.20605
1083.728	48.11291
1084.08	17.04309
1084.432	32.07898
1084.783	6.01435
1085.135	25.06386
1085.486	33.07867
1085.838	41.10292
1086.189	-11.02722
1086.54	33.07987
1086.891	22.05701
1087.242	13.03201
1087.593	26.06419
1087.944	-5.01156
1088.295	39.09047
1088.646	56.13872
1088.996	20.04913
1089.347	1.00251
1089.698	11.0268
1090.048	4.01041
1090.398	-14.03315
1090.749	48.11694
1091.099	64.16631
1091.449	14.0355
1091.799	41.1044
1092.149	39.09902
1092.499	-31.07762
1092.849	49.12692
1093.199	-6.01519
1093.548	25.06176
1093.898	63.15956
1094.248	-4.01042
1094.597	40.10541
1094.947	16.0431
1095.296	35.08738
1095.645	6.01583
1095.994	33.08014
1096.343	13.03325
1096.692	83.2252
1097.041	-18.04927
1097.39	56.14372
1097.739	18.04743
1098.088	59.1591
1098.437	15.04024
1098.785	27.07276
1099.134	22.05881
1099.482	39.10824
1099.83	15.03961
1100.179	72.19133
1100.527	23.06156
1100.875	0
1101.223	18.04829
1101.571	18.05034
1101.919	51.13663
1102.267	27.07649
1102.615	17.05477
1102.962	2.00644
1103.31	7.02255
1103.658	21.06767
