Data from N2 R0 60C sample3_Subt2__5__11-40-25-680.txt Node

Date: Tue Aug 19 11:40:25 PDT 2025
User: uwsun
Spectrometer: HDX01956
Trigger mode: 0
Integration Time (sec): 5.000000E-1
Scans to average: 1
Nonlinearity correction enabled: true
Boxcar width: 0
Storing dark spectrum: false
XAxis mode: Wavelengths
Number of Pixels in Spectrum: 2068
>>>>>Begin Spectral Data<<<<<
194.03	400.10383
194.578	378.17594
195.127	393.20326
195.676	383.17869
196.225	443.14428
196.773	459.23072
197.321	677.76369
197.87	917.1416
198.418	879.04162
198.966	935.20573
199.513	850.93151
200.061	877.03138
200.609	890.12335
201.156	872.72326
201.704	911.0861
202.251	926.22684
202.798	930.17747
203.345	933.06575
203.892	912.068
204.438	926.98614
204.985	936.01705
205.532	979.29798
206.078	936.06168
206.624	988.16365
207.17	994.03902
207.716	973.10625
208.262	868.53637
208.808	928.08651
209.354	936.05139
209.899	958.13473
210.445	973.17307
210.99	948.06294
211.535	1016.11596
212.08	1030.12718
212.625	974.17753
213.17	901.05661
213.715	956.95023
214.259	920.92587
214.804	949.07338
215.348	891.82779
215.892	907.95163
216.436	964.98254
216.98	963.9082
217.524	978.0466
218.068	1001.25484
218.612	891.02482
219.155	893.89357
219.698	918.96392
220.242	856.93574
220.785	851.79742
221.328	850.91205
221.871	836.90887
222.414	839.89845
222.956	787.77212
223.499	849.73451
224.041	825.75159
224.583	821.58562
225.126	814.63553
225.668	833.83523
226.21	803.84857
226.751	811.6381
227.293	870.81394
227.835	872.93837
228.376	856.77842
228.918	895.03147
229.459	845.91821
230	795.7281
230.541	860.82554
231.082	770.69319
231.622	863.78541
232.163	831.83692
232.704	850.89959
233.244	867.94037
233.784	791.77098
234.324	885.78447
234.864	863.76871
235.404	870.85959
235.944	815.75435
236.484	834.86689
237.023	879.88571
237.563	834.75035
238.102	807.71929
238.641	890.02458
239.18	855.82633
239.719	883.99234
240.258	862.75275
240.797	888.92421
241.335	880.94081
241.874	910.58754
242.412	845.86322
242.95	873.89049
243.488	917.88201
244.026	908.86478
244.564	934.70494
245.102	820.67937
245.64	938.98946
246.177	916.84409
246.715	868.88485
247.252	870.80352
247.789	962.58886
248.326	910.98025
248.863	933.84181
249.4	935.89228
249.936	851.57544
250.473	921.93178
251.009	895.86568
251.546	912.79821
252.082	888.74919
252.618	893.7784
253.154	940.02913
253.69	868.75136
254.226	932.97759
254.761	925.88566
255.297	867.70098
255.832	919.92759
256.367	940.98247
256.903	911.76391
257.438	942.95895
257.972	939.8753
258.507	935.93104
259.042	927.81458
259.576	923.80249
260.111	964.96656
260.645	925.75869
261.179	910.89655
261.713	947.89129
262.247	937.9369
262.781	994.83754
263.315	933.05122
263.849	992.19966
264.382	1006.01095
264.915	1043.15646
265.449	1049.27955
265.982	1004.0171
266.515	980.09039
267.048	975.85122
267.58	1011.9355
268.113	946.8235
268.646	993.16869
269.178	965.91572
269.71	954.85652
270.243	956.92558
270.775	980.18737
271.307	962.04047
271.838	996.04129
272.37	1006.16806
272.902	978.95822
273.433	948.81252
273.965	1006.14776
274.496	1025.19636
275.027	1007.18914
275.558	1044.20406
276.089	1012.20605
276.62	1013.25504
277.15	950.04638
277.681	1018.9419
278.211	914.94779
278.741	1024.98068
279.272	994.99029
279.802	986.15294
280.332	1106.2356
280.861	1056.20519
281.391	1010.00131
281.921	1006.12375
282.45	1039.26447
282.98	1035.35505
283.509	1035.00766
284.038	1039.05937
284.567	1069.1219
285.096	1081.26093
285.625	1083.13382
286.153	1058.1287
286.682	1104.16463
287.21	1049.19971
287.739	1047.1657
288.267	1073.24516
288.795	1105.45282
289.323	1036.14149
289.851	1122.26284
290.378	1127.16068
290.906	1081.27085
291.433	1095.3274
291.961	1143.19353
292.488	1107.34785
293.015	1133.2939
293.542	1132.46568
294.069	1108.31492
294.596	1136.37347
295.122	1149.32529
295.649	1154.13268
296.175	1201.47472
296.702	1122.30919
297.228	1151.35575
297.754	1186.28114
298.28	1184.26752
298.806	1185.3939
299.332	1220.26622
299.857	1165.21448
300.383	1190.52563
300.908	1148.3754
301.433	1168.37612
301.958	1213.30929
302.483	1227.56206
303.008	1235.53805
303.533	1216.62532
304.058	1238.42565
304.582	1270.48614
305.107	1227.70116
305.631	1285.37265
306.155	1259.43285
306.679	1218.34842
307.203	1264.42806
307.727	1259.46053
308.251	1235.53579
308.775	1337.59737
309.298	1372.69499
309.822	1341.76098
310.345	1393.67583
310.868	1370.63217
311.391	1425.7817
311.914	1392.81579
312.437	1360.49608
312.96	1327.5354
313.482	1379.61358
314.005	1424.86237
314.527	1453.05253
315.049	1449.86834
315.571	1437.56788
316.093	1532.96374
316.615	1474.81498
317.137	1467.48851
317.659	1568.95784
318.18	1437.70938
318.702	1533.72214
319.223	1568.48784
319.744	1604.73049
320.265	1567.93384
320.786	1564.01031
321.307	1663.12212
321.828	1669.83666
322.348	1647.94358
322.869	1696.03289
323.389	1406.56028
323.909	1667.83775
324.43	1738.03934
324.95	1694.87717
325.47	1729.12121
325.989	1825.08994
326.509	1884.92461
327.029	1866.94284
327.548	1845.93978
328.067	1888.2714
328.587	1918.36003
329.106	1839.90055
329.625	1890.52534
330.144	1945.13854
330.662	1900.02858
331.181	1984.17489
331.7	2069.26969
332.218	2057.97507
332.736	2127.28941
333.255	2065.20836
333.773	2084.26697
334.291	2121.49067
334.808	2183.16662
335.326	2245.21369
335.844	2307.3812
336.361	2240.7002
336.879	2307.43159
337.396	2356.51344
337.913	2396.31664
338.43	2409.24706
338.947	2470.46296
339.464	2441.06056
339.981	2472.49574
340.497	2534.64099
341.014	2598.68443
341.53	2486.1965
342.046	2600.65158
342.562	2620.78669
343.078	2686.51579
343.594	2611.53668
344.11	2702.50341
344.626	2693.84599
345.141	2742.30474
345.657	2778.25851
346.172	2730.60618
346.687	2841.42566
347.202	2839.28217
347.717	2997.60445
348.232	2930.8224
348.747	2913.41232
349.261	2938.19523
349.776	2989.50306
350.29	3090.82528
350.805	3106.85675
351.319	3143.48869
351.833	3069.26049
352.347	3135.45872
352.861	3138.40041
353.374	3119.29894
353.888	3155.62085
354.401	3244.34614
354.915	3306.22801
355.428	3335.74223
355.941	3428.40926
356.454	3447.12886
356.967	3404.39542
357.48	3425.23978
357.993	3374.67052
358.505	3496.57925
359.018	3648.56265
359.53	3637.54039
360.042	3563.02126
360.554	3639.46452
361.066	3630.573
361.578	3674.85156
362.09	3721.31691
362.602	3724.92167
363.113	3741.26274
363.625	3722.04822
364.136	3887.83067
364.647	3945.25465
365.158	3977.06687
365.669	3996.2395
366.18	3894.17512
366.691	3948.8093
367.201	4006.26427
367.712	4097.94678
368.222	4153.91443
368.733	4233.70013
369.243	4262.69665
369.753	4318.97541
370.263	4513.02669
370.773	4399.13415
371.282	4495.91583
371.792	4676.79314
372.301	4863.84863
372.811	4815.29866
373.32	4873.05975
373.829	5022.57977
374.338	5184.04745
374.847	5394.19896
375.356	5520.26451
375.865	5617.53579
376.373	6008.74034
376.882	6134.2774
377.39	6171.97443
377.898	6326.06307
378.407	6616.45062
378.915	6901.25626
379.423	7171.68469
379.93	7445.55971
380.438	7845.08759
380.946	8105.17666
381.453	8394.51163
381.96	8863.16514
382.468	9561.63824
382.975	10094.14249
383.482	10216.77254
383.989	10338.85059
384.495	10800.95968
385.002	11399.2875
385.509	12195.00819
386.015	12817.06301
386.521	13421.32258
387.028	14068.16677
387.534	14228.21231
388.04	14678.44787
388.546	15339.0689
389.051	16190.27962
389.557	17420.59985
390.063	18664.18884
390.568	19261.84923
391.073	19823.41146
391.578	20840.35548
392.084	21321.3484
392.589	22259.87103
393.093	24093.13815
393.598	26282.23772
394.103	28309.87028
394.607	31058.57956
395.112	33217.52226
395.616	35512.73329
396.12	38702.77705
396.624	42791.13776
397.128	46452.19819
397.632	51149.35435
398.136	55515.86053
398.639	58700.84672
399.143	60781.21695
399.646	61146.12408
400.15	60904.11498
400.653	60560.14334
401.156	60136.25446
401.659	59550.50961
402.162	58431.12733
402.664	54480.21957
403.167	49329.08451
403.67	22278.45323
404.172	2696.20453
404.674	0
405.176	0
405.678	0
406.18	0
406.682	0
407.184	0
407.686	25783.58453
408.187	43316.52985
408.688	51225.60928
409.19	54389.01922
409.691	56215.4214
410.192	57270.57019
410.693	57845.40442
411.194	58219.2365
411.694	58633.01717
412.195	59215.68848
412.696	59364.60701
413.196	59341.61941
413.696	59632.46864
414.196	59367.6054
414.696	59763.40624
415.196	59913.34014
415.696	60584.13941
416.196	61381.18813
416.695	61808.38326
417.195	57738.02566
417.694	54971.85823
418.194	51672.69665
418.693	48830.65013
419.192	47172.8912
419.691	46816.93752
420.19	45593.86321
420.688	44223.07716
421.187	41715.50263
421.685	38980.14193
422.184	35130.97345
422.682	30634.05876
423.18	26366.99845
423.678	24012.00961
424.176	22292.65095
424.674	20758.04701
425.172	19685.32468
425.669	18406.14776
426.167	17154.79845
426.664	15556.08613
427.161	14348.91289
427.659	13542.66816
428.156	12589.01341
428.652	11893.83834
429.149	11317.12489
429.646	10992.05771
430.143	10356.10018
430.639	9635.85461
431.135	9194.81967
431.632	8613.69156
432.128	8248.31907
432.624	7779.18867
433.12	7650.635
433.616	7309.33299
434.111	7053.59168
434.607	6871.67153
435.103	6753.06163
435.598	6532.056
436.093	6169.71838
436.588	5810.5053
437.083	5586.71331
437.578	5386.03036
438.073	5130.77078
438.568	4875.69028
439.062	4909.9273
439.557	4662.61391
440.051	4421.4867
440.546	4357.59823
441.04	4297.02477
441.534	4230.44788
442.028	4068.05243
442.522	4093.09013
443.015	3976.6034
443.509	4016.2746
444.002	3830.36133
444.496	3728.78781
444.989	3664.34332
445.482	3701.4999
445.975	3725.05261
446.468	3601.70675
446.961	3540.79121
447.454	3353.01199
447.947	3471.35432
448.439	3297.34352
448.931	3411.10391
449.424	3315.62184
449.916	3340.49672
450.408	3217.10602
450.9	3184.53982
451.392	3127.70079
451.884	3113.18263
452.375	3024.72298
452.867	2968.10852
453.358	2999.20081
453.849	2879.86477
454.341	2834.14918
454.832	2881.94306
455.323	2828.54697
455.814	2779.25631
456.304	2793.23686
456.795	2748.23473
457.285	2749.01741
457.776	2747.14371
458.266	2595.37046
458.756	2618.3695
459.247	2543.3997
459.737	2485.41512
460.226	2465.12542
460.716	2403.39623
461.206	2423.39602
461.695	2251.43332
462.185	2285.1851
462.674	2402.24246
463.163	2269.93173
463.653	2269.83481
464.142	2174.30113
464.63	2209.39521
465.119	2082.0507
465.608	2128.12515
466.096	2102.85178
466.585	2070.04731
467.073	2073.16416
467.561	1988.1354
468.05	2009.03994
468.538	1980.22665
469.026	1953.11854
469.513	1967.9725
470.001	1857.83837
470.489	1887.06573
470.976	1877.94954
471.463	1791.12059
471.951	1729.06021
472.438	1674.81728
472.925	1647.77372
473.412	1635.89386
473.899	1524.57411
474.385	1586.85778
474.872	1624.81471
475.359	1539.83781
475.845	1518.34105
476.331	1406.2604
476.817	1438.66862
477.303	1441.55277
477.789	1406.61674
478.275	1297.55157
478.761	1343.55868
479.247	1357.39959
479.732	1251.52741
480.218	1298.70386
480.703	1252.51395
481.188	1216.09656
481.673	1219.26156
482.158	1202.11178
482.643	1188.43974
483.128	1151.1688
483.612	1166.22975
484.097	1110.22637
484.581	1090.09408
485.066	1094.23844
485.55	1033.93684
486.034	1037.87009
486.518	1085.16169
487.002	1072.25241
487.486	988.06937
487.969	1022.15006
488.453	919.99604
488.936	979.92191
489.42	921.75701
489.903	965.07829
490.386	935.31918
490.869	869.65925
491.352	879.87924
491.835	865.57993
492.318	927.87693
492.8	900.6502
493.283	885.00228
493.765	829.82793
494.247	865.77839
494.73	814.61451
495.212	830.78016
495.694	804.68808
496.175	767.67143
496.657	781.6653
497.139	787.24918
497.62	724.58066
498.102	792.7714
498.583	665.52957
499.064	779.60646
499.545	705.48687
500.026	675.4117
500.507	705.51091
500.988	702.61184
501.469	709.6425
501.949	674.54443
502.43	678.50572
502.91	688.34204
503.39	624.44119
503.87	697.53289
504.35	659.43287
504.83	678.39326
505.31	625.40886
505.79	652.46948
506.269	639.40698
506.749	620.33342
507.228	643.42467
507.707	627.30945
508.187	555.24122
508.666	599.39518
509.145	569.27936
509.623	536.19448
510.102	557.28452
510.581	578.30201
511.059	575.36702
511.538	545.3273
512.016	636.44214
512.494	553.27984
512.972	623.39005
513.45	541.21632
513.928	601.39599
514.406	592.37372
514.884	588.43026
515.361	593.35406
515.839	549.20809
516.316	596.36392
516.793	513.24044
517.27	543.23926
517.747	548.33982
518.224	563.25499
518.701	595.28424
519.178	512.20985
519.654	535.21313
520.131	489.15966
520.607	504.19367
521.083	523.1556
521.56	538.234
522.036	544.15621
522.512	448.05513
522.987	456.06234
523.463	507.17417
523.939	502.18298
524.414	512.13809
524.89	488.1205
525.365	473.05452
525.84	522.21588
526.315	509.19044
526.79	517.13186
527.265	510.14489
527.74	480.13018
528.215	496.14207
528.689	490.06475
529.164	407.87608
529.638	512.26698
530.112	469.08775
530.587	504.05896
531.061	466.09802
531.534	457.0653
532.008	433.02546
532.482	434.96445
532.956	446.10183
533.429	497.16143
533.903	458.98859
534.376	447.97084
534.849	468.06206
535.322	439.01604
535.795	466.10354
536.268	438.02113
536.741	447.04317
537.213	477.07222
537.686	449.07364
538.158	435.96005
538.631	454.06348
539.103	468.03884
539.575	416.85482
540.047	471.01145
540.519	513.18621
540.991	495.16352
541.463	484.13608
541.934	451.01492
542.406	504.1679
542.877	477.06565
543.348	498.16354
543.82	468.10188
544.291	494.11118
544.762	494.13113
545.233	538.29193
545.703	523.12622
546.174	576.28163
546.645	585.34327
547.115	577.33756
547.585	623.35279
548.056	629.45649
548.526	693.54383
548.996	631.42124
549.466	669.51304
549.935	687.52604
550.405	714.46074
550.875	683.50836
551.344	705.58158
551.814	756.61369
552.283	675.35685
552.752	807.72598
553.221	846.71317
553.69	817.63968
554.159	874.95002
554.628	884.78938
555.096	901.06319
555.565	827.69563
556.033	865.827
556.502	815.79556
556.97	799.62121
557.438	832.78216
557.906	859.83093
558.374	837.74392
558.842	831.7911
559.31	892.79408
559.777	859.86648
560.245	912.91919
560.712	933.93635
561.18	988.96189
561.647	1004.96874
562.114	1058.09176
562.581	1076.27267
563.048	1169.2725
563.514	1107.32653
563.981	1199.28257
564.448	1256.3333
564.914	1375.57833
565.381	1367.49338
565.847	1471.71867
566.313	1482.71545
566.779	1526.6079
567.245	1632.89814
567.711	1671.02805
568.176	1687.8264
568.642	1801.32522
569.108	1850.30171
569.573	1988.28955
570.038	2052.91464
570.504	2066.06675
570.969	2204.7183
571.434	2286.23316
571.899	2402.58165
572.363	2455.36613
572.828	2533.38364
573.293	2539.4354
573.757	2717.4333
574.222	2772.44029
574.686	2855.5006
575.15	2899.70556
575.614	2871.50234
576.078	2930.68506
576.542	3009.47155
577.006	3107.41993
577.469	3145.91254
577.933	3150.49846
578.396	3077.64455
578.86	3129.66241
579.323	3083.80963
579.786	3170.1934
580.249	3164.57946
580.712	3088.85073
581.175	3032.91248
581.637	2934.42784
582.1	2992.31251
582.563	2927.136
583.025	2898.81007
583.487	2888.94046
583.95	2856.28089
584.412	2783.09854
584.874	2715.70201
585.336	2681.61716
585.797	2592.17047
586.259	2563.55703
586.721	2501.51325
587.182	2470.42675
587.643	2423.32912
588.105	2375.53107
588.566	2337.93705
589.027	2212.52782
589.488	2256.28592
589.949	2205.50184
590.41	2127.64579
590.87	2051.0992
591.331	1984.86304
591.791	2032.25278
592.252	1983.16709
592.712	1910.22067
593.172	1884.0347
593.632	1879.9226
594.092	1852.94859
594.552	1819.80376
595.011	1725.93567
595.471	1691.76163
595.931	1646.74159
596.39	1738.1226
596.849	1724.98452
597.308	1647.6758
597.768	1672.26893
598.227	1639.94407
598.685	1590.72951
599.144	1581.83365
599.603	1575.89584
600.062	1646.62611
600.52	1611.73739
600.978	1580.85409
601.437	1599.74578
601.895	1587.53466
602.353	1602.67063
602.811	1623.76966
603.269	1680.04368
603.727	1688.06743
604.184	1726.91638
604.642	1707.14313
605.099	1697.91983
605.557	1764.17757
606.014	1807.85432
606.471	1845.38018
606.928	1936.96351
607.385	2036.51191
607.842	1999.09711
608.299	2054.28485
608.755	2022.38079
609.212	2079.06357
609.668	2066.11408
610.125	2124.44373
610.581	2098.31345
611.037	2151.20781
611.493	2126.32826
611.949	2167.60208
612.405	2155.73897
612.861	2187.34919
613.316	2200.46168
613.772	2269.35391
614.227	2256.47582
614.683	2236.99824
615.138	2248.39211
615.593	2283.38707
616.048	2289.26439
616.503	2253.57341
616.958	2346.79912
617.412	2299.45162
617.867	2287.1741
618.321	2314.91786
618.776	2295.18752
619.23	2210.35301
619.684	2309.25357
620.138	2269.32217
620.592	2160.50678
621.046	2225.33812
621.5	2242.60026
621.954	2190.17797
622.407	2124.09493
622.861	2076.42214
623.314	2063.12859
623.768	2023.22648
624.221	2022.64588
624.674	2007.15066
625.127	1967.16748
625.58	1958.05608
626.033	1936.8915
626.485	1876.20996
626.938	1871.16015
627.39	1878.11229
627.843	1813.01731
628.295	1728.90111
628.747	1729.02896
629.199	1689.84043
629.651	1683.85
630.103	1672.87577
630.555	1539.46286
631.006	1567.80417
631.458	1590.87224
631.909	1502.62794
632.361	1518.73885
632.812	1502.71395
633.263	1421.38554
633.714	1372.30216
634.165	1380.7183
634.616	1350.60847
635.067	1317.31654
635.518	1311.52995
635.968	1271.03445
636.419	1197.15052
636.869	1223.38779
637.319	1148.22896
637.769	1177.21469
638.219	1128.22629
638.669	1133.2835
639.119	1193.44619
639.569	1105.25438
640.019	1103.1419
640.468	1053.00493
640.918	1126.26059
641.367	1084.06261
641.816	1106.10763
642.265	1023.0323
642.714	984.97115
643.163	1102.17993
643.612	1071.26358
644.061	1032.9288
644.51	1041.09492
644.958	1002.91317
645.406	1001.09066
645.855	1068.25282
646.303	1087.1517
646.751	1057.09415
647.199	1042.03324
647.647	983.97503
648.095	1023.06051
648.543	1007.78538
648.99	963.99688
649.438	1023.07838
649.885	998.15538
650.333	995.68576
650.78	983.10627
651.227	1024.19844
651.674	957.90335
652.121	943.01181
652.568	999.12959
653.015	953.09698
653.461	955.99874
653.908	983.00512
654.354	927.93755
654.801	945.96127
655.247	918.79313
655.693	891.08409
656.139	924.97081
656.585	882.8747
657.031	875.84653
657.477	881.7163
657.922	934.91392
658.368	866.91232
658.813	826.70842
659.259	850.84575
659.704	815.71082
660.149	852.80777
660.594	822.77358
661.039	856.75238
661.484	804.72437
661.929	767.63754
662.373	825.91277
662.818	781.78507
663.262	793.74124
663.707	780.80097
664.151	800.77682
664.595	711.57547
665.039	775.76284
665.483	746.749
665.927	717.55184
666.371	674.46893
666.814	739.61853
667.258	727.62496
667.701	732.44558
668.145	686.58261
668.588	669.52101
669.031	712.57736
669.474	718.59659
669.917	646.33397
670.36	737.69459
670.803	656.45983
671.245	688.35665
671.688	631.42935
672.13	614.31201
672.573	600.41366
673.015	658.48603
673.457	601.24509
673.899	577.31167
674.341	586.34101
674.783	566.28897
675.225	598.37671
675.666	647.484
676.108	548.13689
676.549	573.28152
676.991	626.32267
677.432	654.26172
677.873	551.20894
678.314	568.29301
678.755	544.26421
679.196	543.19437
679.637	499.16155
680.078	503.12199
680.518	569.25164
680.959	563.2958
681.399	529.26139
681.839	519.20627
682.28	509.20669
682.72	439.99113
683.16	439.04969
683.6	454.99841
684.039	440.89924
684.479	517.22003
684.919	482.09521
685.358	482.17172
685.798	486.22051
686.237	423.9985
686.676	403.90579
687.115	447.01493
687.554	411.9506
687.993	427.92149
688.432	436.97572
688.871	439.98466
689.309	440.01695
689.748	354.72677
690.186	392.90901
690.625	376.86294
691.063	394.93061
691.501	338.81597
691.939	367.89347
692.377	358.85673
692.815	385.90707
693.253	390.91831
693.69	379.82983
694.128	371.89138
694.565	336.78996
695.003	397.98052
695.44	367.85324
695.877	383.89183
696.314	325.69238
696.751	332.74364
697.188	355.80872
697.625	351.78991
698.061	308.73907
698.498	367.86467
698.934	360.85757
699.371	335.78838
699.807	347.80866
700.243	354.84457
700.679	344.77495
701.115	313.72542
701.551	359.83201
701.987	364.81396
702.422	354.83681
702.858	315.73988
703.294	365.81199
703.729	330.79936
704.164	294.70736
704.599	330.73338
705.035	293.67046
705.47	372.90479
705.904	396.91901
706.339	271.61639
706.774	336.78011
707.209	321.74072
707.643	290.69747
708.078	384.93047
708.512	288.72376
708.946	251.59578
709.38	322.75322
709.814	324.7317
710.248	268.64677
710.682	298.70936
711.116	297.71715
711.549	228.58388
711.983	259.60386
712.416	294.69151
712.85	315.77892
713.283	304.72059
713.716	315.77378
714.149	276.64968
714.582	342.77045
715.015	253.62243
715.448	277.69049
715.881	314.67606
716.313	312.72869
716.746	302.71391
717.178	222.53759
717.61	214.53744
718.043	300.73435
718.475	266.63806
718.907	262.65512
719.339	293.67154
719.77	262.62656
720.202	256.6422
720.634	272.67002
721.065	293.69438
721.497	262.64088
721.928	262.64658
722.359	274.67246
722.79	287.69823
723.221	231.57689
723.652	238.60178
724.083	292.66938
724.514	300.68938
724.945	270.63853
725.375	287.68069
725.806	257.63133
726.236	219.557
726.666	273.64599
727.096	250.61561
727.526	251.63634
727.956	220.50718
728.386	274.66773
728.816	215.54489
729.246	264.64936
729.675	279.6884
730.105	198.48309
730.534	228.53775
730.964	204.51159
731.393	214.52445
731.822	268.67737
732.251	251.62932
732.68	257.59825
733.109	211.5195
733.537	272.65593
733.966	300.74469
734.395	215.50148
734.823	216.48643
735.251	287.69274
735.68	266.65935
736.108	232.58138
736.536	229.53938
736.964	248.58015
737.392	210.52606
737.82	276.65877
738.247	268.63527
738.675	264.6241
739.102	239.59924
739.53	247.62731
739.957	231.59352
740.384	267.64375
740.811	225.56414
741.238	252.61367
741.665	228.5296
742.092	260.61821
742.519	214.53163
742.945	243.58434
743.372	279.68739
743.798	252.64261
744.225	245.58289
744.651	225.56272
745.077	221.55052
745.503	217.52875
745.929	256.61127
746.355	294.71646
746.781	275.67404
747.207	240.57592
747.632	271.66744
748.058	228.56806
748.483	296.67882
748.908	222.54949
749.334	283.69082
749.759	216.50728
750.184	265.63385
750.609	274.66973
751.033	247.58041
751.458	261.58427
751.883	266.65114
752.307	270.63803
752.732	243.61321
753.156	254.6303
753.58	238.56808
754.005	192.48375
754.429	275.6472
754.853	193.48008
755.277	178.42211
755.7	261.644
756.124	240.59469
756.548	263.62739
756.971	242.58028
757.394	248.63553
757.818	195.49982
758.241	241.60773
758.664	205.52121
759.087	242.54988
759.51	225.55539
759.933	205.50007
760.356	215.54605
760.778	280.69023
761.201	226.54954
761.623	173.41902
762.046	234.55426
762.468	209.494
762.89	184.45294
763.312	230.56637
763.734	210.50701
764.156	207.51209
764.578	258.59762
765	245.59741
765.421	161.41383
765.843	179.46666
766.264	259.61974
766.686	143.35869
767.107	133.32638
767.528	165.42248
767.949	180.45935
768.37	174.42406
768.791	206.50035
769.212	170.43261
769.632	153.36542
770.053	165.43574
770.473	209.50868
770.894	145.36279
771.314	139.33186
771.734	162.38521
772.154	129.33078
772.575	130.30531
772.994	107.25047
773.414	172.41449
773.834	183.46001
774.254	162.4051
774.673	122.30055
775.093	119.29935
775.512	137.34042
775.931	142.36251
776.351	126.3169
776.77	139.34539
777.189	110.26669
777.607	141.36281
778.026	142.35958
778.445	142.36175
778.864	163.41795
779.282	126.30915
779.701	81.20675
780.119	159.41324
780.537	128.32516
780.955	86.21963
781.373	92.23123
781.791	73.16987
782.209	104.2434
782.627	150.40084
783.045	138.32625
783.462	132.34172
783.88	68.17931
784.297	124.31645
784.715	96.25152
785.132	119.29548
785.549	78.20032
785.966	89.22757
786.383	101.25307
786.8	114.27066
787.217	92.22372
787.633	78.19948
788.05	97.23203
788.466	43.10196
788.883	86.22241
789.299	90.2209
789.715	61.15296
790.131	131.3319
790.547	50.12652
790.963	110.27845
791.379	90.23146
791.795	60.14042
792.21	85.20208
792.626	55.13317
793.041	154.38538
793.457	109.27459
793.872	62.14924
794.287	89.21833
794.702	68.16999
795.117	65.16609
795.532	70.18015
795.947	105.25557
796.362	59.14447
796.776	92.21565
797.191	95.23752
797.605	98.24018
798.02	55.13697
798.434	69.15581
798.848	97.24471
799.262	106.26966
799.676	62.15308
800.09	77.1962
800.504	12.02982
800.918	97.23176
801.331	61.16007
801.745	85.19975
802.158	52.13294
802.572	75.1833
802.985	15.03715
803.398	70.17048
803.811	39.10049
804.224	49.123
804.637	70.17188
805.05	49.11569
805.462	35.08786
805.875	65.17184
806.288	106.26219
806.7	93.2373
807.112	-13.03095
807.525	92.22948
807.937	58.14614
808.349	85.21566
808.761	56.1407
809.173	74.1823
809.584	64.15987
809.996	54.13587
810.408	56.14787
810.819	129.30987
811.231	134.35536
811.642	218.53287
812.053	299.71761
812.464	249.59354
812.875	177.4513
813.286	107.27867
813.697	122.28776
814.108	75.18589
814.519	46.10491
814.929	101.25898
815.34	92.23006
815.75	48.12499
816.16	37.09391
816.571	44.11513
816.981	42.1011
817.391	76.1882
817.801	60.1542
818.211	23.05554
818.62	68.16906
819.03	62.1542
819.44	56.14737
819.849	4.01026
820.259	54.13873
820.668	65.1641
821.077	83.21149
821.486	56.13704
821.895	31.07748
822.304	52.13974
822.713	78.18918
823.122	55.13999
823.531	75.18296
823.939	79.19673
824.348	72.17927
824.756	104.2642
825.164	50.12711
825.573	126.3237
825.981	85.21283
826.389	54.13869
826.797	24.06086
827.205	46.10959
827.612	99.24833
828.02	62.14992
828.428	76.19702
828.835	47.12587
829.243	88.21527
829.65	67.16969
830.057	71.17636
830.464	35.08726
830.871	84.20388
831.278	25.06171
831.685	102.23262
832.092	61.15323
832.499	58.13024
832.905	63.16149
833.312	51.1198
833.718	73.18482
834.124	28.06558
834.531	48.12263
834.937	-7.01814
835.343	65.16034
835.749	14.03314
836.155	43.11406
836.561	73.1837
836.966	94.23268
837.372	43.11149
837.777	74.18865
838.183	51.11544
838.588	-2.00505
838.993	37.09181
839.399	33.08266
839.804	36.0899
840.209	70.18284
840.613	59.13513
841.018	38.09739
841.423	54.14028
841.828	84.21648
842.232	42.10541
842.637	58.14062
843.041	65.17039
843.445	57.14555
843.849	18.0455
844.253	93.2245
844.657	39.10088
845.061	48.11251
845.465	70.17251
845.869	36.0863
846.272	40.10028
846.676	38.09306
847.079	95.24666
847.483	43.10829
847.886	32.07811
848.289	39.10589
848.692	31.08007
849.095	78.19159
849.498	29.07389
849.901	53.12372
850.304	70.17124
850.707	19.04911
851.109	-7.01796
851.512	43.10887
851.914	78.20297
852.316	19.04852
852.718	13.03453
853.121	16.0403
853.523	94.22627
853.925	30.08036
854.326	4.01021
854.728	76.19892
855.13	43.11398
855.531	44.10916
855.933	14.03401
856.334	43.10976
856.736	68.15715
857.137	0
857.538	46.11896
857.939	76.1928
858.34	54.13377
858.741	31.08226
859.142	104.25318
859.542	69.18491
859.943	56.14125
860.343	38.0963
860.744	31.07703
861.144	21.05182
861.544	53.13179
861.945	86.22387
862.345	13.03248
862.745	82.20897
863.145	44.10672
863.544	68.17379
863.944	3.00723
864.344	113.2815
864.743	25.06278
865.143	37.09683
865.542	26.0623
865.941	62.15728
866.34	69.16744
866.74	45.12167
867.139	82.20179
867.537	40.1033
867.936	48.11851
868.335	65.1679
868.734	87.2276
869.132	53.12712
869.531	6.01469
869.929	72.17002
870.327	56.13791
870.726	52.13008
871.124	93.22178
871.522	29.07545
871.92	69.17351
872.318	22.05502
872.715	52.129
873.113	63.1574
873.511	95.24215
873.908	12.03151
874.306	42.10768
874.703	81.20391
875.1	53.137
875.497	101.24767
875.894	46.11653
876.291	58.1442
876.688	75.19814
877.085	-8.01963
877.482	49.12437
877.878	38.09399
878.275	47.12216
878.671	103.23267
879.068	61.14964
879.464	31.07655
879.86	-9.02195
880.256	43.10782
880.652	67.17288
881.048	22.05533
881.444	5.01208
881.84	34.08784
882.236	25.0639
882.631	71.17886
883.027	51.12455
883.422	54.1397
883.817	57.14845
884.213	57.14912
884.608	2.00509
885.003	70.17321
885.398	62.15973
885.793	-2.00514
886.188	72.18414
886.582	18.04639
886.977	117.2803
887.371	31.07874
887.766	38.09712
888.16	47.11904
888.554	35.08726
888.949	28.07123
889.343	40.09887
889.737	70.19094
890.131	17.04321
890.525	34.08832
890.918	-10.0256
891.312	20.04827
891.706	-9.02374
892.099	45.11482
892.492	51.11375
892.886	45.11157
893.279	42.10941
893.672	4.01025
894.065	34.08637
894.458	61.15707
894.851	88.21719
895.244	52.13434
895.637	73.17941
896.029	45.11182
896.422	32.0795
896.814	8.02031
897.206	27.06596
897.599	47.11692
897.991	13.03206
898.383	58.14167
898.775	68.15646
899.167	63.15151
899.559	45.11519
899.951	30.07227
900.342	28.07176
900.734	64.16391
901.125	60.15891
901.517	48.12077
901.908	59.14291
902.299	99.24877
902.69	72.17377
903.082	38.09375
903.473	56.13821
903.863	50.12944
904.254	43.10337
904.645	88.22078
905.036	66.16361
905.426	36.08376
905.817	73.18252
906.207	43.1058
906.597	20.04765
906.987	23.0607
907.378	28.07153
907.768	26.06994
908.158	32.07968
908.547	47.12383
908.937	29.07491
909.327	40.09978
909.717	56.14272
910.106	12.02952
910.495	88.22173
910.885	83.21327
911.274	66.16701
911.663	34.08677
912.052	62.15358
912.441	36.09242
912.83	47.11127
913.219	63.16565
913.608	27.06726
913.997	10.02584
914.385	33.08002
914.774	42.10404
915.162	32.07878
915.55	37.09103
915.939	33.08492
916.327	10.02517
916.715	21.05454
917.103	53.13141
917.491	37.09221
917.878	-9.02238
918.266	7.01828
918.654	100.25897
919.041	28.07475
919.429	27.06562
919.816	14.03597
920.203	49.12154
920.591	24.06041
920.978	-17.04212
921.365	49.13023
921.752	16.03937
922.139	46.10372
922.525	64.15836
922.912	29.07183
923.299	34.0865
923.685	46.12204
924.072	9.02103
924.458	34.08585
924.844	52.1314
925.231	30.07186
925.617	16.04179
926.003	45.11632
926.389	45.11555
926.774	44.11324
927.16	28.07095
927.546	35.09184
927.931	48.12172
928.317	28.06558
928.702	11.02646
929.088	51.12414
929.473	-13.03381
929.858	25.06246
930.243	61.14959
930.628	44.11063
931.013	35.08874
931.398	25.05852
931.783	26.06891
932.167	70.17556
932.552	-9.02288
932.937	40.10057
933.321	4.01032
933.705	47.12086
934.09	24.06099
934.474	36.08699
934.858	-6.0159
935.242	18.04315
935.626	51.13342
936.009	-30.08062
936.393	46.11839
936.777	32.08347
937.16	17.04473
937.544	78.18483
937.927	41.10664
938.311	64.15738
938.694	45.11948
939.077	32.0784
939.46	-6.01471
939.843	78.16889
940.226	51.13265
940.609	121.28612
940.991	46.11905
941.374	23.05767
941.757	19.04749
942.139	82.19108
942.522	68.16145
942.904	13.03207
943.286	39.09972
943.668	72.18858
944.05	60.15037
944.432	56.14201
944.814	-22.05512
945.196	45.11337
945.578	87.21445
945.959	36.08659
946.341	31.07571
946.722	45.10748
947.104	82.1991
947.485	64.15183
947.866	59.1533
948.247	-22.05652
948.628	-4.00991
949.009	41.10733
949.39	51.1283
949.771	41.09774
950.152	68.17054
950.532	33.084
950.913	27.06655
951.293	40.10978
951.674	69.17308
952.054	36.09217
952.434	9.02278
952.814	58.14057
953.194	20.05276
953.574	16.03975
953.954	63.15243
954.334	49.12446
954.714	4.01008
955.093	49.1214
955.473	-3.00766
955.853	31.0811
956.232	6.01651
956.611	54.13131
956.99	57.14652
957.37	38.09868
957.749	53.12953
958.128	72.18524
958.506	61.16213
958.885	41.10576
959.264	28.07143
959.643	23.05352
960.021	-4.01024
960.4	29.06804
960.778	45.11247
961.156	45.11551
961.535	51.12088
961.913	54.12905
962.291	68.17949
962.669	-6.01547
963.047	26.06712
963.424	36.09307
963.802	39.09832
964.18	26.06668
964.557	63.14793
964.935	51.12316
965.312	-2.0053
965.69	22.05561
966.067	73.18087
966.444	6.01501
966.821	33.08592
967.198	41.1008
967.575	20.04942
967.952	34.08163
968.329	47.1167
968.705	62.13505
969.082	43.11268
969.458	37.09221
969.835	51.1258
970.211	74.19342
970.587	12.03044
970.963	27.07008
971.339	19.05055
971.715	33.0837
972.091	18.04532
972.467	75.18908
972.843	34.0861
973.219	29.07003
973.594	57.1526
973.97	38.09175
974.345	27.06646
974.721	-17.04173
975.096	13.0322
975.471	71.17107
975.846	45.10974
976.221	31.0811
976.596	82.2006
976.971	36.09029
977.346	31.07328
977.72	60.15522
978.095	44.11564
978.469	-3.00732
978.844	39.09846
979.218	51.12427
979.593	36.08764
979.967	22.0547
980.341	31.07291
980.715	60.15372
981.089	18.04544
981.463	43.10298
981.837	18.04531
982.21	58.13654
982.584	42.1037
982.957	49.12521
983.331	75.18023
983.704	-9.02232
984.078	46.11595
984.451	-16.04031
984.824	40.09985
985.197	20.04947
985.57	56.14216
985.943	25.06221
986.316	79.1953
986.688	23.05636
987.061	59.14216
987.434	46.12138
987.806	61.15047
988.179	46.11174
988.551	45.11616
988.923	23.05778
989.295	-20.05025
989.667	32.07915
990.039	46.11669
990.411	51.1199
990.783	32.07524
991.155	45.11259
991.527	77.18917
991.898	21.05372
992.27	-4.01011
992.641	39.09878
993.012	44.10551
993.384	21.0509
993.755	85.21994
994.126	29.07098
994.497	85.21175
994.868	49.11573
995.239	4.00989
995.61	17.04394
995.98	59.14719
996.351	16.04053
996.722	52.12527
997.092	-13.03196
997.462	25.06058
997.833	38.09147
998.203	37.0907
998.573	51.12848
998.943	43.10384
999.313	29.07159
999.683	38.09437
1000.053	39.0924
1000.423	-18.04462
1000.792	52.13735
1001.162	-20.05038
1001.531	38.09554
1001.901	49.12569
1002.27	24.05524
1002.639	40.10434
1003.009	21.05081
1003.378	31.07985
1003.747	71.17217
1004.116	22.05416
1004.485	11.02674
1004.853	60.15361
1005.222	6.01532
1005.591	25.06053
1005.959	23.05422
1006.328	36.08349
1006.696	77.19036
1007.064	43.10933
1007.433	46.1162
1007.801	38.09382
1008.169	17.04327
1008.537	68.15414
1008.905	19.04585
1009.273	-9.02254
1009.64	29.0718
1010.008	57.139
1010.375	-2.00483
1010.743	82.1904
1011.11	71.17185
1011.478	39.09769
1011.845	32.07668
1012.212	25.0587
1012.579	19.0473
1012.946	17.04129
1013.313	55.13187
1013.68	47.1076
1014.047	46.11286
1014.414	58.14046
1014.78	-2.00506
1015.147	44.10676
1015.513	55.13507
1015.88	48.12267
1016.246	11.02722
1016.612	36.08326
1016.978	37.09234
1017.344	57.14385
1017.71	-1.00246
1018.076	15.03605
1018.442	39.10063
1018.808	51.12958
1019.174	54.13806
1019.539	46.10559
1019.905	49.11788
1020.27	21.0533
1020.636	30.07331
1021.001	48.11637
1021.366	32.07878
1021.731	2.00518
1022.096	6.01554
1022.461	34.08215
1022.826	30.07268
1023.191	-2.00533
1023.556	52.12503
1023.92	10.02491
1024.285	62.1533
1024.649	45.11231
1025.014	67.16806
1025.378	42.10749
1025.742	68.17158
1026.107	20.04618
1026.471	37.08675
1026.835	43.10918
1027.199	93.23143
1027.562	28.06663
1027.926	70.17245
1028.29	56.14477
1028.654	43.10125
1029.017	19.04716
1029.381	41.10017
1029.744	37.09504
1030.107	51.12218
1030.471	28.06771
1030.834	37.08569
1031.197	33.07987
1031.56	0
1031.923	-4.01054
1032.286	62.1472
1032.648	98.23813
1033.011	32.07477
1033.374	50.11816
1033.736	29.07764
1034.099	60.1495
1034.461	-15.03864
1034.823	-1.00254
1035.185	45.11482
1035.548	83.20534
1035.91	47.11466
1036.272	14.03238
1036.634	25.0616
1036.995	103.24638
1037.357	-12.03007
1037.719	-4.00985
1038.08	32.07706
1038.442	1.00243
1038.803	9.02203
1039.165	76.19553
1039.526	47.1153
1039.887	54.13181
1040.248	21.05275
1040.609	29.0719
1040.97	48.1199
1041.331	15.03865
1041.692	76.18398
1042.053	52.12122
1042.413	61.14458
1042.774	20.04943
1043.134	82.19783
1043.495	9.02291
1043.855	54.13279
1044.215	57.14411
1044.576	56.13832
1044.936	52.12127
1045.296	33.08355
1045.656	50.12341
1046.016	2.0049
1046.375	7.01725
1046.735	10.0235
1047.095	13.03117
1047.454	54.11687
1047.814	33.08086
1048.173	14.03328
1048.533	28.06558
1048.892	67.16521
1049.251	66.16737
1049.61	13.03266
1049.969	59.14355
1050.328	13.02908
1050.687	16.03966
1051.046	-17.04206
1051.405	63.16002
1051.763	-12.02866
1052.122	-6.01534
1052.48	-15.03725
1052.839	28.0674
1053.197	42.10141
1053.555	-38.08694
1053.914	22.05414
1054.272	11.02677
1054.63	48.12042
1054.988	31.07562
1055.345	9.02007
1055.703	35.08541
1056.061	7.01829
1056.419	19.04994
1056.776	-16.0393
1057.134	24.05709
1057.491	12.03047
1057.848	8.02009
1058.206	50.11999
1058.563	5.01136
1058.92	-9.02107
1059.277	29.0724
1059.634	38.09071
1059.991	76.18412
1060.348	52.12103
1060.704	35.08564
1061.061	50.1172
1061.418	-3.00743
1061.774	36.09051
1062.131	36.09697
1062.487	1.00241
1062.843	30.07543
1063.199	28.07138
1063.555	68.16182
1063.911	4.01019
1064.267	46.09768
1064.623	9.02244
1064.979	67.15984
1065.335	27.06518
1065.691	5.0122
1066.046	-16.03547
1066.402	59.13854
1066.757	35.08902
1067.112	5.01242
1067.468	97.23813
1067.823	40.0984
1068.178	22.05382
1068.533	66.16218
1068.888	27.0654
1069.243	6.0151
1069.598	57.14071
1069.952	35.08174
1070.307	46.11731
1070.662	-13.03162
1071.016	17.03931
1071.371	51.11784
1071.725	47.11371
1072.079	-18.04415
1072.434	-1.00251
1072.788	54.13127
1073.142	40.10032
1073.496	-16.03901
1073.85	4.00942
1074.203	66.16475
1074.557	25.06746
1074.911	22.05286
1075.265	39.09233
1075.618	31.07616
1075.971	30.07268
1076.325	29.07509
1076.678	43.10192
1077.031	38.08869
1077.385	49.11155
1077.738	41.09522
1078.091	-6.01421
1078.444	18.04279
1078.796	-33.08278
1079.149	5.01262
1079.502	29.07135
1079.855	59.14102
1080.207	39.0974
1080.56	-6.0158
1080.912	18.04438
1081.264	73.17782
1081.617	58.1452
1081.969	39.10091
1082.321	16.03962
1082.673	65.15305
1083.025	54.13082
1083.377	-147.33856
1083.728	16.03787
1084.08	27.06831
1084.432	32.07898
1084.783	41.0974
1085.135	34.08671
1085.486	63.14932
1085.838	44.11039
1086.189	1.00247
1086.54	33.07987
1086.891	6.01559
1087.242	-39.09695
1087.593	40.09851
1087.944	24.05515
1088.295	52.12031
1088.646	20.04987
1088.996	7.01724
1089.347	59.14661
1089.698	22.0535
1090.048	-3.00782
1090.398	46.10766
1090.749	37.09033
1091.099	87.22519
1091.449	46.11599
1091.799	18.04602
1092.149	67.16927
1092.499	-10.02494
1092.849	33.08571
1093.199	15.03784
1093.548	27.06668
1093.898	-6.01538
1094.248	25.06482
1094.597	33.08706
1094.947	-5.01351
1095.296	3.00753
1095.645	18.0474
1095.994	22.05354
1096.343	21.05364
1096.692	96.25993
1097.041	-29.07952
1097.39	65.16656
1097.739	11.02902
1098.088	70.18843
1098.437	28.07495
1098.785	-2.00542
1099.134	36.09602
1099.482	63.17418
1099.83	42.11042
1100.179	72.19133
1100.527	18.04821
1100.875	12.03222
1101.223	26.06967
1101.571	28.07818
1101.919	37.09935
1102.267	-3.00854
1102.615	10.03224
1102.962	4.01288
1103.31	11.03542
1103.658	16.05159
