Data from N2 R0 60C sample11_Subt2__5__11-34-29-688.txt Node

Date: Tue Aug 19 11:34:29 PDT 2025
User: uwsun
Spectrometer: HDX01956
Trigger mode: 0
Integration Time (sec): 5.000000E-1
Scans to average: 1
Nonlinearity correction enabled: true
Boxcar width: 0
Storing dark spectrum: false
XAxis mode: Wavelengths
Number of Pixels in Spectrum: 2068
>>>>>Begin Spectral Data<<<<<
194.03	358.99682
194.578	339.05955
195.127	343.05672
195.676	349.07856
196.225	345.90818
196.773	393.06484
197.321	598.57877
197.87	747.80396
198.418	774.83649
198.966	786.90915
199.513	745.72865
200.061	803.88885
200.609	780.90164
201.156	771.55935
201.704	792.85829
202.251	812.99647
202.798	751.8211
203.345	812.84442
203.892	809.8742
204.438	828.81318
204.985	848.86322
205.532	806.95698
206.078	813.83813
206.624	817.85465
207.17	842.78731
207.716	796.78911
208.262	779.41035
208.808	841.92605
209.354	819.84044
209.899	834.90736
210.445	843.93448
210.99	858.9041
211.535	877.88384
212.08	871.86373
212.625	834.91955
213.17	873.0038
213.715	835.74976
214.259	834.77877
214.804	808.81905
215.348	814.69859
215.892	837.8279
216.436	812.72658
216.98	878.77399
217.524	815.76784
218.068	819.91454
218.612	810.87245
219.155	821.76803
219.698	794.7438
220.242	780.79099
220.785	738.59699
221.328	664.55003
221.871	736.71414
222.414	757.74128
222.956	703.60995
223.499	698.47434
224.041	713.5504
224.583	669.33859
225.126	683.41332
225.668	733.64847
226.21	705.65446
226.751	754.54267
227.293	774.64787
227.835	741.69159
228.376	740.57679
228.918	719.69126
229.459	734.70345
230	706.56341
230.541	737.60601
231.082	650.46497
231.622	751.59229
232.163	733.65317
232.704	727.66561
233.244	734.68736
233.784	689.57472
234.324	748.55523
234.864	714.51212
235.404	718.58472
235.944	719.57933
236.484	752.71155
237.023	768.68668
237.563	762.6244
238.102	752.62108
238.641	748.75165
239.18	729.5993
239.719	760.75756
240.258	788.62903
240.797	773.71577
241.335	762.72175
241.874	740.34811
242.412	795.77119
242.95	736.64002
243.488	752.6003
244.026	743.58216
244.564	785.48631
245.102	762.58085
245.64	759.67213
246.177	769.6
246.715	800.76213
247.252	774.6386
247.789	824.41222
248.326	783.74947
248.863	817.65626
249.4	787.64619
249.936	766.4478
250.473	757.64475
251.009	798.699
251.546	790.60183
252.082	830.657
252.618	732.5118
253.154	831.83692
253.69	722.50511
254.226	762.67629
254.761	815.70256
255.297	756.52165
255.832	812.74303
256.367	813.76201
256.903	795.58154
257.438	791.69975
257.972	853.73719
258.507	838.76801
259.042	804.61913
259.576	837.66752
260.111	788.67116
260.645	780.53475
261.179	791.69174
261.713	810.66858
262.247	854.79786
262.781	830.59653
263.315	799.8072
263.849	852.9454
264.382	841.74606
264.915	879.8849
265.449	843.9129
265.982	864.79266
266.515	860.88327
267.048	871.69519
267.58	852.69312
268.113	853.68055
268.646	853.91919
269.178	833.7041
269.71	902.7768
270.243	821.70451
270.775	829.90918
271.307	867.87829
271.838	835.77437
272.37	869.92891
272.902	830.71824
273.433	804.5902
273.965	915.99323
274.496	840.87262
275.027	859.92718
275.558	857.88418
276.089	811.844
276.62	932.10913
277.15	808.7946
277.681	919.79467
278.211	846.82928
278.741	868.74096
279.272	915.86526
279.802	926.04727
280.332	931.95791
280.861	891.92948
281.391	879.79586
281.921	867.88706
282.45	911.03867
282.98	917.13577
283.509	909.817
284.038	859.77476
284.567	911.87556
285.096	927.00401
285.625	901.85164
286.153	902.8807
286.682	949.92938
287.21	931.00242
287.739	963.02888
288.267	923.99625
288.795	894.07037
289.323	953.00603
289.851	973.02852
290.378	917.84737
290.906	938.03169
291.433	969.11535
291.961	948.90508
292.488	918.0262
293.015	1000.08535
293.542	982.2062
294.069	986.11497
294.596	941.04985
295.122	1040.15646
295.649	958.85725
296.175	1033.20783
296.702	1004.12045
297.228	1018.14537
297.754	1096.15294
298.28	1033.04935
298.806	1057.19709
299.332	1046.02568
299.857	990.96222
300.383	1058.30929
300.908	1009.15186
301.433	1044.18298
301.958	1059.09033
302.483	1025.23487
303.008	1089.31064
303.533	1061.36581
304.058	1110.23962
304.582	1121.2706
305.107	1064.42151
305.631	1059.06405
306.155	1090.1902
306.679	1088.16218
307.203	1161.28462
307.727	1120.25983
308.251	1102.32966
308.775	1092.24336
309.298	1193.44072
309.822	1175.5083
310.345	1198.40756
310.868	1156.33364
311.391	1187.44584
311.914	1189.51534
312.437	1215.30977
312.96	1174.32479
313.482	1193.36193
314.005	1231.58282
314.527	1279.78991
315.049	1245.58029
315.571	1306.41096
316.093	1312.66942
316.615	1306.59382
317.137	1303.30606
317.659	1392.73689
318.18	1302.5346
318.702	1319.4694
319.223	1379.30336
319.744	1388.49702
320.265	1384.70595
320.786	1408.81087
321.307	1444.85513
321.828	1457.61439
322.348	1496.77527
322.869	1507.82389
323.389	1271.48131
323.909	1492.65645
324.43	1506.79114
324.95	1538.71919
325.47	1475.83237
325.989	1551.81628
326.509	1612.6947
327.029	1573.68376
327.548	1631.75246
328.067	1631.01293
328.587	1656.09464
329.106	1634.72439
329.625	1658.2656
330.144	1709.936
330.662	1687.84769
331.181	1721.95365
331.7	1767.02589
332.218	1858.8457
332.736	1850.08366
333.255	1842.04046
333.773	1804.04839
334.291	1841.25649
334.808	1850.94867
335.326	1993.06647
335.844	1969.17074
336.361	1956.47461
336.879	1957.20531
337.396	2021.30423
337.913	2036.12742
338.43	2036.06265
338.947	2123.28687
339.464	2077.91555
339.981	2155.33539
340.497	2100.40428
341.014	2147.45393
341.53	2110.04081
342.046	2245.48721
342.562	2292.62929
343.078	2290.37067
343.594	2269.39563
344.11	2319.37091
344.626	2344.69045
345.141	2337.19711
345.657	2392.17304
346.172	2515.54224
346.687	2463.3415
347.202	2554.23798
347.717	2563.52403
348.232	2573.72883
348.747	2600.36511
349.261	2584.16235
349.776	2568.43556
350.29	2618.73406
350.805	2750.80218
351.319	2698.45695
351.833	2679.24344
352.347	2692.42844
352.861	2739.38443
353.374	2730.28942
353.888	2781.59341
354.401	2795.35279
354.915	2897.26141
355.428	2899.73472
355.941	2909.44809
356.454	2985.19894
356.967	2924.43216
357.48	2916.2952
357.993	2954.6802
358.505	2970.6176
359.018	3097.63965
359.53	3186.61437
360.042	3120.12003
360.554	3094.54866
361.066	3095.64471
361.578	3123.99896
362.09	3102.43774
362.602	3110.08184
363.113	3253.381
363.625	3303.16674
364.136	3332.01953
364.647	3285.43897
365.158	3362.26659
365.669	3384.42844
366.18	3436.3195
366.691	3446.99523
367.201	3434.44554
367.712	3529.16505
368.222	3519.16251
368.733	3593.97651
369.243	3753.92959
369.753	3823.19691
370.263	3869.32426
370.773	3763.40707
371.282	3884.20461
371.792	4060.10788
372.301	4137.2277
372.811	4147.6292
373.32	4174.44719
373.829	4289.9812
374.338	4485.44017
374.847	4680.59794
375.356	4782.67393
375.865	4970.86555
376.373	5141.15406
376.882	5237.72263
377.39	5326.36495
377.898	5637.34945
378.407	5759.67426
378.915	6029.33084
379.423	6219.74036
379.93	6399.41142
380.438	6758.78424
380.946	7116.62222
381.453	7396.73503
381.96	7602.75777
382.468	8197.23184
382.975	8657.82869
383.482	8889.14159
383.989	8979.42079
384.495	9433.35666
385.002	9899.86374
385.509	10507.69825
386.015	11119.36954
386.521	11705.68565
387.028	11988.56894
387.534	12301.92677
388.04	12715.09121
388.546	13019.94165
389.051	13946.14073
389.557	15072.49706
390.063	16181.78445
390.568	16640.71058
391.073	17366.10029
391.578	18045.44127
392.084	18472.91226
392.589	19317.40369
393.093	20655.57769
393.598	22628.94057
394.103	24656.63557
394.607	26704.94901
395.112	28774.92322
395.616	30560.26762
396.12	33426.59832
396.624	37065.49389
397.128	39871.77665
397.632	44327.48648
398.136	47672.5546
398.639	50713.3898
399.143	56823.40184
399.646	60207.86469
400.15	60671.45952
400.653	60560.14334
401.156	60136.25446
401.659	59550.50961
402.162	58431.12733
402.664	54480.21957
403.167	49329.08451
403.67	22278.45323
404.172	2696.20453
404.674	0
405.176	0
405.678	0
406.18	0
406.682	0
407.184	0
407.686	25783.58453
408.187	43316.52985
408.688	51225.60928
409.19	54389.01922
409.691	56215.4214
410.192	57270.57019
410.693	57845.40442
411.194	58219.2365
411.694	58633.01717
412.195	59215.68848
412.696	59364.60701
413.196	59341.61941
413.696	59632.46864
414.196	59367.6054
414.696	59763.40624
415.196	59913.34014
415.696	60584.13941
416.196	61381.18813
416.695	56767.08681
417.195	49822.96564
417.694	47836.96782
418.194	44678.80447
418.693	41998.94573
419.192	40937.90577
419.691	40265.73945
420.19	39419.15294
420.688	38101.98377
421.187	36711.92778
421.685	33842.88834
422.184	30484.88249
422.682	26328.96806
423.18	22743.2178
423.678	20663.70796
424.176	19339.10726
424.674	17920.38322
425.172	17177.73654
425.669	16121.81074
426.167	14926.65433
426.664	13650.77772
427.161	12335.88585
427.659	11671.13596
428.156	10801.60506
428.652	10287.75083
429.149	9863.49289
429.646	9381.27122
430.143	9090.56603
430.639	8447.46522
431.135	8149.29534
431.632	7522.53866
432.128	7029.59886
432.624	6699.9879
433.12	6460.3389
433.616	6396.19208
434.111	6160.67116
434.607	5955.85813
435.103	5842.17628
435.598	5602.27407
436.093	5325.08832
436.588	5027.88636
437.083	4825.11792
437.578	4643.44384
438.073	4492.12543
438.568	4271.0171
439.062	4188.32994
439.557	4038.93701
440.051	3872.76026
440.546	3753.8833
441.04	3758.25688
441.534	3677.65075
442.028	3547.24606
442.522	3481.30902
443.015	3444.8146
443.509	3392.4669
444.002	3233.50224
444.496	3244.93765
444.989	3202.43827
445.482	3149.59545
445.975	3225.18553
446.468	3126.84008
446.961	3077.90601
447.454	2998.06849
447.947	2891.40619
448.439	2900.36616
448.931	2871.1689
449.424	2890.62209
449.916	2850.50715
450.408	2736.12689
450.9	2730.51153
451.392	2698.64682
451.884	2661.17375
452.375	2595.63873
452.867	2588.08508
453.358	2604.17281
453.849	2562.85446
454.341	2536.11133
454.832	2417.89872
455.323	2529.47558
455.814	2409.17682
456.304	2443.16911
456.795	2387.15287
457.285	2351.94735
457.776	2343.05655
458.266	2340.2833
458.756	2311.26449
459.247	2203.25609
459.737	2214.29309
460.226	2111.98468
460.716	2155.27077
461.206	2066.20719
461.695	2018.28037
462.185	1984.01814
462.674	2014.04675
463.163	1973.79231
463.653	1970.70443
464.142	1893.10437
464.63	1890.16627
465.119	1838.88666
465.608	1869.95347
466.096	1815.6831
466.585	1821.8767
467.073	1764.93033
467.561	1703.89949
468.05	1792.88083
468.538	1702.9831
469.026	1676.88118
469.513	1650.72155
470.001	1566.5932
470.489	1627.83098
470.976	1625.73346
471.463	1564.88479
471.951	1499.80886
472.438	1473.61107
472.925	1415.52968
473.412	1353.56664
473.899	1369.40719
474.385	1390.6275
474.872	1424.5958
475.359	1337.58758
475.845	1357.18903
476.331	1209.04976
476.817	1257.43588
477.303	1232.29873
477.789	1217.36936
478.275	1139.3228
478.761	1165.31389
479.247	1166.16241
479.732	1154.38254
480.218	1096.38424
480.703	1106.2945
481.188	1071.91782
481.673	1049.02717
482.158	1039.90326
482.643	997.13447
483.128	1008.96639
483.612	962.93058
484.097	927.9384
484.581	950.88723
485.066	942.99448
485.55	975.85391
486.034	883.65431
486.518	932.92355
487.002	932.01783
487.486	861.855
487.969	901.947
488.453	802.78495
488.936	821.6712
489.42	840.63361
489.903	754.69814
490.386	791.16614
490.869	720.42384
491.352	779.70118
491.835	697.32649
492.318	808.6801
492.8	769.45596
493.283	721.68676
493.765	719.62158
494.247	729.54426
494.73	676.38352
495.212	662.47076
495.694	703.50856
496.175	677.50318
496.657	612.35226
497.139	615.02367
497.62	598.33998
498.102	664.52393
498.583	630.4591
499.064	632.34585
499.545	661.40738
500.026	639.34693
500.507	586.28773
500.988	621.44873
501.469	613.44683
501.949	606.40734
502.43	549.25146
502.91	546.10045
503.39	548.28453
503.87	596.33823
504.35	567.25662
504.83	568.19576
505.31	576.31124
505.79	575.31607
506.269	539.21133
506.749	512.12631
507.228	537.2157
507.707	536.14165
508.187	539.20935
508.666	531.25311
509.145	516.17259
509.623	513.14857
510.102	507.18066
510.581	480.10254
511.059	497.199
511.538	496.21883
512.016	545.25831
512.494	492.1522
512.972	489.12078
513.45	514.16191
513.928	540.2692
514.406	516.21508
514.884	535.31406
515.361	509.1816
515.839	499.10938
516.316	491.14693
516.793	488.18545
517.27	445.03524
517.747	466.15637
518.224	506.14101
518.701	546.19067
519.178	402.97187
519.654	433.00173
520.131	416.00008
520.607	435.04367
521.083	434.97845
521.56	460.07125
522.036	442.96182
522.512	437.03136
522.987	456.06234
523.463	444.04082
523.939	445.06001
524.414	433.97998
524.89	420.97931
525.365	408.9236
525.84	464.09287
526.315	444.05136
526.79	438.97657
527.265	484.09221
527.74	424.00893
528.215	469.0856
528.689	398.88337
529.164	430.92101
529.638	445.11439
530.112	421.98761
530.587	445.94881
531.061	419.99825
531.534	396.93605
532.008	373.8955
532.482	367.82692
532.956	389.97308
533.429	428.0134
533.903	384.84202
534.376	395.86741
534.849	402.92629
535.322	411.95852
535.795	416.99661
536.268	379.89571
536.741	459.06871
537.213	428.97359
537.686	406.9808
538.158	371.82978
538.631	408.96627
539.103	418.9393
539.575	386.79854
540.047	429.93136
540.519	464.08313
540.991	433.0298
541.463	439.03929
541.934	454.02106
542.406	441.03438
542.877	497.10584
543.348	445.05028
543.82	429.01753
544.291	404.92718
544.762	459.05821
545.233	453.10502
545.703	468.01945
546.174	490.10937
546.645	511.19045
547.115	550.28169
547.585	554.22038
548.056	584.36421
548.526	593.34808
548.996	592.3439
549.466	568.3107
549.935	644.44316
550.405	675.393
550.875	669.48172
551.344	694.56039
551.814	677.46956
552.283	655.32264
552.752	748.62002
553.221	833.69181
553.69	823.64946
554.159	821.8517
554.628	816.67719
555.096	883.02919
555.565	838.71395
556.033	810.73128
556.502	837.83559
556.97	783.59449
557.438	819.7592
557.906	853.82049
558.374	789.66129
558.842	796.72844
559.31	863.74723
559.777	868.88245
560.245	899.8972
560.712	890.86468
561.18	974.94034
561.647	918.83628
562.114	1002.00662
562.581	1012.16708
563.048	1112.19056
563.514	1078.27987
563.981	1109.15663
564.448	1153.19584
564.914	1179.31578
565.381	1262.3618
565.847	1241.42301
566.313	1364.57198
566.779	1347.41006
567.245	1364.58694
567.711	1461.78676
568.176	1483.61945
568.642	1511.98849
569.108	1595.02879
569.573	1686.01491
570.038	1732.69814
570.504	1696.79045
570.969	1747.30104
571.434	1832.94749
571.899	1854.20367
572.363	1926.07228
572.828	1929.06768
573.293	1989.15203
573.757	2020.13643
574.222	2090.18043
574.686	2061.20022
575.15	2119.39317
575.614	2111.23254
576.078	2147.39304
576.542	2115.20519
577.006	2119.17031
577.469	2099.5176
577.933	2130.2368
578.396	2078.30903
578.86	2143.36575
579.323	2156.48489
579.786	2021.95214
580.249	2066.2548
580.712	2008.40382
581.175	1897.35284
581.637	1902.02842
582.1	1955.98524
582.563	1911.82905
583.025	1823.22607
583.487	1745.5781
583.95	1737.7985
584.412	1767.70212
584.874	1647.00077
585.336	1642.94725
585.797	1646.6675
586.259	1592.87731
586.721	1522.78487
587.182	1523.73752
587.643	1466.62194
588.105	1488.79157
588.566	1379.29711
589.027	1510.8784
589.488	1298.43769
589.949	1336.63883
590.41	1259.03333
590.87	1325.42739
591.331	1246.20192
591.791	1305.51238
592.252	1184.31421
592.712	1160.34812
593.172	1249.36657
593.632	1188.21313
594.092	1130.16385
594.552	1161.12918
595.011	1129.22464
595.471	1090.07406
595.931	1033.00567
596.39	1058.22782
596.849	1081.18549
597.308	1075.02225
597.768	1066.37939
598.227	1029.13315
598.685	1002.98787
599.144	1045.12699
599.603	1035.15701
600.062	1027.92463
600.52	998.9735
600.978	954.9962
601.437	969.94152
601.895	975.8261
602.353	948.86142
602.811	1017.01381
603.269	1007.1328
603.727	1016.15701
604.184	1051.09576
604.642	1001.16508
605.099	1076.15312
605.557	1037.21068
606.014	1029.98516
606.471	1009.23229
606.928	1135.14169
607.385	1134.41814
607.842	1151.21842
608.299	1199.37603
608.755	1142.36193
609.212	1107.10802
609.668	1168.22609
610.125	1231.48808
610.581	1210.39066
611.037	1140.2113
611.493	1062.16799
611.949	1158.45025
612.405	1098.89849
612.861	1119.246
613.316	1115.29528
613.772	1102.19917
614.227	1130.30805
614.683	1208.15987
615.138	1116.2456
615.593	1101.21082
616.048	1108.15723
616.503	1056.24105
616.958	1111.41434
617.412	1100.2376
617.867	1057.03878
618.321	1114.9833
618.776	1066.05667
619.23	1010.07282
619.684	1130.17837
620.138	1078.14722
620.592	1034.20191
621.046	1041.11023
621.5	1016.19056
621.954	1056.06256
622.407	975.91944
622.861	942.03432
623.314	932.88578
623.768	972.00901
624.221	932.66448
624.674	861.79635
625.127	909.89823
625.58	934.88811
626.033	879.7286
626.485	859.86727
626.938	860.8477
627.39	913.91247
627.843	900.87072
628.295	786.65605
628.747	837.80712
629.199	850.75341
629.651	779.6395
630.103	818.72504
630.555	812.56634
631.006	709.54691
631.458	732.60959
631.909	712.50263
632.361	718.5583
632.812	666.45822
633.263	685.37951
633.714	669.33674
634.165	706.60939
634.616	672.50781
635.067	545.15104
635.518	658.46731
635.968	628.18828
636.419	590.22417
636.869	565.27399
637.319	529.17764
637.769	583.25616
638.219	587.30478
638.669	518.19044
639.119	584.36101
639.569	528.21732
640.019	561.22937
640.468	468.01686
640.918	528.20522
641.367	475.03669
641.816	499.09009
642.265	447.00631
642.714	458.02755
643.163	534.1959
643.612	490.16627
644.061	495.04664
644.51	517.16514
644.958	445.96486
645.406	438.02793
645.855	468.11596
646.303	488.10035
646.751	482.08238
647.199	439.98021
647.647	433.98078
648.095	465.05588
648.543	456.92476
648.99	394.92123
649.438	440.01171
649.885	438.05824
650.333	478.92376
650.78	462.10037
651.227	452.08884
651.674	387.87233
652.121	412.98139
652.568	415.99781
653.015	458.11163
653.461	416.97494
653.908	431.99051
654.354	414.96418
654.801	379.88634
655.247	450.97715
655.693	437.11237
656.139	402.95501
656.585	417.97671
657.031	421.97758
657.477	389.84705
657.922	436.99459
658.368	395.95873
658.813	406.91945
659.259	373.89278
659.704	353.81714
660.149	406.94593
660.594	391.92227
661.039	373.84765
661.484	403.93987
661.929	410.94396
662.373	389.98045
662.818	400.98521
663.262	353.8475
663.707	393.97812
664.151	400.96303
664.595	337.80572
665.039	379.93196
665.483	369.92973
665.927	389.90187
666.371	344.80309
666.814	378.89179
667.258	414.98615
667.701	361.77574
668.145	368.90375
668.588	349.84585
669.031	414.97518
669.474	388.92283
669.917	388.84864
670.36	337.83757
670.803	365.8623
671.245	393.82959
671.688	383.91251
672.13	372.83767
672.573	326.81009
673.015	369.88355
673.457	360.78707
673.899	338.80672
674.341	386.92019
674.783	371.87952
675.225	332.80602
675.666	416.99964
676.108	364.78741
676.549	355.83088
676.991	429.94681
677.432	418.85312
677.873	373.8504
678.314	419.98408
678.755	370.89083
679.196	401.90979
679.637	374.89364
680.078	441.99808
680.518	376.8619
680.959	369.88355
681.399	408.99713
681.839	384.91787
682.28	381.92719
682.72	387.88302
683.16	368.89372
683.6	354.79487
684.039	368.76438
684.479	395.95586
684.919	396.91719
685.358	427.04844
685.798	390.99822
686.237	421.99416
686.676	383.86438
687.115	399.91663
687.554	428.98657
687.993	417.90184
688.432	375.84978
688.871	435.97649
689.309	442.02118
689.748	363.74373
690.186	368.85742
690.625	391.89466
691.063	443.03423
691.501	384.91892
691.939	371.90253
692.377	405.96047
692.815	428.99991
693.253	413.9681
693.69	424.91953
694.128	457.07782
694.565	428.98814
695.003	412.01248
695.44	427.98093
695.877	398.92401
696.314	409.8554
696.751	453.98931
697.188	447.9993
697.625	426.94393
698.061	371.87952
698.498	443.02613
698.934	435.01909
699.371	419.96987
699.807	444.01279
700.243	428.00442
700.679	445.9817
701.115	446.00426
701.551	417.95528
701.987	467.02006
702.422	448.03752
702.858	351.81863
703.294	407.89752
703.729	427.01317
704.164	380.89929
704.599	417.90994
705.035	471.03706
705.47	453.08281
705.904	375.8739
706.339	385.85541
706.774	427.97347
707.209	360.82424
707.643	449.04498
708.078	474.12684
708.512	396.97572
708.946	348.81051
709.38	408.93823
709.814	387.8627
710.248	395.93026
710.682	436.00809
711.116	410.96876
711.549	350.87699
711.983	367.8374
712.416	409.94034
712.85	403.98034
713.283	402.93477
713.716	381.92442
714.149	386.88907
714.582	422.93506
715.015	375.90167
715.448	376.92032
715.881	336.72001
716.313	361.83499
716.746	405.93821
717.178	335.7939
717.61	340.8344
718.043	364.88037
718.475	330.7819
718.907	372.91155
719.339	318.72517
719.77	314.74342
720.202	336.83068
720.634	358.86782
721.065	360.84209
721.497	368.88233
721.928	312.76287
722.359	349.84458
722.79	337.81217
723.221	296.73047
723.652	322.8019
724.083	307.70165
724.514	352.80043
724.945	334.78006
725.375	354.8287
725.806	304.74027
726.236	309.77331
726.666	315.7393
727.096	301.7342
727.526	275.69419
727.956	290.6592
728.386	291.7069
728.816	275.68948
729.246	281.689
729.675	283.69776
730.105	269.64759
730.534	326.7542
730.964	293.72294
731.393	280.67776
731.822	315.78946
732.251	273.68176
732.68	235.54941
733.109	246.60175
733.537	285.68558
733.966	282.70231
734.395	248.57468
734.823	238.53355
735.251	272.6584
735.68	260.64518
736.108	230.57657
736.536	324.74898
736.964	234.5489
737.392	232.57886
737.82	256.61338
738.247	240.57198
738.675	222.52909
739.102	267.66605
739.53	233.59322
739.957	257.65732
740.384	254.61391
740.811	231.57856
741.238	232.56708
741.665	187.43789
742.092	247.58877
742.519	225.55784
742.945	211.51048
743.372	261.64518
743.798	216.55431
744.225	256.60776
744.651	233.58188
745.077	204.50975
745.503	164.40357
745.929	207.49891
746.355	205.50788
746.781	180.44897
747.207	230.55298
747.632	225.55885
748.058	167.42069
748.483	222.51668
748.908	159.3981
749.334	192.47664
749.759	179.42342
750.184	164.39984
750.609	205.50751
751.033	200.47428
751.458	229.51602
751.883	199.4932
752.307	179.43046
752.732	149.38232
753.156	220.54932
753.58	192.46233
754.005	157.39805
754.429	194.46378
754.853	168.4198
755.277	107.25722
755.7	147.37031
756.124	155.39005
756.548	169.41041
756.971	149.36361
757.394	163.42393
757.818	110.28614
758.241	157.40186
758.664	170.4349
759.087	144.3337
759.51	126.31668
759.933	147.36247
760.356	151.38786
760.778	171.43
761.201	160.39387
761.623	127.31027
762.046	142.34233
762.468	127.30495
762.89	149.36916
763.312	168.41843
763.734	120.29464
764.156	97.2448
764.578	169.39838
765	165.40835
765.421	104.26998
765.843	75.199
766.264	144.35213
766.686	106.26766
767.107	87.21532
767.528	59.15387
767.949	94.24352
768.37	58.14441
768.791	134.32987
769.212	87.22464
769.632	33.08062
770.053	106.28271
770.473	105.26053
770.894	84.21248
771.314	84.20266
771.734	98.2359
772.154	65.16854
772.575	94.22232
772.994	78.18362
773.414	120.29202
773.834	104.26513
774.254	102.25783
774.673	67.16673
775.093	85.21513
775.512	74.18599
775.931	83.21409
776.351	91.23031
776.77	58.14625
777.189	62.15167
777.607	51.13328
778.026	129.32741
778.445	83.21365
778.864	93.24138
779.282	111.2731
779.701	58.14865
780.119	114.29858
780.537	47.12111
780.955	44.1132
781.373	64.16166
781.791	45.1053
782.209	80.18811
782.627	79.21359
783.045	61.14636
783.462	84.21926
783.88	59.15582
784.297	74.19051
784.715	86.22571
785.132	93.23202
785.549	77.19779
785.966	58.14911
786.383	74.18632
786.8	90.21467
787.217	83.20217
787.633	24.06196
788.05	38.09192
788.466	32.07603
788.883	20.05231
789.299	73.17974
789.715	77.19252
790.131	120.30463
790.547	23.05848
790.963	86.21863
791.379	71.1832
791.795	49.11492
792.21	32.07685
792.626	17.04146
793.041	84.21286
793.457	99.24985
793.872	77.18482
794.287	65.16016
794.702	38.09551
795.117	31.07969
795.532	71.18269
795.947	79.19322
796.362	52.12749
796.776	70.16479
797.191	51.12853
797.605	62.15297
798.02	36.08996
798.434	76.17137
798.848	89.22485
799.262	54.13864
799.676	54.13352
800.09	98.24878
800.504	27.06692
800.918	77.18468
801.331	21.05548
801.745	34.08069
802.158	65.1658
802.572	9.02227
802.985	43.10595
803.398	72.17528
803.811	12.03107
804.224	35.08808
804.637	64.15732
805.05	-4.00954
805.462	77.19182
805.875	31.08242
806.288	54.13484
806.7	60.15399
807.112	1.00237
807.525	-11.02795
807.937	6.01526
808.349	32.08195
808.761	42.10579
809.173	18.0448
809.584	50.12522
809.996	40.1009
810.408	16.04253
810.819	89.21541
811.231	97.25883
811.642	154.38091
812.053	266.64243
812.464	200.48122
812.875	154.39425
813.286	95.24793
813.697	102.24152
814.108	54.13435
814.519	75.17004
814.929	47.12165
815.34	84.21036
815.75	64.1662
816.16	59.14917
816.571	22.05778
816.981	44.10587
817.391	62.15392
817.801	59.15166
818.211	11.02662
818.62	71.17643
819.03	35.08748
819.44	65.1708
819.849	28.07153
820.259	14.03622
820.668	34.08631
821.077	38.09759
821.486	20.04927
821.895	37.09238
822.304	42.11306
822.713	59.14361
823.122	53.13495
823.531	88.21415
823.939	31.07787
824.348	85.21114
824.756	74.18899
825.164	37.09428
825.573	85.21994
825.981	60.15091
826.389	64.16408
826.797	47.1187
827.205	80.18935
827.612	64.16155
828.02	45.10916
828.428	56.14568
828.835	60.16034
829.243	66.16212
829.65	61.15466
830.057	68.169
830.464	77.1905
830.871	59.14388
831.278	50.12286
831.685	24.0556
832.092	109.27144
832.499	60.13468
832.905	73.18679
833.312	51.1198
833.718	43.10945
834.124	58.13505
834.531	28.07179
834.937	36.09259
835.343	51.12613
835.749	0
836.155	48.12721
836.561	27.06851
836.966	68.16912
837.372	47.12178
837.777	43.11022
838.183	23.05236
838.588	-2.00505
838.993	34.08441
839.399	28.0702
839.804	3.00754
840.209	54.14144
840.613	31.0714
841.018	6.01546
841.423	51.13256
841.828	49.12705
842.232	57.14267
842.637	51.12381
843.041	-8.02123
843.445	47.12022
843.849	12.03037
844.253	43.10478
844.657	28.07256
845.061	55.12874
845.465	25.06212
845.869	44.10531
846.272	30.07535
846.676	42.10278
847.079	34.0892
847.483	54.13572
847.886	24.05867
848.289	9.02455
848.692	35.09034
849.095	54.13323
849.498	38.09667
849.901	28.06568
850.304	62.1519
850.707	0
851.109	51.12949
851.512	42.10636
851.914	73.19013
852.316	23.05869
852.718	26.06891
853.121	46.11524
853.523	64.15493
853.925	31.08302
854.326	-1.00255
854.728	28.07389
855.13	3.00801
855.531	38.09437
855.933	36.08708
856.334	21.05381
856.736	42.09756
857.137	21.05016
857.538	45.1164
857.939	40.10212
858.34	55.13622
858.741	45.11912
859.142	53.13026
859.542	38.10236
859.943	44.11122
860.343	6.01529
860.744	19.04732
861.144	0
861.544	44.10959
861.945	38.09973
862.345	34.08462
862.745	49.1256
863.145	60.14509
863.544	37.09508
863.944	-2.00483
864.344	39.09846
864.743	45.11259
865.143	23.06033
865.542	14.03362
865.941	59.14975
866.34	31.07577
866.74	15.04075
867.139	80.19694
867.537	70.17984
867.936	12.02982
868.335	44.11407
868.734	89.23275
869.132	54.12949
869.531	11.02691
869.929	112.26243
870.327	78.19131
870.726	29.07285
871.124	74.17711
871.522	7.01828
871.92	59.14863
872.318	22.05502
872.715	23.05736
873.113	72.17959
873.511	74.18932
873.908	39.10192
874.306	55.14069
874.703	51.12908
875.1	59.15235
875.497	58.14336
875.894	86.2163
876.291	23.05755
876.688	27.0719
877.085	-11.027
877.482	17.04339
877.878	44.10872
878.275	48.12474
878.671	70.15919
879.068	66.16176
879.464	14.03468
879.86	15.03641
880.256	20.05036
880.652	71.18308
881.048	29.07285
881.444	19.0458
881.84	20.05179
882.236	41.10451
882.631	65.16392
883.027	50.12213
883.422	52.13457
883.817	53.13813
884.213	41.10755
884.608	28.07088
885.003	49.12171
885.398	60.15463
885.793	11.02819
886.188	44.11308
886.582	20.05153
886.977	55.13332
887.371	33.08379
887.766	14.03593
888.16	19.04836
888.554	19.04751
888.949	45.11414
889.343	18.04467
889.737	33.09055
890.131	43.10879
890.525	34.08832
890.918	23.05854
891.312	18.04346
891.706	-34.09008
892.099	11.02824
892.492	91.20128
892.886	-39.09818
893.279	27.07051
893.672	-32.0825
894.065	42.10655
894.458	73.18758
894.851	28.06987
895.244	14.03641
895.637	72.17698
896.029	56.13887
896.422	13.03241
896.814	43.10848
897.206	23.05623
897.599	9.02254
897.991	21.05171
898.383	26.06389
898.775	16.0372
899.167	41.09901
899.559	75.19097
899.951	35.08423
900.342	32.08195
900.734	46.11818
901.125	38.10101
901.517	39.09829
901.908	44.10688
902.299	72.18181
902.69	65.15709
903.082	46.11332
903.473	60.14798
903.863	50.12944
904.254	56.13429
904.645	36.09116
905.036	23.05746
905.426	22.05133
905.817	66.16523
906.207	69.16895
906.597	-23.05525
906.987	57.14957
907.378	-2.00514
907.768	27.07262
908.158	35.0871
908.547	63.16554
908.937	-10.026
909.327	66.16385
909.717	31.07935
910.106	22.05402
910.495	57.14442
910.885	23.05972
911.274	28.07133
911.663	6.01539
912.052	22.0549
912.441	13.03351
912.83	75.17659
913.219	39.10296
913.608	44.10927
913.997	55.14103
914.385	32.07761
914.774	54.13347
915.162	59.14452
915.55	48.11786
915.939	43.11045
916.327	-22.05569
916.715	20.05196
917.103	38.09448
917.491	43.10704
917.878	7.01736
918.266	-18.04719
918.654	65.16935
919.041	19.0508
919.429	43.10419
919.816	33.0845
920.203	17.04241
920.591	-1.00253
920.978	17.04186
921.365	14.03743
921.752	65.15851
922.139	60.1349
922.525	61.15102
922.912	35.08659
923.299	7.01789
923.685	34.09038
924.072	-6.01406
924.458	22.05567
924.844	29.07358
925.231	46.10985
925.617	-3.00786
926.003	30.07775
926.389	-23.05976
926.774	35.09022
927.16	60.15118
927.546	46.12048
927.931	60.15183
928.317	26.06092
928.702	37.08857
929.088	53.12896
929.473	-7.01819
929.858	41.10214
930.243	44.10824
930.628	80.19984
931.013	3.00765
931.398	39.09104
931.783	18.04777
932.167	101.25188
932.552	-12.03052
932.937	31.07807
933.321	-4.01034
933.705	22.05682
934.09	13.0331
934.474	30.07257
934.858	19.05014
935.242	30.07175
935.626	33.08659
936.009	-40.10767
936.393	30.07742
936.777	24.06269
937.16	1.00264
937.544	34.08125
937.927	34.08854
938.311	57.14035
938.694	-3.00803
939.077	52.12692
939.46	-11.02698
939.843	53.11537
940.226	23.06011
940.609	60.14355
940.991	33.08559
941.374	57.14205
941.757	43.10701
942.139	97.22537
942.522	26.06223
942.904	31.07622
943.286	60.15286
943.668	39.10272
944.05	20.05048
944.432	18.04595
944.814	8.01993
945.196	44.11087
945.578	60.14863
945.959	10.02417
946.341	-1.00246
946.722	42.10037
947.104	79.19193
947.485	50.11894
947.866	45.1172
948.247	-32.08236
948.628	10.0247
949.009	42.10993
949.39	48.12081
949.771	45.10719
950.152	58.14572
950.532	67.16951
950.913	64.15668
951.293	28.07699
951.674	116.2885
952.054	66.16808
952.434	11.02783
952.814	63.15254
953.194	41.10777
953.574	28.06941
953.954	42.10202
954.334	32.08152
954.714	30.07521
955.093	41.10173
955.473	23.05844
955.853	17.04458
956.232	-32.0886
956.611	40.09753
956.99	44.11336
957.37	40.10384
957.749	61.14886
958.128	56.14447
958.506	70.18577
958.885	51.13132
959.264	18.046
959.643	61.14089
960.021	77.19433
960.4	35.08203
960.778	83.20602
961.156	31.07977
961.535	15.0358
961.913	81.19257
962.291	56.14812
962.669	-8.02063
963.047	13.03364
963.424	9.02338
963.802	36.09081
964.18	65.16556
964.557	38.08967
964.935	61.14703
965.312	23.06064
965.69	49.12327
966.067	58.1441
966.444	43.10685
966.821	38.09885
967.198	16.03952
967.575	26.06417
967.952	59.14097
968.329	27.06729
968.705	7.01543
969.082	50.13087
969.458	56.13908
969.835	53.13069
970.211	44.1156
970.587	46.11599
970.963	16.04161
971.339	28.07438
971.715	42.10636
972.091	35.08786
972.467	54.13665
972.843	30.07602
973.219	39.094
973.594	58.15525
973.97	69.16562
974.345	41.10065
974.721	-5.01225
975.096	23.05686
975.471	37.08972
975.846	9.02209
976.221	58.15103
976.596	80.19578
976.971	16.04027
977.346	25.05916
977.72	61.15778
978.095	51.13387
978.469	32.07761
978.844	79.19802
979.218	2.00492
979.593	49.119
979.967	58.14326
980.341	40.09391
980.715	23.05931
981.089	51.12797
981.463	91.21593
981.837	65.16222
982.21	51.12022
982.584	71.17436
982.957	34.08711
983.331	34.08234
983.704	-6.01487
984.078	25.06325
984.451	19.04757
984.824	23.05759
985.197	46.11324
985.57	62.15723
985.943	44.10912
986.316	56.13903
986.688	45.10982
987.061	93.22263
987.434	45.11876
987.806	44.10888
988.179	10.02445
988.551	57.14682
988.923	34.08524
989.295	-16.04017
989.667	55.13547
990.039	48.12172
990.411	31.07316
990.783	65.15185
991.155	53.13242
991.527	6.01493
991.898	70.17751
992.27	14.03529
992.641	65.16387
993.012	51.12214
993.384	16.03882
993.755	60.15592
994.126	31.07585
994.497	41.10296
994.868	96.22467
995.239	27.06646
995.61	40.10298
995.98	78.19393
996.351	-5.01271
996.722	34.08218
997.092	30.07317
997.462	-8.01951
997.833	27.06513
998.203	-5.01235
998.573	18.04561
998.943	54.13013
999.313	48.11808
999.683	81.19958
1000.053	53.12523
1000.423	-21.05209
1000.792	38.10061
1001.162	-22.05543
1001.531	-3.0076
1001.901	34.08744
1002.27	57.13034
1002.639	70.18166
1003.009	34.08206
1003.378	-13.03374
1003.747	86.20795
1004.116	13.03206
1004.485	2.00487
1004.853	31.07977
1005.222	7.01787
1005.591	45.10855
1005.959	72.16811
1006.328	28.06504
1006.696	55.13652
1007.064	30.07645
1007.433	-14.03574
1007.801	24.05941
1008.169	18.04581
1008.537	59.13399
1008.905	46.11043
1009.273	9.02247
1009.64	54.13308
1010.008	52.12692
1010.375	7.01686
1010.743	78.18126
1011.11	2.0049
1011.478	-4.0101
1011.845	44.10519
1012.212	46.10757
1012.579	-19.04763
1012.946	36.08712
1013.313	38.0914
1013.68	32.07348
1014.047	5.01236
1014.414	35.08513
1014.78	-24.06095
1015.147	27.06572
1015.513	18.04451
1015.88	26.0667
1016.246	14.03463
1016.612	5.01164
1016.978	47.11709
1017.344	52.13135
1017.71	28.06842
1018.076	38.09092
1018.442	25.06467
1018.808	56.14216
1019.174	24.06168
1019.539	64.14637
1019.905	42.10118
1020.27	47.11874
1020.636	53.12896
1021.001	32.07782
1021.366	42.1032
1021.731	35.09009
1022.096	-6.01557
1022.461	18.04362
1022.826	22.05338
1023.191	3.00799
1023.556	50.12027
1023.92	-2.00499
1024.285	-1.0025
1024.649	44.10983
1025.014	51.1283
1025.378	15.03857
1025.742	29.07368
1026.107	8.01852
1026.471	29.0681
1026.835	72.18187
1027.199	51.12788
1027.562	20.04767
1027.926	33.08185
1028.29	65.16778
1028.654	51.1199
1029.017	34.08416
1029.381	4.00984
1029.744	-14.03628
1030.107	37.08888
1030.471	0
1030.834	32.07419
1031.197	15.03643
1031.56	30.07197
1031.923	36.09419
1032.286	33.07879
1032.648	79.19265
1033.011	54.12564
1033.374	22.05227
1033.736	-9.02425
1034.099	109.26917
1034.461	-17.04381
1034.823	-6.01525
1035.185	35.08946
1035.548	75.18582
1035.91	41.10013
1036.272	-3.00696
1036.634	21.05178
1036.995	70.1685
1037.357	-1.0025
1037.719	-11.02711
1038.08	24.05788
1038.442	6.01456
1038.803	48.11664
1039.165	64.165
1039.526	-2.00495
1039.887	47.11487
1040.248	7.01763
1040.609	18.04472
1040.97	36.09012
1041.331	54.1382
1041.692	92.22204
1042.053	49.1143
1042.413	46.10934
1042.774	0
1043.134	69.16688
1043.495	11.02799
1043.855	33.08146
1044.215	73.18403
1044.576	72.17731
1044.936	-2.00471
1045.296	50.12621
1045.656	18.04469
1046.016	0
1046.375	12.02954
1046.735	26.06092
1047.095	-4.00962
1047.454	15.03273
1047.814	12.02952
1048.173	-15.03585
1048.533	4.00941
1048.892	37.09174
1049.251	61.15483
1049.61	-23.05815
1049.969	69.16757
1050.328	20.04467
1050.687	18.04461
1051.046	-23.05696
1051.405	94.23744
1051.763	52.12265
1052.122	-7.0179
1052.48	-16.03974
1052.839	57.13645
1053.197	15.0364
1053.555	-32.07313
1053.914	2.00494
1054.272	37.08962
1054.63	39.098
1054.988	24.05862
1055.345	32.07103
1055.703	53.12891
1056.061	21.05473
1056.419	-16.04231
1056.776	-11.02699
1057.134	28.06656
1057.491	28.0709
1057.848	7.01758
1058.206	12.02901
1058.563	-19.04338
1058.92	41.09503
1059.277	-7.01759
1059.634	-7.01685
1059.991	76.18412
1060.348	20.04684
1060.704	35.08564
1061.061	58.13574
1061.418	-12.02976
1061.774	32.08051
1062.131	34.09161
1062.487	46.10989
1062.843	6.01515
1063.199	73.18463
1063.555	44.10519
1063.911	19.04828
1064.267	21.04484
1064.623	58.14331
1064.979	33.07924
1065.335	18.04353
1065.691	-8.01957
1066.046	-52.11615
1066.402	-7.01665
1066.757	-8.0205
1067.112	0
1067.468	101.24776
1067.823	44.10816
1068.178	-5.01229
1068.533	39.09631
1068.888	32.07744
1069.243	5.01259
1069.598	48.11869
1069.952	21.04918
1070.307	48.12237
1070.662	-21.05115
1071.016	-14.03257
1071.371	27.06268
1071.725	44.10652
1072.079	-8.01959
1072.434	3.00751
1072.788	83.20066
1073.142	20.05034
1073.496	-21.05125
1073.85	55.12824
1074.203	90.22368
1074.557	2.00542
1074.911	57.13604
1075.265	10.02381
1075.618	-21.05209
1075.971	24.05821
1076.325	26.06736
1076.678	33.07837
1077.031	49.11412
1077.385	86.19431
1077.738	-1.00234
1078.091	-35.08337
1078.444	80.18789
1078.796	6.01494
1079.149	62.15488
1079.502	91.22133
1079.855	36.08643
1080.207	26.06509
1080.56	-22.05807
1080.912	14.03454
1081.264	26.06389
1081.617	55.13776
1081.969	15.03897
1082.321	16.03962
1082.673	23.0546
1083.025	22.05362
1083.377	49.10843
1083.728	6.01423
1084.08	34.08591
1084.432	35.08634
1084.783	49.11623
1085.135	20.05113
1085.486	31.07393
1085.838	10.02524
1086.189	-12.0297
1086.54	19.04611
1086.891	22.05701
1087.242	8.01972
1087.593	30.07402
1087.944	-11.02546
1088.295	40.09277
1088.646	27.06724
1088.996	-11.02717
1089.347	29.07246
1089.698	7.01707
1090.048	-18.04702
1090.398	13.03062
1090.749	32.07819
1091.099	90.23283
1091.449	0
1091.799	9.02305
1092.149	33.08388
1092.499	16.03972
1092.849	32.08313
1093.199	31.07798
1093.548	25.06176
1093.898	22.05613
1094.248	16.04155
1094.597	47.12371
1094.947	-15.04061
1095.296	4.01004
1095.645	31.08146
1095.994	23.05596
1096.343	40.10183
1096.692	55.14991
1097.041	-56.15422
1097.39	95.24215
1097.739	17.04481
1098.088	37.10013
1098.437	15.04024
1098.785	-15.0407
1099.134	29.07744
1099.482	9.02509
1099.83	-1.00265
1100.179	10.02685
1100.527	17.04554
1100.875	-32.08653
1101.223	10.02687
1101.571	8.02241
1101.919	42.11269
1102.267	-8.02278
1102.615	-5.01615
1102.962	-7.02257
1103.31	1.00322
1103.658	9.02904
