Data from N3 R2 sample 2_Subt2__1__10-11-55-385.txt Node

Date: Thu Sep 18 10:11:55 PDT 2025
User: uwsun
Spectrometer: HDX01956
Trigger mode: 0
Integration Time (sec): 5.000000E-1
Scans to average: 1
Nonlinearity correction enabled: true
Boxcar width: 0
Storing dark spectrum: false
XAxis mode: Wavelengths
Number of Pixels in Spectrum: 2068
>>>>>Begin Spectral Data<<<<<
194.03	176.49775
194.578	182.57914
195.127	165.51848
195.676	162.51113
196.225	161.41844
196.773	222.59889
197.321	314.83592
197.87	412.00054
198.418	478.15592
198.966	459.14083
199.513	501.18998
200.061	399.96735
200.609	456.13521
201.156	460.94054
201.704	428.01925
202.251	470.17689
202.798	450.10074
203.345	479.11142
203.892	475.12684
204.438	472.04643
204.985	454.01271
205.532	453.12467
206.078	470.07522
206.624	549.27559
207.17	553.19296
207.716	491.12582
208.262	493.90054
208.808	516.20848
209.354	537.23146
209.899	499.17249
210.445	514.19816
210.99	505.14871
211.535	512.12018
212.08	449.98016
212.625	469.09932
213.17	492.17417
213.715	513.08571
214.259	457.0007
214.804	417.96945
215.348	516.10469
215.892	490.11117
216.436	428.92029
216.98	493.0005
217.524	469.05033
218.068	479.13329
218.612	493.1732
219.155	483.06441
219.698	438.98181
220.242	418.97618
220.785	479.04853
221.328	365.8623
221.871	479.14288
222.414	436.01367
222.956	415.93696
223.499	445.92616
224.041	393.8485
224.583	407.80408
225.126	398.82226
225.668	437.99787
226.21	433.03256
226.751	440.91677
227.293	377.80733
227.835	426.9843
228.376	429.91311
228.918	411.9668
229.459	397.93969
230	455.02101
230.541	407.88135
231.082	451.02734
231.622	395.84185
232.163	384.87812
232.704	446.04756
233.244	437.0174
233.784	422.96188
234.324	468.97943
234.864	419.88757
235.404	418.92466
235.944	445.97924
236.484	412.97198
237.023	411.91202
237.563	465.00497
238.102	484.06016
238.641	402.95611
239.18	405.89722
239.719	415.98114
240.258	444.93004
240.797	473.05017
241.335	398.91488
241.874	453.8149
242.412	489.10329
242.95	459.03591
243.488	403.85069
244.026	470.01601
244.564	502.94553
245.102	486.01837
245.64	415.93237
246.177	469.96481
246.715	484.07887
247.252	382.81927
247.789	539.89631
248.326	465.04478
248.863	447.91707
249.4	467.98318
249.936	522.99914
250.473	533.15761
251.009	436.93386
251.546	485.00126
252.082	430.86606
252.618	468.97207
253.154	497.10767
253.69	440.92125
254.226	503.11366
254.761	466.97137
255.297	460.93202
255.832	468.03625
256.367	488.06129
256.903	508.03828
257.438	500.08145
257.972	449.93157
258.507	445.95334
259.042	505.00763
259.576	512.04126
260.111	482.02333
260.645	465.93073
261.179	471.02578
261.713	513.05492
262.247	492.03597
262.781	456.89223
263.315	404.9257
263.849	474.10738
264.382	536.12582
264.915	527.14747
265.449	428.98382
265.982	473.99756
266.515	467.06899
267.048	512.99422
267.58	504.99736
268.113	507.00506
268.646	432.9938
269.178	479.99114
269.71	538.08678
270.243	541.14857
270.775	493.17948
271.307	467.0321
271.838	563.21145
272.37	453.03772
272.902	518.07598
273.433	531.07728
273.965	508.14086
274.496	486.11946
275.027	526.20981
275.558	524.1807
276.089	497.15461
276.62	469.1036
277.15	493.12454
277.681	457.9126
278.211	491.11051
278.741	515.05047
279.272	479.01673
279.802	451.05046
280.332	517.12567
280.861	515.13506
281.391	544.12959
281.921	499.10295
282.45	511.17222
282.98	519.25544
283.509	606.24455
284.038	553.15571
284.567	554.17954
285.096	558.24101
285.625	475.99166
286.153	582.26821
286.682	537.13164
287.21	504.10869
287.739	540.1706
288.267	576.28215
288.795	540.30409
289.323	522.13007
289.851	546.17859
290.378	506.03745
290.906	552.24185
291.433	586.33457
291.961	631.29567
292.488	505.16167
293.015	558.20659
293.542	624.46172
294.069	608.3719
294.596	573.27942
295.122	610.32762
295.649	574.13682
296.175	578.26853
296.702	606.34846
297.228	550.21459
297.754	620.25444
298.28	655.34986
298.806	580.27613
299.332	629.26483
299.857	570.1805
300.383	578.33168
300.908	663.46781
301.433	639.41697
301.958	669.36702
302.483	584.32304
303.008	645.45162
303.533	575.36283
304.058	616.2964
304.582	626.33653
305.107	608.44693
305.631	623.27117
306.155	620.3054
306.679	675.41979
307.203	659.37089
307.727	630.34856
308.251	629.40749
308.775	738.59223
309.298	645.40359
309.822	665.50582
310.345	749.57976
310.868	701.50879
311.391	751.63585
311.914	674.52096
312.437	711.43851
312.96	733.52637
313.482	664.39816
314.005	683.53032
314.527	699.63337
315.049	728.64423
315.571	779.52739
316.093	727.60293
316.615	688.47539
317.137	812.52218
317.659	758.61936
318.18	727.53398
318.702	783.60532
319.223	778.36243
319.744	783.53452
320.265	790.68996
320.786	806.76869
321.307	787.70925
321.828	795.55733
322.348	855.73338
322.869	869.78262
323.389	1132.72738
323.909	810.60357
324.43	865.77919
324.95	908.7627
325.47	922.95806
325.989	799.65732
326.509	943.773
327.029	920.77925
327.548	954.81172
328.067	945.94909
328.587	969.06379
329.106	924.75465
329.625	963.14104
330.144	961.88034
330.662	978.9285
331.181	1083.09402
331.7	993.92475
332.218	1094.90955
332.736	1045.01942
333.255	1079.08429
333.773	1063.06503
334.291	1062.21188
334.808	1109.01928
335.326	1086.98009
335.844	1120.1426
336.361	1157.44655
336.879	1168.21109
337.396	1201.35136
337.913	1182.18026
338.43	1198.13645
338.947	1239.34757
339.464	1233.06488
339.981	1182.2485
340.497	1223.40686
341.014	1284.46656
341.53	1269.22364
342.046	1359.6489
342.562	1292.54586
343.078	1303.38813
343.594	1284.39253
344.11	1390.55007
344.626	1361.68517
345.141	1382.3981
345.657	1423.40956
346.172	1391.5754
346.687	1353.37277
347.202	1479.50096
347.717	1407.55635
348.232	1479.79015
348.747	1430.48313
349.261	1474.37325
349.776	1515.67213
350.29	1579.93195
350.805	1569.86622
351.319	1541.61905
351.833	1560.60995
352.347	1576.71245
352.861	1576.69106
353.374	1557.56063
353.888	1633.90066
354.401	1617.62081
354.915	1625.60906
355.428	1671.01291
355.941	1691.77075
356.454	1608.53461
356.967	1687.7702
357.48	1695.67395
357.993	1695.98226
358.505	1743.98226
359.018	1809.07725
359.53	1841.09247
360.042	1825.7353
360.554	1860.12052
361.066	1824.05791
361.578	1824.68612
362.09	1837.97946
362.602	1938.7954
363.113	1891.98193
363.625	1968.88628
364.136	1923.72351
364.647	1967.06772
365.158	1995.00429
365.669	1957.08668
366.18	1920.99836
366.691	1969.74
367.201	1994.12906
367.712	2086.9914
368.222	2071.00789
368.733	2071.76642
369.243	2163.92838
369.753	2116.03299
370.263	2204.30111
370.773	2177.31632
371.282	2346.31637
371.792	2255.13037
372.301	2442.40769
372.811	2386.84398
373.32	2455.88058
373.829	2552.31543
374.338	2644.03251
374.847	2601.22032
375.356	2732.35357
375.865	2945.85991
376.373	2990.16984
376.882	3013.82491
377.39	3157.51079
377.898	3202.62642
378.407	3437.08943
378.915	3432.87224
379.423	3605.18575
379.93	3824.10962
380.438	3895.30298
380.946	4127.98151
381.453	4219.15724
381.96	4542.9565
382.468	4831.68215
382.975	5134.81785
383.482	5069.20571
383.989	5124.21121
384.495	5532.23776
385.002	5798.45291
385.509	6172.10286
386.015	6594.15352
386.521	6801.67364
387.028	7094.68085
387.534	7196.42531
388.04	7454.06629
388.546	7672.77411
389.051	8286.31222
389.557	8952.37371
390.063	9324.07806
390.568	9427.3343
391.073	9919.61619
391.578	10356.80688
392.084	10668.08689
392.589	11505.05976
393.093	12499.88738
393.598	13410.53737
394.103	14558.52619
394.607	15942.88209
395.112	16819.14357
395.616	17888.31089
396.12	19339.9408
396.624	21629.49496
397.128	23391.39516
397.632	25642.81322
398.136	27522.03757
398.639	30868.73681
399.143	35299.83171
399.646	39010.35454
400.15	43215.34013
400.653	48715.22141
401.156	55468.79283
401.659	62424.62607
402.162	63338.34597
402.664	62441.93235
403.167	63977.72923
403.67	63769.22307
404.172	63919.58413
404.674	63858.43483
405.176	63738.15102
405.678	63977.72923
406.18	64011.81569
406.682	63863.44694
407.184	63926.60148
407.686	63841.39382
408.187	64025.8516
408.688	63892.51763
409.19	63833.37461
409.691	63977.72923
410.192	63945.6488
410.693	63713.09355
411.194	63812.32447
411.694	63919.58413
412.195	64038.8851
412.696	63222.30968
413.196	62018.6233
413.696	62754.29653
414.196	61933.67769
414.696	58915.95021
415.196	53507.25345
415.696	43004.67646
416.196	33443.08538
416.695	29046.88801
417.195	27505.8136
417.694	26031.00874
418.194	24318.14942
418.693	22945.38405
419.192	22398.59618
419.691	21716.09011
420.19	21279.83674
420.688	20690.83273
421.187	19446.23725
421.685	17848.83282
422.184	15448.10748
422.682	13387.0173
423.18	11820.31951
423.678	10914.06572
424.176	10165.33282
424.674	9663.90738
425.172	8820.16508
425.669	8152.491
426.167	7623.89636
426.664	7004.59109
427.161	6584.66521
427.659	6152.12709
428.156	5764.4507
428.652	5473.75234
429.149	5287.55731
429.646	4994.12163
430.143	4724.78139
430.639	4445.85052
431.135	4230.36655
431.632	4071.79152
432.128	3788.24909
432.624	3725.80092
433.12	3614.96676
433.616	3558.74324
434.111	3488.26173
434.607	3405.33151
435.103	3126.60721
435.598	3118.5758
436.093	2899.20702
436.588	2744.01488
437.083	2640.98189
437.578	2601.14606
438.073	2546.56216
438.568	2374.3983
439.062	2302.69943
439.557	2232.06949
440.051	2116.83827
440.546	2147.89868
441.04	2145.15159
441.534	2042.3108
442.028	2042.10249
442.522	1954.02546
443.015	1828.49432
443.509	1894.03579
444.002	1907.07136
444.496	1780.50408
444.989	1790.93855
445.482	1800.03024
445.975	1835.78145
446.468	1776.49523
446.961	1690.44704
447.454	1661.53215
447.947	1673.7696
448.439	1745.94167
448.931	1687.63704
449.424	1638.98314
449.916	1645.82381
450.408	1531.48303
450.9	1568.72701
451.392	1550.87298
451.884	1506.47272
452.375	1494.71303
452.867	1494.38822
453.358	1414.36923
453.849	1509.24813
454.341	1512.41996
454.832	1374.15533
455.323	1480.71851
455.814	1391.33739
456.304	1403.38567
456.795	1325.26075
457.285	1286.11506
457.776	1374.30679
458.266	1298.3404
458.756	1262.28101
459.247	1232.27956
459.737	1248.33438
460.226	1251.1703
460.716	1225.26824
461.206	1166.19126
461.695	1143.24703
462.185	1154.15489
462.674	1147.04778
463.163	1173.03332
463.653	1148.87862
464.142	1080.10359
464.63	1050.05757
465.119	1131.0688
465.608	1093.03715
466.096	974.70575
466.585	1050.91719
467.073	979.88946
467.561	974.91971
468.05	986.84539
468.538	944.91356
469.026	945.84899
469.513	851.48708
470.001	948.78635
470.489	921.8181
470.976	904.75659
471.463	871.83407
471.951	860.8105
472.438	886.73708
472.925	809.61988
473.412	702.48798
473.899	802.56034
474.385	790.66012
474.872	740.48804
475.359	755.60704
475.845	738.29832
476.331	720.31227
476.817	748.57523
477.303	714.43899
477.789	637.34094
478.275	656.43993
478.761	627.31813
479.247	657.28056
479.732	641.42023
480.218	668.5551
480.703	659.43348
481.188	668.25672
481.673	610.24319
482.158	622.1815
482.643	671.51695
483.128	630.29914
483.612	631.33237
484.097	546.18765
484.581	602.23743
485.066	547.21123
485.55	583.14633
486.034	529.03018
486.518	587.25776
487.002	499.10571
487.486	538.18063
487.969	519.14484
488.453	488.1111
488.936	512.04221
489.42	450.91343
489.903	486.10699
490.386	389.74509
490.869	549.07682
491.352	410.9168
491.835	453.84463
492.318	410.85351
492.8	426.81064
493.283	434.02684
493.765	404.9231
494.247	415.8956
494.73	409.83835
495.212	373.82737
495.694	420.91823
496.175	422.94129
496.657	429.94008
497.139	424.65907
497.62	417.93187
498.102	386.90005
498.583	334.77485
499.064	410.84667
499.545	396.8394
500.026	386.81428
500.507	342.74109
500.988	391.91476
501.469	304.72059
501.949	343.79934
502.43	386.87026
502.91	454.88116
503.39	336.78719
503.87	418.91733
504.35	307.68128
504.83	344.70624
505.31	315.71993
505.79	270.61026
506.269	265.58172
506.749	331.71343
507.228	336.74671
507.707	363.75853
508.187	332.75006
508.666	335.78562
509.145	301.66908
509.623	274.61324
510.102	295.67992
510.581	397.89414
511.059	319.76298
511.538	273.67484
512.016	343.7757
512.494	321.73098
512.972	297.67743
513.45	229.51559
513.928	320.73827
514.406	320.74502
514.884	286.70606
515.361	332.75159
515.839	335.72855
516.316	310.71662
516.793	282.68132
517.27	287.65885
517.747	308.75365
518.224	330.71814
518.701	289.60766
519.178	295.70505
519.654	303.68246
520.131	279.66172
520.607	245.57638
521.083	249.54177
521.56	245.55568
522.036	283.58665
522.512	341.79656
522.987	314.71894
523.463	293.6621
523.939	323.76162
524.414	290.63217
524.89	312.70747
525.365	242.52598
525.84	298.68286
526.315	276.64032
526.79	307.65716
527.265	303.66597
527.74	294.68072
528.215	274.61122
528.689	220.46574
529.164	299.6079
529.638	242.59174
530.112	264.59524
530.587	313.63346
531.061	238.55588
531.534	313.7168
532.008	292.67824
532.482	279.61271
532.956	213.52732
533.429	316.73542
533.903	264.55351
534.376	262.55465
534.849	288.63127
535.322	274.6188
535.795	234.54547
536.268	321.73777
536.741	267.60754
537.213	314.68449
537.686	301.70231
538.158	308.66543
538.631	281.65127
539.103	296.63649
539.575	311.60461
540.047	300.62092
540.519	324.73408
540.991	333.76932
541.463	303.69418
541.934	284.61227
542.406	384.86504
542.877	285.61376
543.348	306.704
543.82	327.75426
544.291	356.78261
544.762	334.75304
545.233	428.00989
545.703	365.7617
546.174	378.82153
546.645	372.84692
547.115	396.89499
547.585	405.86766
548.056	457.03935
548.526	494.07346
548.996	467.02737
549.466	439.99072
549.935	466.02581
550.405	511.01726
550.875	494.07391
551.344	444.98093
551.814	510.06311
552.283	554.08485
552.752	538.14343
553.221	538.07186
553.69	606.21991
554.159	610.36465
554.628	587.19109
555.096	631.43976
555.565	564.11802
556.033	651.37706
556.502	566.23382
556.97	567.13158
557.438	536.14115
557.906	580.23016
558.374	513.08382
558.842	607.30179
559.31	625.23888
559.777	636.38662
560.245	607.24015
560.712	636.28862
561.18	704.3525
561.647	638.24671
562.114	699.39806
562.581	733.57638
563.048	700.39845
563.514	751.64621
563.981	740.46481
564.448	746.45261
564.914	747.49903
565.381	822.59248
565.847	809.6057
566.313	818.61264
566.779	788.51125
567.245	807.5913
567.711	785.61667
568.176	884.65089
568.642	888.89645
569.108	848.77585
569.573	811.5962
570.038	906.54736
570.504	953.76467
570.969	851.79663
571.434	974.75755
571.899	941.84896
572.363	972.8236
572.828	951.79857
573.293	948.78722
573.757	966.84166
574.222	962.76059
574.686	1017.89464
575.15	955.90641
575.614	1059.01541
576.078	962.85971
576.542	991.837
577.006	982.80629
577.469	1016.04872
577.933	1055.92586
578.396	926.8267
578.86	1007.93246
579.323	1022.0101
579.786	943.66903
580.249	1024.96184
580.712	989.98072
581.175	936.92836
581.637	945.77329
582.1	974.71824
582.563	1006.70676
583.025	1034.05087
583.487	989.62417
583.95	983.69591
584.412	1062.75178
584.874	1040.06566
585.336	1054.01797
585.797	1089.8615
586.259	1085.02718
586.721	1055.99368
587.182	1094.00241
587.643	1120.00196
588.105	1182.18243
588.566	1175.86073
589.027	1292.4323
589.488	1292.23883
589.949	1337.46166
590.41	1332.88724
590.87	1453.40543
591.331	1498.3032
591.791	1528.51739
592.252	1567.57579
592.712	1662.76546
593.172	1723.62478
593.632	1805.59949
594.092	1868.6466
594.552	1939.57905
595.011	1938.79881
595.471	2066.83042
595.931	2233.88554
596.39	2209.16472
596.849	2302.0555
597.308	2448.67142
597.768	2572.72622
598.227	2608.3119
598.685	2846.04304
599.144	2996.23964
599.603	3064.18222
600.062	3298.54039
600.52	3500.88523
600.978	3602.14058
601.437	3816.80604
601.895	3967.36701
602.353	4182.40718
602.811	4423.45719
603.269	4626.71663
603.727	4812.68391
604.184	5046.1754
604.642	5324.57926
605.099	5558.07381
605.557	5635.32672
606.014	5958.38294
606.471	6122.35224
606.928	6433.4494
607.385	6762.16139
607.842	6880.59581
608.299	7110.723
608.755	7293.95769
609.212	7622.69999
609.668	7904.94417
610.125	8074.33134
610.581	7990.15143
611.037	8272.28476
611.493	8348.48632
611.949	8564.88021
612.405	8654.69276
612.861	8704.92643
613.316	8829.2036
613.772	8894.22988
614.227	8963.42818
614.683	9038.44798
615.138	8911.2948
615.593	8928.30748
616.048	8933.29648
616.503	8942.41112
616.958	8759.2174
617.412	8674.95183
617.867	8563.66241
618.321	8545.51622
618.776	8467.49308
619.23	8154.28887
619.684	8161.14264
620.138	8017.07803
620.592	7788.15041
621.046	7871.08677
621.5	7576.00174
621.954	7380.52026
622.407	7303.48794
622.861	7078.92236
623.314	6997.51647
623.768	6937.74854
624.221	6660.84055
624.674	6517.63738
625.127	6438.68901
625.58	6293.50298
626.033	6049.40964
626.485	5971.02473
626.938	5896.0249
627.39	5752.95799
627.843	5525.96453
628.295	5380.0392
628.747	5303.3272
629.199	5312.98647
629.651	5146.12545
630.103	5020.19863
630.555	4808.76014
631.006	4656.49737
631.458	4590.62175
631.909	4507.31744
632.361	4398.58197
632.812	4373.62119
633.263	4219.27253
633.714	4134.16126
634.165	3905.09427
634.616	3856.01324
635.067	3725.59725
635.518	3725.0828
635.968	3614.99941
636.419	3577.60917
636.869	3432.16425
637.319	3273.07047
637.769	3246.88232
638.219	3234.17903
638.669	3081.24484
639.119	3006.28791
639.569	2902.3043
640.019	2863.08249
640.468	2797.91498
640.918	2769.22549
641.367	2730.90482
641.816	2629.86151
642.265	2617.11831
642.714	2523.00665
643.163	2516.04961
643.612	2422.33709
644.061	2389.64785
644.51	2394.97809
644.958	2372.79138
645.406	2307.15479
645.855	2222.19447
646.303	2163.92838
646.751	2196.95249
647.199	2217.86227
647.647	2137.94043
648.095	2036.80605
648.543	2106.35936
648.99	2034.03985
649.438	1954.81892
649.885	2025.20991
650.333	2025.17776
650.78	1878.95866
651.227	1942.06183
651.674	1877.71823
652.121	1871.01936
652.568	1824.97531
653.015	1783.979
653.461	1713.75637
653.908	1676.59194
654.354	1738.78221
654.801	1674.66973
655.247	1674.38209
655.693	1622.02791
656.139	1591.65717
656.585	1613.6811
657.031	1615.62626
657.477	1606.36509
657.922	1468.37013
658.368	1529.70112
658.813	1506.40621
659.259	1547.67275
659.704	1548.59393
660.149	1442.39035
660.594	1463.50822
661.039	1407.31858
661.484	1406.43868
661.929	1413.40278
662.373	1292.4867
662.818	1379.54933
663.262	1340.42988
663.707	1337.59247
664.151	1298.40207
664.595	1257.32654
665.039	1318.4838
665.483	1250.47212
665.927	1254.23214
666.371	1289.2847
666.814	1250.26267
667.258	1265.32635
667.701	1229.94673
668.145	1229.37362
668.588	1221.3503
669.031	1194.16422
669.474	1189.21227
669.917	1146.92222
670.36	1205.34927
670.803	1231.2884
671.245	1157.7715
671.688	1145.19107
672.13	1135.98913
672.573	1153.30694
673.015	1166.19554
673.457	1194.95967
673.899	1156.18937
674.341	1106.10864
674.783	1110.10101
675.225	1117.18248
675.666	1163.23307
676.108	1094.82768
676.549	1111.02701
676.991	1088.85531
677.432	1123.66965
677.873	1050.89792
678.314	1124.09974
678.755	1146.22822
679.196	1114.98432
679.637	1045.00214
680.078	1159.09579
680.518	1156.04542
680.959	1097.06174
681.399	1133.21693
681.839	1193.24488
682.28	1078.14822
682.72	1187.07286
683.16	1183.31171
683.6	1181.05156
684.039	1219.8495
684.479	1159.2477
684.919	1145.09659
685.358	1138.2377
685.798	1214.48428
686.237	1211.21564
686.676	1185.03909
687.115	1222.19617
687.554	1240.26378
687.993	1241.04455
688.432	1271.16236
688.871	1247.1497
689.309	1288.32936
689.748	1287.93032
690.186	1240.19354
690.625	1278.25405
691.063	1269.28734
691.501	1294.43016
691.939	1348.56021
692.377	1296.36875
692.815	1400.52508
693.253	1368.39484
693.69	1345.11979
694.128	1307.38713
694.565	1346.35492
695.003	1444.73118
695.44	1390.40573
695.877	1414.41026
696.314	1399.05639
696.751	1467.33877
697.188	1524.47089
697.625	1458.28823
698.061	1470.52495
698.498	1430.4364
698.934	1507.55544
699.371	1512.50859
699.807	1461.46504
700.243	1473.55353
700.679	1525.33489
701.115	1567.52639
701.551	1513.46042
701.987	1564.2983
702.422	1592.63516
702.858	1592.63228
703.294	1717.59259
703.729	1594.70326
704.164	1583.62228
704.599	1660.45156
705.035	1640.4508
705.47	1664.76282
705.904	1638.56037
706.339	1665.5502
706.774	1721.67081
707.209	1699.63172
707.643	1683.72122
708.078	1723.82057
708.512	1703.93023
708.946	1792.76719
709.38	1831.81273
709.814	1809.59896
710.248	1884.97831
710.682	1793.83034
711.116	1810.90361
711.549	1790.08414
711.983	1745.63233
712.416	1857.82682
712.85	1860.00722
713.283	1907.83483
713.716	1891.03345
714.149	1845.70857
714.582	1898.62503
715.015	1892.98606
715.448	1928.14089
715.881	1862.42337
716.313	1964.82154
716.746	1969.88517
717.178	1932.92989
717.61	2074.2952
718.043	2006.09657
718.475	1988.00674
718.907	1950.1076
719.339	2015.72293
719.77	2087.00785
720.202	1973.13861
720.634	2096.13061
721.065	2075.91811
721.497	2083.1044
721.928	2007.04573
722.359	2025.0467
722.79	2087.00053
723.221	2030.13242
723.652	2123.31127
724.083	2085.71177
724.514	2183.85072
724.945	2048.87123
725.375	2155.92285
725.806	2094.13494
726.236	2061.29712
726.666	2118.93664
727.096	2114.10972
727.526	2232.45975
727.956	2182.82779
728.386	2228.18
728.816	2169.38427
729.246	2194.20694
729.675	2168.12255
730.105	2166.13286
730.534	2195.91226
730.964	2156.22584
731.393	2251.18135
731.822	2230.40358
732.251	2209.35243
732.68	2238.89127
733.109	2141.16626
733.537	2209.16472
733.966	2176.25256
734.395	2259.90095
734.823	2252.68189
735.251	2195.05624
735.68	2179.17403
736.108	2192.25197
736.536	2203.9308
736.964	2202.88295
737.392	2214.26399
737.82	2186.01394
738.247	2224.02159
738.675	2198.94007
739.102	2166.22779
739.53	2197.42098
739.957	2124.40601
740.384	2105.01042
740.811	2105.1712
741.238	2134.13228
741.665	2133.92922
742.092	1980.73056
742.519	2067.15119
742.945	2191.11918
743.372	2104.178
743.798	2069.29724
744.225	2030.88805
744.651	2052.16694
745.077	2028.13647
745.503	2000.96052
745.929	2026.00624
746.355	1998.99276
746.781	1979.02705
747.207	1934.85941
747.632	1897.03473
748.058	2013.18883
748.483	1925.70445
748.908	1926.0637
749.334	1951.03547
749.759	1843.81012
750.184	1860.87196
750.609	1834.90976
751.033	1800.67573
751.458	1860.53563
751.883	1717.82763
752.307	1746.67815
752.732	1757.04506
753.156	1730.84379
753.58	1657.60448
754.005	1690.88253
754.429	1679.65897
754.853	1606.78041
755.277	1642.62998
755.7	1615.77051
756.124	1553.71556
756.548	1561.52928
756.971	1603.69039
757.394	1515.77408
757.818	1465.75698
758.241	1482.72085
758.664	1486.69844
759.087	1424.25364
759.51	1386.49214
759.933	1431.48813
760.356	1431.71894
760.778	1369.46457
761.201	1358.38961
761.623	1305.27751
762.046	1320.23838
762.468	1368.36995
762.89	1259.29916
763.312	1378.46388
763.734	1224.22775
764.156	1238.31562
764.578	1240.07722
765	1232.26603
765.421	1199.36834
765.843	1160.38111
766.264	1158.08179
766.686	1058.07037
767.107	1110.08675
767.528	1099.2401
767.949	1042.10891
768.37	1021.02268
768.791	988.88276
769.212	943.94236
769.632	981.82834
770.053	995.11009
770.473	919.79213
770.894	938.86509
771.314	947.78315
771.734	887.67325
772.154	860.82238
772.575	925.70166
772.994	839.54392
773.414	808.58694
773.834	812.68768
774.254	791.61153
774.673	869.75138
775.093	834.73037
775.512	752.57188
775.931	805.71651
776.351	753.59306
776.77	723.51153
777.189	727.45683
777.607	683.50459
778.026	748.57868
778.445	648.43129
778.864	690.50002
779.282	645.31731
779.701	628.36858
780.119	671.47011
780.537	606.31388
780.955	615.35352
781.373	610.30963
781.791	640.24294
782.209	622.19528
782.627	587.36613
783.045	522.03703
783.462	528.19845
783.88	553.27123
784.297	543.20835
784.715	554.26719
785.132	490.04577
785.549	516.14367
785.966	486.09316
786.383	522.14402
786.8	516.05084
787.217	501.06259
787.633	453.02899
788.05	509.03774
788.466	516.05132
788.883	467.08225
789.299	439.93358
789.715	502.08671
790.131	414.93337
790.547	411.92831
790.963	436.97331
791.379	390.90043
791.795	387.78537
792.21	385.80735
792.626	323.69619
793.041	365.82074
793.457	367.82151
793.872	354.74973
794.287	399.87767
794.702	326.72479
795.117	333.76596
795.532	354.82189
795.947	369.79327
796.362	336.71534
796.776	325.67973
797.191	349.7838
797.605	301.66074
798.02	317.70844
798.434	328.66366
798.848	357.81688
799.262	298.68451
799.676	322.72154
800.09	290.65973
800.504	301.66936
800.918	248.52731
801.331	209.50431
801.745	248.52456
802.158	268.61684
802.572	272.61127
802.985	280.61865
803.398	218.4845
803.811	204.48321
804.224	246.56281
804.637	233.52052
805.05	218.46696
805.462	227.5182
805.875	204.5018
806.288	217.49438
806.7	149.35219
807.112	167.3612
807.525	143.32961
807.937	149.35137
808.349	198.46337
808.761	220.5094
809.173	208.47531
809.584	197.45498
809.996	198.45519
810.408	232.56961
810.819	263.5732
811.231	304.75737
811.642	293.67477
812.053	249.56681
812.464	176.39262
812.875	158.38622
813.286	174.42928
813.697	200.4247
814.108	179.40979
814.519	219.45804
814.929	171.41153
815.34	136.30978
815.75	149.36388
816.16	134.31336
816.571	126.31178
816.981	171.37475
817.391	124.28188
817.801	160.37841
818.211	184.41063
818.62	183.41709
819.03	146.3382
819.44	105.25815
819.849	123.2922
820.259	157.37669
820.668	154.36069
821.077	147.35042
821.486	119.26882
821.895	86.20048
822.304	89.22661
822.713	130.29013
823.122	87.20787
823.531	102.22688
823.939	139.32307
824.348	116.26668
824.756	91.21718
825.164	139.33046
825.573	121.28988
825.981	134.3136
826.389	139.33097
826.797	187.44986
827.205	117.25717
827.612	121.28246
828.02	85.18974
828.428	94.22927
828.835	105.26735
829.243	94.21213
829.65	82.19753
830.057	55.12784
830.464	145.33928
830.871	143.3254
831.278	91.21051
831.685	110.23135
832.092	75.17425
832.499	102.21291
832.905	115.27572
833.312	55.11784
833.718	139.33135
834.124	91.19876
834.531	93.22204
834.937	93.22983
835.343	84.19204
835.749	64.14094
836.155	90.22653
836.561	70.16568
836.966	91.21176
837.372	68.16567
837.777	105.25088
838.183	79.16626
838.588	79.18962
838.993	123.28464
839.399	37.0879
839.804	39.09208
840.209	125.30732
840.613	54.11482
841.018	41.0998
841.423	59.14618
841.828	81.19782
842.232	96.22282
842.637	166.37246
843.041	64.15906
843.445	61.14608
843.849	102.24226
844.253	89.20105
844.657	64.15633
845.061	137.29872
845.465	93.21462
845.869	110.24244
846.272	92.2154
846.676	11.0253
847.079	78.1923
847.483	96.2281
847.886	104.23843
848.289	66.17257
848.692	53.12847
849.095	53.12178
849.498	98.23357
849.901	93.2008
850.304	86.1959
850.707	75.18296
851.109	112.26847
851.512	117.2743
851.914	77.18791
852.316	83.20383
852.718	87.22176
853.121	45.10641
853.523	53.11797
853.925	53.13519
854.326	96.23126
854.728	57.142
855.13	64.16091
855.531	77.17656
855.933	77.17479
856.334	68.16443
856.736	107.22945
857.137	84.18816
857.538	119.28726
857.939	116.27711
858.34	83.19109
858.741	71.17803
859.142	35.08058
859.542	87.22238
859.943	41.09826
860.343	23.05561
860.744	105.24376
861.144	142.33076
861.544	53.1244
861.945	53.13006
862.345	83.19299
862.745	87.20859
863.145	76.16996
863.544	60.14651
863.944	84.18917
864.344	71.16672
864.743	114.26847
865.143	101.2506
865.542	25.05511
865.941	94.22318
866.34	81.1826
866.74	72.18665
867.139	114.26313
867.537	55.13342
867.936	94.21671
868.335	55.13447
868.734	59.14559
869.132	-43.09634
869.531	103.23372
869.929	72.15749
870.327	101.23029
870.726	42.09983
871.124	76.16793
871.522	41.1005
871.92	88.2074
872.318	41.09579
872.715	70.16338
873.113	79.18289
873.511	86.20411
873.908	81.19966
874.306	31.07523
874.703	71.16854
875.1	40.09731
875.497	59.13502
875.894	57.13697
876.291	73.17202
876.688	21.05264
877.085	71.16163
877.482	63.15139
877.878	28.06604
878.275	71.17378
878.671	72.14729
879.068	72.16613
879.464	95.21854
879.86	29.0661
880.256	66.15343
880.652	47.11525
881.048	63.14805
881.444	21.04748
881.84	63.15369
882.236	44.10652
882.631	61.14458
883.027	117.26721
883.422	47.11513
883.817	53.12939
884.213	63.15563
884.608	61.14709
885.003	50.11472
885.398	24.05821
885.793	87.20779
886.188	8.01926
886.582	34.08345
886.977	79.17744
887.371	42.10167
887.766	18.04366
888.16	15.03559
888.554	43.10156
888.949	49.11837
889.343	72.16725
889.737	46.11991
890.131	25.06069
890.525	63.15615
890.918	14.03412
891.312	70.15822
891.706	18.04574
892.099	57.13905
892.492	97.19595
892.886	48.1126
893.279	34.08348
893.672	90.2209
894.065	70.16831
894.458	30.07211
894.851	61.14217
895.244	55.13517
895.637	77.17784
896.029	98.2298
896.422	5.01168
896.814	39.09311
897.206	74.17094
897.599	116.2719
897.991	63.14701
898.383	56.1271
898.775	84.1825
899.167	66.14955
899.559	38.09192
899.951	48.10739
900.342	90.21648
900.734	100.24281
901.125	18.0455
901.517	67.15794
901.908	56.12653
902.299	31.07339
902.69	100.22631
903.082	77.17812
903.473	86.19977
903.863	85.20627
904.254	79.177
904.645	40.09449
905.036	68.16114
905.426	53.11404
905.817	50.11702
906.207	-23.0527
906.597	95.21346
906.987	54.13362
907.378	50.12254
907.768	51.13073
908.158	50.11679
908.547	86.21622
908.937	27.06614
909.327	40.09321
909.717	62.14851
910.106	78.17782
910.495	60.14196
910.885	80.19461
911.274	45.1081
911.663	59.14248
912.052	75.17467
912.441	86.21108
912.83	46.10028
913.219	53.13318
913.608	95.22264
913.997	29.07101
914.385	91.20682
914.774	58.13505
915.162	57.1318
915.55	69.15822
915.939	62.15167
916.327	44.10479
916.715	104.25715
917.103	27.0629
917.491	81.19064
917.878	60.14103
918.266	21.05254
918.654	75.18541
919.041	74.18832
919.429	36.08164
919.816	35.08551
920.203	53.12469
920.591	72.17134
920.978	73.17088
921.365	81.20493
921.752	26.0587
922.139	89.18268
922.525	63.1455
922.912	95.2195
923.299	39.09358
923.685	-20.05047
924.072	20.04319
924.458	60.14339
924.844	45.10723
925.231	30.06643
925.617	49.12154
926.003	75.1831
926.389	31.07548
926.774	44.107
927.16	63.14966
927.546	112.27724
927.931	82.19409
928.317	44.09625
928.702	53.11938
929.088	75.17343
929.473	98.24018
929.858	60.14185
930.243	78.18076
930.628	101.23642
931.013	57.13588
931.398	70.15033
931.783	2.00506
932.167	104.24454
932.552	17.04107
932.937	26.06187
933.321	72.17476
933.705	4.00967
934.09	62.14698
934.474	64.1436
934.858	31.07801
935.242	40.08857
935.626	51.1265
936.009	60.15565
936.393	84.2077
936.777	36.08967
937.16	65.16416
937.544	81.17827
937.927	79.19322
938.311	70.16203
938.694	48.12302
939.077	67.15326
939.46	-2.00465
939.843	16.03111
940.226	3.00743
940.609	82.18134
940.991	13.03186
941.374	100.23413
941.757	31.07339
942.139	47.10139
942.522	61.13673
942.904	73.16759
943.286	50.12177
943.668	84.21097
944.05	74.17447
944.432	35.08283
944.814	75.17453
945.196	36.08528
945.578	57.13222
945.959	30.06679
946.341	51.1176
946.722	104.22951
947.104	55.12597
947.485	88.19452
947.866	36.08833
948.247	79.19286
948.628	12.02769
949.009	40.09887
949.39	53.12576
949.771	51.11045
950.152	54.12737
950.532	72.17476
950.913	43.09939
951.293	53.13978
951.674	69.15949
952.054	99.23853
952.434	89.21119
952.814	33.07449
953.194	49.12189
953.574	89.20768
953.954	18.04072
954.334	65.15691
954.714	26.06147
955.093	63.14822
955.473	102.2459
955.853	75.18643
956.232	51.13501
956.611	33.07497
956.99	80.19323
957.37	42.1024
957.749	63.14104
958.128	29.07106
958.506	27.06797
958.885	48.11607
959.264	60.143
959.643	81.17632
960.021	79.18861
960.4	35.07586
960.778	83.1917
961.156	18.04344
961.535	40.08831
961.913	112.24923
962.291	52.13032
962.669	45.11047
963.047	65.16028
963.424	101.2496
963.802	39.09254
964.18	56.13362
964.557	100.21643
964.935	92.20659
965.312	64.16137
965.69	64.15195
966.067	41.09469
966.444	44.10201
966.821	52.12928
967.198	81.18469
967.575	97.22492
967.952	121.26786
968.329	79.18471
968.705	105.21328
969.082	77.19224
969.458	63.14684
969.835	71.16502
970.211	82.20394
970.587	66.15779
970.963	33.08095
971.339	69.17414
971.715	60.14405
972.091	75.17618
972.467	37.08742
972.843	71.17087
973.219	61.13836
973.594	36.0911
973.97	39.08644
974.345	19.04407
974.721	52.11859
975.096	70.16331
975.471	93.20828
975.846	74.16808
976.221	40.09811
976.596	75.17473
976.971	122.28753
977.346	86.18812
977.72	48.11703
978.095	47.11696
978.469	106.23823
978.844	72.172
979.218	100.23146
979.593	102.23027
979.967	-13.03011
980.341	63.139
980.715	95.22889
981.089	55.13202
981.463	61.13352
981.837	79.18673
982.21	59.12701
982.584	61.14167
982.957	60.14476
983.331	28.06254
983.704	112.26468
984.078	30.07109
984.451	61.14268
984.824	63.14793
985.197	10.02306
985.57	23.05472
985.943	58.13441
986.316	37.0858
986.688	94.21472
987.061	72.16135
987.434	102.25756
987.806	18.04142
988.179	26.0587
988.551	64.15487
988.923	37.08705
989.295	117.27537
989.667	59.13713
990.039	92.22062
990.411	2.00436
990.783	54.11677
991.155	15.03497
991.527	38.08799
991.898	64.15365
992.27	102.24254
992.641	52.12432
993.012	12.02643
993.384	31.07063
993.755	63.15518
994.126	72.16685
994.497	49.11546
994.868	72.15503
995.239	53.12255
995.61	51.12349
995.98	60.13915
996.351	95.22577
996.722	78.17422
997.092	66.15003
997.462	78.17573
997.833	42.09439
998.203	81.1838
998.573	54.12964
998.943	106.23647
999.313	110.25117
999.683	42.0971
1000.053	22.04735
1000.423	52.11998
1000.792	1.00249
1001.162	63.14718
1001.531	93.21863
1001.901	51.1213
1002.27	16.03353
1002.639	-1.00246
1003.009	77.17373
1003.378	58.14278
1003.747	25.05634
1004.116	70.15932
1004.485	42.09613
1004.853	34.08175
1005.222	-2.00479
1005.591	72.16208
1005.959	81.17384
1006.328	104.22162
1006.696	5.01159
1007.064	11.02648
1007.433	27.06446
1007.801	13.03022
1008.169	31.07458
1008.537	69.14457
1008.905	63.14104
1009.273	28.06602
1009.64	64.1479
1010.008	56.1272
1010.375	111.24972
1010.743	64.13567
1011.11	91.20875
1011.478	95.22542
1011.845	15.03372
1012.212	82.17815
1012.579	75.17604
1012.946	21.04744
1013.313	51.11483
1013.68	68.14402
1014.047	35.08
1014.414	20.04534
1014.78	-9.02181
1015.147	73.16585
1015.513	23.05333
1015.88	73.17715
1016.246	89.20596
1016.612	41.08875
1016.978	60.14169
1017.344	67.15868
1017.71	65.15012
1018.076	40.0892
1018.442	46.11433
1018.808	91.21901
1019.174	13.03131
1019.539	16.03371
1019.905	49.11119
1020.27	41.09695
1020.636	62.13963
1021.001	66.15125
1021.366	67.15431
1021.731	112.27815
1022.096	55.13462
1022.461	87.19597
1022.826	129.29117
1023.191	28.07111
1023.556	37.08249
1023.92	46.10728
1024.285	17.0395
1024.649	69.16019
1025.014	42.09856
1025.378	60.14563
1025.742	23.05451
1026.107	72.15369
1026.471	54.11927
1026.835	36.0858
1027.199	45.10406
1027.562	29.06382
1027.926	53.12314
1028.29	69.16732
1028.654	48.10477
1029.017	67.15782
1029.381	53.12153
1029.744	65.15904
1030.107	117.26074
1030.471	78.17875
1030.834	44.09372
1031.197	43.09904
1031.56	56.12524
1031.923	33.08254
1032.286	60.13418
1032.648	62.13911
1033.011	84.18561
1033.374	42.09319
1033.736	9.02301
1034.099	51.11915
1034.461	10.02467
1034.823	61.1462
1035.185	19.04569
1035.548	64.14955
1035.91	27.06196
1036.272	83.1799
1036.634	76.17696
1036.995	63.1397
1037.357	49.11488
1037.719	38.08886
1038.08	112.25336
1038.442	-7.01603
1038.803	21.04761
1039.165	13.03154
1039.526	79.1818
1039.887	70.15926
1040.248	88.2103
1040.609	59.13773
1040.97	-5.01178
1041.331	87.21176
1041.692	87.19645
1042.053	46.09909
1042.413	64.14076
1042.774	94.21749
1043.134	56.12529
1043.495	32.07741
1043.855	75.17542
1044.215	59.13919
1044.576	32.07404
1044.936	61.13199
1045.296	62.14794
1045.656	47.10916
1046.016	61.13954
1046.375	72.16639
1046.735	120.26071
1047.095	37.08293
1047.454	87.17067
1047.814	91.20774
1048.173	20.04517
1048.533	65.14143
1048.892	16.03718
1049.251	49.11699
1049.61	50.11812
1049.969	58.12982
1050.328	59.1211
1050.687	80.18377
1051.046	29.06754
1051.405	19.04508
1051.763	56.1242
1052.122	14.03365
1052.48	116.26988
1052.839	108.24432
1053.197	61.13656
1053.555	59.12461
1053.914	57.13275
1054.272	30.06795
1054.63	40.09413
1054.988	61.13971
1055.345	38.0765
1055.703	93.21265
1056.061	63.15746
1056.419	91.229
1056.776	-11.02533
1057.134	22.04786
1057.491	53.12731
1057.848	39.09261
1058.206	33.07299
1058.563	66.13722
1058.92	76.16505
1059.277	71.16704
1059.634	29.06433
1059.991	82.18709
1060.348	71.15284
1060.704	126.29002
1061.061	88.18907
1061.418	77.17805
1061.774	54.12767
1062.131	47.12186
1062.487	11.02456
1062.843	51.12176
1063.199	39.09326
1063.555	114.25126
1063.911	29.07006
1064.267	140.26509
1064.623	104.24235
1064.979	27.05887
1065.335	41.09281
1065.691	53.11924
1066.046	77.15919
1066.402	8.01732
1066.757	84.20235
1067.112	59.13762
1067.468	64.1462
1067.823	32.0721
1068.178	50.11472
1068.533	85.19561
1068.888	52.11787
1069.243	63.14863
1069.598	-1.00233
1069.952	53.1164
1070.307	46.10989
1070.662	123.27898
1071.016	105.22496
1071.371	98.21146
1071.725	58.13089
1072.079	100.22824
1072.434	56.13065
1072.788	50.11196
1073.142	93.21752
1073.496	17.03865
1073.85	66.14498
1074.203	59.13686
1074.557	118.30305
1074.911	60.13529
1075.265	94.20614
1075.618	76.17689
1075.971	95.21346
1076.325	63.15478
1076.678	59.12843
1077.031	-11.02344
1077.385	92.18956
1077.738	100.2117
1078.091	73.15904
1078.444	39.08525
1078.796	34.08072
1079.149	96.2274
1079.502	75.16977
1079.855	105.23128
1080.207	116.26892
1080.56	16.04031
1080.912	77.17791
1081.264	87.19981
1081.617	40.09391
1081.969	46.11228
1082.321	53.12324
1082.673	66.14565
1083.025	40.09012
1083.377	281.59943
1083.728	76.16702
1084.08	71.16795
1084.432	41.09424
1084.783	56.12213
1085.135	80.19228
1085.486	27.05957
1085.838	51.12078
1086.189	95.22089
1086.54	72.16261
1086.891	66.16319
1087.242	33.07867
1087.593	50.1144
1087.944	70.15176
1088.295	87.186
1088.646	79.18608
1088.996	37.0861
1089.347	25.05859
1089.698	53.12114
1090.048	-3.00751
1090.398	66.14419
1090.749	33.07488
1091.099	53.12968
1091.449	51.12237
1091.799	45.1081
1092.149	68.16089
1092.499	64.14908
1092.849	24.059
1093.199	42.10006
1093.548	46.10711
1093.898	24.0576
1094.248	15.03687
1094.597	47.11709
1094.947	57.14688
1095.296	96.22661
1095.645	36.08986
1095.994	58.13292
1096.343	63.15243
1096.692	86.22033
1097.041	64.16996
1097.39	36.08626
1097.739	28.07025
1098.088	8.02066
1098.437	75.19218
1098.785	1.0026
1099.134	36.09071
1099.482	90.23884
1099.83	81.20406
1100.179	57.14606
1100.527	24.06099
1100.875	18.04655
1101.223	79.20293
1101.571	15.04019
1101.919	59.15203
1102.267	68.18691
1102.615	2.00642
1102.962	1.00321
1103.31	5.01606
1103.658	-1.00321
