Data from N3 R2 sample 10_Subt2__4__10-19-03-378.txt Node

Date: Thu Sep 18 10:19:03 PDT 2025
User: uwsun
Spectrometer: HDX01956
Trigger mode: 0
Integration Time (sec): 5.000000E-1
Scans to average: 1
Nonlinearity correction enabled: true
Boxcar width: 0
Storing dark spectrum: false
XAxis mode: Wavelengths
Number of Pixels in Spectrum: 2068
>>>>>Begin Spectral Data<<<<<
194.03	92.2635
194.578	107.34357
195.127	101.3199
195.676	99.31478
196.225	128.33456
196.773	119.32642
197.321	177.48194
197.87	246.61734
198.418	293.7346
198.966	288.73955
199.513	310.76473
200.061	264.6563
200.609	272.70116
201.156	314.66327
201.704	254.62638
202.251	314.80995
202.798	280.70795
203.345	313.75149
203.892	299.73475
204.438	268.62053
204.985	305.70268
205.532	257.66216
206.078	288.68425
206.624	321.78064
207.17	333.7534
207.716	318.7558
208.262	315.60129
208.808	331.80465
209.354	339.80957
209.899	279.68486
210.445	301.73228
210.99	328.77416
211.535	335.76162
212.08	309.69455
212.625	280.68184
213.17	301.74594
213.715	354.77657
214.259	305.69062
214.804	289.68887
215.348	351.77955
215.892	316.74324
216.436	296.65455
216.98	267.5708
217.524	315.72919
218.068	317.77495
218.612	349.85505
219.155	311.71136
219.698	301.69375
220.242	268.64433
220.785	310.70408
221.328	272.65419
221.871	283.70186
222.414	290.69509
222.956	222.52096
223.499	271.58587
224.041	271.6004
224.583	284.57727
225.126	327.68634
225.668	259.61264
226.21	280.68871
226.751	317.67856
227.293	291.63476
227.835	299.70833
228.376	299.65442
228.918	261.6319
229.459	268.65019
230	323.74593
230.541	290.64369
231.082	273.6455
231.622	238.52455
232.163	250.58711
232.704	295.71474
233.244	287.68934
233.784	252.59412
234.324	310.67147
234.864	263.57612
235.404	255.58329
235.944	312.70575
236.484	324.77745
237.023	309.70025
237.563	352.78064
238.102	282.64517
238.641	299.72524
239.18	305.68978
239.719	266.64703
240.258	280.60779
240.797	295.68046
241.335	260.61417
241.874	333.61746
242.412	331.7723
242.95	296.6916
243.488	270.58658
244.026	306.68598
244.564	295.5839
245.102	296.64744
245.64	292.67261
246.177	248.53558
246.715	360.82457
247.252	279.61168
247.789	391.67667
248.326	295.68723
248.863	268.57207
249.4	300.6548
249.936	335.67022
250.473	329.74677
251.009	292.6449
251.546	333.71219
252.082	260.54416
252.618	296.63841
253.154	299.6949
253.69	330.70776
254.226	348.79677
254.761	361.77006
255.297	256.5429
255.832	329.75101
256.367	297.67333
256.903	326.69496
257.438	299.67566
257.972	329.7009
258.507	257.57294
259.042	313.65348
259.576	360.75877
260.111	307.67788
260.645	357.73243
261.179	320.7206
261.713	355.75727
262.247	228.50882
262.781	351.70385
263.315	264.62192
263.849	312.7535
264.382	336.73802
264.915	335.76039
265.449	270.64026
265.982	316.68943
266.515	351.82377
267.048	368.73914
267.58	335.68916
268.113	294.61286
268.646	286.67714
269.178	275.59503
269.71	393.82158
270.243	376.8283
270.775	327.80858
271.307	286.65721
271.838	347.78251
272.37	301.71196
272.902	310.67491
273.433	360.7601
273.965	333.77604
274.496	312.74496
275.027	316.75855
275.558	334.78312
276.089	369.88051
276.62	312.75804
277.15	313.7412
277.681	350.71629
278.211	321.7525
278.741	340.72228
279.272	359.7834
279.802	301.72324
280.332	328.74405
280.861	314.72241
281.391	337.73321
281.921	325.74577
282.45	314.75002
282.98	325.81627
283.509	398.8569
284.038	369.80385
284.567	353.78562
285.096	379.87557
285.625	367.78456
286.153	381.86688
286.682	368.80558
287.21	322.73666
287.739	360.81165
288.267	365.84926
288.795	346.86759
289.323	359.80559
289.851	378.84665
290.378	364.77158
290.906	357.83654
291.433	361.86077
291.961	372.80952
292.488	376.88879
293.015	373.83975
293.542	423.02903
294.069	376.88983
294.596	368.85776
295.122	406.92319
295.649	373.77459
296.175	368.84458
296.702	420.97199
297.228	337.77856
297.754	410.87059
298.28	382.83658
298.806	390.89363
299.332	421.88829
299.857	391.84345
300.383	371.89138
300.908	365.85929
301.433	433.00054
301.958	408.88408
302.483	369.87377
303.008	437.02458
303.533	388.95426
304.058	370.82191
304.582	397.89085
305.107	408.00742
305.631	434.92476
306.155	443.97034
306.679	432.95841
307.203	457.99467
307.727	444.98994
308.251	423.98804
308.775	483.09815
309.298	391.89789
309.822	384.92033
310.345	529.16888
310.868	478.07733
311.391	447.03541
311.914	480.12537
312.437	455.9756
312.96	451.9991
313.482	432.95722
314.005	441.0364
314.527	417.02724
315.049	452.07733
315.571	486.01792
316.093	494.14153
316.615	476.06669
317.137	485.98334
317.659	515.15731
318.18	464.03464
318.702	520.12861
319.223	519.97155
319.744	554.14373
320.265	496.12753
320.786	557.28554
321.307	545.24383
321.828	541.1226
322.348	531.15522
322.869	572.25114
323.389	797.33556
323.909	539.13387
324.43	572.25324
324.95	573.20022
325.47	582.32651
325.989	581.26309
326.509	576.17965
327.029	610.26629
327.548	601.23842
328.067	598.32844
328.587	647.47452
329.106	604.23541
329.625	610.45557
330.144	599.27135
330.662	647.37396
331.181	680.4413
331.7	639.34221
332.218	703.3522
332.736	655.38372
333.255	661.40433
333.773	604.30119
334.291	716.60595
334.808	746.4829
335.326	684.37276
335.844	771.59919
336.361	741.70921
336.879	763.5868
337.396	747.61889
337.913	736.50852
338.43	796.56627
338.947	808.69127
339.464	790.48232
339.981	765.60225
340.497	785.70346
341.014	749.62322
341.53	747.48731
342.046	880.90929
342.562	872.88712
343.078	824.69137
343.594	827.71469
344.11	899.85167
344.626	889.9472
345.141	871.71446
345.657	899.7365
346.172	914.89227
346.687	839.66841
347.202	986.88802
347.717	931.89447
348.232	947.01601
348.747	962.87565
349.261	974.78796
349.776	989.98163
350.29	1017.1484
350.805	1022.12096
351.319	1000.94524
351.833	1063.01621
352.347	1000.98298
352.861	1044.03331
353.374	1065.98815
353.888	1092.20726
354.401	1016.92219
354.915	1121.0525
355.428	1078.23436
355.941	1106.10255
356.454	1066.93963
356.967	1055.03201
357.48	1018.91569
357.993	1087.21162
358.505	1087.18166
359.018	1204.37657
359.53	1173.32334
360.042	1189.11653
360.554	1183.34536
361.066	1142.2655
361.578	1195.09125
362.09	1191.27604
362.602	1255.18642
363.113	1232.30437
363.625	1250.22841
364.136	1229.11404
364.647	1259.36021
365.158	1319.38022
365.669	1272.39454
366.18	1256.33215
366.691	1306.19434
367.201	1239.36119
367.712	1325.34154
368.222	1325.35846
368.733	1344.21714
369.243	1382.33785
369.753	1405.45035
370.263	1439.63964
370.773	1365.5695
371.282	1492.66323
371.792	1520.59345
372.301	1477.68002
372.811	1562.0861
373.32	1537.39337
373.829	1597.72499
374.338	1693.6072
374.847	1648.7019
375.356	1705.82763
375.865	1780.55111
376.373	1917.85842
376.882	1945.33696
377.39	1979.14476
377.898	2020.25667
378.407	2155.98833
378.915	2213.85504
379.423	2288.15275
379.93	2444.21114
380.438	2362.34169
380.946	2578.25022
381.453	2706.44489
381.96	2831.43637
382.468	3060.35234
382.975	3200.60065
383.482	3224.04448
383.989	3345.91642
384.495	3431.25161
385.002	3745.5097
385.509	3825.27515
386.015	4185.14743
386.521	4273.74253
387.028	4415.6505
387.534	4531.19749
388.04	4691.90836
388.546	4837.21899
389.051	5243.96963
389.557	5479.16598
390.063	5827.83053
390.568	5989.17406
391.073	6162.60033
391.578	6608.07995
392.084	6797.63119
392.589	7038.40287
393.093	7692.09212
393.598	8406.54889
394.103	9026.53723
394.607	9810.24089
395.112	10593.59022
395.616	11105.59345
396.12	12084.78637
396.624	13381.95822
397.128	14388.72435
397.632	15823.86871
398.136	17179.59444
398.639	18597.9517
399.143	21375.09954
399.646	23890.8729
400.15	26164.0678
400.653	29681.63937
401.156	33785.52621
401.659	38729.59898
402.162	49183.12977
402.664	60474.77019
403.167	63977.72923
403.67	63769.22307
404.172	63919.58413
404.674	63858.43483
405.176	63738.15102
405.678	63977.72923
406.18	64011.81569
406.682	63863.44694
407.184	63926.60148
407.686	63841.39382
408.187	64025.8516
408.688	63892.51763
409.19	63833.37461
409.691	63977.72923
410.192	61224.07997
410.693	54868.69013
411.194	51373.71682
411.694	48134.72589
412.195	43980.49205
412.696	40710.45625
413.196	39602.11112
413.696	39827.22097
414.196	39787.05876
414.696	38386.59449
415.196	35937.77786
415.696	30214.73573
416.196	23029.78268
416.695	18854.32967
417.195	17639.21691
417.694	16981.30915
418.194	15433.75177
418.693	14967.812
419.192	14441.50684
419.691	14371.10595
420.19	13860.36971
420.688	13453.00454
421.187	12681.52821
421.685	11978.06149
422.184	10330.79004
422.682	8826.06672
423.18	7672.89792
423.678	6948.63647
424.176	6618.62935
424.674	6233.55014
425.172	5817.03951
425.669	5457.52171
426.167	5020.36426
426.664	4601.44722
427.161	4335.68154
427.659	4007.22043
428.156	3792.47322
428.652	3571.65425
429.149	3451.41517
429.646	3277.9229
430.143	3098.38284
430.639	2929.31703
431.135	2773.62466
431.632	2544.07887
432.128	2475.31592
432.624	2443.70083
433.12	2324.00799
433.616	2283.81414
434.111	2214.14986
434.607	2100.12377
435.103	2118.56291
435.598	2013.4978
436.093	1839.82846
436.588	1848.70243
437.083	1762.62468
437.578	1702.69807
438.073	1595.88783
438.568	1528.75002
439.062	1515.27474
439.557	1411.44291
440.051	1338.24478
440.546	1336.27294
441.04	1407.52301
441.534	1320.56609
442.028	1284.38195
442.522	1274.35752
443.015	1214.98165
443.509	1294.42068
444.002	1214.33179
444.496	1208.00139
444.989	1180.25984
445.482	1136.25254
445.975	1215.17521
446.468	1178.96433
446.961	1177.97069
447.454	1121.97887
447.947	1132.14899
448.439	1120.20327
448.931	1093.9994
449.424	1097.26724
449.916	1142.21938
450.408	1053.93476
450.9	985.97452
451.392	991.08886
451.884	979.84081
452.375	961.97946
452.867	893.66979
453.358	1013.88158
453.849	935.63256
454.341	979.80211
454.832	944.66345
455.323	942.96241
455.814	935.76482
456.304	876.69968
456.795	859.64804
457.285	894.62931
457.776	898.70189
458.266	881.75691
458.756	837.67601
459.247	805.6475
459.737	837.72387
460.226	899.7042
460.716	810.65439
461.206	795.62995
461.695	761.63033
462.185	736.51599
462.674	804.56201
463.163	763.4657
463.653	765.38425
464.142	735.54885
464.63	742.55985
465.119	709.43446
465.608	745.50808
466.096	719.34257
466.585	682.35992
467.073	645.34352
467.561	674.42111
468.05	665.34225
468.538	686.47173
469.026	653.36503
469.513	627.15949
470.001	661.33233
470.489	622.31306
470.976	631.305
471.463	626.38841
471.951	590.31498
472.438	573.20551
472.925	605.26791
473.412	579.2598
473.899	534.10435
474.385	599.3111
474.872	563.17768
475.359	570.26144
475.845	543.00335
476.331	507.97489
476.817	541.19046
477.303	483.02434
477.789	480.04475
478.275	457.04438
478.761	477.03535
479.247	492.99776
479.732	464.0653
480.218	473.14273
480.703	442.00497
481.188	454.90009
481.673	418.89028
482.158	497.97407
482.643	447.05582
483.128	473.0092
483.612	430.94922
484.097	407.91291
484.581	383.82726
485.066	429.97488
485.55	454.92112
486.034	410.82236
486.518	469.03005
487.002	371.8455
487.486	366.8336
487.969	370.84305
488.453	341.80093
488.936	339.71843
489.42	368.76097
489.903	337.79216
490.386	334.64824
490.869	404.82081
491.352	300.68607
491.835	304.58776
492.318	361.7597
492.8	323.63004
493.283	351.84558
493.765	314.73048
494.247	270.6008
494.73	326.68077
495.212	309.69455
495.694	345.76623
496.175	324.73736
496.657	367.81474
497.139	279.45206
497.62	325.74009
498.102	296.70244
498.583	237.56039
499.064	261.55701
499.545	312.67349
500.026	266.57592
500.507	271.59614
500.988	323.76576
501.469	222.53456
501.949	316.74035
502.43	323.73761
502.91	315.63166
503.39	289.68332
503.87	278.62808
504.35	293.65211
504.83	228.48035
505.31	274.6314
505.79	205.46949
506.269	266.58379
506.749	232.51068
507.228	249.56337
507.707	284.60385
508.187	277.63284
508.666	292.69054
509.145	222.50157
509.623	261.58571
510.102	294.67775
510.581	319.72995
511.059	282.67926
511.538	260.64424
512.016	277.63488
512.494	246.56869
512.972	294.67099
513.45	255.57107
513.928	286.6643
514.406	273.6415
514.884	273.67558
515.361	307.69854
515.839	315.68797
516.316	312.72096
516.793	284.68589
517.27	258.59572
517.747	239.59232
518.224	280.61581
518.701	283.59583
519.178	279.66886
519.654	278.62936
520.131	294.69527
520.607	253.59427
521.083	249.54177
521.56	262.59218
522.036	258.53782
522.512	324.75938
522.987	260.60177
523.463	252.57422
523.939	308.72838
524.414	273.59726
524.89	265.60664
525.365	259.56089
525.84	237.54974
526.315	257.59849
526.79	264.57037
527.265	285.62878
527.74	238.55719
528.215	218.49194
528.689	229.48384
529.164	237.48866
529.638	178.44043
530.112	177.40618
530.587	238.48995
531.061	222.52014
531.534	238.55326
532.008	248.58105
532.482	216.48065
532.956	184.45795
533.429	283.66292
533.903	268.56139
534.376	210.44963
534.849	216.48065
535.322	238.54145
535.795	161.3807
536.268	264.61369
536.741	187.4324
537.213	248.54819
537.686	204.48507
538.158	241.52815
538.631	223.52279
539.103	203.44525
539.575	141.28523
540.047	206.43534
540.519	236.54428
540.991	225.53099
541.463	178.41804
541.934	204.44735
542.406	184.43146
542.877	234.50946
543.348	264.61248
543.82	179.42506
544.291	227.51256
544.762	190.44099
545.233	253.61852
545.703	221.47594
546.174	235.52629
546.645	228.5342
547.115	255.59289
547.585	249.55143
548.056	251.59578
548.526	269.61357
548.996	244.56295
549.466	249.58374
549.935	291.66535
550.405	295.61781
550.875	278.6332
551.344	258.59216
551.814	302.65972
552.283	318.65846
552.752	323.71976
553.221	339.70776
553.69	377.8
554.159	377.88512
554.628	386.82035
555.096	334.80875
555.565	360.74876
556.033	428.95072
556.502	358.81604
556.97	383.79819
557.438	414.90626
557.906	400.88301
558.374	446.95775
558.842	438.97495
559.31	444.91852
559.777	462.04375
560.245	417.88989
560.712	512.06634
561.18	493.99637
561.647	504.01564
562.114	544.12657
562.581	613.35193
563.048	600.22611
563.514	711.57155
563.981	729.44671
564.448	772.49405
564.914	801.58758
565.381	906.72042
565.847	982.87131
566.313	987.8695
566.779	1071.91585
567.245	1099.01914
567.711	1169.20066
568.176	1211.08073
568.642	1336.5777
569.108	1410.58947
569.573	1431.41281
570.038	1503.16821
570.504	1710.58721
570.969	1752.98119
571.434	1851.62126
571.899	1934.93982
572.363	2110.89958
572.828	2207.95533
573.293	2227.94836
573.757	2465.09198
574.222	2465.91563
574.686	2636.07965
575.15	2665.33732
575.614	2803.24692
576.078	2810.20812
576.542	2980.0387
577.006	3011.98835
577.469	3011.50117
577.933	3179.01743
578.396	3132.2628
578.86	3167.21385
579.323	3200.36432
579.786	3234.71953
580.249	3233.2173
580.712	3211.41685
581.175	3182.51173
581.637	3173.02091
582.1	3141.76222
582.563	3058.64017
583.025	3125.43152
583.487	3102.4713
583.95	2877.71186
584.412	2980.59809
584.874	2864.44212
585.336	2824.27177
585.797	2686.79547
586.259	2760.1858
586.721	2627.18362
587.182	2580.07934
587.643	2549.00093
588.105	2477.18549
588.566	2399.5703
589.027	2404.35714
589.488	2300.98601
589.949	2307.2687
590.41	2226.33365
590.87	2167.92082
591.331	2219.73602
591.791	2105.94293
592.252	2067.94998
592.712	1992.02699
593.172	1969.79171
593.632	2073.75122
594.092	1984.71371
594.552	1962.59081
595.011	1842.73587
595.471	1917.74684
595.931	1838.67945
596.39	1883.96076
596.849	1786.76099
597.308	1798.43529
597.768	1827.2332
598.227	1819.91251
598.685	1850.72175
599.144	1807.8269
599.603	1869.83706
600.062	1879.44358
600.52	1899.72057
600.978	1896.89969
601.437	1915.75403
601.895	2068.59568
602.353	2085.70099
602.811	2140.84176
603.269	2097.05566
603.727	2201.15681
604.184	2308.95333
604.642	2296.32361
605.099	2400.10398
605.557	2421.31794
606.014	2465.7247
606.471	2571.55088
606.928	2721.90669
607.385	2868.60966
607.842	2890.07539
608.299	3021.18033
608.755	3121.39652
609.212	3158.89029
609.668	3264.93585
610.125	3418.31814
610.581	3479.11772
611.037	3507.82047
611.493	3619.04329
611.949	3777.29514
612.405	3903.09698
612.861	3803.87421
613.316	4077.04546
613.772	4097.71713
614.227	4243.99234
614.683	4195.16623
615.138	4299.77809
615.593	4336.68389
616.048	4417.54021
616.503	4438.9609
616.958	4402.22922
617.412	4428.80073
617.867	4402.39802
618.321	4455.85836
618.776	4464.2545
619.23	4396.71277
619.684	4467.33406
620.138	4327.57998
620.592	4314.0133
621.046	4370.79046
621.5	4328.94386
621.954	4187.42111
622.407	4142.44441
622.861	4032.14907
623.314	4132.60188
623.768	4071.93035
624.221	3943.86432
624.674	3946.82965
625.127	3822.92412
625.58	3833.68477
626.033	3797.53183
626.485	3713.16138
626.938	3722.1279
627.39	3635.03254
627.843	3679.91955
628.295	3526.97156
628.747	3505.20379
629.199	3557.87981
629.651	3555.92532
630.103	3557.92731
630.555	3542.41582
631.006	3558.01219
631.458	3444.12437
631.909	3496.79036
632.361	3593.94717
632.812	3671.94403
633.263	3714.51775
633.714	3698.37403
634.165	3772.1459
634.616	3709.06933
635.067	3878.52993
635.518	3932.00124
635.968	4079.76373
636.419	4125.36012
636.869	4194.87144
637.319	4275.68708
637.769	4387.40903
638.219	4447.71164
638.669	4608.67932
639.119	4710.66978
639.569	4826.62519
640.019	5035.23058
640.468	5326.86407
640.918	5365.23486
641.367	5542.74496
641.816	5693.63009
642.265	5923.85706
642.714	6169.65278
643.163	6282.67593
643.612	6450.03142
644.061	6713.19489
644.51	6871.56133
644.958	6965.37691
645.406	7194.83063
645.855	7315.94511
646.303	7514.76242
646.751	7703.87443
647.199	7908.94018
647.647	8063.16091
648.095	8149.1825
648.543	8241.03178
648.99	8272.4846
649.438	8435.55058
649.885	8604.9908
650.333	8630.62558
650.78	8737.07528
651.227	8636.97161
651.674	8692.8848
652.121	8640.98491
652.568	8677.02856
653.015	8632.99794
653.461	8468.66963
653.908	8505.62413
654.354	8480.68794
654.801	8295.42539
655.247	8115.00116
655.693	8101.69242
656.139	7923.14767
656.585	7923.151
657.031	7758.97262
657.477	7664.62483
657.922	7530.69247
658.368	7416.03747
658.813	7332.60437
659.259	7297.93201
659.704	7272.80228
660.149	7040.60047
660.594	6942.75579
661.039	6766.51755
661.484	6670.74957
661.929	6634.6693
662.373	6410.20553
662.818	6362.10779
663.262	6378.94416
663.707	6219.379
664.151	6119.08272
664.595	6101.03316
665.039	6041.24793
665.483	5918.50347
665.927	5986.8571
666.371	5885.92245
666.814	5842.00297
667.258	5759.15208
667.701	5744.34588
668.145	5720.41527
668.588	5681.40182
669.031	5620.03466
669.474	5659.15942
669.917	5549.5904
670.36	5643.47819
670.803	5604.24212
671.245	5509.20574
671.688	5355.42357
672.13	5390.87834
672.573	5469.66176
673.015	5505.27524
673.457	5337.6502
673.899	5231.44412
674.341	5321.36175
674.783	5289.34078
675.225	5228.58417
675.666	5200.55752
676.108	5280.63346
676.549	5149.20157
676.991	5099.8247
677.432	5117.22558
677.873	4938.17603
678.314	4849.52903
678.755	4849.81084
679.196	4783.27255
679.637	4704.64942
680.078	4628.51308
680.518	4567.4203
680.959	4396.77676
681.399	4355.09951
681.839	4333.95602
682.28	4297.16412
682.72	4196.59181
683.16	4161.25808
683.6	3982.66095
684.039	3909.09655
684.479	3967.26012
684.919	3854.95248
685.358	3716.40531
685.798	3626.78225
686.237	3575.13811
686.676	3551.79526
687.115	3560.06222
687.554	3541.17504
687.993	3459.68949
688.432	3329.91557
688.871	3369.93851
689.309	3236.25506
689.748	3234.40973
690.186	3187.09333
690.625	3149.13123
691.063	3097.23119
691.501	3094.46817
691.939	3023.59315
692.377	2969.33687
692.815	2928.39624
693.253	2916.21905
693.69	2815.75008
694.128	2778.33459
694.565	2755.18305
695.003	2761.65492
695.44	2704.17972
695.877	2635.13218
696.314	2518.55074
696.751	2558.91327
697.188	2592.04252
697.625	2436.82556
698.061	2396.16212
698.498	2306.059
698.934	2364.13864
699.371	2348.05627
699.807	2268.03818
700.243	2237.13575
700.679	2089.69733
701.115	2156.93078
701.551	2083.87514
701.987	2076.60248
702.422	2080.00209
702.858	2015.96094
703.294	1994.77468
703.729	1981.02314
704.164	1878.86843
704.599	1897.60952
705.035	1806.56991
705.47	1709.80358
705.904	1759.65686
706.339	1764.62614
706.774	1746.6906
707.209	1701.63333
707.643	1695.73169
708.078	1637.74198
708.512	1528.74863
708.946	1584.5904
709.38	1564.58563
709.814	1497.35335
710.248	1514.64081
710.682	1464.52389
711.116	1426.53061
711.549	1311.54196
711.983	1342.26249
712.416	1301.30013
712.85	1308.43738
713.283	1273.2481
713.716	1307.43731
714.149	1229.13756
714.582	1169.99024
715.015	1145.18897
715.448	1159.28812
715.881	1152.85384
716.313	1115.01901
716.746	1075.00055
717.178	1051.00594
717.61	1086.20609
718.043	1010.00874
718.475	1009.96788
718.907	999.01852
719.339	997.79321
719.77	977.89009
720.202	876.82726
720.634	927.86925
721.065	908.7468
721.497	897.81283
721.928	808.66148
722.359	831.69541
722.79	786.58646
723.221	755.59869
723.652	782.69227
724.083	774.45296
724.514	754.45916
724.945	764.50745
725.375	755.49211
725.806	702.48992
726.236	726.59972
726.666	687.38989
727.096	702.47697
727.526	706.57962
727.956	669.31326
728.386	624.338
728.816	649.45765
729.246	673.44226
729.675	591.26852
730.105	553.19959
730.534	576.17752
730.964	585.28849
731.393	560.21454
731.822	558.27175
732.251	546.23736
732.68	538.09921
733.109	554.21426
733.537	564.22322
733.966	570.26354
734.395	531.08709
734.823	473.93316
735.251	458.99494
735.68	500.10494
736.108	474.06917
736.536	466.98129
736.964	407.85876
737.392	461.04255
737.82	456.98259
738.247	477.01907
738.675	410.87628
739.102	406.92841
739.53	418.98842
739.957	454.07094
740.384	367.81271
740.811	326.7542
741.238	435.97249
741.665	410.88007
742.092	318.67643
742.519	419.95216
742.945	461.0133
743.372	400.91322
743.798	365.86497
744.225	372.80746
744.651	359.83036
745.077	374.85972
745.503	346.77148
745.929	426.94078
746.355	381.85003
746.781	348.79037
747.207	363.79514
747.632	394.90062
748.058	359.83925
748.483	355.75004
748.908	336.77826
749.334	342.78272
749.759	319.70761
750.184	354.78932
750.609	365.82376
751.033	340.73078
751.458	355.72405
751.883	357.81031
752.307	317.69264
752.732	317.75907
753.156	267.61785
753.58	288.63287
754.005	285.66995
754.429	371.80923
754.853	270.63333
755.277	292.64813
755.7	333.76749
756.124	310.71947
756.548	261.57849
756.971	327.74043
757.394	269.6471
757.818	299.72361
758.241	295.70317
758.664	307.72447
759.087	277.58397
759.51	245.56964
759.933	281.63758
760.356	293.71069
760.778	266.61443
761.201	294.66179
761.623	256.57083
762.046	265.57829
762.468	322.71322
762.89	229.5274
763.312	320.72856
763.734	276.62357
764.156	313.71967
764.578	250.53295
765	260.59532
765.421	224.54366
765.843	277.68196
766.264	237.52727
766.686	208.48925
767.107	199.45831
767.528	263.63818
767.949	217.52242
768.37	267.62275
768.791	210.47601
769.212	202.48548
769.632	187.41742
770.053	201.50034
770.473	196.44807
770.894	185.43253
771.314	229.50757
771.734	248.54154
772.154	208.50369
772.575	206.44774
772.994	224.47628
773.414	238.5307
773.834	162.38566
774.254	172.40001
774.673	261.59989
775.093	205.48529
775.512	202.47403
775.931	173.41965
776.351	196.46551
776.77	199.46471
777.189	197.44355
777.607	184.44809
778.026	176.41834
778.445	194.46962
778.864	145.352
779.282	161.36532
779.701	115.27813
780.119	191.46123
780.537	180.4262
780.955	183.43974
781.373	159.37495
781.791	207.44407
782.209	135.29024
782.627	153.38695
783.045	139.30128
783.462	152.37183
783.88	148.36822
784.297	130.31446
784.715	113.28171
785.132	122.2816
785.549	159.37917
785.966	187.44713
786.383	168.39625
786.8	165.36343
787.217	200.45279
787.633	141.34114
788.05	154.33985
788.466	141.31227
788.883	161.3964
789.299	85.19467
789.715	174.4037
790.131	117.27976
790.547	87.20946
790.963	134.31778
791.379	118.28716
791.795	137.2939
792.21	150.33088
792.626	94.21256
793.041	106.25099
793.457	116.27307
793.872	99.22135
794.287	140.32469
794.702	70.16389
795.117	174.41295
795.532	105.25576
795.947	104.23632
796.362	89.19965
796.776	134.29212
797.191	107.25223
797.605	94.21533
798.02	84.19674
798.434	170.35643
798.848	146.34824
799.262	86.20591
799.676	143.33224
800.09	94.22232
800.504	94.21801
800.918	66.14589
801.331	52.12919
801.745	110.2397
802.158	96.22854
802.572	144.33211
802.985	135.30732
803.398	114.25883
803.811	40.09774
804.224	70.16581
804.637	100.22953
805.05	99.21751
805.462	83.19497
805.875	62.1565
806.288	129.29912
806.7	73.17509
807.112	109.23868
807.525	67.15677
807.937	93.2217
808.349	42.10129
808.761	97.23008
809.173	97.22661
809.584	105.24694
809.996	73.17202
810.408	115.28846
810.819	147.32827
811.231	151.38664
811.642	193.45335
812.053	120.28029
812.464	95.21548
812.875	114.28095
813.286	111.27702
813.697	71.15501
814.108	81.18909
814.519	185.38985
814.929	103.25108
815.34	58.1342
815.75	101.24886
816.16	62.14703
816.571	74.18485
816.981	63.14121
817.391	116.26412
817.801	72.17318
818.211	93.21145
818.62	101.23401
819.03	67.15763
819.44	56.13892
819.849	27.06533
820.259	81.19716
820.668	92.21809
821.077	90.21689
821.486	71.16196
821.895	55.129
822.304	84.21407
822.713	55.12465
823.122	72.17253
823.531	61.13684
823.939	86.20198
824.348	65.15096
824.756	82.19604
825.164	90.21598
825.573	58.14062
825.981	74.17522
826.389	92.22104
826.797	153.37045
827.205	134.29348
827.612	98.2298
828.02	62.13906
828.428	83.20285
828.835	86.21971
829.243	86.19439
829.65	51.12358
830.057	43.10018
830.464	123.28904
830.871	111.25422
831.278	102.23544
831.685	114.23955
832.092	95.21985
832.499	67.14094
832.905	48.11655
833.312	71.15159
833.718	105.25193
834.124	119.25837
834.531	63.15128
834.937	103.25407
835.343	85.19428
835.749	116.25266
836.155	68.17183
836.561	58.1376
836.966	89.20719
837.372	22.05406
837.777	60.14459
838.183	86.18071
838.588	91.21793
838.993	128.29592
839.399	70.16524
839.804	14.03321
840.209	100.24699
840.613	57.12112
841.018	54.13112
841.423	91.22414
841.828	106.25767
842.232	68.15871
842.637	129.29164
843.041	38.09489
843.445	56.13424
843.849	83.19786
844.253	80.18105
844.657	54.13215
845.061	114.24978
845.465	49.11407
845.869	65.14461
846.272	77.18081
846.676	44.10055
847.079	60.14841
847.483	84.20005
847.886	85.19561
848.289	120.31087
848.692	78.18818
849.095	85.19405
849.498	48.1155
849.901	75.16256
850.304	71.16222
850.707	51.12497
851.109	103.24732
851.512	97.2283
851.914	65.15898
852.316	116.28313
852.718	109.27675
853.121	44.10406
853.523	61.13555
853.925	65.16545
854.326	63.15271
854.728	84.20823
855.13	69.17333
855.531	55.12667
855.933	68.15464
856.334	78.18825
856.736	97.20845
857.137	101.22545
857.538	79.19214
857.939	68.16393
858.34	54.12504
858.741	37.09334
859.142	42.09656
859.542	55.14138
859.943	71.16919
860.343	99.23591
860.744	71.16594
861.144	123.28758
861.544	65.15221
861.945	79.19293
862.345	70.16318
862.745	88.21094
863.145	72.16115
863.544	89.21614
863.944	81.18253
864.344	64.15049
864.743	76.1803
865.143	76.18943
865.542	43.09444
865.941	88.20917
866.34	34.07738
866.74	72.18665
867.139	72.16758
867.537	45.10937
867.936	103.23703
868.335	36.08833
868.734	31.07689
869.132	21.04643
869.531	42.09648
869.929	57.12508
870.327	91.20791
870.726	77.18179
871.124	89.19612
871.522	70.17067
871.92	70.16556
872.318	37.08651
872.715	23.05418
873.113	30.07013
873.511	47.11238
873.908	47.11658
874.306	71.171
874.703	52.12389
875.1	27.06584
875.497	79.18006
875.894	77.18433
876.291	54.12772
876.688	9.02261
877.085	65.14815
877.482	63.15139
877.878	51.11976
878.275	62.15201
878.671	46.09465
879.068	84.19335
879.464	79.18231
879.86	13.02973
880.256	58.13505
880.652	36.08846
881.048	61.1434
881.444	60.13457
881.84	84.20411
882.236	63.15197
882.631	82.19356
883.027	59.13632
883.422	40.09811
883.817	43.10517
884.213	77.18973
884.608	113.26979
885.003	56.12833
885.398	42.10152
885.793	73.17482
886.188	29.06953
886.582	82.19948
886.977	76.17081
887.371	43.10408
887.766	23.05573
888.16	7.01664
888.554	66.15519
888.949	61.14703
889.343	29.06794
889.737	40.10438
890.131	67.16137
890.525	98.24134
890.918	61.14736
891.312	74.16713
891.706	64.16132
892.099	41.10032
892.492	70.14229
892.886	50.11725
893.279	49.11998
893.672	84.2064
894.065	81.19435
894.458	5.01207
894.851	85.19717
895.244	57.14004
895.637	91.20959
896.029	111.25962
896.422	5.01168
896.814	88.20813
897.206	96.22079
897.599	80.18884
897.991	93.21573
898.383	64.14502
898.775	136.2922
899.167	55.1249
899.559	59.14216
899.951	68.15151
900.342	44.10676
900.734	50.12254
901.125	32.08069
901.517	64.15096
901.908	74.16658
902.299	40.09453
902.69	63.14365
903.082	81.18723
903.473	91.21118
903.863	19.04668
904.254	72.16155
904.645	55.12955
905.036	79.18681
905.426	115.24415
905.817	3.00709
906.207	-3.00685
906.597	76.17144
906.987	11.02743
907.378	80.19498
907.768	40.10273
908.158	33.07734
908.547	69.17401
908.937	0
909.327	53.12319
909.717	32.07709
910.106	55.12597
910.495	56.1326
910.885	70.1706
911.274	70.16735
911.663	49.11855
912.052	1.00236
912.441	45.11129
912.83	51.11106
913.219	74.18525
913.608	78.18341
913.997	64.15569
914.385	77.1755
914.774	39.09115
915.162	82.18867
915.55	57.13102
915.939	11.02716
916.327	60.14246
916.715	91.22554
917.103	71.16398
917.491	92.21607
917.878	53.12474
918.266	31.07742
918.654	106.26056
919.041	66.1682
919.429	42.09513
919.816	88.21287
920.203	110.25592
920.591	50.11949
920.978	109.25335
921.365	74.18746
921.752	23.05196
922.139	81.16656
922.525	49.11349
922.912	56.13039
923.299	42.10072
923.685	0
924.072	-7.01521
924.458	42.10072
924.844	56.13316
925.231	39.08619
925.617	70.17296
926.003	61.14931
926.389	40.09723
926.774	21.05129
927.16	112.26355
927.546	80.19919
927.931	20.04791
928.317	86.18645
928.702	108.24053
929.088	95.2188
929.473	46.11383
929.858	70.16517
930.243	77.17848
930.628	64.1509
931.013	74.17583
931.398	55.1185
931.783	29.07308
932.167	102.23993
932.552	69.16505
932.937	89.20923
933.321	45.10978
933.705	42.10076
934.09	31.07393
934.474	96.21398
934.858	37.09301
935.242	33.07318
935.626	41.10188
936.009	72.1864
936.393	145.35451
936.777	56.13898
937.16	49.1241
937.544	73.16093
937.927	42.10343
938.311	93.21428
938.694	83.21141
939.077	54.12385
939.46	41.09447
939.843	79.15131
940.226	46.11307
940.609	101.22247
940.991	41.09994
941.374	52.12289
941.757	53.12494
942.139	110.2341
942.522	84.18739
942.904	62.14265
943.286	61.14825
943.668	79.19859
944.05	81.19072
944.432	87.20381
944.814	44.10302
945.196	20.04752
945.578	95.21871
945.959	26.05793
946.341	36.08326
946.722	73.16214
947.104	85.1935
947.485	78.17278
947.866	42.10294
948.247	74.18082
948.628	49.11222
949.009	37.0915
949.39	40.09515
949.771	11.02403
950.152	77.18081
950.532	81.19627
950.913	60.13822
951.293	40.10573
951.674	65.15036
952.054	93.22433
952.434	68.16201
952.814	62.13911
953.194	28.06992
953.574	72.16857
953.954	48.10792
954.334	91.21859
954.714	53.12465
955.093	87.20373
955.473	71.17217
955.853	35.08764
956.232	29.07705
956.611	17.03875
956.99	78.18847
957.37	31.07574
957.749	25.05641
958.128	67.16302
958.506	37.09298
958.885	45.10888
959.264	35.08382
959.643	129.27794
960.021	67.16033
960.4	83.17806
960.778	68.15752
961.156	42.10091
961.535	97.21159
961.913	97.21652
962.291	73.18225
962.669	50.12263
963.047	110.26899
963.424	80.19846
963.802	94.22068
964.18	86.20403
964.557	76.16533
964.935	75.16901
965.312	63.15888
965.69	40.09541
966.067	51.11756
966.444	29.06743
966.821	80.19788
967.198	48.11018
967.575	56.13091
967.952	76.16982
968.329	78.1824
968.705	138.2782
969.082	84.20945
969.458	74.1721
969.835	58.13516
970.211	83.20639
970.587	69.16486
970.963	12.02955
971.339	64.16166
971.715	79.18897
972.091	65.15299
972.467	9.02138
972.843	85.20402
973.219	59.13388
973.594	34.08607
973.97	82.18013
974.345	64.14714
974.721	86.19479
975.096	75.1748
975.471	101.22583
975.846	60.13667
976.221	43.10541
976.596	80.1862
976.971	85.20177
977.346	53.11674
977.72	15.0368
978.095	27.06743
978.469	78.17631
978.844	87.20724
979.218	92.21328
979.593	81.18365
979.967	20.04602
980.341	74.16289
980.715	76.18377
981.089	48.11537
981.463	76.16582
981.837	51.1212
982.21	29.06283
982.584	50.11638
982.957	28.06796
983.331	58.12875
983.704	75.17851
984.078	26.06166
984.451	57.13343
984.824	30.0709
985.197	8.01846
985.57	33.07837
985.943	42.09764
986.316	80.18392
986.688	74.16972
987.061	127.28138
987.434	87.22027
987.806	-1.00231
988.179	60.13451
988.551	37.08999
988.923	67.15671
989.295	61.14514
989.667	73.1692
990.039	73.17569
990.411	48.10371
990.783	60.12958
991.155	26.06049
991.527	60.13833
991.898	77.1844
992.27	56.13434
992.641	55.13141
993.012	-11.02434
993.384	24.05476
993.755	14.03479
994.126	123.28215
994.497	64.15037
994.868	7.01528
995.239	59.13627
995.61	60.14503
995.98	17.03976
996.351	35.08414
996.722	93.20708
997.092	31.07097
997.462	100.22428
997.833	33.0743
998.203	27.06194
998.573	41.09867
998.943	86.19264
999.313	61.14066
999.683	76.17452
1000.053	49.10485
1000.423	43.09939
1000.792	32.07912
1001.162	23.05416
1001.531	99.23247
1001.901	42.10006
1002.27	-7.01474
1002.639	42.10248
1003.009	76.17151
1003.378	70.17194
1003.747	62.13866
1004.116	-19.04402
1004.485	77.175
1004.853	31.07458
1005.222	-12.02882
1005.591	107.23914
1005.959	75.16118
1006.328	63.13545
1006.696	42.09668
1007.064	27.06481
1007.433	-8.01923
1007.801	42.09706
1008.169	33.07936
1008.537	101.21012
1008.905	102.22651
1009.273	81.18901
1009.64	63.14562
1010.008	74.16747
1010.375	80.18112
1010.743	97.20414
1011.11	83.1907
1011.478	95.22542
1011.845	83.18397
1012.212	90.1952
1012.579	73.17141
1012.946	39.08778
1013.313	82.18346
1013.68	87.1835
1014.047	44.10039
1014.414	32.07236
1014.78	18.04339
1015.147	57.12992
1015.513	71.16307
1015.88	68.16517
1016.246	80.18547
1016.612	75.16118
1016.978	69.16265
1017.344	70.16568
1017.71	83.19101
1018.076	53.11787
1018.442	74.18297
1018.808	55.13327
1019.174	23.05529
1019.539	5.01056
1019.905	49.11119
1020.27	18.04275
1020.636	77.17288
1021.001	98.22314
1021.366	37.08573
1021.731	80.19984
1022.096	90.21886
1022.461	69.156
1022.826	90.20476
1023.191	63.15899
1023.556	75.16589
1023.92	51.11882
1024.285	43.09939
1024.649	69.16019
1025.014	33.07758
1025.378	61.14803
1025.742	58.13654
1026.107	110.23287
1026.471	59.13018
1026.835	30.07158
1027.199	43.09947
1027.562	46.10088
1027.926	54.12544
1028.29	34.08299
1028.654	52.11341
1029.017	100.23403
1029.381	80.18245
1029.744	76.18557
1030.107	68.15308
1030.471	87.19901
1030.834	32.06834
1031.197	114.25883
1031.56	58.12966
1031.923	32.08005
1032.286	104.23047
1032.648	76.17003
1033.011	85.18778
1033.374	63.13918
1033.736	26.06626
1034.099	52.12146
1034.461	51.12488
1034.823	82.19574
1035.185	27.06483
1035.548	42.09856
1035.91	39.08929
1036.272	104.22441
1036.634	65.15168
1036.995	65.14407
1037.357	46.10791
1037.719	29.06794
1038.08	109.24673
1038.442	52.11763
1038.803	33.07464
1039.165	2.00486
1039.526	90.20666
1039.887	59.13453
1040.248	80.19148
1040.609	37.08675
1040.97	31.07254
1041.331	66.16128
1041.692	71.16084
1042.053	54.11612
1042.413	62.13642
1042.774	77.17876
1043.134	82.18247
1043.495	98.23411
1043.855	100.23275
1044.215	37.08766
1044.576	33.07634
1044.936	95.20407
1045.296	75.17851
1045.656	8.01872
1046.016	42.09644
1046.375	66.15271
1046.735	89.19464
1047.095	92.20388
1047.454	34.06753
1047.814	74.16951
1048.173	41.0922
1048.533	19.04175
1048.892	-2.00466
1049.251	32.07665
1049.61	47.1111
1049.969	35.07871
1050.328	95.19341
1050.687	83.19055
1051.046	30.06985
1051.405	40.09453
1051.763	72.15916
1052.122	43.10278
1052.48	90.21047
1052.839	106.23989
1053.197	54.12106
1053.555	17.03623
1053.914	60.13965
1054.272	38.08593
1054.63	42.0988
1054.988	69.15778
1055.345	13.02632
1055.703	67.154
1056.061	99.24582
1056.419	97.24384
1056.776	22.05034
1057.134	12.02616
1057.491	67.16051
1057.848	49.11614
1058.206	12.02666
1058.563	42.08779
1058.92	79.17145
1059.277	107.24997
1059.634	48.10606
1059.991	163.3658
1060.348	37.08023
1060.704	96.22229
1061.061	40.08683
1061.418	20.04677
1061.774	38.09012
1062.131	47.12186
1062.487	29.06452
1062.843	53.12649
1063.199	37.08851
1063.555	63.14034
1063.911	62.14885
1064.267	87.16687
1064.623	55.1294
1064.979	18.03932
1065.335	76.17081
1065.691	13.02949
1066.046	89.18351
1066.402	36.07748
1066.757	40.09716
1067.112	80.18583
1067.468	63.14394
1067.823	24.05416
1068.178	72.16447
1068.533	56.12962
1068.888	48.1089
1069.243	61.14396
1069.598	46.10618
1069.952	84.18328
1070.307	54.1288
1070.662	85.19428
1071.016	97.20818
1071.371	63.13696
1071.725	41.09284
1072.079	50.11527
1072.434	73.16974
1072.788	30.06745
1073.142	78.18298
1073.496	-35.08042
1073.85	69.15147
1074.203	82.18935
1074.557	91.23481
1074.911	85.19068
1075.265	75.16513
1075.618	87.20205
1075.971	63.14249
1076.325	88.21519
1076.678	57.12413
1077.031	-37.07927
1077.385	87.17946
1077.738	63.13445
1078.091	-2.00443
1078.444	23.05045
1078.796	76.17898
1079.149	86.20411
1079.502	14.03208
1079.855	85.18801
1080.207	72.16837
1080.56	54.13514
1080.912	67.15511
1081.264	79.18173
1081.617	37.08692
1081.969	45.10986
1082.321	43.10018
1082.673	56.12384
1083.025	45.10128
1083.377	56.12529
1083.728	31.06877
1084.08	67.15861
1084.432	40.09196
1084.783	51.11135
1085.135	46.11127
1085.486	61.13363
1085.838	72.16983
1086.189	25.05893
1086.54	118.264
1086.891	92.2264
1087.242	117.27441
1087.593	13.02997
1087.944	96.20697
1088.295	83.1776
1088.646	98.22998
1088.996	60.13899
1089.347	44.10273
1089.698	88.19972
1090.048	73.18034
1090.398	41.09004
1090.749	41.09288
1091.099	59.1442
1091.449	51.12237
1091.799	69.16499
1092.149	28.06676
1092.499	52.12141
1092.849	39.0956
1093.199	31.07401
1093.548	86.19866
1093.898	19.04564
1094.248	18.04421
1094.597	36.08986
1094.947	52.13411
1095.296	41.09781
1095.645	18.04508
1095.994	113.25609
1096.343	64.15482
1096.692	64.1646
1097.041	60.15944
1097.39	63.15018
1097.739	35.0877
1098.088	34.08741
1098.437	69.17699
1098.785	26.06733
1099.134	38.09571
1099.482	81.21528
1099.83	83.20902
1100.179	55.14098
1100.527	1.00255
1100.875	70.1794
1101.223	57.14698
1101.571	21.0562
1101.919	59.15203
1102.267	10.02774
1102.615	3.00964
1102.962	-3.00963
1103.31	10.03209
1103.658	1.00321
