Data from N3 R2 sample 5_Subt2__3__10-15-25-386.txt Node

Date: Thu Sep 18 10:15:25 PDT 2025
User: uwsun
Spectrometer: HDX01956
Trigger mode: 0
Integration Time (sec): 5.000000E-1
Scans to average: 1
Nonlinearity correction enabled: true
Boxcar width: 0
Storing dark spectrum: false
XAxis mode: Wavelengths
Number of Pixels in Spectrum: 2068
>>>>>Begin Spectral Data<<<<<
194.03	120.34226
194.578	114.36574
195.127	113.35738
195.676	114.36182
196.225	113.29611
196.773	162.44131
197.321	223.60266
197.87	289.71961
198.418	326.81245
198.966	308.78813
199.513	329.80875
200.061	271.67284
200.609	341.86841
201.156	331.69658
201.704	322.78409
202.251	298.77083
202.798	287.72474
203.345	349.83217
203.892	296.72779
204.438	333.76106
204.985	313.71996
205.532	312.79613
206.078	313.74005
206.624	398.95387
207.17	400.8926
207.716	365.85963
208.262	366.69001
208.808	387.93086
209.354	405.95491
209.899	365.88162
210.445	349.8414
210.99	343.8072
211.535	334.7595
212.08	348.77594
212.625	314.75976
213.17	347.85267
213.715	340.74807
214.259	346.77691
214.804	288.68662
215.348	376.83073
215.892	386.89545
216.436	301.66491
216.98	357.74831
217.524	351.80671
218.068	391.94262
218.612	339.8321
219.155	367.82997
219.698	337.77113
220.242	282.67618
220.785	343.77381
221.328	310.74019
221.871	358.87563
222.414	289.69283
222.956	236.55229
223.499	314.67258
224.041	292.64409
224.583	282.57347
225.126	326.68439
225.668	301.70618
226.21	299.73285
226.751	318.68056
227.293	283.61835
227.835	335.78807
228.376	313.68303
228.918	290.69827
229.459	322.77324
230	327.75456
230.541	343.75292
231.082	336.78473
231.622	255.56001
232.163	295.68669
232.704	336.80777
233.244	330.78612
233.784	303.70726
234.324	303.65729
234.864	315.68244
235.404	275.6265
235.944	280.6375
236.484	306.73678
237.023	342.76982
237.563	322.71857
238.102	336.76034
238.641	304.73668
239.18	324.7299
239.719	321.77274
240.258	344.73651
240.797	324.74303
241.335	275.64771
241.874	353.65129
242.412	405.93115
242.95	346.80046
243.488	295.63748
244.026	337.75064
244.564	346.67667
245.102	351.7588
245.64	301.69209
246.177	317.67445
246.715	393.89418
247.252	296.64662
247.789	408.7029
248.326	325.75263
248.863	338.71052
249.4	353.76182
249.936	425.83255
250.473	388.87012
251.009	300.66145
251.546	387.818
252.082	313.64739
252.618	367.77947
253.154	373.85417
253.69	303.65364
254.226	374.85182
254.761	350.74838
255.297	328.68464
255.832	309.70821
256.367	337.75779
256.903	352.74614
257.438	342.76604
257.972	341.72457
258.507	351.76724
259.042	388.79657
259.576	408.85086
260.111	332.72924
260.645	342.70404
261.179	360.80402
261.713	346.73951
262.247	364.78943
262.781	405.802
263.315	325.75651
263.849	390.92794
264.382	384.83492
264.915	370.83385
265.449	306.72057
265.982	360.77809
266.515	394.9169
267.048	357.71886
267.58	351.71947
268.113	374.76575
268.646	370.86174
269.178	346.73727
269.71	413.85956
270.243	408.89275
270.775	399.97351
271.307	334.76012
271.838	392.87584
272.37	333.78276
272.902	350.75551
273.433	387.81226
273.965	340.79126
274.496	349.82738
275.027	375.89003
275.558	386.89581
276.089	390.92687
276.62	331.80133
277.15	377.88167
277.681	394.7983
278.211	382.88477
278.741	343.72818
279.272	376.81753
279.802	382.90367
280.332	392.87764
280.861	383.86896
281.391	420.89765
281.921	401.9061
282.45	371.87647
282.98	411.01391
283.509	403.86673
284.038	410.88538
284.567	423.92771
285.096	469.06196
285.625	369.78849
286.153	435.9789
286.682	437.94267
287.21	362.82149
287.739	445.98581
288.267	446.01899
288.795	376.93769
289.323	387.86342
289.851	409.91023
290.378	358.75986
290.906	405.94007
291.433	397.94005
291.961	426.91638
292.488	406.95411
293.015	427.95067
293.542	461.1137
294.069	446.039
294.596	368.85776
295.122	478.06899
295.649	426.87418
296.175	439.99315
296.702	458.04982
297.228	426.96669
297.754	463.97176
298.28	445.96157
298.806	416.94821
299.332	476.99221
299.857	421.90232
300.383	430.01932
300.908	449.03758
301.433	466.0699
301.958	434.93519
302.483	435.01472
303.008	454.06099
303.533	427.04033
304.058	435.95322
304.582	434.96645
305.107	414.02114
305.631	448.95168
306.155	462.00593
306.679	471.03445
307.203	440.96113
307.727	486.07216
308.251	477.10022
308.775	519.17156
309.298	494.10891
309.822	457.07782
310.345	519.14914
310.868	530.18206
311.391	525.19765
311.914	503.17409
312.437	559.16982
312.96	514.12173
313.482	482.05488
314.005	486.13235
314.527	442.08394
315.049	521.22568
315.571	594.21492
316.093	509.17275
316.615	482.07883
317.137	548.09334
317.659	528.18342
318.18	473.05278
318.702	576.23548
319.223	482.91052
319.744	561.15639
320.265	588.31214
320.786	620.41322
321.307	612.37812
321.828	586.20395
322.348	592.27149
322.869	637.37443
323.389	878.43928
323.909	586.22019
324.43	586.28018
324.95	605.25841
325.47	701.55973
325.989	678.44393
326.509	676.35356
327.029	683.39503
327.548	657.337
328.067	716.55198
328.587	685.54925
329.106	638.29504
329.625	722.68614
330.144	703.45865
330.662	737.53471
331.181	713.50047
331.7	701.45255
332.218	744.41713
332.736	771.58781
333.255	766.59057
333.773	763.58821
334.291	786.73778
334.808	804.57684
335.326	729.44806
335.844	863.7536
336.361	836.89204
336.879	873.77152
337.396	926.93077
337.913	833.6703
338.43	874.68855
338.947	853.76785
339.464	874.60645
339.981	907.84058
340.497	891.89015
341.014	941.95643
341.53	929.77229
342.046	990.0963
342.562	992.09052
343.078	1001.97345
343.594	949.91452
344.11	1002.01491
344.626	1001.13937
345.141	1008.92094
345.657	1046.95021
346.172	1027.07142
346.687	952.84385
347.202	1062.99669
347.717	1003.00632
348.232	1038.1666
348.747	1039.98919
349.261	1122.98423
349.776	1151.21948
350.29	1105.28988
350.805	1078.20961
351.319	1146.15147
351.833	1180.17548
352.347	1102.13236
352.861	1189.23733
353.374	1152.10365
353.888	1183.3421
354.401	1153.10812
354.915	1234.1964
355.428	1237.47415
355.941	1182.20625
356.454	1269.19127
356.967	1185.21241
357.48	1206.1651
357.993	1168.33325
358.505	1287.46586
359.018	1370.60086
359.53	1327.5354
360.042	1340.29439
360.554	1274.47298
361.066	1278.45618
361.578	1312.22712
362.09	1356.48995
362.602	1329.27123
363.113	1385.49476
363.625	1412.41452
364.136	1416.31751
364.647	1387.51987
365.158	1470.55297
365.669	1411.56751
366.18	1370.47325
366.691	1436.32973
367.201	1467.64443
367.712	1474.50647
368.222	1517.56976
368.733	1520.38915
369.243	1533.49044
369.753	1523.57585
370.263	1533.74722
370.773	1576.81677
371.282	1623.80195
371.792	1709.77288
372.301	1691.90638
372.811	1700.2528
373.32	1735.55235
373.829	1854.95347
374.338	1878.74207
374.847	1943.93565
375.356	1905.99242
375.865	2103.72863
376.373	2112.97414
376.882	2196.52717
377.39	2183.27763
377.898	2257.40896
378.407	2371.07618
378.915	2477.93263
379.423	2525.23487
379.93	2773.281
380.438	2730.45404
380.946	2854.29017
381.453	3022.47662
381.96	3279.42936
382.468	3486.28902
382.975	3569.54374
383.482	3641.93058
383.989	3664.86757
384.495	3892.10239
385.002	4116.33216
385.509	4354.04046
386.015	4581.92666
386.521	4814.44598
387.028	5025.30879
387.534	5117.86736
388.04	5351.53707
388.546	5450.88411
389.051	5879.66835
389.557	6358.81067
390.063	6524.62392
390.568	6744.96424
391.073	6938.51771
391.578	7327.07763
392.084	7531.79467
392.589	7940.89147
393.093	8846.25202
393.598	9383.21279
394.103	10268.57673
394.607	11135.7634
395.112	11842.97224
395.616	12368.96314
396.12	13342.05065
396.624	14797.76638
397.128	15951.82167
397.632	17471.6797
398.136	19092.13551
398.639	21098.65852
399.143	24136.0959
399.646	26919.58019
400.15	29312.14662
400.653	33324.39819
401.156	37884.70419
401.659	43637.14176
402.162	55175.56011
402.664	61063.75026
403.167	63977.72923
403.67	63769.22307
404.172	63919.58413
404.674	63858.43483
405.176	63738.15102
405.678	63977.72923
406.18	64011.81569
406.682	63863.44694
407.184	63926.60148
407.686	63841.39382
408.187	64025.8516
408.688	63892.51763
409.19	63833.37461
409.691	63977.72923
410.192	63945.6488
410.693	59948.294
411.194	56625.29331
411.694	53470.82138
412.195	48608.53457
412.696	45630.92256
413.196	44523.14586
413.696	45583.86315
414.196	45239.30453
414.696	43201.91962
415.196	39498.7501
415.696	32223.72374
416.196	24705.81969
416.695	21081.3861
417.195	19871.70979
417.694	18916.17907
418.194	17374.89282
418.693	16649.58447
419.192	16251.48838
419.691	15911.08751
420.19	15551.72466
420.688	14996.95755
421.187	14197.5033
421.685	12899.72097
422.184	11250.3493
422.682	9577.69591
423.18	8517.68604
423.678	7697.88455
424.176	7176.66037
424.674	6858.48448
425.172	6385.83826
425.669	5984.26316
426.167	5487.1098
426.664	5136.14533
427.161	4748.4542
427.659	4482.99149
428.156	4152.29712
428.652	3971.53223
429.149	3834.30302
429.646	3569.83888
430.143	3405.34211
430.639	3263.29455
431.135	3093.65738
431.632	2940.11198
432.128	2711.3752
432.624	2698.80129
433.12	2634.08374
433.616	2577.87755
434.111	2459.24948
434.607	2435.28126
435.103	2325.62154
435.598	2244.57562
436.093	2099.99484
436.588	1987.78818
437.083	1874.70143
437.578	1897.84658
438.073	1780.0748
438.568	1799.01965
439.062	1697.41458
439.557	1602.6374
440.051	1624.51936
440.546	1576.51339
441.04	1521.64963
441.534	1534.83344
442.028	1507.64426
442.522	1388.49702
443.015	1375.14516
443.509	1496.66224
444.002	1373.5382
444.496	1361.16237
444.989	1364.49847
445.482	1373.57457
445.975	1391.3803
446.468	1346.14261
446.961	1413.21638
447.454	1193.06597
447.947	1299.36772
448.439	1297.44708
448.931	1271.22137
449.424	1278.53579
449.916	1180.27282
450.408	1219.14678
450.9	1175.25185
451.392	1186.39429
451.884	1122.03533
452.375	1029.08586
452.867	1131.99244
453.358	1131.03877
453.849	1111.85165
454.341	1102.96692
454.832	1052.80236
455.323	1089.19369
455.814	1038.91048
456.304	1041.94135
456.795	1011.8695
457.285	974.73968
457.776	1037.89959
458.266	1014.96038
458.756	945.84551
459.247	971.91334
459.737	975.94637
460.226	928.74689
460.716	922.83579
461.206	907.813
461.695	838.7657
462.185	900.78613
462.674	901.71049
463.163	916.6956
463.653	899.572
464.142	809.67733
464.63	836.72142
465.119	783.55764
465.608	834.65423
466.096	780.43478
466.585	771.50599
467.073	780.5765
467.561	748.55178
468.05	754.49117
468.538	725.54246
469.026	689.42893
469.513	742.33333
470.001	772.51685
470.489	703.458
470.976	702.42903
471.463	705.53818
471.951	696.51756
472.438	665.37111
472.925	628.30951
473.412	630.35611
473.899	643.29778
474.385	620.35112
474.872	590.22689
475.359	613.3446
475.845	564.03677
476.331	559.0598
476.817	588.28131
477.303	614.26554
477.789	518.11854
478.275	529.19174
478.761	574.2206
479.247	575.14226
479.732	521.18277
480.218	492.18446
480.703	496.11569
481.188	502.9841
481.673	460.97078
482.158	512.99991
482.643	485.13733
483.128	535.12643
483.612	556.19303
484.097	445.99032
484.581	524.09573
485.066	483.08352
485.55	471.9519
486.034	423.84588
486.518	435.96406
487.002	415.93734
487.486	411.92755
487.969	379.86198
488.453	394.91581
488.936	433.89878
489.42	446.90613
489.903	370.86411
490.386	318.61955
490.869	400.81342
491.352	357.80703
491.835	348.66574
492.318	380.79634
492.8	361.69781
493.283	386.92371
493.765	319.74138
494.247	370.8062
494.73	341.70972
495.212	263.59674
495.694	325.72482
496.175	320.72885
496.657	362.80448
497.139	319.51106
497.62	321.73157
498.102	306.72477
498.583	240.56715
499.064	247.52873
499.545	336.72156
500.026	324.6928
500.507	326.70883
500.988	347.81883
501.469	263.62835
501.949	322.75351
502.43	277.63844
502.91	328.65576
503.39	250.59558
503.87	288.64935
504.35	265.59322
504.83	265.55376
505.31	236.54796
505.79	227.51757
506.269	249.54844
506.749	284.61831
507.228	263.59335
507.707	274.58386
508.187	295.67151
508.666	270.64124
509.145	241.54239
509.623	261.58571
510.102	247.57475
510.581	262.6064
511.059	286.68838
511.538	259.64188
512.016	276.63271
512.494	211.49118
512.972	281.64301
513.45	268.59858
513.928	286.6643
514.406	262.61697
514.884	271.67088
515.361	285.65137
515.839	279.614
516.316	260.60702
516.793	212.51897
517.27	218.50737
517.747	226.56144
518.224	245.5428
518.701	248.52616
519.178	245.59116
519.654	269.61011
520.131	236.56439
520.607	239.56293
521.083	219.47954
521.56	246.55783
522.036	280.58082
522.512	285.67308
522.987	292.67153
523.463	245.55906
523.939	284.67475
524.414	257.56416
524.89	290.66053
525.365	228.49703
525.84	284.65261
526.315	228.53399
526.79	254.54994
527.265	318.69673
527.74	225.5281
528.215	221.4984
528.689	190.40487
529.164	222.45928
529.638	224.54957
530.112	229.52003
530.587	204.42317
531.061	255.59359
531.534	251.58198
532.008	287.66728
532.482	265.58368
532.956	199.49392
533.429	296.6916
533.903	213.45161
534.376	251.53265
534.849	225.49974
535.322	240.54578
535.795	207.4851
536.268	288.6663
536.741	210.48336
537.213	264.5816
537.686	232.54867
538.158	252.55097
538.631	253.58964
539.103	262.56751
539.575	241.47634
540.047	255.5331
540.519	264.60545
540.991	266.62273
541.463	255.58985
541.934	231.50367
542.406	302.69175
542.877	304.652
543.348	282.65191
543.82	263.61439
544.291	348.76631
544.762	309.70025
545.233	323.77932
545.703	303.64102
546.174	348.76116
546.645	333.76412
547.115	392.88667
547.585	324.70628
548.056	402.92629
548.526	375.837
548.996	392.87764
549.466	371.84891
549.935	456.00586
550.405	428.86996
550.875	397.88243
551.344	402.89595
551.814	442.93689
552.283	516.01936
552.752	516.10184
553.221	491.9905
553.69	517.06172
554.159	528.20087
554.628	565.15212
555.096	523.21893
555.565	510.02352
556.033	540.1696
556.502	481.06708
556.97	598.18499
557.438	528.12604
557.906	531.13808
558.374	617.27429
558.842	550.19383
559.31	607.20818
559.777	618.35245
560.245	564.16337
560.712	640.29556
561.18	659.2796
561.647	610.19979
562.114	695.39134
562.581	709.53255
563.048	786.53932
563.514	841.8088
563.981	757.49257
564.448	815.56124
564.914	878.70923
565.381	922.74406
565.847	879.71645
566.313	910.75569
566.779	904.68582
567.245	962.82871
567.711	1062.05089
568.176	994.8065
568.642	1081.2113
569.108	1095.16757
569.573	1082.99561
570.038	1180.87029
570.504	1281.18063
570.969	1247.40504
571.434	1297.15031
571.899	1317.36097
572.363	1413.36819
572.828	1498.46219
573.293	1403.35514
573.757	1550.54553
574.222	1512.39277
574.686	1612.57135
575.15	1578.70306
575.614	1683.73181
576.078	1590.62178
576.542	1669.58621
577.006	1686.56997
577.469	1705.90753
577.933	1714.62388
578.396	1684.74479
578.86	1700.73143
579.323	1674.80067
579.786	1709.44399
580.249	1794.81672
580.712	1648.80741
581.175	1676.88875
581.637	1623.55049
582.1	1673.4317
582.563	1762.40408
583.025	1692.85391
583.487	1730.28102
583.95	1729.41363
584.412	1771.37247
584.874	1837.99098
585.336	1809.85267
585.797	1800.51374
586.259	1842.82085
586.721	1846.83527
587.182	1943.82755
587.643	1956.77719
588.105	2058.00397
588.566	2017.46669
589.027	2110.2077
589.488	2198.94577
589.949	2308.26915
590.41	2307.34675
590.87	2368.99672
591.331	2488.80213
591.791	2558.10313
592.252	2676.15592
592.712	2778.32535
593.172	2909.03519
593.632	3018.89939
594.092	3165.88655
594.552	3362.67711
595.011	3405.996
595.471	3737.82462
595.931	3845.75285
596.39	4010.10401
596.849	4258.76457
597.308	4454.06699
597.768	4745.3212
598.227	4883.65269
598.685	5190.0955
599.144	5508.16843
599.603	5840.94714
600.062	6157.21009
600.52	6694.51657
600.978	6829.76889
601.437	7417.67604
601.895	7911.79009
602.353	8165.11373
602.811	8707.90031
603.269	9276.99898
603.727	9670.89119
604.184	10304.81595
604.642	10707.01994
605.099	11398.15318
605.557	11968.77725
606.014	12394.32613
606.471	13097.36392
606.928	13665.10803
607.385	14363.12415
607.842	14787.41667
608.299	15367.72149
608.755	16045.04802
609.212	16582.8314
609.668	17149.27135
610.125	17757.14188
610.581	18229.88229
611.037	18636.41675
611.493	19351.99218
611.949	19545.3879
612.405	19970.28373
612.861	20381.81669
613.316	20643.31385
613.772	21020.05743
614.227	21336.15417
614.683	21562.1321
615.138	21538.86076
615.593	21568.60815
616.048	21793.29615
616.503	21701.15888
616.958	21689.99795
617.412	21705.90595
617.867	21512.87579
618.321	21366.04389
618.776	21162.27849
619.23	20951.44262
619.684	20375.63759
620.138	20040.17441
620.592	19710.86588
621.046	19623.41139
621.5	19164.6147
621.954	18734.14686
622.407	18336.87138
622.861	18012.22367
623.314	17696.03949
623.768	17303.11527
624.221	16908.51447
624.674	16363.64831
625.127	16075.32298
625.58	15820.29874
626.033	15581.29043
626.485	14952.2992
626.938	14869.59629
627.39	14402.6478
627.843	14051.84326
628.295	13564.89455
628.747	13310.53217
629.199	13105.61605
629.651	12702.75511
630.103	12481.3197
630.555	12143.01832
631.006	11844.4824
631.458	11584.04566
631.909	11365.28784
632.361	11235.49894
632.812	10944.20224
633.263	10752.69888
633.714	10416.47278
634.165	10192.35066
634.616	10020.85405
635.067	9819.37349
635.518	9479.43402
635.968	9318.15693
636.419	9206.81177
636.869	8964.39518
637.319	8831.13621
637.769	8676.83455
638.219	8531.7286
638.669	8412.60212
639.119	8274.47005
639.569	8137.34711
640.019	8159.23536
640.468	8117.09959
640.918	7827.05485
641.367	7818.82371
641.816	7774.76472
642.265	7764.94727
642.714	7602.77349
643.163	7618.81945
643.612	7537.07151
644.061	7435.40682
644.51	7482.71409
644.958	7360.49528
645.406	7245.84114
645.855	7217.92449
646.303	7228.65662
646.751	7222.66536
647.199	7096.5278
647.647	7040.6464
648.095	6996.53999
648.543	7037.0313
648.99	7006.83913
649.438	6787.60315
649.885	6921.07885
650.333	6893.82991
650.78	6693.88553
651.227	6768.96176
651.674	6582.54105
652.121	6538.01634
652.568	6478.01913
653.015	6393.10711
653.461	6304.85153
653.908	6237.63869
654.354	6116.91911
654.801	6108.81832
655.247	5966.36276
655.693	5951.68329
656.139	5732.09271
656.585	5753.08864
657.031	5814.95004
657.477	5737.50574
657.922	5509.85472
658.368	5458.45479
658.813	5400.90956
659.259	5315.43053
659.704	5383.22523
660.149	5250.08855
660.594	5141.36085
661.039	4938.18175
661.484	4932.46121
661.929	4892.38415
662.373	4700.05036
662.818	4740.90545
663.262	4706.74949
663.707	4613.21453
664.151	4584.87676
664.595	4474.87649
665.039	4438.0961
665.483	4493.27439
665.927	4420.67385
666.371	4352.73604
666.814	4331.8108
667.258	4259.96104
667.701	4208.14848
668.145	4276.19818
668.588	4249.17845
669.031	4190.81029
669.474	4083.00535
669.917	3995.42574
670.36	4166.27356
670.803	4158.02516
671.245	4103.95599
671.688	3955.16458
672.13	3972.6464
672.573	3970.4447
673.015	4057.05452
673.457	3982.38909
673.899	3908.13831
674.341	3885.11649
674.783	3962.04774
675.225	3895.27438
675.666	3898.23326
676.108	3846.40899
676.549	3902.86566
676.991	3817.51495
677.432	3890.89942
677.873	3740.79647
678.314	3839.04236
678.755	3780.32789
679.196	3825.76957
679.637	3708.12731
680.078	3708.96025
680.518	3667.85685
680.959	3697.09274
681.399	3595.40467
681.839	3658.243
682.28	3651.42216
682.72	3561.86793
683.16	3575.47051
683.6	3628.80999
684.039	3555.26014
684.479	3587.39035
684.919	3598.0475
685.358	3606.43754
685.798	3620.7836
686.237	3599.1307
686.676	3650.75941
687.115	3669.02624
687.554	3745.10863
687.993	3692.603
688.432	3708.79301
688.871	3647.85087
689.309	3667.14953
689.748	3762.20393
690.186	3789.92092
690.625	3724.98152
691.063	3668.10547
691.501	3809.32054
691.939	3827.45665
692.377	3826.16207
692.815	3901.2036
693.253	3887.00052
693.69	3846.46194
694.128	3935.1301
694.565	3917.9539
695.003	3988.51102
695.44	4020.91123
695.877	4021.86281
696.314	4025.13101
696.751	4088.56275
697.188	4135.70129
697.625	4136.45024
698.061	4124.93405
698.498	4175.80914
698.934	4287.83634
699.371	4281.7298
699.807	4266.75474
700.243	4317.89379
700.679	4393.28548
701.115	4399.59577
701.551	4415.5556
701.987	4464.10789
702.422	4538.69437
702.858	4659.62148
703.294	4656.33595
703.729	4604.79412
704.164	4767.55777
704.599	4633.16506
705.035	4754.12444
705.47	4905.61025
705.904	4858.28165
706.339	4973.15342
706.774	5079.23772
707.209	5095.18829
707.643	5208.32352
708.078	5195.45524
708.512	5307.64358
708.946	5352.16325
709.38	5397.16831
709.814	5606.71763
710.248	5494.3401
710.682	5551.17261
711.116	5685.21364
711.549	5622.61384
711.983	5739.79428
712.416	5760.97973
712.85	5895.22919
713.283	5972.84603
713.716	6033.17319
714.149	6018.69134
714.582	6129.4719
715.015	6145.0479
715.448	6234.22858
715.881	6248.17512
716.313	6349.65188
716.746	6444.72101
717.178	6537.80612
717.61	6691.17796
718.043	6645.96189
718.475	6789.83418
718.907	6748.02342
719.339	6830.43415
719.77	6985.75596
720.202	7069.03208
720.634	7255.93846
721.065	7161.67828
721.497	7204.90635
721.928	7289.91033
722.359	7267.8921
722.79	7453.85181
723.221	7596.09511
723.652	7733.28761
724.083	7650.66931
724.514	7778.84089
724.945	7792.9244
725.375	8007.09066
725.806	7917.23244
726.236	8092.53572
726.666	8120.21852
727.096	8279.50859
727.526	8485.93727
727.956	8515.60039
728.386	8441.692
728.816	8602.04201
729.246	8548.84935
729.675	8631.91534
730.105	8704.02184
730.534	8730.9547
730.964	8826.25156
731.393	8835.21989
731.822	8974.54679
732.251	8909.42634
732.68	9149.70152
733.109	9255.97572
733.537	9162.78543
733.966	9318.11583
734.395	9493.47006
734.823	9446.37983
735.251	9448.36256
735.68	9441.35881
736.108	9312.10143
736.536	9375.19124
736.964	9331.09059
737.392	9513.52726
737.82	9496.47243
738.247	9628.7939
738.675	9590.70468
739.102	9472.43528
739.53	9483.49237
739.957	9485.50454
740.384	9390.23252
740.811	9601.72602
741.238	9418.30628
741.665	9404.2581
742.092	9089.57397
742.519	9231.9368
742.945	9271.99132
743.372	9340.15291
743.798	9185.90101
744.225	9199.81773
744.651	9080.66697
745.077	9105.70573
745.503	9035.52374
745.929	9011.49109
746.355	8977.43293
746.781	8799.16548
747.207	8698.94378
747.632	8624.96045
748.058	8618.99956
748.483	8555.65902
748.908	8509.82179
749.334	8521.80261
749.759	8443.60328
750.184	8375.55789
750.609	8227.44813
751.033	8243.2942
751.458	8051.95806
751.883	8097.34433
752.307	7875.98955
752.732	7803.35292
753.156	7715.08502
753.58	7785.92285
754.005	7589.12312
754.429	7558.83193
754.853	7326.01183
755.277	7323.74173
755.7	7287.97426
756.124	7115.96125
756.548	7038.63732
756.971	6930.82407
757.394	6900.13659
757.818	6791.22979
758.241	6743.12408
758.664	6668.08244
759.087	6571.37713
759.51	6521.9265
759.933	6489.82032
760.356	6306.35909
760.778	6251.98115
761.201	6142.88003
761.623	6022.80813
762.046	5920.71948
762.468	5945.88411
762.89	5811.07926
763.312	5719.17102
763.734	5577.12185
764.156	5504.34078
764.578	5419.77501
765	5235.37647
765.421	5229.77957
765.843	5126.0416
766.264	4971.28406
766.686	4991.63949
767.107	4884.52691
767.528	4881.03619
767.949	4778.95753
768.37	4732.81001
768.791	4585.59529
769.212	4419.11491
769.632	4477.51318
770.053	4305.45577
770.473	4245.8172
770.894	4170.00204
771.314	4047.7468
771.734	4017.68864
772.154	3879.42385
772.575	3874.6667
772.994	3863.55826
773.414	3764.92258
773.834	3667.30362
774.254	3663.15359
774.673	3557.22704
775.093	3522.36362
775.512	3398.32766
775.931	3387.52114
776.351	3328.41429
776.77	3250.31704
777.189	3202.09093
777.607	3061.58899
778.026	3086.4184
778.445	2918.55491
778.864	2973.51715
779.282	2881.11987
779.701	2865.44934
780.119	2799.52144
780.537	2712.37538
780.955	2647.45231
781.373	2629.31212
781.791	2620.85857
782.209	2595.79007
782.627	2492.67387
783.045	2426.80931
783.462	2440.45541
783.88	2355.50883
784.297	2326.32163
784.715	2300.45617
785.132	2228.03104
785.549	2117.16726
785.966	2122.20945
786.383	2099.1121
786.8	2100.79986
787.217	2035.91761
787.633	2009.15028
788.05	1941.71549
788.466	1901.69509
788.883	1921.18347
789.299	1876.76892
789.715	1880.89992
790.131	1817.93204
790.547	1722.8553
790.963	1740.84632
791.379	1626.82997
791.795	1661.41254
792.21	1614.48058
792.626	1567.48554
793.041	1563.65386
793.457	1528.60442
793.872	1477.36814
794.287	1502.54214
794.702	1390.40826
795.117	1398.52783
795.532	1395.56755
795.947	1396.34142
796.362	1344.23784
796.776	1307.1433
797.191	1276.31807
797.605	1208.14442
798.02	1231.22984
798.434	1246.99692
798.848	1218.30042
799.262	1132.16146
799.676	1175.16785
800.09	1088.07124
800.504	1081.01175
800.918	1003.78195
801.331	979.01135
801.745	990.7538
802.158	986.94066
802.572	1039.9653
802.985	919.75742
803.398	925.75187
803.811	881.80969
804.224	830.67308
804.637	844.64529
805.05	834.54737
805.462	798.60924
805.875	775.70099
806.288	781.57383
806.7	704.48183
807.112	718.36818
807.525	668.37576
807.937	713.49389
808.349	698.47048
808.761	712.4849
809.173	667.38078
809.584	651.36505
809.996	645.34769
810.408	627.42373
810.819	604.21923
811.231	713.64069
811.642	675.43349
812.053	711.46477
812.464	578.18001
812.875	558.25946
813.286	557.27432
813.697	540.05988
814.108	519.10466
814.519	529.02872
814.929	517.15992
815.34	500.05284
815.75	534.20767
816.16	448.98274
816.571	487.12243
816.981	454.93542
817.391	427.91083
817.801	433.96961
818.211	434.91833
818.62	441.95252
819.03	378.83515
819.44	382.89073
819.849	367.83064
820.259	351.8109
820.668	389.86896
821.077	367.83773
821.486	340.7333
821.895	356.78556
822.304	295.72359
822.713	334.71387
823.122	317.72391
823.531	305.64977
823.939	336.75043
824.348	331.72811
824.756	344.78097
825.164	324.74273
825.573	295.68317
825.981	320.72148
826.389	278.64419
826.797	319.7481
827.205	324.6811
827.612	247.56226
828.02	226.48974
828.428	216.51479
828.835	275.67903
829.243	234.51292
829.65	234.5474
830.057	215.48388
830.464	264.60326
830.871	263.58389
831.278	253.56636
831.685	260.52873
832.092	213.48134
832.499	282.5651
832.905	173.41018
833.312	182.37923
833.718	247.57656
834.124	212.45116
834.531	218.50797
834.937	248.59534
835.343	192.42937
835.749	194.41555
836.155	168.41691
836.561	180.41696
836.966	174.39826
837.372	159.38077
837.777	165.3897
838.183	142.2947
838.588	140.33213
838.993	193.44041
839.399	148.34406
839.804	134.31053
840.209	187.45446
840.613	133.27793
841.018	145.34605
841.423	165.40085
841.828	181.43378
842.232	140.32212
842.637	195.43491
843.041	151.36931
843.445	135.31873
843.849	136.3209
844.253	181.40118
844.657	127.30657
845.061	210.4508
845.465	91.21009
845.869	169.36787
846.272	151.34944
846.676	127.28536
847.079	136.3317
847.483	169.3959
847.886	171.38675
848.289	130.33619
848.692	91.21901
849.095	144.32482
849.498	119.28248
849.901	121.25969
850.304	170.38065
850.707	95.23088
851.109	144.34307
851.512	117.2743
851.914	83.20233
852.316	163.39436
852.718	162.40744
853.121	137.31817
853.523	65.14431
853.925	93.23554
854.326	123.29478
854.728	102.25202
855.13	82.2055
855.531	141.31916
855.933	117.26343
856.334	103.24742
856.736	130.27738
857.137	134.29707
857.538	122.29433
857.939	105.25136
858.34	92.21142
858.741	121.30066
859.142	75.17129
859.542	123.31241
859.943	105.24857
860.343	103.24525
860.744	130.3003
861.144	110.25784
861.544	60.14064
861.945	82.20015
862.345	95.22037
862.745	120.28589
863.145	61.13684
863.544	103.24948
863.944	106.23764
864.344	79.18521
864.743	87.20596
865.143	106.26277
865.542	74.16146
865.941	110.26036
866.34	60.13584
866.74	114.29339
867.139	100.23146
867.537	94.22636
867.936	108.24829
868.335	49.11994
868.734	82.20149
869.132	91.19825
869.531	105.23816
869.929	105.22807
870.327	65.14929
870.726	64.15148
871.124	56.12425
871.522	54.13205
871.92	105.24665
872.318	75.17405
872.715	60.14031
873.113	60.13943
873.511	65.15489
873.908	62.15336
874.306	93.22306
874.703	62.14743
875.1	49.119
875.497	90.20467
875.894	90.21492
876.291	94.2206
876.688	85.2106
877.085	88.19964
877.482	65.15614
877.878	108.25077
878.275	80.19549
878.671	33.0681
879.068	130.29648
879.464	97.22305
879.86	70.15822
880.256	49.1143
880.652	59.14436
881.048	78.18276
881.444	60.13457
881.84	38.09313
882.236	72.17338
882.631	113.26513
883.027	99.22692
883.422	42.10297
883.817	56.13664
884.213	53.13117
884.608	73.17562
885.003	40.09196
885.398	47.1135
885.793	52.12503
886.188	49.11703
886.582	71.17307
886.977	80.17965
887.371	65.15667
887.766	71.17049
888.16	69.16202
888.554	84.19682
888.949	104.24863
889.343	62.14431
889.737	42.10956
890.131	63.15185
890.525	95.23408
890.918	46.11144
891.312	74.16713
891.706	36.0912
892.099	75.18235
892.492	134.2684
892.886	89.20711
893.279	69.16832
893.672	94.23055
894.065	110.26247
894.458	29.06971
894.851	78.18119
895.244	44.10836
895.637	80.18466
896.029	88.20676
896.422	-7.01639
896.814	59.14032
897.206	121.2769
897.599	119.27877
897.991	98.2271
898.383	63.14278
898.775	93.20166
899.167	106.23823
899.559	80.19199
899.951	88.19526
900.342	58.14035
900.734	103.24995
901.125	38.09571
901.517	30.07123
901.908	68.15326
902.299	90.21063
902.69	81.18402
903.082	123.28193
903.473	97.22483
903.863	23.05646
904.254	108.24053
904.645	45.1062
905.036	92.217
905.426	115.24415
905.817	39.09147
906.207	-12.02743
906.597	63.14249
906.987	65.16052
907.378	97.23566
907.768	62.15862
908.158	72.16745
908.547	53.13404
908.937	37.09046
909.327	62.14385
909.717	26.0627
910.106	62.1418
910.495	80.18855
910.885	113.27319
911.274	61.14608
911.663	61.14725
912.052	97.22492
912.441	67.16503
912.83	81.17527
913.219	59.1481
913.608	78.18341
913.997	78.18925
914.385	115.2601
914.774	94.21732
915.162	88.20223
915.55	86.19653
915.939	75.18303
916.327	32.07639
916.715	116.28619
917.103	83.19124
917.491	99.23219
917.878	94.21947
918.266	58.14415
918.654	121.2966
919.041	70.17827
919.429	33.07488
919.816	89.21525
920.203	89.20792
920.591	65.15489
920.978	90.20997
921.365	88.22236
921.752	35.07887
922.139	105.21474
922.525	61.14094
922.912	51.11887
923.299	69.16461
923.685	0
924.072	53.11365
924.458	87.20684
924.844	62.14726
925.231	50.11025
925.617	93.22881
926.003	37.09097
926.389	79.19063
926.774	48.11664
927.16	72.17075
927.546	73.18199
927.931	51.12144
928.317	65.14155
928.702	90.20119
929.088	115.2638
929.473	73.17974
929.858	61.14419
930.243	61.14184
930.628	72.1695
931.013	55.13116
931.398	39.08432
931.783	23.05803
932.167	112.26294
932.552	71.16977
932.937	78.18376
933.321	21.05146
933.705	23.05537
934.09	31.07393
934.474	78.17451
934.858	57.14277
935.242	41.09076
935.626	69.17058
936.009	80.20682
936.393	116.28514
936.777	77.19036
937.16	53.13414
937.544	6.01341
937.927	83.20285
938.311	99.22783
938.694	101.25644
939.077	67.15326
939.46	56.12864
939.843	49.09453
940.226	23.05678
940.609	75.1661
940.991	6.01472
941.374	57.13458
941.757	68.15983
942.139	74.15872
942.522	75.16762
942.904	82.18792
943.286	57.13864
943.668	95.23812
944.05	55.13016
944.432	26.06164
944.814	60.14004
945.196	29.06879
945.578	78.18018
945.959	48.10646
946.341	35.08096
946.722	88.19485
947.104	99.22473
947.485	126.27631
947.866	105.25433
948.247	71.17359
948.628	52.11902
949.009	49.12092
949.39	73.17255
949.771	51.11045
950.152	82.19236
950.532	78.18911
950.913	57.13139
951.293	40.10573
951.674	98.22521
952.054	121.29032
952.434	67.15966
952.814	43.09686
953.194	28.06992
953.574	55.1292
953.954	56.1257
954.334	93.22331
954.714	25.05912
955.093	115.26782
955.473	49.11931
955.853	72.17907
956.232	63.16644
956.611	83.18665
956.99	100.24062
957.37	36.08787
957.749	33.07433
958.128	45.10994
958.506	63.15757
958.885	40.09687
959.264	64.15242
959.643	115.24852
960.021	51.12242
960.4	57.12297
960.778	25.05841
961.156	9.02176
961.535	47.10361
961.913	71.15934
962.291	66.16499
962.669	99.24061
963.047	47.11628
963.424	96.23746
963.802	43.10196
964.18	73.17362
964.557	71.15462
964.935	71.16012
965.312	65.16387
965.69	63.14961
966.067	42.09698
966.444	29.06743
966.821	60.14896
967.198	77.17571
967.575	56.13091
967.952	94.20926
968.329	68.15933
968.705	86.17545
969.082	93.23151
969.458	44.10294
969.835	65.15126
970.211	88.21863
970.587	88.2095
970.963	33.08095
971.339	58.14666
971.715	66.15827
972.091	102.23834
972.467	-7.01668
972.843	81.19457
973.219	57.12939
973.594	27.06843
973.97	57.12587
974.345	45.10385
974.721	65.14785
975.096	67.1564
975.471	89.19949
975.846	54.12315
976.221	84.20434
976.596	97.22501
976.971	94.22275
977.346	64.14064
977.72	37.0904
978.095	82.20276
978.469	49.11141
978.844	125.29558
979.218	99.22919
979.593	63.14336
979.967	-18.04173
980.341	78.17156
980.715	82.19806
981.089	42.10106
981.463	90.19578
981.837	106.24924
982.21	55.1185
982.584	74.17142
982.957	56.13521
983.331	23.05143
983.704	57.13614
984.078	44.10398
984.451	95.22072
984.824	52.12237
985.197	37.08488
985.57	13.03099
985.943	46.10685
986.316	65.14988
986.688	75.17198
987.061	97.21626
987.434	94.23769
987.806	41.0939
988.179	60.13451
988.551	51.12372
988.923	55.12895
989.295	80.18965
989.667	45.10488
990.039	115.27456
990.411	27.0586
990.783	64.1381
991.155	-8.01874
991.527	96.21973
991.898	72.17259
992.27	79.18868
992.641	88.20893
993.012	33.07235
993.384	59.13366
993.755	67.16491
994.126	90.20782
994.497	43.10144
994.868	58.12526
995.239	50.11569
995.61	66.15935
995.98	35.08158
996.351	29.06979
996.722	45.1012
997.092	9.0207
997.462	92.20668
997.833	48.10774
998.203	41.09379
998.573	86.20521
998.943	86.19264
999.313	57.13154
999.683	98.22404
1000.053	12.02588
1000.423	82.18807
1000.792	10.02483
1001.162	49.11479
1001.531	95.22325
1001.901	65.15418
1002.27	14.02935
1002.639	21.05144
1003.009	0
1003.378	74.18163
1003.747	50.1121
1004.116	35.08022
1004.485	72.16381
1004.853	34.08175
1005.222	33.07858
1005.591	97.21724
1005.959	76.16329
1006.328	68.14604
1006.696	50.11491
1007.064	46.11001
1007.433	16.03828
1007.801	33.0764
1008.169	28.0674
1008.537	66.13838
1008.905	40.08997
1009.273	79.18442
1009.64	79.18202
1010.008	39.08889
1010.375	37.0845
1010.743	45.09579
1011.11	111.25361
1011.478	99.23473
1011.845	63.14022
1012.212	91.19733
1012.579	83.19452
1012.946	-9.02046
1013.313	43.09698
1013.68	51.10842
1014.047	23.0527
1014.414	63.14156
1014.78	82.19529
1015.147	36.0824
1015.513	35.08096
1015.88	49.11945
1016.246	41.09579
1016.612	122.25952
1016.978	96.22511
1017.344	100.23532
1017.71	115.26296
1018.076	87.19211
1018.442	58.14383
1018.808	102.24497
1019.174	-5.01208
1019.539	33.06927
1019.905	66.14924
1020.27	18.04275
1020.636	66.14851
1021.001	123.27864
1021.366	23.05344
1021.731	124.30728
1022.096	66.16122
1022.461	88.19818
1022.826	85.19358
1023.191	52.13149
1023.556	74.16371
1023.92	39.09108
1024.285	56.12911
1024.649	31.07251
1025.014	24.05652
1025.378	61.14803
1025.742	58.13654
1026.107	92.19554
1026.471	49.10834
1026.835	52.12356
1027.199	25.05804
1027.562	66.14412
1027.926	46.10702
1028.29	41.09994
1028.654	34.07443
1029.017	82.19259
1029.381	69.15771
1029.744	59.14452
1030.107	93.20828
1030.471	103.23485
1030.834	51.10847
1031.197	78.17839
1031.56	10.02258
1031.923	41.1024
1032.286	110.24346
1032.648	22.04977
1033.011	75.16603
1033.374	103.22564
1033.736	11.02811
1034.099	56.1307
1034.461	51.12488
1034.823	55.13197
1035.185	1.00241
1035.548	74.17257
1035.91	61.13903
1036.272	87.18841
1036.634	88.20442
1036.995	44.09795
1037.357	70.16344
1037.719	82.1901
1038.08	148.33234
1038.442	80.17994
1038.803	31.07014
1039.165	4.00972
1039.526	36.08356
1039.887	82.1861
1040.248	77.1844
1040.609	9.02122
1040.97	60.1396
1041.331	97.23566
1041.692	109.24502
1042.053	70.15001
1042.413	101.22041
1042.774	87.20157
1043.134	92.2043
1043.495	58.13961
1043.855	71.1662
1044.215	30.07117
1044.576	72.16526
1044.936	89.19143
1045.296	104.24616
1045.656	53.12294
1046.016	81.18454
1046.375	68.15727
1046.735	91.19893
1047.095	70.15584
1047.454	45.08915
1047.814	71.16274
1048.173	62.13883
1048.533	85.18416
1048.892	39.09022
1049.251	67.15941
1049.61	58.1368
1049.969	59.13203
1050.328	88.17945
1050.687	56.12926
1051.046	47.10907
1051.405	82.19221
1051.763	52.11543
1052.122	37.08854
1052.48	137.31742
1052.839	112.25316
1053.197	60.13435
1053.555	92.19289
1053.914	81.18775
1054.272	8.0182
1054.63	84.19597
1054.988	58.13292
1055.345	20.04043
1055.703	110.25066
1056.061	102.25313
1056.419	104.2611
1056.776	30.06853
1057.134	26.05651
1057.491	42.1011
1057.848	57.13489
1058.206	28.062
1058.563	69.14336
1058.92	110.23715
1059.277	90.21096
1059.634	41.09073
1059.991	95.21618
1060.348	52.1124
1060.704	58.13531
1061.061	55.11901
1061.418	11.02577
1061.774	66.15567
1062.131	82.21133
1062.487	26.05788
1062.843	80.18994
1063.199	39.09326
1063.555	100.22105
1063.911	60.1441
1064.267	105.20052
1064.623	103.24006
1064.979	11.02407
1065.335	79.17744
1065.691	55.12369
1066.046	66.13679
1066.402	5.01083
1066.757	79.19049
1067.112	4.00943
1067.468	49.11227
1067.823	57.12776
1068.178	5.01158
1068.533	75.17294
1068.888	47.10665
1069.243	69.16259
1069.598	34.07867
1069.952	76.1661
1070.307	69.16411
1070.662	115.26126
1071.016	82.17656
1071.371	76.16477
1071.725	79.17751
1072.079	100.22824
1072.434	64.14908
1072.788	35.07861
1073.142	72.1691
1073.496	27.06127
1073.85	85.18597
1074.203	64.14831
1074.557	106.2728
1074.911	71.15973
1075.265	48.10628
1075.618	91.21118
1075.971	104.23325
1076.325	21.05199
1076.678	79.17123
1077.031	-4.00851
1077.385	28.05852
1077.738	49.10489
1078.091	69.15045
1078.444	38.08309
1078.796	84.19751
1079.149	82.19476
1079.502	65.14743
1079.855	84.18584
1080.207	53.1244
1080.56	59.14752
1080.912	67.15511
1081.264	54.12484
1081.617	78.18176
1081.969	40.09774
1082.321	103.23713
1082.673	81.17819
1083.025	70.15674
1083.377	312.66107
1083.728	68.14969
1084.08	36.08574
1084.432	12.02774
1084.783	19.04176
1085.135	62.14953
1085.486	51.11196
1085.838	68.16052
1086.189	81.18886
1086.54	30.06834
1086.891	48.11908
1087.242	112.26294
1087.593	58.13249
1087.944	116.24901
1088.295	77.16497
1088.646	132.30771
1088.996	35.08148
1089.347	26.06092
1089.698	68.15496
1090.048	59.14613
1090.398	103.22325
1090.749	67.15098
1091.099	94.22824
1091.449	69.16499
1091.799	107.25399
1092.149	45.10694
1092.499	74.17203
1092.849	38.09317
1093.199	59.14011
1093.548	50.11633
1093.898	26.06237
1094.248	26.06377
1094.597	51.12696
1094.947	69.17742
1095.296	64.15201
1095.645	38.09482
1095.994	6.01389
1096.343	43.10443
1096.692	78.20011
1097.041	76.20142
1097.39	46.11001
1097.739	54.13484
1098.088	48.1231
1098.437	90.23001
1098.785	14.03633
1099.134	-13.03304
1099.482	25.06706
1099.83	71.17918
1100.179	103.2618
1100.527	31.07868
1100.875	66.16927
1101.223	35.09059
1101.571	-8.02151
1101.919	44.11367
1102.267	74.20321
1102.615	4.01285
1102.962	13.04164
1103.31	7.02247
1103.658	-2.00641
