Data from N3 R2 sample 7_Subt2__3__10-16-08-384.txt Node

Date: Thu Sep 18 10:16:08 PDT 2025
User: uwsun
Spectrometer: HDX01956
Trigger mode: 0
Integration Time (sec): 5.000000E-1
Scans to average: 1
Nonlinearity correction enabled: true
Boxcar width: 0
Storing dark spectrum: false
XAxis mode: Wavelengths
Number of Pixels in Spectrum: 2068
>>>>>Begin Spectral Data<<<<<
194.03	39.11258
194.578	62.20013
195.127	70.22255
195.676	66.21069
196.225	124.32433
196.773	115.31565
197.321	115.31625
197.87	164.41764
198.418	225.57104
198.966	250.64625
199.513	227.56854
200.061	170.42986
200.609	214.55722
201.156	229.49275
201.704	192.4789
202.251	232.60697
202.798	205.52526
203.345	240.58423
203.892	238.59146
204.438	208.48735
204.985	218.51097
205.532	180.46998
206.078	204.49252
206.624	221.54752
207.17	287.65542
207.716	258.62029
208.262	222.43333
208.808	278.68253
209.354	231.56306
209.899	218.54117
210.445	207.51246
210.99	244.5853
211.535	274.63065
212.08	245.55793
212.625	207.51096
213.17	257.64204
213.715	250.56045
214.259	265.60494
214.804	226.54522
215.348	286.64378
215.892	214.51334
216.436	202.45546
216.98	226.48744
217.524	239.56161
218.068	227.56423
218.612	265.65939
219.155	237.55018
219.698	316.72614
220.242	184.44943
220.785	225.51984
221.328	225.54598
221.871	289.71595
222.414	175.42864
222.956	163.38692
223.499	191.41999
224.041	172.38893
224.583	192.39846
225.126	191.41293
225.668	225.53572
226.21	224.55667
226.751	220.48081
227.293	210.46594
227.835	186.45025
228.376	148.33425
228.918	201.49214
229.459	225.55028
230	213.50267
230.541	226.50832
231.082	195.46804
231.622	172.38433
232.163	197.46744
232.704	239.58517
233.244	206.50241
233.784	201.47858
234.324	249.54637
234.864	182.4055
235.404	210.48471
235.944	176.40915
236.484	221.5407
237.023	183.42533
237.563	233.52954
238.102	216.50074
238.641	216.5321
239.18	189.43754
239.719	235.57495
240.258	244.53371
240.797	214.5016
241.335	220.52372
241.874	258.48734
242.412	240.57
242.95	236.55791
243.488	178.39429
244.026	237.53885
244.564	248.49628
245.102	256.56469
245.64	226.52744
246.177	196.428
246.715	270.62962
247.252	249.54936
247.789	212.38436
248.326	250.58757
248.863	230.495
249.4	223.49468
249.936	281.56922
250.473	265.60932
251.009	214.48034
251.546	234.51119
252.082	223.47054
252.618	268.58149
253.154	244.57325
253.69	174.38575
254.226	229.53686
254.761	229.50249
255.297	201.43138
255.832	246.57095
256.367	231.53073
256.903	364.76956
257.438	237.54234
257.972	240.52119
258.507	225.50493
259.042	265.55916
259.576	283.60657
260.111	231.51818
260.645	229.48342
261.179	255.58188
261.713	263.57223
262.247	203.45538
262.781	229.47217
263.315	207.49306
263.849	233.57111
264.382	219.49288
264.915	273.62747
265.449	192.46215
265.982	244.54047
266.515	286.67976
267.048	223.4629
267.58	222.46833
268.113	234.4943
268.646	216.51834
269.178	237.51698
269.71	299.6381
270.243	291.65249
270.775	276.68887
271.307	219.51
271.838	251.57714
272.37	199.48
272.902	254.55957
273.433	287.61568
273.965	246.58313
274.496	227.55084
275.027	259.62847
275.558	261.62071
276.089	248.60551
276.62	220.54375
277.15	212.51183
277.681	271.56454
278.211	243.57835
278.741	222.48374
279.272	262.58348
279.802	229.55777
280.332	212.49224
280.861	258.60022
281.391	239.53083
281.921	220.51546
282.45	210.5116
282.98	251.63882
283.509	316.69235
284.038	292.64651
284.567	277.62621
285.096	230.5471
285.625	218.48107
286.153	288.66763
286.682	302.67032
287.21	201.47104
287.739	255.58727
288.267	244.58129
288.795	270.68631
289.323	252.57793
289.851	286.65274
290.378	259.56161
290.906	292.69295
291.433	294.71004
291.961	324.71227
292.488	242.5869
293.015	282.64672
293.542	297.74114
294.069	340.81025
294.596	260.61892
295.122	278.64853
295.649	218.46837
296.175	312.72411
296.702	334.78618
297.228	289.67405
297.754	299.65027
298.28	319.70791
298.806	283.6624
299.332	322.69418
299.857	263.58292
300.383	280.68439
300.908	282.67463
301.433	299.71079
301.958	326.71877
302.483	258.62405
303.008	346.82739
303.533	297.74275
304.058	292.65917
304.582	249.57574
305.107	250.63661
305.631	345.74934
306.155	351.78376
306.679	275.63004
307.203	336.75012
307.727	298.68451
308.251	320.7626
308.775	375.87287
309.298	305.71248
309.822	308.74889
310.345	351.80574
310.868	323.75245
311.391	329.78148
311.914	278.67874
312.437	368.80388
312.96	386.8667
313.482	275.62928
314.005	313.75549
314.527	305.76853
315.049	386.93356
315.571	366.78835
316.093	375.88866
316.615	351.80832
317.137	356.74308
317.659	365.84692
318.18	327.75126
318.702	416.92446
319.223	332.65021
319.744	377.81047
320.265	363.84893
320.786	413.98207
321.307	358.8492
321.828	398.85358
322.348	384.86292
322.869	425.95992
323.389	725.23848
323.909	352.77219
324.43	415.94078
324.95	399.86919
325.47	444.03961
325.989	441.98874
326.509	448.94546
327.029	456.98048
327.548	424.90973
328.067	446.02145
328.587	481.13232
329.106	466.98431
329.625	463.13532
330.144	474.03298
330.662	506.10704
331.181	490.081
331.7	462.00763
332.218	508.02231
332.736	467.02651
333.255	480.05934
333.773	480.06111
334.291	563.30198
334.808	520.08735
335.326	486.01927
335.844	578.2499
336.361	600.42241
336.879	568.23191
337.396	569.27936
337.913	572.21528
338.43	551.14593
338.947	548.21219
339.464	595.16941
339.981	565.23502
340.497	591.33485
341.014	609.35878
341.53	612.25632
342.046	614.40684
342.562	583.33868
343.078	574.24388
343.594	599.30448
344.11	632.37905
344.626	663.52072
345.141	657.35763
345.657	714.43965
346.172	655.43381
346.687	697.43139
347.202	703.43723
347.717	732.55635
348.232	685.54171
348.747	679.41192
349.261	714.39547
349.776	743.57257
350.29	709.59902
350.805	730.61391
351.319	713.48074
351.833	731.4986
352.347	679.44637
352.861	739.54365
353.374	734.48138
353.888	779.68756
354.401	757.52192
354.915	759.51614
355.428	818.79428
355.941	787.61208
356.454	800.55275
356.967	774.59149
357.48	773.54129
357.993	810.75215
358.505	784.68361
359.018	865.84293
359.53	841.79487
360.042	896.71543
360.554	888.88174
361.066	842.78731
361.578	879.66542
362.09	851.75978
362.602	910.72886
363.113	947.89565
363.625	903.75339
364.136	961.77067
364.647	925.87629
365.158	929.84247
365.669	901.84998
366.18	918.84727
366.691	968.77515
367.201	954.94351
367.712	1000.91579
368.222	960.86909
368.733	969.76319
369.243	1030.90707
369.753	1007.93895
370.263	1032.08389
370.773	974.00688
371.282	1149.22932
371.792	1121.11417
372.301	1080.15419
372.811	1135.46443
373.32	1191.03752
373.829	1094.11484
374.338	1185.09207
374.847	1241.2605
375.356	1255.33431
375.865	1325.16221
376.373	1388.39216
376.882	1438.79465
377.39	1361.53708
377.898	1446.70067
378.407	1496.50079
378.915	1612.49045
379.423	1676.74972
379.93	1746.8108
380.438	1816.99469
380.946	1877.9161
381.453	1945.09346
381.96	2114.18595
382.468	2188.15587
382.975	2368.44505
383.482	2285.97467
383.989	2371.70148
384.495	2527.25042
385.002	2652.75305
385.509	2799.4208
386.015	2994.60731
386.521	3063.14805
387.028	3230.11136
387.534	3324.7456
388.04	3419.43513
388.546	3508.86703
389.051	3846.71706
389.557	4069.92843
390.063	4107.74038
390.568	4284.07551
391.073	4485.42594
391.578	4682.97409
392.084	4852.3719
392.589	5176.86308
393.093	5640.27988
393.598	6026.83659
394.103	6571.90115
394.607	7193.95938
395.112	7577.17518
395.616	8115.44193
396.12	8753.02211
396.624	9669.88906
397.128	10427.05349
397.632	11431.14794
398.136	12311.98004
398.639	13525.964
399.143	15447.98333
399.646	17384.36062
400.15	19145.5234
400.653	21503.27242
401.156	24716.88991
401.659	28501.65471
402.162	36120.25998
402.664	52855.99174
403.167	62513.00726
403.67	63769.22307
404.172	63919.58413
404.674	63858.43483
405.176	63738.15102
405.678	63977.72923
406.18	64011.81569
406.682	63863.44694
407.184	63926.60148
407.686	63841.39382
408.187	64025.8516
408.688	63892.51763
409.19	61491.38587
409.691	50968.63901
410.192	44066.38406
410.693	38961.05283
411.194	36866.41856
411.694	34480.59753
412.195	31409.97531
412.696	29240.07655
413.196	28414.82492
413.696	28861.34625
414.196	28724.47114
414.696	27487.82172
415.196	25253.58565
415.696	20866.5485
416.196	15942.14559
416.695	13388.93019
417.195	12477.61651
417.694	12003.94159
418.194	11103.18546
418.693	10667.04216
419.192	10411.04586
419.691	10210.42058
420.19	9982.7018
420.688	9664.88153
421.187	8955.27465
421.685	8390.57025
422.184	7298.88195
422.682	6301.43447
423.18	5588.01896
423.678	5039.26599
424.176	4652.4706
424.674	4491.38853
425.172	4197.90456
425.669	3812.36486
426.167	3687.0362
426.664	3302.00849
427.161	3054.12444
427.659	2884.44386
428.156	2777.74047
428.652	2577.61482
429.149	2504.37877
429.646	2335.90466
430.143	2273.22317
430.639	2184.12517
431.135	1986.25073
431.632	1875.78815
432.128	1763.89618
432.624	1702.12848
433.12	1742.68281
433.616	1676.49188
434.111	1617.71844
434.607	1567.69616
435.103	1478.18629
435.598	1479.16868
436.093	1334.34962
436.588	1269.17856
437.083	1238.13016
437.578	1205.17707
438.073	1100.23861
438.568	1148.26373
439.062	1084.83561
439.557	1075.02423
440.051	995.82431
440.546	977.82177
441.04	993.96863
441.534	938.9886
442.028	994.97656
442.522	919.85056
443.015	839.51151
443.509	894.83683
444.002	908.87231
444.496	838.52935
444.989	874.79732
445.482	828.75986
445.975	890.72606
446.468	775.43377
446.961	815.49817
447.454	807.53994
447.947	783.61255
448.439	823.73218
448.931	828.61482
449.424	763.69496
449.916	788.66027
450.408	725.44077
450.9	761.60369
451.392	724.61593
451.884	727.45079
452.375	733.5865
452.867	701.37229
453.358	712.42049
453.849	697.29242
454.341	703.38271
454.832	643.22117
455.323	682.50207
455.814	608.23855
456.304	637.30566
456.795	631.27644
457.285	600.17399
457.776	644.29534
458.266	608.28851
458.756	568.20729
459.247	607.29731
459.737	640.37589
460.226	585.19297
460.716	554.1964
461.206	558.20453
461.695	520.17119
462.185	608.28795
462.674	545.12336
463.163	592.18348
463.653	545.04076
464.142	533.17234
464.63	544.19281
465.119	498.05552
465.608	570.19945
466.096	449.89538
466.585	464.97321
467.073	455.98905
467.561	451.99868
468.05	536.11344
468.538	439.99315
469.026	421.92644
469.513	486.93158
470.001	468.98637
470.489	436.95924
470.976	462.99295
471.463	460.05484
471.951	377.87856
472.438	404.88288
472.925	433.94324
473.412	385.8735
473.899	447.94397
474.385	415.94498
474.872	375.8183
475.359	436.99338
475.845	357.6914
476.331	378.74941
476.817	381.86793
477.303	344.75305
477.789	343.7697
478.275	344.80561
478.761	329.73798
479.247	356.7444
479.732	297.70603
480.218	348.86222
480.703	300.70314
481.188	338.68828
481.673	313.68187
482.158	273.56339
482.643	316.7669
483.128	354.77625
483.612	368.8229
484.097	285.6553
484.581	274.60565
485.066	333.77146
485.55	298.62617
486.034	312.63997
486.518	356.80198
487.002	207.48737
487.486	268.6225
487.969	268.62324
488.453	248.59308
488.936	267.57475
489.42	301.63177
489.903	225.54045
490.386	195.39103
490.869	260.5456
491.352	266.61248
491.835	204.40387
492.318	192.41909
492.8	235.46797
493.283	224.55262
493.765	199.47346
494.247	206.46448
494.73	221.47226
495.212	216.49478
495.694	211.48168
496.175	182.4261
496.657	226.51644
497.139	179.29822
497.62	191.44673
498.102	193.46711
498.583	150.36065
499.064	206.44488
499.545	210.46323
500.026	244.53078
500.507	186.41647
500.988	222.53658
501.469	147.359
501.949	196.46999
502.43	197.4613
502.91	226.46252
503.39	142.3453
503.87	132.30711
504.35	145.33262
504.83	148.3173
505.31	141.33354
505.79	141.32707
506.269	154.34596
506.749	132.29666
507.228	151.34847
507.707	172.37464
508.187	207.47959
508.666	175.42323
509.145	137.3149
509.623	118.27258
510.102	147.34881
510.581	230.53572
511.059	177.43483
511.538	158.39881
512.016	166.38895
512.494	123.2913
512.972	165.38638
513.45	136.31204
513.928	149.35546
514.406	128.30928
514.884	153.38695
515.361	178.41559
515.839	155.34999
516.316	174.41311
516.793	139.34489
517.27	148.34921
517.747	144.36308
518.224	137.31036
518.701	144.31245
519.178	149.36605
519.654	166.38438
520.131	136.33145
520.607	123.29624
521.083	142.31599
521.56	152.35126
522.036	157.33463
522.512	174.41978
522.987	159.37539
523.463	123.28758
523.939	171.41511
524.414	157.3519
524.89	121.28501
525.365	137.30442
525.84	117.27784
526.315	151.35899
526.79	172.37893
527.265	182.4102
527.74	114.27337
528.215	126.28967
528.689	97.21088
529.164	108.22914
529.638	103.25836
530.112	132.30565
530.587	151.31694
531.061	126.30076
531.534	141.33405
532.008	159.37902
532.482	192.42937
532.956	90.22782
533.429	165.39544
533.903	153.32865
534.376	142.30851
534.849	115.26126
535.322	127.29542
535.795	110.26267
536.268	133.31717
536.741	99.23292
537.213	114.25904
537.686	124.29939
538.158	111.24993
538.631	133.31729
539.103	105.23506
539.575	122.24787
540.047	145.31053
540.519	149.34959
540.991	116.27954
541.463	128.30355
541.934	137.30467
542.406	169.39745
542.877	137.30442
543.348	163.38572
543.82	123.29523
544.291	169.38612
544.762	135.31675
545.233	150.37374
545.703	95.21013
546.174	96.22115
546.645	110.26368
547.115	143.33984
547.585	147.33247
548.056	189.45398
548.526	156.36394
548.996	158.37078
549.466	178.42309
549.935	130.30686
550.405	141.30536
550.875	154.35956
551.344	115.27151
551.814	144.32509
552.283	194.41286
552.752	139.32154
553.221	157.34102
553.69	177.39199
554.159	173.42233
554.628	163.36324
555.096	149.37334
555.565	111.24367
556.033	201.46754
556.502	127.30298
556.97	145.31818
557.438	137.31742
557.906	135.31452
558.374	111.25555
558.842	121.287
559.31	136.30075
559.777	142.34233
560.245	127.28806
560.712	88.20086
561.18	127.27821
561.647	87.19244
562.114	80.18311
562.581	86.21077
563.048	122.27666
563.514	168.41371
563.981	123.27887
564.448	119.26651
564.914	87.20133
565.381	136.3069
565.847	117.2699
566.313	97.22376
566.779	137.30429
567.245	63.14603
567.711	65.1556
568.176	60.13501
568.642	111.27692
569.108	94.22969
569.573	66.15277
570.038	143.29472
570.504	125.27949
570.969	73.1804
571.434	152.3322
571.899	84.19844
572.363	145.32768
572.828	146.33068
573.293	96.21894
573.757	114.2624
574.222	94.20987
574.686	180.40519
575.15	160.37841
575.614	180.41613
576.078	135.31278
576.542	129.29069
577.006	194.42776
577.469	157.37927
577.933	168.3757
578.396	141.32953
578.86	120.27963
579.323	204.47891
579.786	205.43294
580.249	231.52754
580.712	140.33546
581.175	143.34715
581.637	172.38449
582.1	181.38578
582.563	205.42363
583.025	134.32182
583.487	260.51426
583.95	140.29613
584.412	241.48864
584.874	204.48451
585.336	201.46458
585.797	219.46231
586.259	255.57483
586.721	238.53991
587.182	227.50691
587.643	253.55398
588.105	294.66396
588.566	273.54516
589.027	336.78134
589.488	317.69205
589.949	378.86371
590.41	404.74148
590.87	402.85956
591.331	405.82453
591.791	385.83621
592.252	487.03958
592.712	480.05669
593.172	518.07072
593.632	580.15355
594.092	485.98918
594.552	600.15404
595.011	560.15459
595.471	665.32505
595.931	694.36722
596.39	729.52611
596.849	738.48946
597.308	856.51508
597.768	841.86675
598.227	870.76583
598.685	916.72932
599.144	1038.98202
599.603	1048.97513
600.062	1116.82095
600.52	1198.08504
600.978	1252.27203
601.437	1346.27049
601.895	1439.19037
602.353	1505.32149
602.811	1626.51522
603.269	1698.76782
603.727	1806.89712
604.184	1919.76664
604.642	1987.13822
605.099	2139.99723
605.557	2211.22366
606.014	2397.71299
606.471	2383.47679
606.928	2617.89919
607.385	2720.58313
607.842	2831.07514
608.299	2924.18345
608.755	3015.40025
609.212	3104.89952
609.668	3377.90825
610.125	3363.32934
610.581	3507.10993
611.037	3596.78991
611.493	3703.01413
611.949	3770.29757
612.405	3839.1287
612.861	4001.78793
613.316	3964.09519
613.772	4091.72005
614.227	4228.9997
614.683	4205.16085
615.138	4235.81073
615.593	4214.74683
616.048	4353.57467
616.503	4306.02912
616.958	4358.25116
617.412	4404.81345
617.867	4348.42739
618.321	4386.89726
618.776	4243.37504
619.23	4300.76315
619.684	4191.48269
620.138	4076.70771
620.592	4150.09291
621.046	4082.93378
621.5	3988.10492
621.954	3935.54653
622.407	3839.59054
622.861	3855.22148
623.314	3787.76112
623.768	3743.06801
624.221	3745.9646
624.674	3674.94025
625.127	3568.017
625.58	3645.7613
626.033	3523.64188
626.485	3426.24483
626.938	3445.21121
627.39	3451.08836
627.843	3348.02089
628.295	3306.0305
628.747	3274.25422
629.199	3374.93465
629.651	3286.9991
630.103	3324.99307
630.555	3256.51383
631.006	3269.08648
631.458	3289.15916
631.909	3205.86881
632.361	3174.05302
632.812	3180.07447
633.263	3253.67792
633.714	3275.53013
634.165	3224.28739
634.616	3263.18946
635.067	3339.7339
635.518	3360.18872
635.968	3505.04819
636.419	3472.6469
636.869	3533.13714
637.319	3620.97542
637.769	3699.74045
638.219	3799.01923
638.669	3862.0471
639.119	3899.07698
639.569	4040.03634
640.019	4117.73268
640.468	4245.46281
640.918	4352.79697
641.367	4505.31011
641.816	4711.14606
642.265	4712.48621
642.714	4799.30941
643.163	4964.27643
643.612	5092.64872
644.061	5319.57084
644.51	5392.98411
644.958	5413.72324
645.406	5636.15621
645.855	5578.30242
646.303	5767.85363
646.751	5922.80266
647.199	6027.6248
647.647	6069.76975
648.095	6089.64096
648.543	6156.97312
648.99	6374.90757
649.438	6380.6501
649.885	6373.17718
650.333	6467.75809
650.78	6465.92537
651.227	6483.00984
651.674	6552.54434
652.121	6542.01548
652.568	6512.01127
653.015	6420.09958
653.461	6478.80954
653.908	6400.60046
654.354	6357.84531
654.801	6197.78943
655.247	6198.29885
655.693	6240.55787
656.139	6199.90475
656.585	6139.93032
657.031	5967.88647
657.477	6025.40188
657.922	5903.68043
658.368	5966.20689
658.813	5794.7243
659.259	5848.16031
659.704	5782.02683
660.149	5703.86006
660.594	5703.06626
661.039	5517.87027
661.484	5464.16797
661.929	5517.04289
662.373	5409.65152
662.818	5386.5421
663.262	5458.32947
663.707	5321.81787
664.151	5371.43579
664.595	5347.38916
665.039	5334.59807
665.483	5286.8344
665.927	5287.18956
666.371	5302.20758
666.814	5241.30527
667.258	5214.43569
667.701	5326.53282
668.145	5275.65225
668.588	5293.60864
669.031	5263.22007
669.474	5343.32313
669.917	5370.67681
670.36	5381.6179
670.803	5451.32134
671.245	5377.26496
671.688	5289.45981
672.13	5404.87117
672.573	5369.71669
673.015	5514.27056
673.457	5533.55522
673.899	5442.32908
674.341	5511.26036
674.783	5556.19917
675.225	5658.35372
675.666	5568.35797
676.108	5612.47498
676.549	5637.94667
676.991	5697.53023
677.432	5654.98732
677.873	5686.78495
678.314	5684.07815
678.755	5753.31874
679.196	5677.79727
679.637	5749.08477
680.078	5729.92072
680.518	5778.77734
680.959	5816.01442
681.399	5916.26362
681.839	5772.17786
682.28	5909.30195
682.72	5841.72381
683.16	5910.33097
683.6	5974.63806
684.039	5903.09677
684.479	5976.22002
684.919	6156.80236
685.358	6098.22494
685.798	6175.56285
686.237	6182.87763
686.676	6287.50434
687.115	6306.76092
687.554	6440.83328
687.993	6641.33289
688.432	6504.51651
688.871	6507.5477
689.309	6546.82514
689.748	6754.0401
690.186	6729.63786
690.625	6799.66656
691.063	6842.7566
691.501	7117.99466
691.939	7156.11849
692.377	7271.8952
692.815	7268.95008
693.253	7271.78926
693.69	7439.46789
694.128	7411.94186
694.565	7575.8777
695.003	7590.30134
695.44	7647.9165
695.877	7798.97825
696.314	7804.59613
696.751	7857.87077
697.188	7972.0502
697.625	7970.92429
698.061	8090.27182
698.498	8137.26409
698.934	8233.39915
699.371	8318.44114
699.807	8507.67813
700.243	8451.67274
700.679	8574.64678
701.115	8695.91506
701.551	8738.97324
701.987	8807.00443
702.422	9020.49491
702.858	9120.67925
703.294	9160.72364
703.729	9166.79093
704.164	9315.07003
704.599	9349.1342
705.035	9633.84395
705.47	9587.68962
705.904	9877.47985
706.339	9840.38625
706.774	9984.77571
707.209	10007.85377
707.643	9997.78262
708.078	10325.76589
708.512	10451.10901
708.946	10513.48161
709.38	10645.95436
709.814	10697.34376
710.248	11051.44144
710.682	11099.73218
711.116	11096.64976
711.549	11096.44095
711.983	11239.57296
712.416	11514.71304
712.85	11342.65295
713.283	11589.12424
713.716	11570.71747
714.149	11710.89456
714.582	11840.8187
715.015	11923.59036
715.448	11987.71695
715.881	12077.58578
716.313	12245.82443
716.746	12502.26098
717.178	12546.38135
717.61	12768.19922
718.043	12688.01529
718.475	12912.67287
718.907	13163.06999
719.339	13121.94305
719.77	13146.44447
720.202	13409.79916
720.634	13687.14756
721.065	13768.3972
721.497	13709.37448
721.928	13743.67605
722.359	13934.23452
722.79	14169.46546
723.221	14274.80029
723.652	14465.04574
724.083	14580.16238
724.514	14590.89116
724.945	14817.68018
725.375	14996.39271
725.806	15089.32868
726.236	15029.05229
726.666	15232.57799
727.096	15594.49499
727.526	16029.86251
727.956	16037.59357
728.386	16144.26375
728.816	16155.35627
729.246	16535.39971
729.675	16491.22962
730.105	16636.82863
730.534	16808.96711
730.964	16874.08916
731.393	17230.76608
731.822	17656.79323
732.251	17765.33279
732.68	17839.77365
733.109	18164.15276
733.537	18320.37733
733.966	18623.75457
734.395	18670.58419
734.823	18831.00336
735.251	18884.39188
735.68	19259.7275
736.108	19230.92341
736.536	19169.00187
736.964	19206.80204
737.392	19339.39833
737.82	19676.4344
738.247	19917.85859
738.675	20030.8786
739.102	19923.51191
739.53	20123.25682
739.957	20080.46368
740.384	20333.41835
740.811	20359.76776
741.238	20451.41852
741.665	20300.56873
742.092	20285.148
742.519	20296.85549
742.945	20320.83938
743.372	20323.20417
743.798	20317.2233
744.225	20343.08851
744.651	20400.15166
745.077	20205.49778
745.503	20267.4135
745.929	20357.48778
746.355	20122.14156
746.781	19959.54636
747.207	19861.09959
747.632	19616.33108
748.058	19514.48942
748.483	19712.04608
748.908	19832.27596
749.334	19557.78543
749.759	19414.82043
750.184	19059.6401
750.609	19064.31368
751.033	18939.06325
751.458	18791.32074
751.883	18563.53103
752.307	18576.92198
752.732	18239.09858
753.156	18133.9213
753.58	18050.06065
754.005	17814.37384
754.429	17557.59544
754.853	17361.93369
755.277	17206.27489
755.7	16852.00705
756.124	16710.31756
756.548	16587.16042
756.971	16543.8966
757.394	16226.28858
757.818	16048.12065
758.241	15836.22817
758.664	15592.88091
759.087	15253.68742
759.51	15213.6204
759.933	15163.44737
760.356	14938.05339
760.778	14568.61658
761.201	14282.41624
761.623	14133.39896
762.046	14008.63245
762.468	13779.37148
762.89	13556.35652
763.312	13313.45535
763.734	13089.04273
764.156	12769.60562
764.578	12675.8965
765	12461.80264
765.421	12265.18304
765.843	11920.13168
766.264	11687.68871
766.686	11521.53521
767.107	11139.91402
767.528	11144.63457
767.949	11059.35386
768.37	10736.17019
768.791	10404.09556
769.212	10266.52244
769.632	9971.75126
770.053	9935.55503
770.473	9660.87199
770.894	9500.48641
771.314	9375.1913
771.734	9185.77658
772.154	8928.45173
772.575	8858.13644
772.994	8700.8462
773.414	8560.72711
773.834	8325.59405
774.254	8130.32424
774.673	7990.22975
775.093	7865.22316
775.512	7551.01323
775.931	7450.13082
776.351	7383.01507
776.77	7105.86674
777.189	7048.65192
777.607	6960.10806
778.026	6747.94852
778.445	6614.11925
778.864	6347.1402
779.282	6320.70255
779.701	6213.11377
780.119	6066.26675
780.537	5906.16921
780.955	5772.34809
781.373	5685.21072
781.791	5556.68932
782.209	5503.63068
782.627	5344.95556
783.045	5187.84885
783.462	5195.75246
783.88	4967.01883
784.297	4975.75162
784.715	4770.09194
785.132	4701.53332
785.549	4517.93692
785.966	4419.0519
786.383	4442.90534
786.8	4302.4858
787.217	4279.73657
787.633	4119.22112
788.05	4040.61672
788.466	3978.65183
788.883	3798.51222
789.299	3755.89612
789.715	3731.11643
790.131	3569.30232
790.547	3480.33341
790.963	3419.30466
791.379	3409.46646
791.795	3267.71611
792.21	3171.9149
792.626	3054.01044
793.041	3097.30562
793.457	2995.28574
793.872	2960.95951
794.287	2907.2237
794.702	2831.19545
795.117	2705.38096
795.532	2607.43547
795.947	2541.03137
796.362	2476.93657
796.776	2488.84348
797.191	2420.19704
797.605	2333.0071
798.02	2209.05708
798.434	2198.63172
798.848	2211.2082
799.262	2057.08303
799.676	2099.01817
800.09	1981.98525
800.504	1971.89162
800.918	1870.60682
801.331	1764.99859
801.745	1761.518
802.158	1718.81308
802.572	1732.73684
802.985	1683.63976
803.398	1628.56791
803.811	1560.7215
804.224	1507.57318
804.637	1480.4578
805.05	1438.27598
805.462	1416.45612
805.875	1373.63606
806.288	1288.29644
806.7	1229.2903
807.112	1298.13139
807.525	1207.18732
807.937	1227.28095
808.349	1164.20243
808.761	1197.22939
809.173	1154.13057
809.584	1104.08456
809.996	1038.98202
810.408	1093.24693
810.819	1037.88817
811.231	1063.27395
811.642	1022.00634
812.053	1005.93509
812.464	865.6524
812.875	863.82755
813.286	898.91451
813.697	862.56532
814.108	838.6614
814.519	893.58852
814.929	800.69147
815.34	693.39821
815.75	808.72626
816.16	716.48004
816.571	679.50576
816.981	709.37554
817.391	632.28635
817.801	629.34961
818.211	666.33597
818.62	616.27877
819.03	660.37024
819.44	550.23785
819.849	580.2537
820.259	502.12275
820.668	510.10875
821.077	536.17969
821.486	544.12004
821.895	551.16424
822.304	424.01279
822.713	489.00818
823.122	482.06199
823.531	442.91357
823.939	468.0147
824.348	389.84525
824.756	428.95506
825.164	419.94213
825.573	406.91945
825.981	434.95564
826.389	369.83958
826.797	402.92739
827.205	427.87723
827.612	356.79246
828.02	305.64977
828.428	381.87914
828.835	354.86135
829.243	319.68668
829.65	318.73161
830.057	333.73128
830.464	361.80875
830.871	374.81111
831.278	308.68165
831.685	324.64926
832.092	281.62618
832.499	340.67218
832.905	294.68072
833.312	284.57832
833.718	304.70164
834.124	274.57523
834.531	236.54796
834.937	256.61361
835.343	252.55656
835.749	247.52301
836.155	249.60874
836.561	229.52529
836.966	221.50105
837.372	275.64393
837.777	225.52521
838.183	240.48717
838.588	236.54948
838.993	237.53601
839.399	241.54994
839.804	183.41995
840.209	244.58663
840.613	190.39202
841.018	161.38305
841.423	169.41026
841.828	220.52331
842.232	156.35778
842.637	194.43277
843.041	155.37881
843.445	155.36452
843.849	205.47721
844.253	184.40758
844.657	190.45318
845.061	268.5681
845.465	159.3621
845.869	178.38672
846.272	179.41193
846.676	97.2193
847.079	182.44008
847.483	189.44101
847.886	149.3385
848.289	169.43409
848.692	109.26143
849.095	152.34231
849.498	161.37908
849.901	145.30959
850.304	171.38281
850.707	112.27133
851.109	169.4007
851.512	130.304
851.914	107.25966
852.316	166.40139
852.718	121.30657
853.121	155.35869
853.523	92.20311
853.925	146.36628
854.326	144.34373
854.728	142.34827
855.13	138.34234
855.531	92.21032
855.933	124.27879
856.334	120.28732
856.736	144.30632
857.137	167.36768
857.538	134.32255
857.939	168.39733
858.34	133.30313
858.741	110.27388
859.142	91.20716
859.542	121.30744
859.943	146.34289
860.343	75.17954
860.744	117.27097
861.144	124.28986
861.544	127.29378
861.945	113.27422
862.345	85.19756
862.745	143.33918
863.145	103.22906
863.544	109.26372
863.944	115.25734
864.344	74.17366
864.743	158.3689
865.143	137.33769
865.542	49.10748
865.941	95.22551
866.34	96.21575
866.74	115.29591
867.139	124.28565
867.537	70.16933
867.936	112.25728
868.335	77.18749
868.734	110.26889
869.132	76.1661
869.531	115.26031
869.929	112.24292
870.327	125.28364
870.726	102.23965
871.124	102.22415
871.522	72.17548
871.92	117.27419
872.318	94.21732
872.715	109.25245
873.113	114.26209
873.511	92.21809
873.908	91.22389
874.306	108.25829
874.703	85.20123
875.1	39.09489
875.497	85.1935
875.894	96.22898
876.291	99.2321
876.688	62.15426
877.085	101.22853
877.482	53.1276
877.878	117.27119
878.275	107.26015
878.671	68.13923
879.068	69.1593
879.464	126.28805
879.86	67.15154
880.256	22.05159
880.652	48.11768
881.048	32.07565
881.444	27.06097
881.84	107.25888
882.236	126.3003
882.631	113.26513
883.027	115.26275
883.422	42.10297
883.817	57.13905
884.213	86.21155
884.608	144.34175
885.003	41.09424
885.398	65.15643
885.793	92.21952
886.188	68.16182
886.582	102.2472
886.977	69.1553
887.371	86.20646
887.766	105.25049
888.16	56.13183
888.554	19.04508
888.949	84.20159
889.343	86.19922
889.737	68.17659
890.131	49.11842
890.525	96.2365
890.918	72.17358
891.312	61.13813
891.706	81.20354
892.099	62.15111
892.492	102.20582
892.886	69.1612
893.279	33.08104
893.672	69.17002
894.065	112.26714
894.458	10.02413
894.851	97.22448
895.244	40.09858
895.637	90.20733
896.029	80.18825
896.422	54.12494
896.814	62.14737
897.206	102.23431
897.599	125.29248
897.991	98.2271
898.383	94.21169
898.775	90.19528
899.167	91.20515
899.559	19.04613
899.951	72.16029
900.342	56.13557
900.734	74.18056
901.125	56.1406
901.517	68.16027
901.908	40.09067
902.299	45.10624
902.69	130.2924
903.082	90.20766
903.473	108.24978
903.863	16.03933
904.254	109.24271
904.645	61.14352
905.036	101.23781
905.426	95.20257
905.817	58.13553
906.207	20.04543
906.597	72.16255
906.987	62.15319
907.378	84.20457
907.768	16.04126
908.158	56.13065
908.547	98.24586
908.937	34.08317
909.327	102.23478
909.717	44.10575
910.106	49.11236
910.495	51.12088
910.885	39.0956
911.274	67.16027
911.663	16.03895
912.052	28.06581
912.441	74.18203
912.83	92.1986
913.219	86.21483
913.608	77.18109
913.997	73.17728
914.385	64.14625
914.774	76.17633
915.162	108.2472
915.55	126.28561
915.939	74.18062
916.327	67.15886
916.715	97.24015
917.103	59.13659
917.491	83.19528
917.878	70.16421
918.266	76.18826
918.654	99.24367
919.041	70.17827
919.429	34.07713
919.816	48.11699
920.203	49.11537
920.591	85.20177
920.978	116.26924
921.365	58.14734
921.752	5.01134
922.139	112.2287
922.525	91.209
922.912	47.10963
923.299	29.06971
923.685	28.07005
924.072	39.08388
924.458	74.17637
924.844	74.17536
925.231	42.09276
925.617	37.09197
926.003	49.1202
926.389	23.05609
926.774	67.16223
927.16	39.09308
927.546	74.18445
927.931	7.01681
928.317	54.11787
928.702	69.15491
929.088	98.22557
929.473	96.23537
929.858	52.12313
930.243	76.17619
930.628	54.12757
931.013	81.1922
931.398	128.27146
931.783	51.12802
932.167	81.19131
932.552	73.17449
932.937	35.08315
933.321	65.15797
933.705	7.0169
934.09	56.13291
934.474	70.15687
934.858	72.17986
935.242	66.14535
935.626	77.19008
936.009	65.16848
936.393	75.18575
936.777	46.11437
937.16	66.16666
937.544	36.07998
937.927	44.10832
938.311	78.18026
938.694	125.31602
939.077	86.19597
939.46	28.06468
939.843	84.16069
940.226	6.01486
940.609	102.22462
940.991	33.08056
941.374	58.13691
941.757	56.13193
942.139	87.18608
942.522	111.24624
942.904	79.18115
943.286	64.15546
943.668	94.23566
944.05	70.16517
944.432	24.05692
944.814	16.03767
945.196	39.09233
945.578	91.20967
945.959	70.15454
946.341	56.129
946.722	88.19485
947.104	131.29544
947.485	80.17714
947.866	73.17788
948.247	78.19046
948.628	48.10996
949.009	57.14045
949.39	59.13984
949.771	50.10831
950.152	80.18774
950.532	117.28158
950.913	60.13822
951.293	34.08996
951.674	61.14122
952.054	89.21484
952.434	72.17141
952.814	67.15018
953.194	6.01504
953.574	66.15471
953.954	10.02266
954.334	64.15452
954.714	61.14324
955.093	77.18067
955.473	69.16738
955.853	47.11743
956.232	32.08498
956.611	25.05689
956.99	100.24062
957.37	78.18889
957.749	22.04967
958.128	38.09296
958.506	61.15263
958.885	28.06796
959.264	106.25041
959.643	103.22316
960.021	61.14614
960.4	116.24708
960.778	40.09317
961.156	14.03382
961.535	53.11669
961.913	135.29898
962.291	91.22645
962.669	42.10316
963.047	82.20156
963.424	100.24717
963.802	65.15346
964.18	48.11471
964.557	107.23123
964.935	68.15345
965.312	56.1414
965.69	39.09304
966.067	31.07174
966.444	26.06049
966.821	35.08729
967.198	16.03696
967.575	72.16778
967.952	48.10788
968.329	82.19161
968.705	106.21526
969.082	78.1947
969.458	56.1307
969.835	82.19018
970.211	36.09029
970.587	104.24682
970.963	74.18015
971.339	60.15167
971.715	82.19604
972.091	95.22229
972.467	13.03086
972.843	68.16375
973.219	110.24701
973.594	30.076
973.97	33.07324
974.345	82.18784
974.721	23.05276
975.096	103.23874
975.471	101.22583
975.846	21.04821
976.221	36.08836
976.596	89.20678
976.971	141.33108
977.346	75.16444
977.72	37.0904
978.095	61.15141
978.469	60.13612
978.844	113.26782
979.218	83.19276
979.593	75.17025
979.967	21.04831
980.341	95.2082
980.715	90.21705
981.089	57.13676
981.463	72.15723
981.837	108.25385
982.21	9.01958
982.584	75.1737
982.957	63.15191
983.331	57.12655
983.704	72.17147
984.078	46.10867
984.451	47.11023
984.824	34.08029
985.197	15.03456
985.57	58.13707
985.943	34.07917
986.316	69.15898
986.688	75.17198
987.061	71.15914
987.434	100.2526
987.806	8.01844
988.179	60.13451
988.551	56.13572
988.923	70.16363
989.295	107.25233
989.667	81.18745
990.039	70.16856
990.411	-5.01093
990.783	61.13171
991.155	33.07667
991.527	68.15652
991.898	91.21735
992.27	78.18633
992.641	86.20426
993.012	6.01323
993.384	50.11348
993.755	67.16491
994.126	88.20328
994.497	49.11546
994.868	87.18672
995.239	11.02565
995.61	30.07293
995.98	69.15974
996.351	59.14119
996.722	98.21799
997.092	75.17018
997.462	46.10432
997.833	33.0743
998.203	69.15695
998.573	68.16282
998.943	64.14401
999.313	66.15204
999.683	53.12226
1000.053	30.06446
1000.423	69.15866
1000.792	47.11589
1001.162	8.01889
1001.531	124.28975
1001.901	78.18455
1002.27	76.15716
1002.639	44.10732
1003.009	109.24432
1003.378	82.20097
1003.747	52.11653
1004.116	50.11426
1004.485	114.25715
1004.853	47.11273
1005.222	29.06911
1005.591	79.17758
1005.959	69.14847
1006.328	43.09285
1006.696	48.11035
1007.064	33.07912
1007.433	76.17975
1007.801	26.06028
1008.169	6.0145
1008.537	94.19587
1008.905	72.16089
1009.273	31.07305
1009.64	71.16385
1010.008	61.13842
1010.375	61.13864
1010.743	13.02786
1011.11	125.28479
1011.478	55.13151
1011.845	31.06946
1012.212	125.26909
1012.579	55.1296
1012.946	22.04969
1013.313	85.19005
1013.68	103.21648
1014.047	47.10717
1014.414	36.08134
1014.78	67.16002
1015.147	46.10508
1015.513	63.14493
1015.88	78.18911
1016.246	41.09579
1016.612	57.12297
1016.978	75.17659
1017.344	46.10938
1017.71	75.17287
1018.076	35.07813
1018.442	104.25574
1018.808	103.24732
1019.174	8.01929
1019.539	40.08383
1019.905	48.10894
1020.27	23.05458
1020.636	56.12627
1021.001	112.25429
1021.366	72.16566
1021.731	101.25134
1022.096	58.14189
1022.461	89.20039
1022.826	98.2226
1023.191	41.10388
1023.556	71.15718
1023.92	63.14643
1024.285	27.06261
1024.649	78.18076
1025.014	26.06121
1025.378	70.16958
1025.742	52.12256
1026.107	102.21632
1026.471	95.20802
1026.835	66.1564
1027.199	30.06958
1027.562	17.03751
1027.926	63.14608
1028.29	5.01227
1028.654	49.10693
1029.017	107.25007
1029.381	58.13286
1029.744	57.13967
1030.107	123.27377
1030.471	117.26602
1030.834	12.02574
1031.197	86.19637
1031.56	63.14069
1031.923	54.13455
1032.286	134.29509
1032.648	54.12136
1033.011	56.12446
1033.374	54.11952
1033.736	24.06119
1034.099	22.05169
1034.461	44.10788
1034.823	62.14856
1035.185	62.14788
1035.548	108.25018
1035.91	61.13903
1036.272	112.24126
1036.634	99.22947
1036.995	68.15063
1037.357	44.10326
1037.719	72.16725
1038.08	114.25778
1038.442	3.00685
1038.803	18.04084
1039.165	61.14664
1039.526	61.14089
1039.887	55.12551
1040.248	70.16786
1040.609	74.17224
1040.97	41.09575
1041.331	66.16128
1041.692	89.20088
1042.053	84.17947
1042.413	57.12555
1042.774	89.20613
1043.134	53.11865
1043.495	66.15863
1043.855	102.23731
1044.215	95.22255
1044.576	106.24165
1044.936	76.16392
1045.296	75.17851
1045.656	51.11835
1046.016	86.19574
1046.375	46.10685
1046.735	101.22032
1047.095	68.15145
1047.454	70.13787
1047.814	92.20999
1048.173	31.06986
1048.533	66.14358
1048.892	34.07873
1049.251	89.21086
1049.61	55.1298
1049.969	48.10766
1050.328	73.14937
1050.687	1.00233
1051.046	45.10447
1051.405	24.05689
1051.763	104.22835
1052.122	10.02405
1052.48	88.20587
1052.839	94.21325
1053.197	50.11219
1053.555	59.12461
1053.914	56.13044
1054.272	5.01138
1054.63	46.10812
1054.988	64.14649
1055.345	44.08846
1055.703	85.19467
1056.061	61.15252
1056.419	74.18679
1056.776	1.0023
1057.134	-8.01751
1057.491	79.18883
1057.848	39.09261
1058.206	13.02887
1058.563	22.04619
1058.92	79.17145
1059.277	90.21096
1059.634	58.12789
1059.991	90.20501
1060.348	44.09527
1060.704	65.15144
1061.061	77.16583
1061.418	66.15295
1061.774	17.04048
1062.131	41.10642
1062.487	57.12608
1062.843	108.25503
1063.199	80.18979
1063.555	80.17758
1063.911	21.05081
1064.267	65.12534
1064.623	35.08267
1064.979	6.01314
1065.335	25.05677
1065.691	-2.00455
1066.046	63.13066
1066.402	14.03027
1066.757	68.16431
1067.112	59.13762
1067.468	87.19781
1067.823	-6.01362
1068.178	66.15095
1068.533	64.1479
1068.888	33.07509
1069.243	83.19505
1069.598	10.02325
1069.952	69.15103
1070.307	46.10989
1070.662	106.24126
1071.016	60.1298
1071.371	75.16263
1071.725	70.15758
1072.079	69.15847
1072.434	38.08897
1072.788	48.10752
1073.142	70.16447
1073.496	39.08828
1073.85	90.1967
1074.203	105.24135
1074.557	95.24496
1074.911	49.11073
1075.265	104.22759
1075.618	109.25204
1075.971	47.10665
1076.325	42.10358
1076.678	83.17975
1077.031	14.02966
1077.385	64.1327
1077.738	34.07302
1078.091	39.08558
1078.444	60.13058
1078.796	94.2206
1079.149	66.15724
1079.502	60.13623
1079.855	71.1575
1080.207	54.12673
1080.56	82.20417
1080.912	78.18018
1081.264	88.20207
1081.617	75.17487
1081.969	41.10017
1082.321	22.05147
1082.673	35.07774
1083.025	21.0475
1083.377	335.70623
1083.728	53.11704
1084.08	44.10463
1084.432	77.17571
1084.783	47.1027
1085.135	71.17094
1085.486	60.13147
1085.838	48.11374
1086.189	91.21176
1086.54	94.21135
1086.891	95.23365
1087.242	86.20293
1087.593	4.00924
1087.944	109.23434
1088.295	117.24851
1088.646	102.23918
1088.996	26.06063
1089.347	41.09579
1089.698	27.06204
1090.048	65.16081
1090.398	74.16139
1090.749	40.09064
1091.099	69.16832
1091.449	59.14135
1091.799	55.13187
1092.149	50.11871
1092.499	42.09826
1092.849	55.13442
1093.199	95.22403
1093.548	90.20774
1093.898	67.15947
1094.248	28.06865
1094.597	28.06999
1094.947	49.12644
1095.296	111.26125
1095.645	41.10225
1095.994	61.13971
1096.343	65.15721
1096.692	57.14677
1097.041	63.16733
1097.39	23.05525
1097.739	46.11503
1098.088	55.14088
1098.437	65.16685
1098.785	81.20777
1099.134	12.03037
1099.482	67.17849
1099.83	83.20902
1100.179	84.21422
1100.527	30.07616
1100.875	53.13624
1101.223	49.12652
1101.571	22.05887
1101.919	76.19525
1102.267	32.08846
1102.615	9.02889
1102.962	8.02564
1103.31	11.0353
1103.658	8.02562
