Data from N3 R2 sample 11_Subt2__3__10-19-42-378.txt Node

Date: Thu Sep 18 10:19:42 PDT 2025
User: uwsun
Spectrometer: HDX01956
Trigger mode: 0
Integration Time (sec): 5.000000E-1
Scans to average: 1
Nonlinearity correction enabled: true
Boxcar width: 0
Storing dark spectrum: false
XAxis mode: Wavelengths
Number of Pixels in Spectrum: 2068
>>>>>Begin Spectral Data<<<<<
194.03	27.07808
194.578	33.10688
195.127	25.07991
195.676	38.12172
196.225	36.09557
196.773	60.16612
197.321	103.28379
197.87	124.31801
198.418	144.37072
198.966	158.41494
199.513	157.39819
200.061	154.39051
200.609	146.3846
201.156	90.19944
201.704	118.29827
202.251	129.34342
202.798	149.38552
203.345	173.42642
203.892	128.32447
204.438	140.33239
204.985	182.4296
205.532	149.39111
206.078	139.33971
206.624	194.48301
207.17	214.4959
207.716	188.45801
208.262	193.37932
208.808	190.47408
209.354	161.39757
209.899	214.53163
210.445	129.32392
210.99	172.41825
211.535	188.44014
212.08	161.37287
212.625	135.33765
213.17	183.4633
213.715	189.42902
214.259	195.45143
214.804	150.36707
215.348	199.45593
215.892	241.57513
216.436	171.38801
216.98	153.33516
217.524	204.48265
218.068	202.50438
218.612	191.48166
219.155	218.50797
219.698	188.44307
220.242	157.38541
220.785	177.41285
221.328	167.40966
221.871	182.45971
222.414	166.40728
222.956	114.27316
223.499	157.3477
224.041	143.32527
224.583	172.35855
225.126	164.35661
225.668	113.27484
226.21	177.44365
226.751	212.46411
227.293	165.36953
227.835	129.31563
228.376	132.29909
228.918	144.35631
229.459	136.33812
230	225.52975
230.541	168.38236
231.082	167.40297
231.622	118.26661
232.163	125.30072
232.704	168.41676
233.244	165.4055
233.784	137.33021
234.324	234.51508
234.864	122.2752
235.404	129.30255
235.944	190.44047
236.484	180.44375
237.023	131.3076
237.563	174.40018
238.102	181.42251
238.641	143.35701
239.18	142.3318
239.719	155.38486
240.258	169.37552
240.797	187.44063
241.335	165.39694
241.874	238.45177
242.412	213.50851
242.95	169.40471
243.488	112.25151
244.026	177.40732
244.564	219.44119
245.102	202.45062
245.64	152.3599
246.177	144.31791
246.715	241.56521
247.252	143.3225
247.789	238.42864
248.326	142.34077
248.863	182.39574
249.4	181.40502
249.936	231.47329
250.473	189.44119
251.009	134.30572
251.546	209.45899
252.082	121.26104
252.618	220.48223
253.154	187.44423
253.69	147.32772
254.226	204.48059
254.761	216.47526
255.297	114.24926
255.832	225.52439
256.367	159.37058
256.903	229.49847
257.438	171.3965
257.972	188.41279
258.507	133.30411
259.042	216.46068
259.576	238.51508
260.111	184.41674
260.645	218.46131
261.179	197.45479
261.713	210.46206
262.247	133.30265
262.781	200.41506
263.315	178.42634
263.849	196.48372
264.382	199.4497
264.915	203.47312
265.449	148.35922
265.982	190.4256
266.515	191.46227
267.048	187.39129
267.58	184.39141
268.113	141.30392
268.646	137.3337
269.178	140.31167
269.71	224.48582
270.243	242.5481
270.775	183.46446
271.307	174.40881
271.838	214.49571
272.37	174.42168
272.902	221.49024
273.433	240.52008
273.965	152.36685
274.496	186.45482
275.027	183.4504
275.558	198.47659
276.089	172.4259
276.62	149.37307
277.15	182.4419
277.681	153.32709
278.211	180.4336
278.741	209.45667
279.272	241.53905
279.802	170.41864
280.332	155.36396
280.861	178.42065
281.391	179.40253
281.921	187.44097
282.45	134.33108
282.98	233.5949
283.509	234.52156
284.038	221.49657
284.567	187.43051
285.096	213.50832
285.625	190.42174
286.153	219.51462
286.682	225.50742
287.21	156.3688
287.739	171.40043
288.267	180.43409
288.795	138.35898
289.323	234.53859
289.851	201.46661
290.378	175.38627
290.906	234.56153
291.433	199.48923
291.961	253.56449
292.488	188.46057
293.015	234.54182
293.542	232.58577
294.069	192.47054
294.596	202.48622
295.122	246.5775
295.649	154.33543
296.175	240.56495
296.702	220.52934
297.228	181.43113
297.754	224.49493
298.28	204.46354
298.806	224.53037
299.332	237.52026
299.857	228.50903
300.383	217.53663
300.908	225.54414
301.433	253.60677
301.958	218.49153
302.483	168.41325
303.008	250.6088
303.533	193.49174
304.058	196.45113
304.582	226.52495
305.107	211.54101
305.631	247.54769
306.155	223.51112
306.679	236.54493
307.203	228.52038
307.727	216.50431
308.251	218.52969
308.775	243.58035
309.298	250.59032
309.822	248.60979
310.345	256.59886
310.868	288.67555
311.391	224.54284
311.914	206.50971
312.437	246.55126
312.96	250.57702
313.482	223.51563
314.005	217.53328
314.527	207.53076
315.049	260.64377
315.571	237.52464
316.093	268.64823
316.615	273.63849
317.137	230.49351
317.659	255.60457
318.18	261.60756
318.702	273.6247
319.223	260.51788
319.744	286.62689
320.265	249.59536
320.786	267.65274
321.307	280.67419
321.828	301.65907
322.348	280.64265
322.869	332.76411
323.389	549.98311
323.909	288.64032
324.43	306.70906
324.95	285.63588
325.47	322.77353
325.989	327.75036
326.509	360.77443
327.029	301.6688
327.548	355.77303
328.067	324.76176
328.587	364.87805
329.106	343.74405
329.625	299.75692
330.144	353.79051
330.662	362.81749
331.181	368.83409
331.7	338.75801
332.218	379.7867
332.736	346.78137
333.255	386.87026
333.773	336.76652
334.291	373.89652
334.808	408.87578
335.326	357.77144
335.844	405.90954
336.361	459.11718
336.879	425.95131
337.396	433.00015
337.913	408.89916
338.43	389.8395
338.947	398.90939
339.464	423.86627
339.981	384.87282
340.497	450.04505
341.014	429.99419
341.53	388.83788
342.046	488.14593
342.562	456.07317
343.078	422.94557
343.594	451.01243
344.11	527.17512
344.626	484.14932
345.141	495.05943
345.657	463.98847
346.172	497.12365
346.687	465.00411
347.202	570.19998
347.717	502.11998
348.232	521.2114
348.747	509.0979
349.261	544.10546
349.776	552.21648
350.29	512.2005
350.805	540.24057
351.319	535.15456
351.833	547.16739
352.347	573.24831
352.861	564.22322
353.374	533.12467
353.888	594.337
354.401	539.13735
354.915	600.24218
355.428	540.25292
355.941	578.23924
356.454	580.1841
356.967	564.21387
357.48	542.13794
357.993	593.34155
358.505	561.26187
359.018	602.35503
359.53	641.42672
360.042	628.27935
360.554	641.43084
361.066	624.38683
361.578	644.28939
362.09	635.37596
362.602	641.2967
363.113	673.43172
363.625	676.3829
364.136	669.32191
364.647	649.39855
365.158	693.44938
365.669	638.38687
366.18	663.41164
366.691	643.27461
367.201	734.5694
367.712	723.47684
368.222	713.46889
368.733	687.3385
369.243	761.50258
369.753	753.5375
370.263	761.63243
370.773	713.55565
371.282	759.60926
371.792	793.61561
372.301	785.67311
372.811	842.94257
373.32	871.61735
373.829	852.74261
374.338	877.67213
374.847	923.81609
375.356	866.76568
375.865	1020.80522
376.373	962.84465
376.882	1051.22802
377.39	1055.11345
377.898	1104.23358
378.407	1132.07738
378.915	1196.06846
379.423	1184.20348
379.93	1300.35115
380.438	1258.38885
380.946	1308.36209
381.453	1423.59332
381.96	1484.64753
382.468	1583.69951
382.975	1710.97557
383.482	1661.60191
383.989	1724.18005
384.495	1877.92613
385.002	1924.55444
385.509	1970.08209
386.015	2207.57117
386.521	2264.0307
387.028	2377.0599
387.534	2375.78411
388.04	2520.3947
388.546	2537.95867
389.051	2752.96368
389.557	2903.22601
390.063	2978.08174
390.568	3192.42642
391.073	3198.95432
391.578	3425.48756
392.084	3550.00142
392.589	3749.6216
393.093	4068.12164
393.598	4407.67503
394.103	4753.72315
394.607	5141.59072
395.112	5576.50992
395.616	5916.2607
396.12	6308.73421
396.624	7078.8568
397.128	7549.09489
397.632	8352.58672
398.136	9025.50509
398.639	9937.58843
399.143	11200.85633
399.646	12567.26623
400.15	13866.75077
400.653	15703.07255
401.156	17840.08242
401.659	20719.15385
402.162	26021.14561
402.664	37275.41555
403.167	60779.50069
403.67	63280.73127
404.172	63919.58413
404.674	63858.43483
405.176	63738.15102
405.678	63977.72923
406.18	64011.81569
406.682	63863.44694
407.184	63926.60148
407.686	63841.39382
408.187	64025.8516
408.688	61644.96431
409.19	46517.7641
409.691	38688.19274
410.192	33049.10714
410.693	29227.44655
411.194	27182.85432
411.694	25810.55403
412.195	23391.97725
412.696	21582.58562
413.196	20718.15003
413.696	20713.61752
414.196	20690.49452
414.696	20037.15639
415.196	18566.73456
415.696	15614.45663
416.196	11946.75925
416.695	9996.7538
417.195	9289.05657
417.694	8913.20424
418.194	8069.98496
418.693	7782.98631
419.192	7542.98769
419.691	7418.87137
420.19	7177.98494
420.688	7011.08727
421.187	6635.11799
421.685	6221.86254
422.184	5430.29999
422.682	4601.214
423.18	4087.82908
423.678	3720.94219
424.176	3430.02335
424.674	3291.90457
425.172	3154.24548
425.669	2883.50114
426.167	2668.16591
426.664	2437.00581
427.161	2325.03421
427.659	2089.17243
428.156	2078.61575
428.652	1893.20786
429.149	1880.03322
429.646	1783.62876
430.143	1640.77443
430.639	1577.67209
431.135	1532.81718
431.632	1393.36604
432.128	1364.48353
432.624	1304.63283
433.12	1261.21071
433.616	1241.08286
434.111	1186.22352
434.607	1157.20454
435.103	1080.78847
435.598	1079.77356
436.093	1012.93137
436.588	1009.85189
437.083	894.67866
437.578	904.75825
438.073	856.8391
438.568	859.80879
439.062	813.47653
439.557	771.56006
440.051	767.48613
440.546	726.43706
441.04	742.55643
441.534	728.6135
442.028	755.58407
442.522	667.42017
443.015	670.25863
443.509	679.46202
444.002	648.4134
444.496	630.20952
444.989	638.38099
445.482	589.31627
445.975	646.32503
446.468	654.24602
446.961	634.2178
447.454	577.1617
447.947	602.28966
448.439	602.32792
448.931	662.34138
449.424	630.43776
449.916	596.30809
450.408	584.19822
450.9	519.15105
451.392	528.22553
451.884	576.18923
452.375	517.16988
452.867	539.09503
453.358	495.03658
453.849	542.04328
454.341	448.93509
454.832	507.99601
455.323	543.2303
455.814	519.07831
456.304	516.08612
456.795	442.93403
457.285	442.89842
457.776	464.97321
458.266	441.97003
458.756	396.87454
459.247	416.92714
459.737	479.06484
460.226	485.01112
460.716	432.95881
461.206	409.91249
461.695	380.88189
462.185	416.91947
462.674	449.94695
463.163	394.82495
463.653	390.77393
464.142	370.84305
464.63	393.89056
465.119	410.88728
465.608	431.9361
466.096	358.72901
466.585	359.77045
467.073	321.71767
467.561	387.86841
468.05	337.73228
468.538	328.75883
469.026	342.76509
469.513	348.68929
470.001	345.74679
470.489	349.78187
470.976	399.86919
471.463	331.78018
471.951	334.78496
472.438	252.56842
472.925	308.68876
473.412	266.6181
473.899	309.6723
474.385	314.72961
474.872	323.71261
475.359	267.62911
475.845	284.55962
476.331	266.54118
476.817	281.65308
477.303	281.62333
477.789	257.58691
478.275	217.52084
478.761	241.55038
479.247	261.55725
479.732	251.60197
480.218	293.73328
480.703	209.49858
481.188	271.56027
481.673	213.47388
482.158	238.49502
482.643	280.68413
483.128	234.5261
483.612	253.57918
484.097	174.40896
484.581	217.48538
485.066	230.54373
485.55	209.44778
486.034	204.42866
486.518	255.58633
487.002	149.35478
487.486	187.44132
487.969	178.4213
488.453	171.41496
488.936	198.43255
489.42	177.38168
489.903	188.45475
490.386	117.23885
490.869	201.42729
491.352	126.29823
491.835	137.27549
492.318	172.37702
492.8	260.51474
493.283	192.47646
493.765	148.35557
494.247	143.32658
494.73	164.35479
495.212	124.28929
495.694	181.4157
496.175	134.31667
496.657	193.44396
497.139	168.28074
497.62	191.44673
498.102	179.43437
498.583	93.22602
499.064	168.36577
499.545	193.42724
500.026	176.38839
500.507	149.33617
500.988	174.42438
501.469	102.25119
501.949	159.38396
502.43	149.35219
502.91	147.30623
503.39	124.30255
503.87	132.30711
504.35	105.2428
504.83	109.23565
505.31	155.36566
505.79	115.26814
506.269	105.23825
506.749	89.20179
507.228	121.2809
507.707	183.39767
508.187	148.34691
508.666	154.37392
509.145	114.26324
509.623	133.30632
510.102	143.33958
510.581	116.27626
511.059	156.38473
511.538	111.28253
512.016	126.29754
512.494	125.29592
512.972	122.28809
513.45	100.2311
513.928	143.34154
514.406	124.29984
514.884	116.29531
515.361	112.26489
515.839	157.35436
516.316	140.33456
516.793	95.23761
517.27	98.23348
517.747	111.28153
518.224	129.29271
518.701	101.22116
519.178	132.3253
519.654	94.22077
520.131	72.17757
520.607	95.23002
521.083	95.21346
521.56	75.17597
522.036	85.184
522.512	153.37059
522.987	172.40505
523.463	125.29214
523.939	162.39393
524.414	109.24673
524.89	120.28271
525.365	108.24143
525.84	78.18662
526.315	117.27998
526.79	191.41911
527.265	140.31825
527.74	75.18119
528.215	60.13976
528.689	85.18526
529.164	50.10743
529.638	50.12661
530.112	79.18485
530.587	85.18101
531.061	106.25399
531.534	113.26917
532.008	100.24108
532.482	109.24793
532.956	93.23529
533.429	100.24263
533.903	138.29739
534.376	134.29162
534.849	69.15822
535.322	115.26814
535.795	117.27901
536.268	112.26817
536.741	68.16095
537.213	99.22564
537.686	92.22347
538.158	105.23671
538.631	92.2212
539.103	96.21531
539.575	113.23006
540.047	66.14376
540.519	93.22059
540.991	57.1389
541.463	78.18676
541.934	51.11544
542.406	104.24768
542.877	85.19091
543.348	134.31888
543.82	100.24108
544.291	120.27687
544.762	98.2316
545.233	100.25142
545.703	165.35962
546.174	60.13921
546.645	66.15953
547.115	103.24666
547.585	80.18341
548.056	108.26341
548.526	123.28882
548.996	89.21167
549.466	108.26017
549.935	103.2444
550.405	132.28642
550.875	114.26826
551.344	96.22749
551.814	150.33822
552.283	92.20013
552.752	164.37748
553.221	121.26484
553.69	154.34269
554.159	153.3749
554.628	150.33517
555.096	123.30964
555.565	67.14844
556.033	156.36609
556.502	121.289
556.97	140.30753
557.438	77.18052
557.906	106.24837
558.374	132.30262
558.842	128.3032
559.31	119.26409
559.777	109.26441
560.245	88.20118
560.712	150.33808
561.18	129.28247
561.647	91.20111
562.114	139.31438
562.581	107.26122
563.048	123.27887
563.514	151.37302
563.981	100.22778
564.448	99.22263
564.914	162.3693
565.381	132.29812
565.847	113.26088
566.313	102.23506
566.779	157.34726
567.245	69.15974
567.711	113.26803
568.176	70.15719
568.642	83.20812
569.108	107.26083
569.573	123.28148
570.038	139.28673
570.504	161.3573
570.969	134.32743
571.434	153.33432
571.899	161.37465
572.363	169.38004
572.828	177.39836
573.293	149.33617
573.757	169.38472
574.222	174.38205
574.686	212.4741
575.15	208.48735
575.614	214.49138
576.078	134.31053
576.542	178.39708
577.006	187.41293
577.469	200.47922
577.933	222.49092
578.396	208.47971
578.86	209.47846
579.323	219.51261
579.786	221.46509
580.249	240.5471
580.712	167.39809
581.175	188.45252
581.637	186.41458
582.1	229.48299
582.563	242.49594
583.025	201.47656
583.487	285.56041
583.95	206.42942
584.412	301.60192
584.874	269.63087
585.336	219.50437
585.797	266.55573
586.259	261.58764
586.721	239.54207
587.182	311.6824
587.643	370.79012
588.105	347.77515
588.566	375.73112
589.027	376.86743
589.488	366.79072
589.949	420.95153
590.41	453.82118
590.87	499.04267
591.331	555.08964
591.791	497.05179
592.252	468.00305
592.712	502.10012
593.172	572.16827
593.632	698.35062
594.092	623.22915
594.552	727.3562
595.011	669.34601
595.471	747.46042
595.931	809.55122
596.39	826.69243
596.849	888.73118
597.308	892.56423
597.768	1019.17694
598.227	1038.02542
598.685	1127.01813
599.144	1217.22331
599.603	1247.23614
600.062	1241.95577
600.52	1415.32546
600.978	1507.56226
601.437	1602.52075
601.895	1685.38534
602.353	1781.53451
602.811	1913.72251
603.269	1989.99047
603.727	2128.11768
604.184	2153.8921
604.642	2320.33502
605.099	2502.13308
605.557	2567.36523
606.014	2798.74192
606.471	2871.61966
606.928	3123.87942
607.385	3211.62069
607.842	3345.01648
608.299	3444.11123
608.755	3649.29538
609.212	3769.7013
609.668	4007.66847
610.125	4128.06825
610.581	4259.80146
611.037	4340.44576
611.493	4467.65718
611.949	4542.94448
612.405	4741.63526
612.861	4903.30521
613.316	5043.52891
613.772	5029.20797
614.227	5213.46012
614.683	5199.60836
615.138	5264.24284
615.593	5325.13434
616.048	5344.02397
616.503	5524.36002
616.958	5413.67083
617.412	5475.22049
617.867	5481.80478
618.321	5565.27452
618.776	5414.73093
619.23	5431.13883
619.684	5304.86722
620.138	5309.034
620.592	5261.49033
621.046	5304.27076
621.5	5107.51366
621.954	5261.82604
622.407	4995.97094
622.861	4982.65063
623.314	4980.1352
623.768	4808.54047
624.221	4819.37646
624.674	4810.37542
625.127	4717.47173
625.58	4703.23246
626.033	4610.10837
626.485	4561.76724
626.938	4597.71492
627.39	4496.63558
627.843	4420.57295
628.295	4463.54956
628.747	4413.82335
629.199	4545.41542
629.651	4473.50391
630.103	4526.47752
630.555	4509.92961
631.006	4444.61463
631.458	4651.58776
631.909	4537.30067
632.361	4634.45178
632.812	4742.41689
633.263	4822.93491
633.714	4839.76698
634.165	4898.58435
634.616	4932.45826
635.067	5139.84709
635.518	5170.34465
635.968	5400.0564
636.419	5576.57802
636.869	5682.06765
637.319	5742.89808
637.769	5992.58965
638.219	6150.84747
638.669	6334.84336
639.119	6461.85489
639.569	6741.83016
640.019	7018.61485
640.468	7214.50615
640.918	7436.85343
641.367	7690.73074
641.816	8078.03376
642.265	8317.43635
642.714	8563.7025
643.163	9016.45536
643.612	9082.6627
644.061	9404.28576
644.51	9589.70538
644.958	10056.09047
645.406	10185.33521
645.855	10446.1502
646.303	10557.69084
646.751	11142.06111
647.199	11126.10296
647.647	11418.32271
648.095	11554.11413
648.543	11839.5452
648.99	11934.72416
649.438	12030.56537
649.885	12178.76753
650.333	12423.61253
650.78	12332.93064
651.227	12360.98162
651.674	12460.25104
652.121	12409.24425
652.568	12380.08448
653.015	12302.54727
653.461	12236.51282
653.908	12230.79331
654.354	12176.15182
654.801	11890.67698
655.247	11751.535
655.693	11710.0245
656.139	11483.47433
656.585	11600.03938
657.031	11376.05097
657.477	11269.98378
657.922	11118.05794
658.368	10899.77484
658.813	10802.70944
659.259	10572.59363
659.704	10618.83062
660.149	10321.86407
660.594	10235.50911
661.039	10191.45779
661.484	10053.95164
661.929	9713.01177
662.373	9637.82011
662.818	9567.65097
663.262	9633.80049
663.707	9646.84979
664.151	9432.34101
664.595	9303.0619
665.039	9368.22277
665.483	9269.06739
665.927	9147.71989
666.371	9174.77676
666.814	9120.68117
667.258	9253.95886
667.701	9091.5607
668.145	9164.834
668.588	8946.45239
669.031	8957.36916
669.474	8924.3464
669.917	8957.29367
670.36	9016.58293
670.803	9031.54332
671.245	9045.46783
671.688	9004.50823
672.13	8910.23369
672.573	9055.67347
673.015	8939.38115
673.457	9039.45417
673.899	9065.60447
674.341	9025.52614
674.783	9022.51249
675.225	8916.38682
675.666	9013.53547
676.108	8949.27029
676.549	8758.01827
676.991	8900.18535
677.432	8884.1285
677.873	8682.86332
678.314	8631.87837
678.755	8624.97098
679.196	8684.86865
679.637	8371.56465
680.078	8419.54899
680.518	8213.25888
680.959	8249.41419
681.399	8203.51946
681.839	8027.28669
682.28	7999.37487
682.72	7950.99155
683.16	7965.36912
683.6	7837.8803
684.039	7672.43778
684.479	7734.17795
684.919	7691.92137
685.358	7670.18472
685.798	7660.44853
686.237	7494.88203
686.676	7514.64546
687.115	7542.84496
687.554	7521.91304
687.993	7422.50666
688.432	7380.62118
688.871	7334.62822
689.309	7334.85728
689.748	7361.24334
690.186	7342.72165
690.625	7379.76048
691.063	7395.84297
691.501	7277.01729
691.939	7394.15661
692.377	7343.91318
692.815	7450.99893
693.253	7438.8421
693.69	7379.43754
694.128	7442.95207
694.565	7398.80336
695.003	7382.24435
695.44	7490.84107
695.877	7395.77023
696.314	7337.26472
696.751	7359.57147
697.188	7412.70252
697.625	7430.54537
698.061	7455.87667
698.498	7448.80428
698.934	7549.90374
699.371	7421.77601
699.807	7433.79248
700.243	7427.90537
700.679	7455.54048
701.115	7539.78003
701.551	7506.74382
701.987	7442.44965
702.422	7571.9081
702.858	7663.95087
703.294	7658.77372
703.729	7606.01324
704.164	7556.89536
704.599	7767.7461
705.035	7655.68209
705.47	7813.1161
705.904	7952.02003
706.339	7839.89703
706.774	7936.04892
707.209	8086.15986
707.643	8034.21276
708.078	8086.32233
708.512	8130.49431
708.946	8310.44327
709.38	8396.5544
709.814	8419.45309
710.248	8494.7636
710.682	8648.9121
711.116	8578.85698
711.549	8586.01888
711.983	8688.88161
712.416	8799.10785
712.85	8798.20207
713.283	8841.16386
713.716	9042.59348
714.149	8930.2859
714.582	9118.62562
715.015	9170.80655
715.448	9215.93587
715.881	9321.08815
716.313	9390.2257
716.746	9425.30773
717.178	9686.93462
717.61	9793.19392
718.043	9920.53442
718.475	9953.6412
718.907	9971.66647
719.339	10195.51031
719.77	10309.75125
720.202	10381.89149
720.634	10536.45842
721.065	10637.96523
721.497	10701.06505
721.928	11056.48192
722.359	10972.14263
722.79	11227.32563
723.221	11310.50819
723.652	11276.23325
724.083	11441.73193
724.514	11630.54252
724.945	11698.76361
725.375	11936.04232
725.806	12044.22423
726.236	12078.11118
726.666	12243.75034
727.096	12675.05135
727.526	12783.16804
727.956	12836.85063
728.386	12919.63749
728.816	13091.2709
729.246	13322.35016
729.675	13306.41378
730.105	13492.76472
730.534	13605.29314
730.964	13684.96079
731.393	13909.00123
731.822	14094.83838
732.251	14261.33768
732.68	14360.74202
733.109	14604.81029
733.537	14715.95136
733.966	14927.53437
734.395	15079.45359
734.823	15135.88061
735.251	15131.25148
735.68	15258.00361
736.108	15385.99248
736.536	15278.21676
736.964	15585.55305
737.392	15727.45486
737.82	15823.45378
738.247	15811.36699
738.675	15902.64956
739.102	15934.66424
739.53	15937.96609
739.957	15869.11287
740.384	16129.58081
740.811	16149.05406
741.238	16264.5722
741.665	16141.15637
742.092	15848.55101
742.519	15962.02822
742.945	16162.65133
743.372	16241.02265
743.798	16141.29572
744.225	16022.80276
744.651	16077.14366
745.077	15968.04302
745.503	15831.32291
745.929	16108.15091
746.355	15824.09085
746.781	15696.53899
747.207	15447.61491
747.632	15465.88101
748.058	15430.23043
748.483	15726.22024
748.908	15668.91398
749.334	15428.68258
749.759	15198.05515
750.184	15180.66018
750.609	15114.76165
751.033	15052.10373
751.458	15028.71506
751.883	14812.83053
752.307	14728.82637
752.732	14679.84656
753.156	14458.60628
753.58	14251.53492
754.005	14174.86575
754.429	14054.70266
754.853	13702.12538
755.277	13837.90071
755.7	13666.92172
756.124	13452.26474
756.548	13299.82898
756.971	13229.89852
757.394	13185.00305
757.818	13075.11456
758.241	12961.52801
758.664	12599.27769
759.087	12583.33602
759.51	12377.17643
759.933	12281.76146
760.356	12189.65736
760.778	11961.82881
761.201	11861.43772
761.623	11480.60469
762.046	11440.52977
762.468	11242.44137
762.89	11158.96757
763.312	11091.64499
763.734	10862.77074
764.156	10823.52081
764.578	10485.54897
765	10355.88188
765.421	10251.45565
765.843	9999.72252
766.264	9789.22194
766.686	9689.93752
767.107	9557.61731
767.528	9474.46897
767.949	9220.94264
768.37	9224.91749
768.791	8958.36971
769.212	8704.10228
769.632	8672.86884
770.053	8538.02202
770.473	8485.6693
770.894	8222.44035
771.314	7988.0654
771.734	7968.01054
772.154	7846.32676
772.575	7815.83927
772.994	7751.72812
773.414	7499.77789
773.834	7406.99796
774.254	7230.83349
774.673	7177.85661
775.093	6885.94901
775.512	6749.89737
775.931	6713.0886
776.351	6703.97437
776.77	6516.8959
777.189	6358.69084
777.607	6244.25372
778.026	6128.10197
778.445	5922.35216
778.864	5831.34373
779.282	5730.91467
779.701	5661.35222
780.119	5565.50357
780.537	5405.41735
780.955	5372.55584
781.373	5222.4551
781.791	5194.87282
782.209	5033.87474
782.627	4917.1977
783.045	4904.0058
783.462	4739.01044
783.88	4603.21986
784.297	4573.97593
784.715	4459.25814
785.132	4402.69797
785.549	4215.09141
785.966	4301.11156
786.383	4151.0517
786.8	4060.60975
787.217	4033.85727
787.633	3821.34179
788.05	3852.70358
788.466	3793.7343
788.883	3729.53394
789.299	3605.95111
789.715	3495.19044
790.131	3491.32269
790.547	3461.33786
790.963	3398.30916
791.379	3272.48757
791.795	3233.72468
792.21	3145.91953
792.626	3053.01055
793.041	2957.31023
793.457	2961.28613
793.872	2846.96475
794.287	2794.2185
794.702	2797.19338
795.117	2753.38889
795.532	2693.45591
795.947	2550.03308
796.362	2583.95524
796.776	2522.84895
797.191	2402.19091
797.605	2404.02954
798.02	2378.12527
798.434	2367.67529
798.848	2287.24555
799.262	2182.15464
799.676	2208.07387
800.09	2149.08422
800.504	2014.91782
800.918	1945.64983
801.331	1912.12477
801.745	1913.61195
802.158	1858.92841
802.572	1813.80085
802.985	1744.68904
803.398	1744.66262
803.811	1688.84863
804.224	1607.6725
804.637	1665.62911
805.05	1621.43577
805.462	1508.55373
805.875	1475.76374
806.288	1483.51448
806.7	1324.41043
807.112	1337.17225
807.525	1337.34458
807.937	1354.43931
808.349	1271.34323
808.761	1291.34955
809.173	1239.23986
809.584	1204.21877
809.996	1155.14247
810.408	1181.38039
810.819	1081.94667
811.231	1148.41119
811.642	1161.20579
812.053	1059.01152
812.464	1006.857
812.875	1018.08178
813.286	960.0177
813.697	952.68981
814.108	906.76799
814.519	958.6759
814.929	857.78957
815.34	854.66008
815.75	828.76139
816.16	756.54886
816.571	826.77614
816.981	731.41087
817.391	758.49909
817.801	753.57293
818.211	755.48375
818.62	666.36734
819.03	683.4108
819.44	620.37565
819.849	625.33813
820.259	624.361
820.668	580.24247
821.077	611.32389
821.486	578.18108
821.895	572.20314
822.304	539.25971
822.713	541.1026
823.122	543.18136
823.531	502.02181
823.939	539.15128
824.348	475.01129
824.756	486.06947
825.164	476.05575
825.573	444.99771
825.981	468.02117
826.389	494.09347
826.797	477.08186
827.205	469.95438
827.612	412.90645
828.02	355.74806
828.428	384.88553
828.835	372.90208
829.243	344.73651
829.65	325.74666
830.057	335.73536
830.464	373.83357
830.871	385.83301
831.278	363.79414
831.685	338.67512
832.092	296.65755
832.499	364.71558
832.905	297.68726
833.312	291.59163
833.718	359.81948
834.124	321.66691
834.531	264.60957
834.937	283.67483
835.343	235.52086
835.749	205.43807
836.155	251.6134
836.561	272.61854
836.966	263.59117
837.372	225.53202
837.777	225.52521
838.183	237.48141
838.588	253.58708
838.993	220.49929
839.399	202.46457
839.804	145.33529
840.209	202.48953
840.613	208.42742
841.018	217.51072
841.423	169.41026
841.828	214.50963
842.232	200.45464
842.637	267.5866
843.041	152.37169
843.445	167.39182
843.849	176.41205
844.253	248.542
844.657	147.35351
845.061	255.54208
845.465	130.29779
845.869	183.39716
846.272	163.37631
846.676	125.28099
847.079	170.41199
847.483	196.45672
847.886	187.42155
848.289	152.39159
848.692	136.32451
849.095	155.34885
849.498	144.34017
849.901	158.33639
850.304	134.30227
850.707	121.29264
851.109	128.30589
851.512	125.2926
851.914	121.29286
852.316	155.37557
852.718	149.37562
853.121	137.31817
853.523	118.25909
853.925	120.30246
854.326	125.29946
854.728	109.26897
855.13	125.31083
855.531	123.27944
855.933	145.3246
856.334	148.35246
856.736	124.26492
857.137	133.29492
857.538	138.33193
857.939	158.3744
858.34	103.23618
858.741	72.18051
859.142	105.23835
859.542	116.29499
859.943	138.32461
860.343	113.26855
860.744	100.23238
861.144	147.34207
861.544	87.20285
861.945	105.25519
862.345	110.25441
862.745	123.29287
863.145	123.2724
863.544	107.25898
863.944	148.32893
864.344	59.13887
864.743	136.31891
865.143	111.27491
865.542	63.13778
865.941	109.25804
866.34	97.21796
866.74	88.2275
867.139	138.31701
867.537	96.23108
867.936	111.25504
868.335	83.20187
868.734	76.18695
869.132	55.12074
869.531	107.2426
869.929	80.1747
870.327	80.18319
870.726	69.16316
871.124	130.284
871.522	65.15863
871.92	77.18187
872.318	78.1809
872.715	118.2728
873.113	53.12333
873.511	69.1643
873.908	74.18264
874.306	86.20654
874.703	101.23836
875.1	74.17887
875.497	74.16883
875.894	147.34719
876.291	75.17666
876.688	60.14934
877.085	80.18179
877.482	69.16562
877.878	71.16607
878.275	64.15685
878.671	42.0865
879.068	87.20013
879.464	71.16411
879.86	53.12021
880.256	36.08419
880.652	31.07624
881.048	90.21038
881.444	60.13457
881.84	71.17294
882.236	65.15673
882.631	102.23984
883.027	64.14773
883.422	23.05659
883.817	66.16074
884.213	53.13117
884.608	91.21818
885.003	13.03005
885.398	30.07268
885.793	59.14167
886.188	22.05282
886.582	36.08833
886.977	80.17965
887.371	75.18043
887.766	35.08462
888.16	46.1085
888.554	91.21293
888.949	89.21338
889.343	89.20604
889.737	22.05758
890.131	67.16137
890.525	113.27751
890.918	47.11384
891.312	62.14037
891.706	56.14135
892.099	74.17995
892.492	100.20187
892.886	65.15197
893.279	54.1321
893.672	78.19187
894.065	61.14692
894.458	27.06493
894.851	84.19489
895.244	48.11812
895.637	78.18011
896.029	100.2344
896.422	45.1043
896.814	94.22206
897.206	59.1367
897.599	125.29248
897.991	100.23165
898.383	70.15842
898.775	130.27967
899.167	82.1852
899.559	40.09672
899.951	78.17343
900.342	64.1547
900.734	102.24757
901.125	56.1406
901.517	69.16259
901.908	71.15993
902.299	78.18298
902.69	57.13013
903.082	68.15758
903.473	96.22256
903.863	58.14146
904.254	96.21434
904.645	97.22661
905.036	61.14475
905.426	48.1034
905.817	65.15168
906.207	36.08151
906.597	100.22447
906.987	85.20913
907.378	76.18537
907.768	60.15356
908.158	32.07501
908.547	37.09385
908.937	18.04416
909.327	56.13008
909.717	75.1792
910.106	3.00694
910.495	71.16763
910.885	46.11261
911.274	45.1081
911.663	63.15202
912.052	104.24082
912.441	78.19173
912.83	30.06562
913.219	59.1481
913.608	87.20421
913.997	61.14848
914.385	91.20682
914.774	57.13275
915.162	94.21576
915.55	40.09226
915.939	37.09093
916.327	35.0835
916.715	97.24015
917.103	16.03736
917.491	74.17441
917.878	68.15958
918.266	45.1121
918.654	68.16832
919.041	55.14044
919.429	14.03189
919.816	118.28382
920.203	73.17108
920.591	97.22972
920.978	80.18701
921.365	53.13476
921.752	36.08111
922.139	93.19072
922.525	62.14322
922.912	94.21723
923.299	86.2045
923.685	35.08745
924.072	17.03674
924.458	82.19514
924.844	37.0883
925.231	65.14287
925.617	77.19001
926.003	89.21671
926.389	77.18588
926.774	68.16462
927.16	101.23818
927.546	95.23589
927.931	58.13792
928.317	67.14584
928.702	42.09482
929.088	144.3284
929.473	91.22332
929.858	73.17215
930.243	76.17619
930.628	86.2019
931.013	61.1453
931.398	48.10357
931.783	23.05803
932.167	70.16568
932.552	44.10575
932.937	81.19072
933.321	56.13633
933.705	11.02654
934.09	24.05731
934.474	39.08796
934.858	78.19463
935.242	49.10829
935.626	49.12158
936.009	33.08601
936.393	76.1882
936.777	59.14634
937.16	95.23864
937.544	51.11295
937.927	65.15939
938.311	92.21202
938.694	66.16862
939.077	45.10339
939.46	20.04627
939.843	60.11545
940.226	64.1568
940.609	86.19002
940.991	22.05382
941.374	51.12055
941.757	53.12494
942.139	91.19446
942.522	73.16322
942.904	70.1608
943.286	50.12177
943.668	74.18619
944.05	73.17215
944.432	41.09691
944.814	15.03532
945.196	35.08292
945.578	32.0746
945.959	84.18491
946.341	73.16759
946.722	78.17307
947.104	36.08277
947.485	69.15313
947.866	53.12963
948.247	67.16393
948.628	8.01847
949.009	-4.00997
949.39	78.18419
949.771	16.03491
950.152	93.21769
950.532	101.24381
950.913	8.01862
951.293	34.08996
951.674	79.18224
952.054	74.17914
952.434	54.129
952.814	32.07224
953.194	56.13913
953.574	62.14544
953.954	36.08114
954.334	77.18545
954.714	43.10133
955.093	77.18067
955.473	78.18889
955.853	31.07768
956.232	61.16121
956.611	37.08399
956.99	37.09009
957.37	49.11931
957.749	21.04742
958.128	57.13895
958.506	51.12784
958.885	22.05346
959.264	85.20162
959.643	99.21468
960.021	65.1556
960.4	17.03699
960.778	18.04211
961.156	24.05786
961.535	45.09924
961.913	47.106
962.291	52.13032
962.669	85.20712
963.047	35.08678
963.424	82.20335
963.802	87.20453
964.18	42.10049
964.557	76.16533
964.935	90.20219
965.312	68.17134
965.69	40.09541
966.067	69.15847
966.444	24.05586
966.821	79.19545
967.198	28.06453
967.575	96.22265
967.952	83.1852
968.329	111.25789
968.705	126.25471
969.082	81.20208
969.458	32.07504
969.835	56.13055
970.211	65.16216
970.587	83.19778
970.963	24.05897
971.339	51.12912
971.715	15.03632
972.091	45.10633
972.467	46.1085
972.843	85.20402
973.219	80.18075
973.594	29.07348
973.97	38.08425
974.345	47.10842
974.721	26.05961
975.096	69.16101
975.471	93.20828
975.846	37.08467
976.221	47.11513
976.596	86.19993
976.971	71.16899
977.346	53.11674
977.72	28.06852
978.095	3.00753
978.469	58.13163
978.844	61.14603
979.218	71.16529
979.593	73.16578
979.967	11.02536
980.341	82.1802
980.715	59.14312
981.089	50.12013
981.463	87.18938
981.837	62.14703
982.21	51.10998
982.584	28.06545
982.957	61.14714
983.331	20.04475
983.704	101.2392
984.078	53.12503
984.451	49.11488
984.824	60.14097
985.197	41.09398
985.57	-3.00717
985.943	38.08841
986.316	12.02796
986.688	108.24601
987.061	88.19656
987.434	82.20779
987.806	47.10751
988.179	51.11455
988.551	94.22618
988.923	47.11036
989.295	43.10266
989.667	68.15777
990.039	121.28855
990.411	54.11652
990.783	75.16145
991.155	25.05818
991.527	71.16333
991.898	53.12751
992.27	23.05552
992.641	49.11721
993.012	46.10058
993.384	51.11572
993.755	66.16248
994.126	108.24849
994.497	33.078
994.868	67.14442
995.239	70.16132
995.61	14.03413
995.98	77.17798
996.351	85.20239
996.722	103.22887
997.092	67.15228
997.462	31.07051
997.833	49.10997
998.203	22.05052
998.573	95.22629
998.943	79.17722
999.313	42.09722
999.683	73.16773
1000.053	21.04521
1000.423	79.1813
1000.792	81.19848
1001.162	62.14487
1001.531	80.18855
1001.901	57.13541
1002.27	7.0147
1002.639	20.049
1003.009	56.12689
1003.378	100.24426
1003.747	78.17386
1004.116	16.03681
1004.485	28.06427
1004.853	46.11035
1005.222	-48.11607
1005.591	109.24351
1005.959	36.07801
1006.328	50.1078
1006.696	72.16473
1007.064	22.05286
1007.433	87.20532
1007.801	35.081
1008.169	10.02415
1008.537	106.22028
1008.905	55.12333
1009.273	53.12435
1009.64	69.1593
1010.008	47.10695
1010.375	62.14088
1010.743	41.08735
1011.11	71.16352
1011.478	77.18335
1011.845	73.16214
1012.212	93.20158
1012.579	104.24273
1012.946	39.08778
1013.313	75.16804
1013.68	88.18557
1014.047	72.16334
1014.414	50.11265
1014.78	66.15767
1015.147	52.11864
1015.513	63.14493
1015.88	95.22959
1016.246	67.15573
1016.612	76.16329
1016.978	94.22051
1017.344	73.17269
1017.71	65.15012
1018.076	64.14201
1018.442	66.16343
1018.808	84.20243
1019.174	32.0768
1019.539	19.04
1019.905	97.21796
1020.27	24.05694
1020.636	61.1374
1021.001	96.21867
1021.366	97.22207
1021.731	124.30728
1022.096	51.12492
1022.461	92.20702
1022.826	82.18686
1023.191	30.07616
1023.556	48.10677
1023.92	25.05854
1024.285	58.13366
1024.649	44.10265
1025.014	51.11948
1025.378	58.14083
1025.742	9.02139
1026.107	59.1263
1026.471	78.17141
1026.835	49.1165
1027.199	16.03721
1027.562	38.08347
1027.926	84.19397
1028.29	51.12409
1028.654	59.12848
1029.017	71.16711
1029.381	47.1079
1029.744	49.12025
1030.107	80.17965
1030.471	76.17424
1030.834	4.00859
1031.197	87.19861
1031.56	63.14069
1031.923	60.14934
1032.286	83.18474
1032.648	39.08792
1033.011	89.19645
1033.374	70.15441
1033.736	28.07133
1034.099	17.03998
1034.461	53.12973
1034.823	62.14856
1035.185	29.06961
1035.548	38.08925
1035.91	91.20615
1036.272	88.19054
1036.634	112.25893
1036.995	28.06254
1037.357	60.14037
1037.719	84.19466
1038.08	74.1687
1038.442	66.14888
1038.803	30.06789
1039.165	47.11329
1039.526	38.08817
1039.887	98.22169
1040.248	53.12751
1040.609	21.04939
1040.97	31.07254
1041.331	61.1492
1041.692	67.15191
1042.053	49.10548
1042.413	86.18828
1042.774	62.14436
1043.134	58.12971
1043.495	48.11576
1043.855	69.16158
1044.215	18.0428
1044.576	77.17656
1044.936	61.13199
1045.296	77.1832
1045.656	46.10685
1046.016	62.1418
1046.375	59.1367
1046.735	80.17529
1047.095	57.12724
1047.454	52.10285
1047.814	44.1014
1048.173	48.10779
1048.533	22.04831
1048.892	25.05799
1049.251	42.10041
1049.61	88.20635
1049.969	65.14527
1050.328	60.12313
1050.687	37.08573
1051.046	27.0629
1051.405	52.1226
1051.763	27.06025
1052.122	29.0695
1052.48	60.14114
1052.839	68.15508
1053.197	56.1255
1053.555	52.10999
1053.914	76.17633
1054.272	6.01366
1054.63	17.04018
1054.988	38.08743
1055.345	6.01217
1055.703	70.1608
1056.061	69.17227
1056.419	47.11921
1056.776	-4.0092
1057.134	18.03919
1057.491	86.20529
1057.848	38.09026
1058.206	-8.01785
1058.563	17.03573
1058.92	41.0897
1059.277	50.11812
1059.634	37.08194
1059.991	53.12163
1060.348	48.10384
1060.704	97.22456
1061.061	48.10402
1061.418	66.15295
1061.774	77.18123
1062.131	43.11157
1062.487	19.04236
1062.843	57.13593
1063.199	43.10274
1063.555	68.15132
1063.911	53.12746
1064.267	116.22094
1064.623	79.185
1064.979	-16.03521
1065.335	54.12191
1065.691	12.02722
1066.046	55.11427
1066.402	46.09879
1066.757	46.11161
1067.112	46.10757
1067.468	55.12586
1067.823	-10.02272
1068.178	61.13965
1068.533	36.08366
1068.888	99.22227
1069.243	21.04995
1069.598	51.1176
1069.952	86.18756
1070.307	63.15001
1070.662	113.25682
1071.016	85.1829
1071.371	119.25562
1071.725	69.15536
1072.079	57.13123
1072.434	13.03059
1072.788	39.08752
1073.142	87.20373
1073.496	84.1884
1073.85	61.13414
1074.203	94.21654
1074.557	105.27027
1074.911	78.17523
1075.265	58.12816
1075.618	73.17001
1075.971	52.11787
1076.325	72.17659
1076.678	51.1112
1077.031	33.06963
1077.385	59.12247
1077.738	55.11758
1078.091	29.06377
1078.444	44.09608
1078.796	24.05709
1079.149	75.17838
1079.502	78.17645
1079.855	44.09816
1080.207	72.16837
1080.56	59.14752
1080.912	65.15054
1081.264	60.13855
1081.617	70.16338
1081.969	41.10017
1082.321	65.15078
1082.673	64.1413
1083.025	61.13684
1083.377	319.67487
1083.728	77.16918
1084.08	34.081
1084.432	31.0714
1084.783	29.06361
1085.135	66.15905
1085.486	65.14227
1085.838	69.16284
1086.189	92.21405
1086.54	59.13361
1086.891	96.23606
1087.242	105.24684
1087.593	42.09625
1087.944	93.20063
1088.295	97.20693
1088.646	118.27583
1088.996	37.0861
1089.347	40.09347
1089.698	36.08257
1090.048	3.00751
1090.398	82.17853
1090.749	76.17095
1091.099	39.09567
1091.449	53.12712
1091.799	74.17678
1092.149	32.07624
1092.499	60.13987
1092.849	12.02956
1093.199	70.16588
1093.548	97.22358
1093.898	35.08382
1094.248	48.11725
1094.597	56.13928
1094.947	64.16471
1095.296	111.26125
1095.645	67.1663
1095.994	55.12612
1096.343	84.20243
1096.692	61.15696
1097.041	50.13309
1097.39	74.17603
1097.739	36.09019
1098.088	53.13581
1098.437	54.13888
1098.785	31.08021
1099.134	28.07065
1099.482	47.12562
1099.83	56.14171
1100.179	81.20668
1100.527	-13.03325
1100.875	64.1642
1101.223	50.12908
1101.571	27.07219
1101.919	71.18257
1102.267	55.15149
1102.615	6.01926
1102.962	4.01283
1103.31	9.02889
1103.658	-2.00641
