Data from N3 R2 sample 9_Subt2__5__10-18-30-378.txt Node

Date: Thu Sep 18 10:18:30 PDT 2025
User: uwsun
Spectrometer: HDX01956
Trigger mode: 0
Integration Time (sec): 5.000000E-1
Scans to average: 1
Nonlinearity correction enabled: true
Boxcar width: 0
Storing dark spectrum: false
XAxis mode: Wavelengths
Number of Pixels in Spectrum: 2068
>>>>>Begin Spectral Data<<<<<
194.03	74.21251
194.578	69.22255
195.127	73.232
195.676	73.23284
196.225	103.27037
196.773	96.26429
197.321	142.38882
197.87	191.48407
198.418	246.622
198.966	240.62148
199.513	241.60208
200.061	217.54409
200.609	231.59972
201.156	218.47019
201.704	220.54594
202.251	230.60195
202.798	240.61115
203.345	267.64667
203.892	246.61045
204.438	236.54991
204.985	234.54676
205.532	191.49777
206.078	224.53876
206.624	296.72322
207.17	276.6317
207.716	253.60885
208.262	304.58184
208.808	258.63578
209.354	282.68081
209.899	217.53879
210.445	231.56936
210.99	230.55319
211.535	278.63934
212.08	251.5709
212.625	190.47047
213.17	262.65394
213.715	277.61752
214.259	261.59629
214.804	249.59809
215.348	266.60122
215.892	289.68332
216.436	247.55179
216.98	252.54048
217.524	251.58843
218.068	257.63529
218.612	274.68066
219.155	283.65097
219.698	211.49505
220.242	224.54305
220.785	249.57254
221.328	194.4735
221.871	264.65702
222.414	231.55991
222.956	188.44411
223.499	169.37334
224.041	202.45397
224.583	201.4163
225.126	218.46857
225.668	195.46697
226.21	257.63483
226.751	249.54085
227.293	192.4276
227.835	222.53375
228.376	226.50227
228.918	230.5601
229.459	223.54559
230	230.54099
230.541	203.45874
231.082	230.54836
231.622	176.39294
232.163	235.55351
232.704	249.60852
233.244	219.53282
233.784	172.41182
234.324	253.55468
234.864	216.47786
235.404	174.4045
235.944	235.53992
236.484	238.58045
237.023	230.5296
237.563	273.6154
238.102	231.53392
238.641	253.61898
239.18	212.48854
239.719	243.59363
240.258	263.57296
240.797	222.51953
241.335	233.55327
241.874	235.4464
242.412	293.68875
242.95	267.6274
243.488	186.41132
244.026	229.5215
244.564	258.51509
245.102	261.57511
245.64	214.50062
246.177	196.428
246.715	248.58083
247.252	227.50313
247.789	307.54315
248.326	214.5065
248.863	254.54383
249.4	235.52
249.936	272.55212
250.473	272.62454
251.009	272.60324
251.546	267.5792
252.082	218.4605
252.618	229.50101
253.154	258.60448
253.69	272.59067
254.226	238.55697
254.761	241.52748
255.297	226.48242
255.832	256.59298
256.367	207.47788
256.903	303.64916
257.438	260.59221
257.972	251.5438
258.507	218.48993
259.042	281.59084
259.576	290.62064
260.111	227.50963
260.645	289.60203
261.179	269.61209
261.713	262.57017
262.247	237.52792
262.781	278.56688
263.315	243.57479
263.849	255.62248
264.382	274.6097
264.915	266.61224
265.449	236.56331
265.982	247.54677
266.515	280.66627
267.048	253.52165
267.58	226.47635
268.113	275.57568
268.646	235.56189
269.178	234.51076
269.71	315.66991
270.243	286.64194
270.775	286.71253
271.307	286.65721
271.838	309.70224
272.37	284.67397
272.902	278.60936
273.433	301.64376
273.965	266.62809
274.496	201.49013
275.027	282.68132
275.558	278.65897
276.089	252.61482
276.62	237.58393
277.15	261.62428
277.681	262.54688
278.211	216.51676
278.741	305.65288
279.272	279.61915
279.802	229.55777
280.332	295.67368
280.861	247.57588
281.391	296.64963
281.921	271.6286
282.45	275.66178
282.98	284.71857
283.509	324.70868
284.038	277.61522
284.567	333.74419
285.096	289.67962
285.625	260.5687
286.153	274.63694
286.682	266.59484
287.21	244.56698
287.739	302.68897
288.267	294.69366
288.795	247.63042
289.323	278.63423
289.851	338.76331
290.378	268.58001
290.906	280.66601
291.433	279.67573
291.961	307.67731
292.488	290.69694
293.015	266.61199
293.542	334.82785
294.069	318.76103
294.596	276.65499
295.122	312.72296
295.649	294.6213
296.175	314.72846
296.702	329.77517
297.228	346.79792
297.754	271.59289
298.28	312.69338
298.806	305.7108
299.332	307.66398
299.857	330.72119
300.383	273.66815
300.908	348.82199
301.433	349.82164
301.958	309.68372
302.483	269.6493
303.008	352.84076
303.533	312.77814
304.058	302.68035
304.582	324.73796
305.107	316.79524
305.631	356.77142
306.155	352.78583
306.679	385.86251
307.203	368.81611
307.727	319.72965
308.251	315.7514
308.775	354.82741
309.298	372.85752
309.822	337.81493
310.345	347.7972
310.868	397.9113
311.391	364.85877
311.914	324.78424
312.437	403.87381
312.96	347.78538
313.482	344.77622
314.005	337.80971
314.527	321.80652
315.049	388.93804
315.571	394.84355
316.093	371.87986
316.615	420.95385
317.137	423.86979
317.659	402.92592
318.18	372.84692
318.702	386.86314
319.223	436.8329
319.744	439.93114
320.265	437.005
320.786	387.92486
321.307	420.98431
321.828	417.89066
322.348	419.93479
322.869	430.97022
323.389	780.31306
323.909	464.99382
324.43	453.01693
324.95	445.95992
325.47	454.06099
325.989	454.01313
326.509	468.98333
327.029	506.07438
327.548	477.00983
328.067	490.11252
328.587	525.22551
329.106	482.01265
329.625	518.25748
330.144	502.08763
330.662	572.23427
331.181	495.09091
331.7	524.12813
332.218	566.12409
332.736	552.19207
333.255	571.23658
333.773	539.17712
334.291	564.30404
334.808	594.22206
335.326	559.15381
335.844	565.22513
336.361	599.42031
336.879	645.37625
337.396	609.35822
337.913	619.30186
338.43	643.31025
338.947	628.36627
339.464	630.22814
339.981	596.29437
340.497	632.41566
341.014	659.45531
341.53	633.29335
342.046	752.67569
342.562	687.54496
343.078	711.49626
343.594	667.43185
344.11	750.59604
344.626	690.57416
345.141	709.44821
345.657	734.47325
346.172	745.60014
346.687	699.43485
347.202	794.59017
347.717	788.65519
348.232	752.66948
348.747	771.57074
349.261	730.4214
349.776	792.65849
350.29	778.73009
350.805	771.69008
351.319	804.63619
351.833	842.68332
352.347	818.69035
352.861	854.73883
353.374	837.64976
353.888	865.83975
354.401	881.72117
354.915	876.70291
355.428	927.98701
355.941	871.75059
356.454	807.56375
356.967	837.69685
357.48	852.66797
357.993	900.90967
358.505	863.82198
359.018	959.00017
359.53	925.93848
360.042	927.76164
360.554	985.0418
361.066	921.92161
361.578	972.80037
362.09	949.91977
362.602	984.83621
363.113	1038.03305
363.625	995.89017
364.136	990.81103
364.647	1022.02608
365.158	1021.98192
365.669	1026.04629
366.18	1044.03907
366.691	994.81106
367.201	1068.11844
367.712	1140.10986
368.222	1059.01249
368.733	1080.91073
369.243	1168.08808
369.753	1148.13524
370.263	1126.22543
370.773	1099.20175
371.282	1206.30865
371.792	1203.22408
372.301	1259.40863
372.811	1223.60632
373.32	1281.1399
373.829	1294.384
374.338	1331.26257
374.847	1352.39502
375.356	1389.49946
375.865	1554.37906
376.373	1563.57198
376.882	1586.97602
377.39	1595.80532
377.898	1617.89556
378.407	1751.73043
378.915	1781.62104
379.423	1812.86474
379.93	1986.99028
380.438	1984.12547
380.946	2067.0419
381.453	2225.27181
381.96	2354.30964
382.468	2502.28399
382.975	2591.53068
383.482	2602.0571
383.989	2687.83942
384.495	2760.29559
385.002	2865.74919
385.509	3210.42465
386.015	3380.50958
386.521	3533.05448
387.028	3631.00694
387.534	3738.59972
388.04	3746.34787
388.546	3930.7015
389.051	4252.52067
389.557	4583.66374
390.063	4700.42327
390.568	4900.74254
391.073	4985.1438
391.578	5249.65458
392.084	5543.99522
392.589	5687.61131
393.093	6248.02381
393.598	6805.67595
394.103	7394.94079
394.607	8020.32624
395.112	8471.82987
395.616	9048.61358
396.12	9851.38442
396.624	10796.4464
397.128	11693.29952
397.632	12849.18328
398.136	13844.74376
398.639	15194.44048
399.143	17459.21624
399.646	19334.61316
400.15	21077.63192
400.653	23930.44558
401.156	27294.51492
401.659	31417.58658
402.162	39969.91008
402.664	57346.94314
403.167	63014.34107
403.67	63769.22307
404.172	63919.58413
404.674	63858.43483
405.176	63738.15102
405.678	63977.72923
406.18	64011.81569
406.682	63863.44694
407.184	63926.60148
407.686	63841.39382
408.187	64025.8516
408.688	63892.51763
409.19	63833.37461
409.691	58460.26063
410.192	50052.97859
410.693	44427.08667
411.194	41769.23008
411.694	39140.31297
412.195	35655.52225
412.696	33216.00356
413.196	32272.17327
413.696	32602.22179
414.196	32482.38022
414.696	31069.84591
415.196	28850.79728
415.696	23912.64658
416.196	18491.65209
416.695	15351.97714
417.195	14419.97078
417.694	13752.25431
418.194	12595.53942
418.693	12115.91715
419.192	11704.48777
419.691	11508.60308
420.19	11192.98696
420.688	10820.40585
421.187	10191.67283
421.685	9321.08434
422.184	8326.53983
422.682	7172.45642
423.18	6269.74987
423.678	5667.93532
424.176	5242.13885
424.674	5112.03878
425.172	4718.62675
425.669	4381.11627
426.167	4121.85257
426.664	3675.8968
427.161	3537.0267
427.659	3302.42874
428.156	3131.69688
428.652	2873.68732
429.149	2822.44944
429.646	2708.97253
430.143	2541.32323
430.639	2412.22329
431.135	2255.42963
431.632	2098.92102
432.128	2036.10221
432.624	1988.40163
433.12	1881.78391
433.616	1867.62302
434.111	1802.88257
434.607	1737.85775
435.103	1660.32526
435.598	1690.32486
436.093	1611.63855
436.588	1461.38313
437.083	1457.36472
437.578	1379.38346
438.073	1318.55133
438.568	1281.44847
439.062	1222.99366
439.557	1118.08337
440.051	1127.99877
440.546	1095.98299
441.04	1114.14541
441.534	1071.20361
442.028	1081.10504
442.522	1039.03358
443.015	1013.74505
443.509	1010.01989
444.002	982.99155
444.496	881.59058
444.989	943.90936
445.482	903.88819
445.975	964.83695
446.468	893.6041
446.961	926.65544
447.454	954.75644
447.947	880.77316
448.439	916.88882
448.931	883.69986
449.424	877.90238
449.916	876.81031
450.408	817.58919
450.9	781.63867
451.392	818.79052
451.884	772.52468
452.375	716.55528
452.867	746.44503
453.358	725.44211
453.849	778.41391
454.341	767.48613
454.832	779.43114
455.323	814.74358
455.814	733.45128
456.304	735.47356
456.795	702.39727
457.285	663.2782
457.776	693.37837
458.266	694.44347
458.756	634.32848
459.247	611.30474
459.737	681.45127
460.226	695.38235
460.716	626.33133
461.206	597.27811
461.695	566.26299
462.185	607.28611
462.674	608.23574
463.163	620.23153
463.653	579.09673
464.142	562.22872
464.63	562.22768
465.119	526.10818
465.608	637.32095
466.096	507.99742
466.585	516.06801
467.073	466.00864
467.561	526.14457
468.05	534.10977
468.538	492.09899
469.026	471.02361
469.513	506.96524
470.001	535.10914
470.489	536.15253
470.976	517.0961
471.463	461.05692
471.951	450.03145
472.438	433.94044
472.925	444.96494
473.412	362.82516
473.899	439.92871
474.385	451.01741
474.872	393.85431
475.359	466.05323
475.845	387.74412
476.331	377.7476
476.817	430.96983
477.303	427.91834
477.789	375.83596
478.275	395.91578
478.761	336.7526
479.247	356.7444
479.732	369.86499
480.218	356.88075
480.703	278.65439
481.188	378.76273
481.673	328.71227
482.158	345.70046
482.643	348.83947
483.128	384.8367
483.612	366.81877
484.097	313.71565
484.581	326.71275
485.066	318.73891
485.55	337.70202
486.034	337.68734
486.518	359.80824
487.002	250.58368
487.486	293.6772
487.969	272.63204
488.453	225.54045
488.936	289.61917
489.42	304.63765
489.903	243.58168
490.386	186.37376
490.869	254.53372
491.352	225.52232
491.835	239.46929
492.318	210.45663
492.8	268.52959
493.283	256.62783
493.765	244.57548
494.247	211.47527
494.73	278.58672
495.212	216.49478
495.694	255.57695
496.175	242.55989
496.657	284.64138
497.139	195.32344
497.62	264.6086
498.102	229.55047
498.583	157.37698
499.064	230.49415
499.545	255.55718
500.026	286.61658
500.507	235.52086
500.988	253.60792
501.469	144.35187
501.949	212.5068
502.43	188.44101
502.91	257.52227
503.39	193.46482
503.87	233.53125
504.35	214.48409
504.83	214.45225
505.31	220.51243
505.79	186.42761
506.269	179.40005
506.749	219.48338
507.228	205.46798
507.707	277.58987
508.187	287.65436
508.666	220.52753
509.145	191.43427
509.623	206.46752
510.102	265.61444
510.581	266.61517
511.059	269.64955
511.538	245.60874
512.016	277.63488
512.494	246.56869
512.972	285.65164
513.45	262.5859
513.928	296.68617
514.406	328.76244
514.884	315.77349
515.361	331.74948
515.839	373.80463
516.316	353.80903
516.793	320.76756
517.27	333.75738
517.747	320.78126
518.224	346.75039
518.701	331.68952
519.178	403.94319
519.654	312.70144
520.131	329.77276
520.607	312.7244
521.083	312.66974
521.56	307.68751
522.036	263.54763
522.512	337.78784
522.987	365.82712
523.463	311.70019
523.939	375.87527
524.414	320.69312
524.89	319.72232
525.365	275.5935
525.84	275.63307
526.315	281.65127
526.79	248.53764
527.265	322.7049
527.74	223.52361
528.215	230.51774
528.689	216.45767
529.164	192.39988
529.638	175.43325
530.112	198.45246
530.587	210.43504
531.061	220.51566
531.534	230.53551
532.008	270.62987
532.482	233.51665
532.956	190.47236
533.429	242.57143
533.903	181.38645
534.376	184.39618
534.849	200.44652
535.322	216.49359
535.795	204.47835
536.268	197.46401
536.741	153.35617
537.213	238.52718
537.686	190.453
538.158	189.41874
538.631	170.40268
539.103	199.43685
539.575	192.38386
540.047	148.31675
540.519	227.52446
540.991	219.51743
541.463	152.35879
541.934	175.38611
542.406	209.48768
542.877	123.27411
543.348	215.50365
543.82	154.36746
544.291	191.43444
544.762	189.43876
545.233	181.44843
545.703	227.48823
546.174	221.49636
546.645	231.54091
547.115	174.41104
547.585	243.53882
548.056	277.65419
548.526	227.52217
548.996	213.49447
549.466	255.5971
549.935	272.62429
550.405	228.48458
550.875	247.56612
551.344	230.53086
551.814	232.51432
552.283	276.57687
552.752	326.72599
553.221	304.63962
553.69	340.72732
554.159	325.7708
554.628	414.87448
555.096	305.74257
555.565	374.77545
556.033	418.93044
556.502	318.73073
556.97	360.7541
557.438	374.82562
557.906	375.83215
558.374	411.88925
558.842	436.9709
559.31	443.91666
559.777	468.05604
560.245	438.93044
560.712	448.94795
561.18	538.07435
561.647	548.09334
562.114	571.17546
562.581	606.33843
563.048	670.34771
563.514	773.68665
563.981	745.47301
564.448	806.54732
564.914	867.69218
565.381	958.79641
565.847	959.83756
566.313	1021.91806
566.779	1074.91976
567.245	1151.08759
567.711	1190.22886
568.176	1284.16417
568.642	1395.65418
569.108	1459.64722
569.573	1488.47118
570.038	1696.30648
570.504	1727.60021
570.969	1808.03083
571.434	2042.72755
571.899	2064.02197
572.363	2192.93749
572.828	2295.99011
573.293	2376.00088
573.757	2486.09742
574.222	2623.94088
574.686	2654.0821
575.15	2805.35855
575.614	3028.25053
576.078	2947.21183
576.542	3051.03252
577.006	3060.98306
577.469	3208.49424
577.933	3336.98512
578.396	3220.25229
578.86	3265.19933
579.323	3366.33929
579.786	3360.68522
580.249	3369.19199
580.712	3325.40165
581.175	3311.49826
581.637	3324.99052
582.1	3247.73844
582.563	3207.60699
583.025	3176.42785
583.487	3190.44858
583.95	2985.69913
584.412	3017.59171
584.874	2946.44774
585.336	2948.27651
585.797	2926.78741
586.259	2828.19065
586.721	2736.19929
587.182	2688.0951
587.643	2657.01649
588.105	2566.20837
588.566	2512.58301
589.027	2541.4056
589.488	2389.01493
589.949	2352.28842
590.41	2289.34419
590.87	2222.94441
591.331	2366.77802
591.791	2176.97759
592.252	2210.02114
592.712	2106.0977
593.172	2099.86127
593.632	2118.77149
594.092	1994.71902
594.552	2058.63576
595.011	1990.82995
595.471	2034.81387
595.931	1992.77358
596.39	1915.98448
596.849	1902.84494
597.308	1860.47077
597.768	1887.28917
598.227	1936.00061
598.685	1916.76477
599.144	1916.90694
599.603	1956.89596
600.062	1927.46759
600.52	1997.77808
600.978	2039.9933
601.437	2007.80808
601.895	2193.64129
602.353	2148.72702
602.811	2203.8682
603.269	2233.12611
603.727	2266.18835
604.184	2398.98124
604.642	2429.38162
605.099	2570.14867
605.557	2633.38191
606.014	2646.74204
606.471	2683.58343
606.928	2919.90391
607.385	2931.61682
607.842	3047.0668
608.299	3199.16172
608.755	3218.38788
609.212	3491.80493
609.668	3514.86771
610.125	3634.26148
610.581	3685.05325
611.037	3724.74116
611.493	3842.96017
611.949	3958.22639
612.405	4028.03277
612.861	4138.72236
613.316	4225.97492
613.772	4288.62045
614.227	4424.90002
614.683	4389.05986
615.138	4485.67942
615.593	4531.57862
616.048	4598.44027
616.503	4600.87402
616.958	4717.06253
617.412	4626.69296
617.867	4674.24607
618.321	4730.7024
618.776	4567.19676
619.23	4571.61765
619.684	4533.29727
620.138	4513.47899
620.592	4458.93846
621.046	4402.77358
621.5	4368.92333
621.954	4317.35198
622.407	4344.33733
622.861	4086.12516
623.314	4131.60238
623.768	4101.9163
624.221	3926.87321
624.674	3929.8372
625.127	3911.88675
625.58	3848.67821
626.033	3870.49881
626.485	3801.12956
626.938	3689.13937
627.39	3647.02845
627.843	3583.95319
628.295	3480.98548
628.747	3547.19214
629.199	3499.8986
629.651	3386.97517
630.103	3389.97696
630.555	3363.48065
631.006	3390.05969
631.458	3365.14344
631.909	3367.82944
632.361	3311.02685
632.812	3330.04558
633.263	3408.63268
633.714	3385.49554
634.165	3372.26193
634.616	3310.18082
635.067	3359.72817
635.518	3505.15307
635.968	3572.01887
636.419	3598.60117
636.869	3642.1033
637.319	3682.95354
637.769	3691.7436
638.219	3849.99896
638.669	3874.04224
639.119	3931.06372
639.569	4076.02005
640.019	4223.67964
640.468	4281.44374
640.918	4421.76056
641.367	4649.2291
641.816	4682.16252
642.265	4879.39153
642.714	4895.25489
643.163	5156.1688
643.612	5270.54861
644.061	5319.57084
644.51	5393.98359
644.958	5588.63939
645.406	5755.09919
645.855	5882.15668
646.303	5985.76494
646.751	6098.73847
647.199	6174.57885
647.647	6319.69503
648.095	6331.57471
648.543	6470.94192
648.99	6578.86355
649.438	6624.61173
649.885	6630.11343
650.333	6667.7773
650.78	6711.88347
651.227	6727.96618
651.674	6640.53601
652.121	6698.98804
652.568	6750.97131
653.015	6539.07004
653.461	6553.79567
653.908	6423.59603
654.354	6426.82856
654.801	6320.75465
655.247	6383.26495
655.693	6215.56776
656.139	6079.94621
656.585	6062.95804
657.031	6044.85727
657.477	5937.43049
657.922	5788.72682
658.368	5752.30445
658.813	5606.80804
659.259	5558.30087
659.704	5471.17885
660.149	5336.04244
660.594	5279.2844
661.039	5200.03588
661.484	5096.36842
661.929	5042.29921
662.373	4910.93257
662.818	4900.8155
663.262	4796.69893
663.707	4813.10532
664.151	4659.83556
664.595	4767.71528
665.039	4641.98745
665.483	4635.19966
665.927	4602.57417
666.371	4488.66322
666.814	4486.72857
667.258	4460.85731
667.701	4475.00077
668.145	4520.07434
668.588	4416.09541
669.031	4440.6805
669.474	4318.89036
669.917	4279.27861
670.36	4308.20654
670.803	4380.91416
671.245	4252.87452
671.688	4235.03773
672.13	4248.50874
672.573	4231.33308
673.015	4292.94159
673.457	4228.26226
673.899	4207.00458
674.341	4243.95439
674.783	4091.98971
675.225	4119.18014
675.666	4184.1091
676.108	4068.30018
676.549	4002.82101
676.991	4061.39826
677.432	4007.83803
677.873	3889.73363
678.314	3895.01961
678.755	3855.30096
679.196	3823.77042
679.637	3700.13009
680.078	3665.97587
680.518	3630.87037
680.959	3534.14488
681.399	3519.4241
681.839	3501.28794
682.28	3386.48395
682.72	3341.9329
683.16	3309.5222
683.6	3275.91582
684.039	3158.39833
684.479	3111.46751
684.919	3108.15596
685.358	3026.51626
685.798	2960.82156
686.237	2953.24051
686.676	2839.93278
687.115	2874.16896
687.554	2841.26125
687.993	2868.81046
688.432	2793.98064
688.871	2681.00352
689.309	2669.25298
689.748	2745.50328
690.186	2670.10405
690.625	2555.11325
691.063	2552.19433
691.501	2615.41758
691.939	2458.47532
692.377	2481.26273
692.815	2546.33546
693.253	2358.12027
693.69	2429.72693
694.128	2353.22579
694.565	2312.07916
695.003	2276.46924
695.44	2303.07767
695.877	2253.02425
696.314	2236.50799
696.751	2209.82319
697.188	2175.91874
697.625	2106.72266
698.061	2147.05502
698.498	2063.94596
698.934	1980.94785
699.371	1946.86029
699.807	1903.84225
700.243	1888.92755
700.679	1870.58552
701.115	1829.73976
701.551	1842.73097
701.987	1794.45958
702.422	1796.81188
702.858	1822.82873
703.294	1726.59945
703.729	1752.84884
704.164	1633.66901
704.599	1659.4508
705.035	1620.43497
705.47	1555.65708
705.904	1554.48638
706.339	1554.45566
706.774	1559.53022
707.209	1474.42911
707.643	1499.54586
708.078	1444.54301
708.512	1406.60647
708.946	1402.40623
709.38	1369.38227
709.814	1283.1386
710.248	1369.47706
710.682	1331.37404
711.116	1328.41532
711.549	1215.40891
711.983	1218.12112
712.416	1266.25821
712.85	1230.33554
713.283	1187.14226
713.716	1145.21944
714.149	1052.91506
714.582	1073.87327
715.015	1009.99295
715.448	1081.17258
715.881	1048.73527
716.313	1075.96738
716.746	1020.92508
717.178	1029.97569
717.61	945.98215
718.043	918.86588
718.475	916.82552
718.907	908.87398
719.339	855.5931
719.77	866.71937
720.202	864.80699
720.634	849.74234
721.065	829.6248
721.497	803.65748
721.928	762.58296
722.359	787.62152
722.79	727.48703
723.221	640.38886
723.652	736.60823
724.083	661.27494
724.514	685.34725
724.945	685.37635
725.375	714.42448
725.806	656.4061
726.236	671.4954
726.666	638.30506
727.096	628.34254
727.526	617.40552
727.956	603.20188
728.386	603.29876
728.816	609.37891
729.246	557.22315
729.675	500.09389
730.105	532.15911
730.534	540.11278
730.964	513.14668
731.393	549.19343
731.822	481.11298
732.251	509.16203
732.68	499.02838
733.109	463.03389
733.537	508.11469
733.966	520.16451
734.395	528.08167
734.823	430.85689
735.251	427.93373
735.68	438.98222
736.108	386.88801
736.536	440.93184
736.964	450.94052
737.392	402.92185
737.82	428.92781
738.247	419.90811
738.675	375.80756
739.102	374.86076
739.53	423.99927
739.957	375.89996
740.384	365.80862
740.811	301.69983
741.238	374.84665
741.665	390.84076
742.092	280.60053
742.519	355.8172
742.945	376.84287
743.372	357.82213
743.798	303.72666
744.225	302.66531
744.651	296.69323
745.077	330.76527
745.503	294.6626
745.929	342.76856
746.355	301.68267
746.781	275.63383
747.207	324.71556
747.632	348.80285
748.058	354.82838
748.483	283.60736
748.908	291.68005
749.334	289.66848
749.759	318.70554
750.184	275.62321
750.609	268.61684
751.033	247.54153
751.458	278.57693
751.883	250.57978
752.307	252.55819
752.732	283.68206
753.156	196.45995
753.58	295.6473
754.005	251.59394
754.429	286.63508
754.853	239.56402
755.277	257.5746
755.7	247.57905
756.124	230.54226
756.548	237.52792
756.971	268.61413
757.394	201.48976
757.818	218.53564
758.241	217.52499
758.664	251.59876
759.087	247.52416
759.51	190.44657
759.933	197.45461
760.356	261.63689
760.778	269.62099
761.201	183.4213
761.623	180.40768
762.046	225.49517
762.468	254.57059
762.89	193.44769
763.312	269.61877
763.734	201.46107
764.156	209.49055
764.578	216.46388
765	212.4901
765.421	144.35475
765.843	242.59965
766.264	189.42467
766.686	174.41199
767.107	149.34659
767.528	178.43882
767.949	197.47607
768.37	234.54933
768.791	194.44118
769.212	142.34517
769.632	191.42599
770.053	161.40369
770.473	111.2581
770.894	139.32792
771.314	202.45024
771.734	170.37735
772.154	166.40517
772.575	173.37866
772.994	100.21837
773.414	214.47956
773.834	141.33702
774.254	152.35489
774.673	223.51645
775.093	200.47392
775.512	142.33714
775.931	179.43372
776.351	149.35709
776.77	128.30308
777.189	153.34759
777.607	145.35569
778.026	149.356
778.445	156.38034
778.864	139.33782
779.282	130.29684
779.701	135.32527
780.119	135.32945
780.537	118.28275
780.955	122.29656
781.373	132.31291
781.791	177.38217
782.209	111.23987
782.627	131.33261
783.045	129.2802
783.462	169.41211
783.88	123.30741
784.297	96.23371
784.715	118.2939
785.132	76.17703
785.549	102.2459
785.966	142.34245
786.383	120.28567
786.8	185.40577
787.217	151.34527
787.633	97.23663
788.05	169.37178
788.466	119.26475
788.883	146.36047
789.299	125.28398
789.715	185.42828
790.131	124.2961
790.547	112.26837
790.963	115.27372
791.379	133.32275
791.795	98.21201
792.21	86.19225
792.626	120.26991
793.041	124.29259
793.457	108.25464
793.872	136.30176
794.287	138.32018
794.702	140.32327
795.117	98.23599
795.532	89.21744
795.947	113.2563
796.362	92.20625
796.776	124.27089
797.191	111.26146
797.605	117.26678
798.02	59.13887
798.434	143.30161
798.848	124.29701
799.262	119.28313
799.676	103.2412
800.09	111.26166
800.504	89.20662
800.918	87.19147
801.331	29.07235
801.745	58.12778
802.158	96.22854
802.572	97.22581
802.985	92.21126
803.398	140.31619
803.811	48.11712
804.224	72.17048
804.637	89.20474
805.05	73.16127
805.462	107.25017
805.875	84.2112
806.288	54.12707
806.7	56.13475
807.112	117.25576
807.525	48.11273
807.937	102.24273
808.349	88.21038
808.761	100.23706
809.173	126.29268
809.584	88.20764
809.996	73.17202
810.408	90.22677
810.819	104.23431
811.231	148.37916
811.642	182.42843
812.053	145.33702
812.464	52.11898
812.875	61.1518
813.286	115.2868
813.697	100.21698
814.108	96.22344
814.519	136.28968
814.929	106.25825
815.34	51.11816
815.75	73.1808
816.16	8.01917
816.571	104.25838
816.981	97.2159
817.391	93.21274
817.801	49.11837
818.211	83.1891
818.62	57.13322
819.03	123.28622
819.44	24.05989
819.849	48.11567
820.259	31.07616
820.668	89.2111
821.077	61.14781
821.486	67.15296
821.895	91.21193
822.304	32.0823
822.713	59.13361
823.122	39.09404
823.531	32.07221
823.939	132.30723
824.348	72.16699
824.756	43.10357
825.164	83.19945
825.573	95.22872
825.981	123.28848
826.389	70.16888
826.797	88.21567
827.205	141.30836
827.612	40.09486
828.02	39.08788
828.428	83.20285
828.835	71.18187
829.243	59.13409
829.65	75.18091
830.057	75.17363
830.464	78.18491
830.871	61.14111
831.278	48.11198
831.685	89.18805
832.092	18.04229
832.499	78.16368
832.905	40.09727
833.312	62.13264
833.718	73.17622
834.124	97.21159
834.531	35.08449
834.937	75.18596
835.343	58.13329
835.749	44.0973
836.155	61.15433
836.561	67.15868
836.966	89.20719
837.372	30.07361
837.777	65.15649
838.183	90.18895
838.588	106.25312
838.993	66.15446
839.399	53.12552
839.804	34.08035
840.209	82.2032
840.613	67.14206
841.018	80.1933
841.423	74.18284
841.828	67.16405
842.232	68.15871
842.637	122.27621
843.041	20.0501
843.445	31.07466
843.849	62.14839
844.253	83.18772
844.657	78.19003
845.061	168.36391
845.465	73.16914
845.869	101.22303
846.272	57.13437
846.676	43.09828
847.079	61.15086
847.483	76.18128
847.886	133.30313
848.289	51.13369
848.692	34.08271
849.095	57.13086
849.498	82.19604
849.901	38.08302
850.304	80.18245
850.707	46.11282
851.109	78.18818
851.512	48.11405
851.914	41.10073
852.316	85.20867
852.718	94.2393
853.121	62.14613
853.523	61.13555
853.925	75.19056
854.326	50.1215
854.728	93.23016
855.13	68.17085
855.531	51.11756
855.933	93.21043
856.334	80.19301
856.736	70.15131
857.137	109.24291
857.538	92.22322
857.939	81.19479
858.34	71.16385
858.741	39.09836
859.142	70.16003
859.542	84.21483
859.943	45.10777
860.343	42.10118
860.744	57.13358
861.144	94.22103
861.544	74.17298
861.945	58.1422
862.345	38.08914
862.745	55.13267
863.145	11.02493
863.544	76.18502
863.944	71.16032
864.344	37.08746
864.743	118.27767
865.143	74.18452
865.542	36.07918
865.941	45.10785
866.34	39.08867
866.74	40.10427
867.139	118.27215
867.537	33.08038
867.936	84.19404
868.335	60.14656
868.734	71.17482
869.132	35.07716
869.531	55.12602
869.929	55.12074
870.327	51.11746
870.726	61.14447
871.124	71.15704
871.522	37.09077
871.92	82.19349
872.318	80.18547
872.715	58.13569
873.113	33.0771
873.511	58.1384
873.908	66.16313
874.306	118.28167
874.703	29.0694
875.1	19.0464
875.497	73.16659
875.894	75.17961
876.291	61.14408
876.688	29.07259
877.085	74.16836
877.482	77.18454
877.878	67.15683
878.275	30.07399
878.671	38.07833
879.068	100.22944
879.464	43.09994
879.86	49.11123
880.256	48.11198
880.652	66.16128
881.048	95.22185
881.444	58.13014
881.84	31.07608
882.236	47.11371
882.631	69.16329
883.027	31.07202
883.422	28.06883
883.817	37.0906
884.213	42.10416
884.608	96.22994
885.003	53.12153
885.398	26.06304
885.793	51.12265
886.188	40.0957
886.582	61.14898
886.977	80.17965
887.371	51.12325
887.766	49.11815
888.16	20.04741
888.554	57.13426
888.949	71.17081
889.343	50.11665
889.737	37.0966
890.131	48.11602
890.525	61.15125
890.918	62.14975
891.312	67.15154
891.706	18.04574
892.099	71.17275
892.492	51.10412
892.886	59.13811
893.279	82.19955
893.672	42.104
894.065	107.25546
894.458	-1.00242
894.851	33.07734
895.244	45.1108
895.637	48.1115
896.029	60.14174
896.422	35.08129
896.814	21.05031
897.206	90.20724
897.599	111.26044
897.991	88.20434
898.383	20.04572
898.775	113.24399
899.167	63.14284
899.559	34.08231
899.951	68.15151
900.342	73.17615
900.734	66.16128
901.125	68.17036
901.517	58.13696
901.908	48.10863
902.299	56.13193
902.69	122.27486
903.082	64.14843
903.473	72.16771
903.863	35.08573
904.254	99.2209
904.645	24.05687
905.036	50.1189
905.426	104.22133
905.817	69.16088
906.207	-33.07576
906.597	82.18474
906.987	41.10169
907.378	83.20217
907.768	73.1864
908.158	37.08664
908.547	72.18148
908.937	11.02702
909.327	95.21897
909.717	45.10814
910.106	57.13049
910.495	46.10913
910.885	44.10776
911.274	56.13424
911.663	43.10415
912.052	65.15168
912.441	32.07933
912.83	65.14113
913.219	66.16546
913.608	78.18341
913.997	52.12678
914.385	97.22019
914.774	57.13275
915.162	65.15006
915.55	24.05553
915.939	26.06403
916.327	20.04785
916.715	98.24258
917.103	45.10447
917.491	60.1418
917.878	62.14567
918.266	61.15152
918.654	100.24608
919.041	70.17827
919.429	60.1354
919.816	47.11457
920.203	117.27183
920.591	66.15724
920.978	113.26244
921.365	60.15237
921.752	41.09228
922.139	75.15443
922.525	79.18188
922.912	50.11656
923.299	35.08404
923.685	16.04011
924.072	-5.01086
924.458	71.16932
924.844	23.05504
925.231	38.084
925.617	57.14117
926.003	65.15898
926.389	45.10929
926.774	32.07799
927.16	55.13086
927.546	61.15241
927.931	53.12615
928.317	28.06145
928.702	78.1748
929.088	92.21202
929.473	87.21366
929.858	80.1884
930.243	69.16019
930.628	75.17645
931.013	73.17349
931.398	61.13126
931.783	40.10061
932.167	97.22839
932.552	47.1129
932.937	93.21846
933.321	80.19388
933.705	-1.00242
934.09	27.06444
934.474	43.0969
934.858	76.18971
935.242	64.141
935.626	74.18277
936.009	58.15052
936.393	81.20039
936.777	55.13652
937.16	64.16166
937.544	32.07115
937.927	52.12782
938.311	56.12998
938.694	104.26392
939.077	65.14875
939.46	21.04858
939.843	3.00585
940.226	20.0494
940.609	94.20735
940.991	31.07571
941.374	112.2616
941.757	17.04035
942.139	69.14815
942.522	50.11233
942.904	86.19692
943.286	27.06604
943.668	98.24551
944.05	59.13951
944.432	42.09926
944.814	42.09837
945.196	32.07586
945.578	77.17791
945.959	12.02681
946.341	79.18115
946.722	74.16433
947.104	67.15308
947.485	87.19235
947.866	42.10294
948.247	82.20007
948.628	42.09633
949.009	12.02981
949.39	53.12576
949.771	48.10402
950.152	37.08756
950.532	85.20581
950.913	70.16093
951.293	58.15284
951.674	49.11371
952.054	110.26448
952.434	86.20418
952.814	33.07449
953.194	29.0724
953.574	45.10591
953.954	38.08561
954.334	73.17595
954.714	50.11766
955.093	69.16215
955.473	91.21984
955.853	48.1199
956.232	41.10872
956.611	58.1311
956.99	74.17894
957.37	75.18173
957.749	36.08104
958.128	62.15099
958.506	12.03029
958.885	33.08002
959.264	57.13593
959.643	116.25063
960.021	91.21676
960.4	71.15271
960.778	22.05143
961.156	27.06505
961.535	49.10798
961.913	84.18801
962.291	89.22156
962.669	88.21431
963.047	83.20399
963.424	110.27139
963.802	63.1488
964.18	34.08147
964.557	65.14173
964.935	88.19777
965.312	61.15389
965.69	38.09067
966.067	43.09927
966.444	13.03032
966.821	51.12682
967.198	34.07826
967.575	66.15398
967.952	105.23322
968.329	95.22142
968.705	131.26452
969.082	80.19962
969.458	53.12377
969.835	67.15585
970.211	65.16216
970.587	67.16015
970.963	46.11257
971.339	9.02296
971.715	110.26157
972.091	70.16459
972.467	36.08508
972.843	80.19221
973.219	17.0389
973.594	51.12871
973.97	54.11932
974.345	46.10614
974.721	26.05961
975.096	54.12638
975.471	31.07031
975.846	56.12766
976.221	63.15386
976.596	61.14251
976.971	82.19476
977.346	76.16659
977.72	31.07582
978.095	39.09719
978.469	65.14731
978.844	42.10091
979.218	84.19505
979.593	76.17249
979.967	28.06432
980.341	60.13246
980.715	77.18616
981.089	60.14388
981.463	64.13999
981.837	70.16575
982.21	8.01741
982.584	80.1851
982.957	21.05104
983.331	36.08028
983.704	81.19257
984.078	82.19236
984.451	21.0495
984.824	45.10604
985.197	-35.08145
985.57	50.11835
985.943	14.03273
986.316	77.17713
986.688	60.138
987.061	117.25976
987.434	85.21528
987.806	35.08026
988.179	100.22234
988.551	56.13572
988.923	15.03544
989.295	75.17797
989.667	43.10026
990.039	122.29088
990.411	20.04347
990.783	46.09964
991.155	37.0859
991.527	64.14743
991.898	86.2056
992.27	55.13197
992.641	47.11247
993.012	10.02203
993.384	63.14261
993.755	25.06201
994.126	54.12559
994.497	18.04267
994.868	45.09746
995.239	48.1111
995.61	57.13786
995.98	8.01874
996.351	33.07936
996.722	76.16982
997.092	56.12756
997.462	44.09982
997.833	72.16082
998.203	-4.00923
998.573	33.07954
998.943	65.14623
999.313	70.16112
999.683	70.16093
1000.053	12.02588
1000.423	55.12683
1000.792	-9.02242
1001.162	20.04712
1001.531	37.08793
1001.901	23.055
1002.27	66.13679
1002.639	12.02944
1003.009	21.04792
1003.378	21.05205
1003.747	35.07871
1004.116	46.10521
1004.485	32.07339
1004.853	25.06021
1005.222	1.0024
1005.591	87.19525
1005.959	17.03699
1006.328	66.1418
1006.696	-10.02326
1007.064	26.06242
1007.433	22.05258
1007.801	16.03717
1008.169	28.0674
1008.537	107.22231
1008.905	66.14766
1009.273	43.10109
1009.64	84.19335
1010.008	64.14513
1010.375	58.1319
1010.743	47.1
1011.11	120.27367
1011.478	40.09592
1011.845	77.17089
1012.212	102.22066
1012.579	66.15519
1012.946	35.07884
1013.313	89.19883
1013.68	79.16692
1014.047	25.05726
1014.414	14.03177
1014.78	64.15295
1015.147	40.09148
1015.513	52.11988
1015.88	67.16277
1016.246	52.12122
1016.612	50.10803
1016.978	101.23661
1017.344	78.18433
1017.71	52.12041
1018.076	17.03809
1018.442	89.21946
1018.808	71.17152
1019.174	24.05768
1019.539	-3.00635
1019.905	70.15816
1020.27	30.07109
1020.636	6.01367
1021.001	84.1918
1021.366	72.16566
1021.731	128.31696
1022.096	34.08355
1022.461	105.23564
1022.826	72.1644
1023.191	22.05593
1023.556	47.10457
1023.92	39.09108
1024.285	19.04413
1024.649	31.07251
1025.014	50.11716
1025.378	79.19106
1025.742	93.21744
1026.107	76.16209
1026.471	80.17573
1026.835	83.19604
1027.199	59.13605
1027.562	96.2083
1027.926	48.11163
1028.29	72.1745
1028.654	138.29547
1029.017	70.16479
1029.381	56.12833
1029.744	36.08856
1030.107	130.28893
1030.471	81.18551
1030.834	77.16283
1031.197	130.2942
1031.56	42.0942
1031.923	62.15426
1032.286	69.15402
1032.648	55.12358
1033.011	107.23529
1033.374	82.18043
1033.736	61.1545
1034.099	48.11221
1034.461	83.20202
1034.823	41.09864
1035.185	48.1148
1035.548	73.17028
1035.91	62.14128
1036.272	104.22441
1036.634	83.19299
1036.995	47.10457
1037.357	55.1288
1037.719	68.15808
1038.08	81.18439
1038.442	107.23934
1038.803	29.06564
1039.165	54.12999
1039.526	70.16138
1039.887	38.08701
1040.248	60.14415
1040.609	63.14695
1040.97	65.15108
1041.331	81.19738
1041.692	87.19645
1042.053	95.20248
1042.413	46.10156
1042.774	109.25144
1043.134	99.21953
1043.495	88.21062
1043.855	113.26233
1044.215	53.12518
1044.576	52.11984
1044.936	53.11488
1045.296	83.19725
1045.656	24.05599
1046.016	75.17108
1046.375	86.19819
1046.735	84.1839
1047.095	106.23422
1047.454	89.17451
1047.814	46.10597
1048.173	53.11889
1048.533	49.10698
1048.892	3.00699
1049.251	71.1688
1049.61	39.09233
1049.969	-3.0068
1050.328	91.18544
1050.687	25.05806
1051.046	65.1503
1051.405	-3.00715
1051.763	90.1982
1052.122	34.08141
1052.48	50.11784
1052.839	133.29934
1053.197	76.16961
1053.555	63.13294
1053.914	40.09347
1054.272	35.07919
1054.63	36.08478
1054.988	81.18477
1055.345	32.06451
1055.703	91.20816
1056.061	57.14262
1056.419	74.18679
1056.776	5.01148
1057.134	43.09312
1057.491	48.11541
1057.848	47.11144
1058.206	12.02666
1058.563	85.17597
1058.92	66.14364
1059.277	88.20635
1059.634	88.19282
1059.991	136.3069
1060.348	61.1316
1060.704	92.2132
1061.061	89.19118
1061.418	39.09086
1061.774	22.05233
1062.131	79.2037
1062.487	46.10198
1062.843	1.00241
1063.199	32.07662
1063.555	64.14254
1063.911	22.05322
1064.267	94.17999
1064.623	32.07562
1064.979	28.06104
1065.335	58.13083
1065.691	15.03401
1066.046	41.08545
1066.402	11.0238
1066.757	50.12122
1067.112	76.17668
1067.468	53.12134
1067.823	13.0294
1068.178	66.15095
1068.533	86.19787
1068.888	81.18253
1069.243	19.04521
1069.598	39.09015
1069.952	86.18756
1070.307	42.10041
1070.662	54.1242
1071.016	131.27909
1071.371	89.19241
1071.725	60.13534
1072.079	36.08323
1072.434	25.05868
1072.788	27.06074
1073.142	80.18759
1073.496	71.15967
1073.85	44.0971
1074.203	112.25708
1074.557	62.16078
1074.911	53.11968
1075.265	37.08211
1075.618	89.20662
1075.971	58.13131
1076.325	35.08643
1076.678	22.04827
1077.031	30.06334
1077.385	54.11222
1077.738	10.02159
1078.091	26.05721
1078.444	47.10257
1078.796	33.07837
1079.149	70.16665
1079.502	61.13847
1079.855	33.07379
1080.207	67.15683
1080.56	57.14257
1080.912	84.19381
1081.264	70.16132
1081.617	65.15185
1081.969	35.08561
1082.321	31.07239
1082.673	73.16086
1083.025	19.04299
1083.377	15.03384
1083.728	41.09076
1084.08	16.03825
1084.432	73.16672
1084.783	53.11566
1085.135	56.13521
1085.486	59.1293
1085.838	66.15585
1086.189	78.18197
1086.54	52.11792
1086.891	80.1973
1087.242	98.2307
1087.593	32.07348
1087.944	119.25529
1088.295	64.13751
1088.646	94.22077
1088.996	56.12983
1089.347	58.13505
1089.698	60.13695
1090.048	42.10435
1090.398	48.10526
1090.749	79.17758
1091.099	57.13936
1091.449	100.2377
1091.799	71.16971
1092.149	19.04538
1092.499	79.18347
1092.849	34.08342
1093.199	44.10479
1093.548	76.17591
1093.898	33.07906
1094.248	40.09785
1094.597	25.06253
1094.947	38.09824
1095.296	50.11908
1095.645	31.07745
1095.994	74.16904
1096.343	55.13327
1096.692	68.17476
1097.041	66.17521
1097.39	9.02168
1097.739	23.05776
1098.088	43.11038
1098.437	48.12358
1098.785	18.04668
1099.134	7.01773
1099.482	76.20216
1099.83	88.22141
1100.179	86.21925
1100.527	-15.03838
1100.875	54.13878
1101.223	85.21811
1101.571	11.02949
1101.919	34.08799
1102.267	46.12688
1102.615	17.05451
1102.962	8.02564
1103.31	6.01926
1103.658	6.01922
