Data from N3 R2 sample 7_Subt2__0__10-16-05-376.txt Node

Date: Thu Sep 18 10:16:05 PDT 2025
User: uwsun
Spectrometer: HDX01956
Trigger mode: 0
Integration Time (sec): 5.000000E-1
Scans to average: 1
Nonlinearity correction enabled: true
Boxcar width: 0
Storing dark spectrum: false
XAxis mode: Wavelengths
Number of Pixels in Spectrum: 2068
>>>>>Begin Spectral Data<<<<<
194.03	55.15839
194.578	56.18089
195.127	63.20047
195.676	61.19485
196.225	62.16388
196.773	93.25616
197.321	145.39684
197.87	187.47427
198.418	204.51968
198.966	220.57166
199.513	212.53241
200.061	172.43476
200.609	216.56223
201.156	185.40184
201.704	195.48611
202.251	193.5083
202.798	207.5302
203.345	245.59585
203.892	210.52455
204.438	205.4806
204.985	199.46818
205.532	207.53798
206.078	214.51569
206.624	233.57598
207.17	289.65972
207.716	227.54898
208.262	265.51199
208.808	252.62168
209.354	244.5933
209.899	216.53641
210.445	245.6023
210.99	260.62177
211.535	278.63934
212.08	193.44414
212.625	241.59116
213.17	303.75062
213.715	264.59013
214.259	262.59845
214.804	236.56826
215.348	249.56475
215.892	257.61143
216.436	182.41204
216.98	235.50587
217.524	237.55713
218.068	221.54992
218.612	283.70186
219.155	260.60082
219.698	217.50853
220.242	211.51278
220.785	277.63335
221.328	179.43812
221.871	268.66649
222.414	190.46409
222.956	186.43955
223.499	185.40731
224.041	200.44966
224.583	214.44193
225.126	219.47062
225.668	223.53116
226.21	203.50642
226.751	285.61429
227.293	206.45745
227.835	206.49679
228.376	172.38655
228.918	179.44007
229.459	196.48195
230	221.52074
230.541	208.46956
231.082	241.57337
231.622	165.36922
232.163	157.3754
232.704	217.53348
233.244	199.48598
233.784	213.50598
234.324	238.52345
234.864	171.38186
235.404	192.44475
235.944	204.47161
236.484	223.54539
237.023	191.44322
237.563	267.60262
238.102	202.46958
238.641	158.39338
239.18	194.44867
239.719	210.51618
240.258	277.60166
240.797	190.44744
241.335	206.49171
241.874	249.47138
242.412	231.54958
242.95	226.53531
243.488	176.39002
244.026	250.5669
244.564	267.53194
245.102	267.58759
245.64	219.51181
246.177	177.38806
246.715	215.5068
247.252	189.42223
247.789	233.42017
248.326	219.51783
248.863	221.47656
249.4	243.5368
249.936	332.66468
250.473	282.6462
251.009	205.461
251.546	249.54223
252.082	193.40993
252.618	256.55688
253.154	237.55757
253.69	192.42405
254.226	275.63888
254.761	268.58323
255.297	207.44369
255.832	234.54439
256.367	232.53292
256.903	248.53764
257.438	218.50077
257.972	227.49432
258.507	205.46194
259.042	278.58492
259.576	281.60255
260.111	256.5713
260.645	256.53721
261.179	262.59701
261.713	290.62735
262.247	211.47254
262.781	241.49557
263.315	225.53407
263.849	221.54291
264.382	250.55907
264.915	257.59259
265.449	206.49453
265.982	275.6052
266.515	259.61879
267.048	262.53911
267.58	219.46231
268.113	237.5003
268.646	225.53901
269.178	268.58075
269.71	268.57579
270.243	253.57172
270.775	290.72197
271.307	192.44951
271.838	303.68944
272.37	255.60854
272.902	219.48601
273.433	282.60561
273.965	222.52868
274.496	234.56707
275.027	264.64
275.558	257.61167
276.089	256.62411
276.62	230.56742
277.15	231.5557
277.681	229.48151
278.211	259.61453
278.741	231.50239
279.272	341.74696
279.802	268.64799
280.332	238.54977
280.861	234.54697
281.391	218.48631
281.921	254.59115
282.45	255.61598
282.98	269.68244
283.509	300.65951
284.038	268.59635
284.567	252.5726
285.096	278.65515
285.625	221.48739
286.153	286.66325
286.682	300.66616
287.21	226.52703
287.739	283.64811
288.267	274.64899
288.795	246.62797
289.323	229.52761
289.851	314.71259
290.378	179.39477
290.906	281.66826
291.433	279.67573
291.961	285.63167
292.488	270.65135
293.015	300.68551
293.542	358.88342
294.069	302.72495
294.596	289.68411
295.122	298.69244
295.649	278.58955
296.175	291.67818
296.702	321.7575
297.228	250.58757
297.754	284.61962
298.28	286.63904
298.806	274.64246
299.332	276.60089
299.857	324.70898
300.383	308.74889
300.908	316.75105
301.433	333.78642
301.958	289.64214
302.483	268.64701
303.008	367.87407
303.533	276.69286
304.058	259.58862
304.582	304.69521
305.107	270.6851
305.631	299.6558
306.155	326.73171
306.679	323.73286
307.203	320.71677
307.727	291.66937
308.251	331.78714
308.775	352.82306
309.298	314.73221
309.822	278.67975
310.345	369.84399
310.868	336.78072
311.391	331.78593
311.914	318.77059
312.437	378.82398
312.96	331.75162
313.482	318.72137
314.005	305.73729
314.527	291.7351
315.049	383.92683
315.571	359.77443
316.093	394.93025
316.615	299.69573
317.137	342.71608
317.659	375.86839
318.18	321.73836
318.702	380.85078
319.223	381.73753
319.744	434.92154
320.265	373.87061
320.786	396.94474
321.307	333.79372
321.828	404.86533
322.348	410.91642
322.869	407.92265
323.389	732.24812
323.909	388.8447
324.43	393.8949
324.95	424.91874
325.47	407.96186
325.989	403.91062
326.509	434.91873
327.029	462.9921
327.548	405.87253
328.067	474.07961
328.587	490.15153
329.106	403.863
329.625	415.02642
330.144	482.04867
330.662	446.98987
331.181	497.09486
331.7	455.99578
332.218	483.97929
332.736	485.06213
333.255	501.10092
333.773	473.04713
334.291	513.19793
334.808	525.09661
335.326	516.07516
335.844	534.16544
336.361	559.33555
336.879	521.14111
337.396	586.31306
337.913	500.07868
338.43	540.12575
338.947	549.21415
339.464	590.16093
339.981	538.18261
340.497	556.26464
341.014	577.29578
341.53	558.15922
342.046	696.56872
342.562	637.44704
343.078	660.40434
343.594	630.36308
344.11	676.46147
344.626	608.40977
345.141	627.30424
345.657	687.3937
346.172	640.40536
346.687	634.32028
347.202	676.39039
347.717	712.52035
348.232	678.52813
348.747	724.49058
349.261	696.36602
349.776	741.56902
350.29	735.64892
350.805	713.58187
351.319	709.47373
351.833	712.46584
352.347	720.52019
352.861	754.5698
353.374	775.54957
353.888	780.68937
354.401	728.47329
354.915	756.51118
355.428	794.75037
355.941	772.58666
356.454	782.52426
356.967	747.54522
357.48	752.50665
357.993	843.81077
358.505	786.68719
359.018	892.8894
359.53	849.80882
360.042	841.63129
360.554	882.87146
361.066	847.79598
361.578	848.6187
362.09	860.77484
362.602	885.69148
363.113	911.83863
363.625	936.80334
364.136	862.6272
364.647	974.95379
365.158	971.90708
365.669	946.92284
366.18	890.80236
366.691	881.65055
367.201	970.96899
367.712	992.90409
368.222	933.82806
368.733	1038.85619
369.243	1022.89599
369.753	981.90055
370.263	1059.12537
370.773	959.98417
371.282	1065.10709
371.792	1090.07106
372.301	1091.17066
372.811	1086.38235
373.32	1186.03163
373.829	1172.22406
374.338	1195.10434
374.847	1217.22999
375.356	1211.27662
375.865	1371.2093
376.373	1350.34966
376.882	1423.77519
377.39	1445.63884
377.898	1460.71758
378.407	1555.55871
378.915	1661.53067
379.423	1617.6951
379.93	1723.79117
380.438	1766.95115
380.946	1898.93146
381.453	1955.10088
381.96	2068.15731
382.468	2187.15535
382.975	2337.43035
383.482	2309.98328
383.989	2415.72502
384.495	2502.24348
385.002	2670.7537
385.509	2785.41894
386.015	2993.60747
386.521	3141.13972
387.028	3153.12324
387.534	3316.74779
388.04	3497.41842
388.546	3491.87243
389.051	3757.75461
389.557	4025.9486
390.063	4093.74718
390.568	4292.07155
391.073	4503.41597
391.578	4699.96472
392.084	4842.37758
392.589	5129.88857
393.093	5645.27738
393.598	6079.81752
394.103	6465.92271
394.607	7284.97587
395.112	7595.18208
395.616	7945.31388
396.12	8624.83108
396.624	9645.82987
397.128	10315.69131
397.632	11363.83478
398.136	12316.00406
398.639	13426.21615
399.143	15645.96844
399.646	17287.18528
400.15	18985.36072
400.653	21683.89037
401.156	24519.10082
401.659	28279.98022
402.162	36351.09597
402.664	52592.81662
403.167	62478.3991
403.67	63769.22307
404.172	63919.58413
404.674	63858.43483
405.176	63738.15102
405.678	63977.72923
406.18	64011.81569
406.682	63863.44694
407.184	63926.60148
407.686	63841.39382
408.187	64025.8516
408.688	63892.51763
409.19	60918.05849
409.691	50902.5426
410.192	43635.31139
410.693	38864.23488
411.194	36385.59846
411.694	34426.14392
412.195	31395.834
412.696	29080.24515
413.196	28484.64791
413.696	28623.54384
414.196	28499.83266
414.696	27063.37446
415.196	25130.88051
415.696	20774.22449
416.196	15826.92522
416.695	13356.69313
417.195	12500.75703
417.694	11980.80689
418.194	10945.47981
418.693	10437.20704
419.192	10304.69497
419.691	10126.15888
420.19	9884.43396
420.688	9546.6109
421.187	8928.22016
421.685	8216.38198
422.184	7328.88975
422.682	6161.46809
423.18	5460.08343
423.678	5014.28008
424.176	4674.45822
424.674	4593.33154
425.172	4209.89865
425.669	3856.34907
426.167	3563.07734
426.664	3305.00782
427.161	3091.12086
427.659	2833.43895
428.156	2673.74081
428.652	2504.58788
429.149	2534.38827
429.646	2352.9097
430.143	2250.21221
430.639	2185.12568
431.135	1993.2561
431.632	1864.78061
432.128	1740.87602
432.624	1712.1392
433.12	1602.56532
433.616	1657.47727
434.111	1605.70682
434.607	1538.66617
435.103	1412.12929
435.598	1438.1342
436.093	1321.33444
436.588	1349.26763
437.083	1211.09839
437.578	1233.21207
438.073	1167.33928
438.568	1139.25065
439.062	1123.88195
439.557	1019.94615
440.051	992.82017
440.546	1006.86255
441.04	1012.99749
441.534	950.00713
442.028	986.96427
442.522	936.87749
443.015	838.51009
443.509	903.85159
444.002	874.81584
444.496	846.54087
444.989	872.794
445.482	840.78075
445.975	897.73677
446.468	846.53776
446.961	856.55755
447.454	770.48236
447.947	804.64805
448.439	802.6957
448.931	830.61796
449.424	809.78011
449.916	763.61634
450.408	786.54004
450.9	758.59841
451.392	728.62352
451.884	687.38355
452.375	669.46757
452.867	714.3935
453.358	677.3615
453.849	708.30927
454.341	682.34795
454.832	635.20829
455.323	704.54344
455.814	638.29091
456.304	678.37698
456.795	617.25207
457.285	637.23563
457.776	658.31929
458.266	616.30322
458.756	539.15277
459.247	582.25052
459.737	623.34418
460.226	623.25966
460.716	582.24944
461.206	579.24433
461.695	568.26693
462.185	559.19665
462.674	518.07407
463.163	609.21274
463.653	613.15164
464.142	536.17821
464.63	543.19087
465.119	488.03654
465.608	560.18096
466.096	497.98005
466.585	519.07351
467.073	474.02424
467.561	462.01869
468.05	477.00366
468.538	423.96008
469.026	404.89221
469.513	468.90097
470.001	488.02212
470.489	511.10457
470.976	475.01611
471.463	449.03183
471.951	408.94497
472.438	378.83061
472.925	431.93929
473.412	400.90476
473.899	391.83586
474.385	402.91779
474.872	343.75356
475.359	380.87561
475.845	397.76151
476.331	353.70394
476.817	379.86372
477.303	385.8355
477.789	306.6919
478.275	343.80343
478.761	321.72122
479.247	338.70958
479.732	314.744
480.218	331.82266
480.703	324.75582
481.188	314.64291
481.673	278.61013
482.158	342.69484
482.643	336.81236
483.128	351.77016
483.612	331.74582
484.097	307.70278
484.581	284.62644
485.066	325.75413
485.55	243.51679
486.034	247.51409
486.518	287.65568
487.002	223.52341
487.486	251.58498
487.969	234.54783
488.453	260.62035
488.936	225.48872
489.42	267.56462
489.903	199.48036
490.386	169.34093
490.869	233.49186
491.352	226.52454
491.835	240.47114
492.318	176.38547
492.8	225.4491
493.283	248.60911
493.765	233.55072
494.247	246.55012
494.73	240.51075
495.212	197.45298
495.694	212.48386
496.175	212.49341
496.657	211.48362
497.139	172.28711
497.62	188.43997
498.102	172.41793
498.583	113.2736
499.064	180.3909
499.545	225.49475
500.026	210.46012
500.507	209.46575
500.988	181.44087
501.469	150.36612
501.949	222.52969
502.43	213.4972
502.91	256.52036
503.39	158.38305
503.87	184.42369
504.35	146.33485
504.83	190.40364
505.31	153.36108
505.79	113.26358
506.269	125.28248
506.749	132.29666
507.228	137.31704
507.707	187.40601
508.187	189.43945
508.666	145.35266
509.145	114.26324
509.623	140.32199
510.102	157.37181
510.581	160.37782
511.059	177.43483
511.538	132.33473
512.016	181.42284
512.494	140.33047
512.972	151.35456
513.45	164.37416
513.928	130.31126
514.406	167.40053
514.884	128.32516
515.361	150.35215
515.839	200.44745
516.316	180.42686
516.793	116.28903
517.27	144.34004
517.747	141.35571
518.224	136.30816
518.701	107.234
519.178	207.50306
519.654	149.34618
520.131	138.3362
520.607	94.22764
521.083	180.39739
521.56	144.3333
522.036	89.1925
522.512	198.47551
522.987	189.44361
523.463	139.32397
523.939	180.43622
524.414	150.3367
524.89	155.36268
525.365	129.28712
525.84	130.30793
526.315	144.34281
526.79	154.34056
527.265	185.41671
527.74	141.33637
528.215	119.27396
528.689	112.24271
529.164	91.19379
529.638	67.16915
530.112	63.14788
530.587	155.32505
531.061	123.29377
531.534	153.36164
532.008	143.34193
532.482	149.33617
532.956	103.26013
533.429	153.36752
533.903	150.32242
534.376	161.34837
534.849	121.27456
535.322	134.31127
535.795	92.22045
536.268	112.26817
536.741	76.17961
537.213	121.27456
537.686	111.26866
538.158	144.32203
538.631	134.31961
539.103	147.32623
539.575	107.21814
540.047	113.24367
540.519	161.37686
540.991	115.27719
541.463	132.31279
541.934	90.2021
542.406	136.3219
542.877	100.22391
543.348	116.277
543.82	129.30928
544.291	182.41473
544.762	115.27088
545.233	150.37374
545.703	145.31737
546.174	102.23469
546.645	82.19761
547.115	105.25136
547.585	98.22386
548.056	137.33233
548.526	179.41571
548.996	118.27908
549.466	133.31887
549.935	162.38002
550.405	133.28852
550.875	142.33232
551.344	94.22283
551.814	172.38608
552.283	185.39448
552.752	153.35294
553.221	174.37658
553.69	184.4069
554.159	173.42233
554.628	178.39544
555.096	170.42434
555.565	105.23079
556.033	192.4474
556.502	128.3053
556.97	175.38158
557.438	115.26761
557.906	127.29635
558.374	162.36915
558.842	124.29395
559.31	119.26409
559.777	109.26441
560.245	93.2124
560.712	107.24329
561.18	146.31855
561.647	82.18157
562.114	144.32535
562.581	113.27556
563.048	82.18746
563.514	158.38981
563.981	104.2367
564.448	111.249
564.914	94.21723
565.381	147.33098
565.847	69.16069
566.313	88.20337
566.779	121.26965
567.245	103.23685
567.711	103.24478
568.176	124.27536
568.642	88.22046
569.108	87.21287
569.573	79.18239
570.038	147.30269
570.504	122.27295
570.969	68.1682
571.434	94.20796
571.899	117.27462
572.363	114.25925
572.828	166.37445
573.293	123.27898
573.757	136.31166
574.222	156.34383
574.686	165.37257
575.15	105.25097
575.614	177.40944
576.078	116.26978
576.542	115.25989
577.006	153.34025
577.469	178.42829
577.933	166.37138
578.396	122.28619
578.86	181.41669
579.323	149.35355
579.786	146.31233
580.249	197.45298
580.712	133.31911
581.175	149.3613
581.637	160.35855
582.1	158.33844
582.563	145.30368
583.025	154.36844
583.487	218.43543
583.95	206.42942
584.412	252.50966
584.874	203.48223
585.336	237.54386
585.797	271.56554
586.259	213.48428
586.721	258.5829
587.182	251.55771
587.643	272.59319
588.105	286.64695
588.566	309.6119
589.027	349.80948
589.488	338.73461
589.949	367.84043
590.41	409.74971
590.87	414.88291
591.331	474.94984
591.791	478.0157
592.252	513.08903
592.712	433.96442
593.172	530.09263
593.632	571.13799
594.092	609.20542
594.552	626.19663
595.011	618.25781
595.471	671.33516
595.931	722.41313
596.39	737.54015
596.849	757.52122
597.308	843.49705
597.768	894.96267
598.227	949.89179
598.685	972.8102
599.144	1047.9949
599.603	1111.06061
600.062	1151.86005
600.52	1295.19752
600.978	1305.33699
601.437	1385.31219
601.895	1504.24664
602.353	1659.44785
602.811	1684.56238
603.269	1795.84958
603.727	1891.9634
604.184	2024.82798
604.642	2067.19322
605.099	2220.03521
605.557	2337.28403
606.014	2425.71817
606.471	2592.55762
606.928	2706.906
607.385	2871.61006
607.842	2913.07496
608.299	3033.17959
608.755	3205.38932
609.212	3309.85741
609.668	3387.90554
610.125	3535.28987
610.581	3696.04936
611.037	3784.71651
611.493	3866.9503
611.949	3921.24131
612.405	4042.02541
612.861	4080.75064
613.316	4138.01722
613.772	4346.58981
614.227	4442.89053
614.683	4475.01163
615.138	4529.6554
615.593	4512.58908
616.048	4640.41669
616.503	4593.87784
616.958	4612.11969
617.412	4602.70625
617.867	4571.3042
618.321	4595.77895
618.776	4539.21253
619.23	4473.67137
619.684	4434.35232
620.138	4393.54463
620.592	4444.94585
621.046	4425.76135
621.5	4238.98895
621.954	4218.40485
622.407	4083.47442
622.861	4102.11792
623.314	4105.61535
623.768	3969.97637
624.221	3935.86851
624.674	3919.84161
625.127	3759.94911
625.58	3734.72643
626.033	3719.5655
626.485	3666.17725
626.938	3679.14276
627.39	3582.04996
627.843	3526.97156
628.295	3466.98955
628.747	3533.1961
629.199	3448.91406
629.651	3430.96329
630.103	3443.96223
630.555	3395.46989
631.006	3372.06408
631.458	3366.14321
631.909	3368.82916
632.361	3435.99568
632.812	3506.99878
633.263	3412.63139
633.714	3378.49788
634.165	3485.23576
634.616	3408.15957
635.067	3525.67461
635.518	3653.1078
635.968	3678.96958
636.419	3772.52958
636.869	3805.04459
637.319	3894.86911
637.769	3914.64863
638.219	4004.9326
638.669	4055.96338
639.119	4223.92939
639.569	4338.8918
640.019	4447.56116
640.468	4547.29789
640.918	4672.62304
641.367	4824.12978
641.816	4940.01633
642.265	5062.28795
642.714	5200.08431
643.163	5344.06676
643.612	5563.39036
644.061	5478.49364
644.51	5733.81893
644.958	5828.53747
645.406	5926.02354
645.855	6086.07255
646.303	6185.69774
646.751	6259.6898
647.199	6349.53575
647.647	6536.65194
648.095	6573.53477
648.543	6711.95513
648.99	6866.83607
649.438	6752.60377
649.885	6924.07872
650.333	6930.84184
650.78	6962.87284
651.227	6847.95571
651.674	6904.5366
652.121	6854.97297
652.568	6940.96035
653.015	6896.02149
653.461	6936.76964
653.908	6772.56135
654.354	6795.77732
654.801	6693.69084
655.247	6699.24747
655.693	6572.44759
656.139	6637.80356
656.585	6487.83373
657.031	6417.74724
657.477	6360.32232
657.922	6269.56393
658.368	6203.11444
658.813	6226.57487
659.259	6170.03064
659.704	6198.86435
660.149	6075.71157
660.594	5978.94587
661.039	5973.67288
661.484	5877.97056
661.929	5821.8995
662.373	5715.48999
662.818	5812.32308
663.262	5736.18905
663.707	5636.64645
664.151	5593.31841
664.595	5565.27369
665.039	5622.44378
665.483	5652.63502
665.927	5605.02487
666.371	5665.02154
666.814	5562.13516
667.258	5596.2315
667.701	5558.42327
668.145	5646.45254
668.588	5629.42818
669.031	5571.05874
669.474	5565.20627
669.917	5670.53645
670.36	5689.4548
670.803	5776.1586
671.245	5705.12721
671.688	5684.25219
672.13	5681.73798
672.573	5755.51237
673.015	5780.1394
673.457	5829.43083
673.899	5824.13941
674.341	5808.11502
674.783	5892.04077
675.225	5879.24804
675.666	5890.20233
676.108	5927.35298
676.549	6027.78194
676.991	5910.44752
677.432	5996.88531
677.873	6098.625
678.314	5879.98939
678.755	6112.16204
679.196	6045.65025
679.637	6080.94584
680.078	6084.77801
680.518	6098.65643
680.959	6043.92084
681.399	6172.15953
681.839	6230.99339
682.28	6207.18106
682.72	6256.58496
683.16	6190.2158
683.6	6239.55622
684.039	6223.02221
684.479	6376.076
684.919	6422.73069
685.358	6450.10807
685.798	6472.45602
686.237	6490.7968
686.676	6560.4598
687.115	6773.68869
687.554	6751.78718
687.993	6832.33903
688.432	6864.50262
688.871	6923.536
689.309	6991.79826
689.748	7171.15138
690.186	7162.6721
690.625	7227.71467
691.063	7354.82966
691.501	7407.04802
691.939	7510.18875
692.377	7647.0289
692.815	7680.09382
693.253	7809.03257
693.69	7751.6717
694.128	7910.19268
694.565	7946.11148
695.003	8213.66506
695.44	8210.34986
695.877	8166.28262
696.314	8269.11532
696.751	8340.36145
697.188	8428.53219
697.625	8404.41293
698.061	8488.69561
698.498	8793.09287
698.934	8850.20664
699.371	8919.29553
699.807	8960.37084
700.243	9043.5531
700.679	9073.53046
701.115	9123.66098
701.551	9241.89946
701.987	9343.12922
702.422	9504.4919
702.858	9632.80059
703.294	9812.30628
703.729	9746.08023
704.164	9838.33563
704.599	9973.82748
705.035	10132.32188
705.47	10143.19276
705.904	10401.14864
706.339	10592.87861
706.774	10707.2405
707.209	10797.61927
707.643	10792.48926
708.078	10827.56289
708.512	11131.66165
708.946	11219.33892
709.38	11317.76689
709.814	11431.61862
710.248	11638.12113
710.682	11853.35619
711.116	11893.4616
711.549	11803.66394
711.983	12026.63426
712.416	12214.47799
712.85	12267.41701
713.283	12423.79604
713.716	12439.42887
714.149	12512.55402
714.582	12728.27551
715.015	12858.19246
715.448	12734.08237
715.881	12969.50126
716.313	12982.59526
716.746	13303.73131
717.178	13388.15477
717.61	13649.35203
718.043	13692.11681
718.475	13660.10353
718.907	14038.72076
719.339	14155.18532
719.77	14132.12424
720.202	14256.48763
720.634	14388.93237
721.065	14485.49832
721.497	14747.20419
721.928	14869.37793
722.359	15156.15567
722.79	15180.73529
723.221	15441.63019
723.652	15470.43666
724.083	15602.26994
724.514	15756.45756
724.945	16076.51681
725.375	16061.35982
725.806	16115.82846
726.236	16250.45076
726.666	16444.47038
727.096	16777.41773
727.526	16946.03074
727.956	17234.46347
728.386	17470.62746
728.816	17374.26716
729.246	17692.13102
729.675	17717.82239
730.105	18049.95163
730.534	18160.6775
730.964	18408.01873
731.393	18677.07179
731.822	18942.30588
732.251	19078.34468
732.68	19478.57181
733.109	19455.32049
733.537	19540.72092
733.966	19943.67814
734.395	20259.49789
734.823	20321.73727
735.251	20508.90994
735.68	20649.12392
736.108	20613.1747
736.536	20845.53622
736.964	21191.82595
737.392	21286.82974
737.82	21364.43314
738.247	21530.9035
738.675	21573.97867
739.102	21655.21546
739.53	21833.70909
739.957	21590.99089
740.384	22018.67953
740.811	22092.69858
741.238	22385.31797
741.665	22190.81801
742.092	21948.11051
742.519	22095.71825
742.945	22199.90056
743.372	22314.88093
743.798	22218.55009
744.225	22194.7901
744.651	22157.44618
745.077	22077.37907
745.503	22080.50524
745.929	22219.31682
746.355	21980.82496
746.781	21748.11815
747.207	21761.28142
747.632	21567.02255
748.058	21516.82751
748.483	21630.45886
748.908	21598.42908
749.334	21482.07039
749.759	21199.04416
750.184	20869.94859
750.609	20895.90196
751.033	20778.77138
751.458	20573.16926
751.883	20577.23009
752.307	20154.56266
752.732	20001.76555
753.156	20054.81093
753.58	19671.81004
754.005	19630.34268
754.429	19178.74985
754.853	18961.389
755.277	18826.97652
755.7	18658.5023
756.124	18306.84402
756.548	18156.35572
756.971	17908.29676
757.394	17762.20462
757.818	17544.21992
758.241	17381.6523
758.664	17075.18416
759.087	16978.78785
759.51	16658.98258
759.933	16433.81393
760.356	16341.25678
760.778	15953.23075
761.201	15621.14899
761.623	15296.1733
762.046	15431.91219
762.468	15166.76235
762.89	14809.99723
763.312	14619.13072
763.734	14363.11903
764.156	14022.84993
764.578	13881.95127
765	13601.69944
765.421	13479.1043
765.843	13165.58127
766.264	12851.66126
766.686	12608.5549
767.107	12360.24405
767.528	12316.41501
767.949	11886.19315
768.37	11666.22279
768.791	11436.34768
769.212	11177.86923
769.632	11153.14518
770.053	10802.24916
770.473	10778.45436
770.894	10417.07289
771.314	10388.09103
771.734	9880.49776
772.154	9718.00877
772.575	9684.96885
772.994	9511.53116
773.414	9448.35973
773.834	9150.77702
774.254	9070.59728
774.673	8722.03793
775.093	8553.86285
775.512	8409.66177
775.931	8227.58247
776.351	8172.46332
776.77	7741.07869
777.189	7729.90779
777.607	7577.20728
778.026	7418.00772
778.445	7257.09954
778.864	7024.03771
779.282	6959.64415
779.701	6830.97953
780.119	6635.09364
780.537	6502.96772
780.955	6318.1268
781.373	6250.97872
781.791	6194.4519
782.209	6015.42516
782.627	5860.68081
783.045	5687.60332
783.462	5607.52708
783.88	5399.77442
784.297	5412.50674
784.715	5348.76549
785.132	5126.29292
785.549	4962.68918
785.966	4864.80845
786.383	4851.67983
786.8	4759.23193
787.217	4622.55135
787.633	4432.06915
788.05	4411.42412
788.466	4284.49818
788.883	4185.3601
789.299	4112.73794
789.715	4010.00407
790.131	3833.21569
790.547	3876.20773
790.963	3762.2052
791.379	3625.4157
791.795	3582.61503
792.21	3496.83184
792.626	3385.94714
793.041	3353.271
793.457	3261.26147
793.872	3196.92745
794.287	3088.21713
794.702	3060.19233
795.117	2917.40533
795.532	2883.48439
795.947	2826.06122
796.362	2712.96835
796.776	2716.86668
797.191	2661.2583
797.605	2552.0655
798.02	2390.12936
798.434	2476.69362
798.848	2406.29566
799.262	2299.21116
799.676	2256.09564
800.09	2174.09723
800.504	2028.92604
800.918	2042.69925
801.331	2013.20135
801.745	1898.60346
802.158	1869.9368
802.572	1861.8363
802.985	1823.74843
803.398	1713.63837
803.811	1679.84014
804.224	1699.7565
804.637	1624.59359
805.05	1646.45549
805.462	1530.57601
805.875	1414.68849
806.288	1440.46921
806.7	1368.46339
807.112	1439.27304
807.525	1366.37765
807.937	1275.34247
808.349	1289.36592
808.761	1186.21482
809.173	1192.18022
809.584	1189.1992
809.996	1091.05544
810.408	1136.31302
810.819	1110.98429
811.231	1170.44564
811.642	1107.13037
812.053	1044.99158
812.464	973.81072
812.875	897.88555
813.286	998.08026
813.697	881.5922
814.108	947.83023
814.519	880.57059
814.929	859.79296
815.34	839.63669
815.75	821.74914
816.16	784.59616
816.571	761.65905
816.981	713.382
817.391	727.4481
817.801	644.37738
818.211	696.38659
818.62	673.37955
819.03	631.3184
819.44	611.35819
819.849	615.31953
820.259	601.31714
820.668	601.2817
821.077	587.27831
821.486	533.10006
821.895	512.09092
822.304	534.24923
822.713	481.99528
823.122	502.10151
823.531	456.93954
823.939	497.07105
824.348	513.08335
824.756	492.08134
825.164	423.95034
825.573	425.95875
825.981	448.98356
826.389	437.98058
826.797	447.01985
827.205	454.92701
827.612	414.91046
828.02	358.75389
828.428	339.78878
828.835	374.90659
829.243	336.72063
829.65	392.88847
830.057	342.74962
830.464	360.80668
830.871	378.81909
831.278	305.67543
831.685	297.59887
832.092	294.65338
832.499	361.71019
832.905	267.62152
833.312	269.54965
833.718	326.74911
834.124	308.64176
834.531	262.6052
834.937	263.62955
835.343	246.54399
835.749	284.59649
836.155	260.63433
836.561	246.56236
836.966	255.57413
837.372	216.51163
837.777	218.50957
838.183	262.52915
838.588	240.55835
838.993	246.55534
839.399	237.54124
839.804	176.40446
840.209	221.53366
840.613	221.4528
841.018	171.40606
841.423	195.47106
841.828	174.41756
842.232	175.39982
842.637	200.4456
843.041	173.42139
843.445	150.35311
843.849	143.33696
844.253	226.49622
844.657	198.47153
845.061	206.44259
845.465	177.40162
845.869	173.37626
846.272	150.34719
846.676	111.25023
847.079	170.41199
847.483	188.43877
847.886	184.41505
848.289	148.38155
848.692	118.28253
849.095	126.28527
849.498	139.32868
849.901	159.33845
850.304	155.34813
850.707	115.27844
851.109	143.34075
851.512	149.34713
851.914	162.38906
852.316	164.3967
852.718	170.42695
853.121	173.39891
853.523	136.29748
853.925	126.31725
854.326	146.34837
854.728	169.41241
855.13	82.2055
855.531	95.21705
855.933	139.31156
856.334	131.313
856.736	139.29601
857.137	159.35066
857.538	137.32958
857.939	120.28644
858.34	129.29426
858.741	119.2958
859.142	93.21163
859.542	116.29499
859.943	110.26016
860.343	106.25225
860.744	125.28904
861.144	140.32623
861.544	105.24395
861.945	121.29319
862.345	85.19756
862.745	107.25556
863.145	129.28533
863.544	139.3344
863.944	114.25515
864.344	65.15281
864.743	118.27767
865.143	127.31362
865.542	65.14209
865.941	119.28117
866.34	104.23335
866.74	93.24022
867.139	116.26764
867.537	50.12141
867.936	88.20312
868.335	96.23292
868.734	82.20149
869.132	91.19825
869.531	77.17564
869.929	97.21106
870.327	103.23476
870.726	103.24195
871.124	55.12206
871.522	65.15863
871.92	62.14686
872.318	85.19686
872.715	69.16107
873.113	67.15548
873.511	97.22972
873.908	65.16069
874.306	86.20654
874.703	76.18023
875.1	49.119
875.497	66.15082
875.894	80.1914
876.291	82.19289
876.688	97.2398
877.085	91.20632
877.482	102.24329
877.878	99.23029
878.275	90.21951
878.671	63.12914
879.068	129.29426
879.464	53.12294
879.86	70.15822
880.256	32.07489
880.652	75.18296
881.048	63.14805
881.444	102.22679
881.84	78.18975
882.236	77.18524
882.631	106.24905
883.027	82.18859
883.422	32.0786
883.817	18.04423
884.213	73.18001
884.608	89.21346
885.003	55.12607
885.398	57.13739
885.793	69.16537
886.188	29.06953
886.582	73.17788
886.977	70.15751
887.371	98.23474
887.766	52.12531
888.16	49.11551
888.554	104.24273
888.949	71.17081
889.343	75.17412
889.737	51.13283
890.131	79.18984
890.525	88.21711
890.918	92.22095
891.312	80.18046
891.706	55.13885
892.099	85.20627
892.492	77.15626
892.886	50.11725
893.279	69.16832
893.672	38.09417
894.065	79.18962
894.458	87.20684
894.851	79.18347
895.244	54.13274
895.637	69.15962
896.029	77.1813
896.422	45.1043
896.814	64.15207
897.206	89.20498
897.599	134.31299
897.991	61.1424
898.383	82.18512
898.775	93.20166
899.167	71.16071
899.559	84.20143
899.951	96.21265
900.342	40.09712
900.734	54.13225
901.125	18.0455
901.517	65.15328
901.908	28.06363
902.299	53.12494
902.69	113.25505
903.082	98.22575
903.473	149.34179
903.863	38.09303
904.254	85.19021
904.645	41.09684
905.036	97.22857
905.426	44.09486
905.817	72.16778
906.207	-8.01827
906.597	101.22666
906.987	16.03987
907.378	93.22611
907.768	84.21407
908.158	32.07501
908.547	89.22365
908.937	17.04172
909.327	84.19404
909.717	19.04588
910.106	53.12143
910.495	60.14196
910.885	70.1706
911.274	64.15318
911.663	24.05834
912.052	76.17696
912.441	66.1626
912.83	21.04602
913.219	26.06565
913.608	84.19728
913.997	29.07101
914.385	63.144
914.774	88.20369
915.162	82.18867
915.55	35.0808
915.939	60.14683
916.327	47.11187
916.715	117.2886
917.103	54.12514
917.491	87.20453
917.878	37.08736
918.266	46.11458
918.654	100.24608
919.041	80.20337
919.429	45.10186
919.816	64.15552
920.203	71.16646
920.591	79.18775
920.978	84.1962
921.365	77.19495
921.752	59.1323
922.139	84.17261
922.525	59.13637
922.912	69.16025
923.299	76.18107
923.685	23.05759
924.072	42.09028
924.458	60.14339
924.844	37.0883
925.231	51.11243
925.617	63.15586
926.003	50.12263
926.389	51.12372
926.774	46.11182
927.16	81.19176
927.546	87.21634
927.931	82.19409
928.317	47.10274
928.702	81.18141
929.088	116.26604
929.473	127.30958
929.858	70.16517
930.243	75.17391
930.628	111.25932
931.013	66.15706
931.398	85.18196
931.783	74.18498
932.167	111.26064
932.552	43.10337
932.937	77.18144
933.321	79.1915
933.705	-3.00726
934.09	98.2307
934.474	47.10583
934.858	66.16505
935.242	38.08418
935.626	106.26027
936.009	84.21701
936.393	113.27792
936.777	61.15125
937.16	73.1841
937.544	70.15441
937.927	34.08385
938.311	77.17798
938.694	79.20137
939.077	58.13292
939.46	38.08761
939.843	74.1419
940.226	34.08376
940.609	112.24613
940.991	79.19121
941.374	93.21804
941.757	87.20373
942.139	118.25069
942.522	81.18081
942.904	98.22386
943.286	34.08305
943.668	106.26517
944.05	75.1768
944.432	67.15757
944.814	68.15846
945.196	62.14613
945.578	65.15054
945.959	78.17192
946.341	70.1608
946.722	40.08946
947.104	89.20244
947.485	26.05822
947.866	91.221
948.247	83.20248
948.628	28.0644
949.009	41.10132
949.39	50.11871
949.771	35.07606
950.152	65.15299
950.532	67.16277
950.913	61.14049
951.293	53.13978
951.674	73.1686
952.054	106.25506
952.434	48.1148
952.814	62.13911
953.194	9.02255
953.574	80.18701
953.954	47.10569
954.334	108.25859
954.714	51.11999
955.093	92.21523
955.473	67.16259
955.853	85.21091
956.232	49.12976
956.611	64.14449
956.99	40.09734
957.37	57.13858
957.749	49.11001
958.128	34.08324
958.506	48.12038
958.885	58.13998
959.264	67.15947
959.643	119.25694
960.021	114.27035
960.4	84.18017
960.778	74.17122
961.156	22.05306
961.535	62.13625
961.913	89.199
962.291	62.1551
962.669	73.17828
963.047	90.2209
963.424	89.22043
963.802	73.17208
964.18	47.11234
964.557	22.04841
964.935	86.19336
965.312	14.03562
965.69	75.17769
966.067	38.08782
966.444	17.03962
966.821	73.1808
967.198	46.10563
967.575	35.08215
967.952	75.16762
968.329	130.3009
968.705	131.26452
969.082	137.33831
969.458	43.10062
969.835	89.20613
970.211	80.19904
970.587	68.16251
970.963	37.0907
971.339	72.18161
971.715	119.28248
972.091	44.10398
972.467	34.08038
972.843	74.17799
973.219	59.13388
973.594	48.1212
973.97	86.18875
974.345	65.14941
974.721	62.14111
975.096	87.20229
975.471	87.19509
975.846	84.19041
976.221	51.12483
976.596	92.21362
976.971	105.24829
977.346	61.13414
977.72	25.06121
978.095	45.11202
978.469	94.21178
978.844	75.17906
979.218	78.18133
979.593	98.22142
979.967	32.07345
980.341	108.23604
980.715	77.18616
981.089	78.1864
981.463	69.15077
981.837	90.21228
982.21	34.07359
982.584	67.15542
982.957	67.16143
983.331	87.19195
983.704	92.21826
984.078	31.07345
984.451	47.11023
984.824	43.10136
985.197	32.07348
985.57	14.03337
985.943	65.15042
986.316	47.10877
986.688	69.15841
987.061	133.2943
987.434	134.33642
987.806	24.05515
988.179	91.20271
988.551	64.15487
988.923	68.15902
989.295	41.09793
989.667	63.14631
990.039	107.25585
990.411	32.06938
990.783	24.05223
991.155	77.17734
991.527	68.15652
991.898	103.24544
992.27	79.18868
992.641	86.20426
993.012	16.03521
993.384	48.10898
993.755	40.09894
994.126	77.17826
994.497	52.12246
994.868	46.0996
995.239	86.19756
995.61	62.14981
995.98	68.15746
996.351	65.15537
996.722	68.1522
997.092	63.1433
997.462	90.20227
997.833	76.16961
998.203	61.13898
998.573	47.11299
998.943	78.17501
999.313	86.19732
999.683	79.1813
1000.053	11.02373
1000.423	56.12911
1000.792	28.06928
1001.162	35.08222
1001.531	78.18391
1001.901	26.06213
1002.27	47.09782
1002.639	36.08794
1003.009	46.10444
1003.378	89.21784
1003.747	63.14086
1004.116	58.13233
1004.485	23.05285
1004.853	28.0674
1005.222	8.01914
1005.591	60.1354
1005.959	53.11444
1006.328	82.17557
1006.696	32.0738
1007.064	5.01205
1007.433	42.09999
1007.801	47.10851
1008.169	5.01209
1008.537	60.12597
1008.905	85.18942
1009.273	41.09642
1009.64	90.20691
1010.008	39.08889
1010.375	73.16551
1010.743	55.11682
1011.11	130.29588
1011.478	81.19272
1011.845	36.08058
1012.212	118.2544
1012.579	69.16215
1012.946	31.06989
1013.313	62.13928
1013.68	102.21443
1014.047	25.05726
1014.414	27.06112
1014.78	-4.00968
1015.147	30.06875
1015.513	40.09244
1015.88	54.13151
1016.246	30.07024
1016.612	73.15694
1016.978	56.13234
1017.344	61.14463
1017.71	35.08132
1018.076	45.10024
1018.442	90.22188
1018.808	84.20243
1019.174	30.07202
1019.539	41.08591
1019.905	77.17373
1020.27	43.10164
1020.636	35.07926
1021.001	51.11723
1021.366	59.1361
1021.731	105.2611
1022.096	80.1949
1022.461	53.12021
1022.826	82.18686
1023.191	7.01784
1023.556	71.15718
1023.92	32.07483
1024.285	38.08792
1024.649	62.14413
1025.014	48.11251
1025.378	21.05134
1025.742	33.07806
1026.107	81.17257
1026.471	128.27833
1026.835	110.25845
1027.199	14.03257
1027.562	2.00443
1027.926	47.10933
1028.29	58.14094
1028.654	63.13708
1029.017	127.29565
1029.381	77.17571
1029.744	22.05426
1030.107	104.23239
1030.471	111.25269
1030.834	54.11477
1031.197	85.19413
1031.56	45.10087
1031.923	57.14195
1032.286	104.23047
1032.648	10.02268
1033.011	94.20727
1033.374	36.07998
1033.736	45.1143
1034.099	63.14684
1034.461	60.14667
1034.823	38.09147
1035.185	49.11717
1035.548	79.18405
1035.91	63.14353
1036.272	68.14786
1036.634	81.18842
1036.995	76.16807
1037.357	37.08695
1037.719	69.16038
1038.08	115.25999
1038.442	86.1932
1038.803	2.00455
1039.165	27.06533
1039.526	63.14545
1039.887	82.1861
1040.248	82.19619
1040.609	87.20197
1040.97	36.08415
1041.331	72.17574
1041.692	75.16977
1042.053	66.14156
1042.413	73.16025
1042.774	84.19474
1043.134	24.05405
1043.495	50.12054
1043.855	114.2646
1044.215	27.06409
1044.576	67.15394
1044.936	59.12772
1045.296	119.28084
1045.656	87.20045
1046.016	66.15082
1046.375	50.11605
1046.735	98.21391
1047.095	102.22557
1047.454	74.14561
1047.814	61.1401
1048.173	52.11668
1048.533	18.03956
1048.892	34.07873
1049.251	53.12644
1049.61	57.13447
1049.969	48.10766
1050.328	72.14735
1050.687	36.08343
1051.046	42.09756
1051.405	20.04745
1051.763	95.20899
1052.122	29.0695
1052.48	60.14114
1052.839	122.2752
1053.197	44.09885
1053.555	42.08903
1053.914	106.24447
1054.272	48.10832
1054.63	26.06135
1054.988	74.16904
1055.345	58.11623
1055.703	61.14038
1056.061	94.23362
1056.419	99.24877
1056.776	69.15638
1057.134	2.00437
1057.491	46.11064
1057.848	54.12786
1058.206	42.09273
1058.563	83.17191
1058.92	96.20759
1059.277	76.17863
1059.634	67.14745
1059.991	99.2251
1060.348	77.16554
1060.704	87.20181
1061.061	75.16159
1061.418	66.15295
1061.774	58.13702
1062.131	102.26196
1062.487	-2.00448
1062.843	36.0862
1063.199	61.14525
1063.555	63.14034
1063.911	42.10122
1064.267	114.21724
1064.623	45.10608
1064.979	42.09129
1065.335	71.15973
1065.691	14.03175
1066.046	67.13883
1066.402	37.07962
1066.757	95.22837
1067.112	44.10294
1067.468	72.1642
1067.823	40.08997
1068.178	56.12833
1068.533	48.11128
1068.888	96.21567
1069.243	24.05705
1069.598	71.16307
1069.952	75.16395
1070.307	79.18753
1070.662	87.19877
1071.016	94.20188
1071.371	77.1669
1071.725	57.12866
1072.079	97.22153
1072.434	41.09594
1072.788	26.05851
1073.142	77.18067
1073.496	63.14191
1073.85	73.16012
1074.203	12.0281
1074.557	109.28037
1074.911	73.16416
1075.265	59.13034
1075.618	61.1424
1075.971	58.13131
1076.325	88.21519
1076.678	47.10257
1077.031	19.04022
1077.385	87.17946
1077.738	59.12603
1078.091	65.14185
1078.444	88.19037
1078.796	111.25962
1079.149	35.08388
1079.502	82.18535
1079.855	60.13341
1080.207	73.17068
1080.56	33.0829
1080.912	64.14826
1081.264	75.17267
1081.617	68.15877
1081.969	71.17249
1082.321	40.09325
1082.673	71.15652
1083.025	32.07221
1083.377	289.61542
1083.728	67.14752
1084.08	61.14458
1084.432	48.11018
1084.783	65.14149
1085.135	39.09447
1085.486	101.21939
1085.838	50.11844
1086.189	84.19574
1086.54	34.07738
1086.891	50.12399
1087.242	108.25375
1087.593	48.10987
1087.944	101.21752
1088.295	91.19438
1088.646	79.18608
1088.996	72.16639
1089.347	37.08651
1089.698	47.10756
1090.048	84.20709
1090.398	80.17425
1090.749	28.0636
1091.099	45.11027
1091.449	82.19559
1091.799	43.10333
1092.149	70.16556
1092.499	19.04465
1092.849	43.10533
1093.199	67.15886
1093.548	55.12784
1093.898	38.09095
1094.248	22.054
1094.597	35.08738
1094.947	72.18504
1095.296	83.19642
1095.645	79.19566
1095.994	61.13971
1096.343	62.15003
1096.692	92.23545
1097.041	30.08012
1097.39	64.15254
1097.739	55.13732
1098.088	39.10018
1098.437	55.14143
1098.785	24.06218
1099.134	9.02279
1099.482	53.14152
1099.83	62.15672
1100.179	88.22427
1100.527	3.00765
1100.875	34.08769
1101.223	86.22064
1101.571	-6.01613
1101.919	38.09827
1102.267	46.12688
1102.615	1.00321
1102.962	-5.01605
1103.31	3.00964
1103.658	-6.01925
