Data from N3 R2 sample 4_Subt2__4__10-12-54-893.txt Node

Date: Thu Sep 18 10:12:54 PDT 2025
User: uwsun
Spectrometer: HDX01956
Trigger mode: 0
Integration Time (sec): 5.000000E-1
Scans to average: 1
Nonlinearity correction enabled: true
Boxcar width: 0
Storing dark spectrum: false
XAxis mode: Wavelengths
Number of Pixels in Spectrum: 2068
>>>>>Begin Spectral Data<<<<<
194.03	66.18976
194.578	70.22575
195.127	58.18467
195.676	69.22019
196.225	98.25746
196.773	126.34523
197.321	138.37811
197.87	203.51338
198.418	228.57834
198.966	256.66107
199.513	270.67097
200.061	201.50543
200.609	191.4993
201.156	235.505
201.704	233.57682
202.251	231.60446
202.798	238.60627
203.345	295.71071
203.892	250.61992
204.438	214.50081
204.985	243.56678
205.532	231.59787
206.078	237.56862
206.624	296.72322
207.17	264.60569
207.716	252.60655
208.262	239.46463
208.808	272.66854
209.354	305.73312
209.899	254.62638
210.445	227.55991
210.99	261.62405
211.535	276.63499
212.08	250.56874
212.625	229.56297
213.17	233.58462
213.715	299.66353
214.259	299.67786
214.804	216.52208
215.348	276.62255
215.892	286.67662
216.436	258.57505
216.98	239.51404
217.524	260.60845
218.068	270.66583
218.612	245.61185
219.155	280.64445
219.698	241.56211
220.242	203.49408
220.785	227.52425
221.328	211.51336
221.871	255.63566
222.414	210.51102
222.956	158.37541
223.499	225.49122
224.041	223.499
224.583	192.39846
225.126	202.43568
225.668	241.57205
226.21	255.63012
226.751	253.54907
227.293	218.48289
227.835	214.5153
228.376	236.52341
228.918	211.51566
229.459	200.49142
230	250.58574
230.541	216.48683
231.082	236.56202
231.622	173.38649
232.163	242.56922
232.704	220.54055
233.244	254.61391
233.784	233.55136
234.324	264.57745
234.864	207.45881
235.404	247.5659
235.944	238.54648
236.484	278.67292
237.023	190.44099
237.563	247.55976
238.102	245.56469
238.641	174.43196
239.18	199.45978
239.719	231.56558
240.258	217.47736
240.797	227.53071
241.335	200.47794
241.874	300.56085
242.412	247.58584
242.95	263.61848
243.488	201.4431
244.026	219.49974
244.564	315.62056
245.102	316.68826
245.64	216.5051
246.177	226.49037
246.715	267.62299
247.252	173.38776
247.789	279.49721
248.326	183.43573
248.863	217.46833
249.4	224.4968
249.936	334.66837
250.473	263.60497
251.009	214.48034
251.546	293.63207
252.082	224.47255
252.618	231.50517
253.154	276.64437
253.69	216.47466
254.226	267.62128
254.761	231.50666
255.297	203.43549
255.832	249.57757
256.367	253.57871
256.903	284.61095
257.438	284.64373
257.972	237.515
258.507	236.52842
259.042	270.56909
259.576	316.67247
260.111	207.46664
260.645	263.55104
261.179	278.63141
261.713	310.66774
262.247	225.50244
262.781	265.54197
263.315	228.54088
263.849	272.66187
264.382	280.62227
264.915	292.66858
265.449	271.6425
265.982	261.57608
266.515	331.77988
267.048	292.59678
267.58	293.60847
268.113	233.49229
268.646	262.6232
269.178	231.50453
269.71	313.66594
270.243	273.6144
270.775	275.6865
271.307	227.5278
271.838	273.62496
272.37	273.64924
272.902	273.59903
273.433	310.66171
273.965	258.61015
274.496	258.62241
275.027	320.76756
275.558	291.68805
276.089	272.66113
276.62	238.58629
277.15	278.66278
277.681	261.54492
278.211	255.60551
278.741	336.71441
279.272	279.61915
279.802	305.73229
280.332	275.63055
280.861	260.60464
281.391	327.71297
281.921	241.56234
282.45	246.59525
282.98	277.70174
283.509	330.72088
284.038	353.77161
284.567	290.65386
285.096	307.7194
285.625	256.56043
286.153	340.78002
286.682	317.70142
287.21	262.60664
287.739	240.55438
288.267	303.71364
288.795	257.65478
289.323	283.64498
289.851	363.81557
290.378	255.55341
290.906	310.7331
291.433	307.73961
291.961	349.76319
292.488	293.70375
293.015	308.70266
293.542	369.90872
294.069	315.75428
294.596	304.71753
295.122	324.74898
295.649	315.66261
296.175	315.73064
296.702	381.88857
297.228	306.71131
297.754	328.70893
298.28	299.66629
298.806	292.68225
299.332	303.65589
299.857	297.65361
300.383	348.83978
300.908	304.7242
301.433	378.88487
301.958	332.73108
302.483	286.68811
303.008	345.82515
303.533	320.79693
304.058	312.70144
304.582	325.74009
305.107	308.77623
305.631	366.79139
306.155	339.75885
306.679	389.87075
307.203	379.83858
307.727	329.75101
308.251	340.80714
308.775	386.89651
309.298	351.81251
309.822	336.81267
310.345	394.89663
310.868	378.871
311.391	392.91979
311.914	326.78879
312.437	441.94844
312.96	364.821
313.482	381.8532
314.005	366.87453
314.527	373.92836
315.049	387.9358
315.571	403.86114
316.093	374.88646
316.615	383.87636
317.137	436.8939
317.659	410.94283
318.18	372.84692
318.702	458.0069
319.223	375.72695
319.744	456.96361
320.265	441.01341
320.786	481.12662
321.307	415.97354
321.828	471.99421
322.348	453.00152
322.869	482.07396
323.389	569.01218
323.909	430.92777
324.43	419.94907
324.95	461.99102
325.47	485.12669
325.989	486.07752
326.509	503.04686
327.029	562.17896
327.548	509.07018
328.067	503.13908
328.587	513.20028
329.106	529.1001
329.625	535.29468
330.144	534.1492
330.662	527.14796
331.181	594.28236
331.7	491.06444
332.218	582.15162
332.736	553.19398
333.255	570.23468
333.773	548.19453
334.291	584.34499
334.808	599.23098
335.326	624.26946
335.844	595.28205
336.361	621.46629
336.879	605.30195
337.396	637.41253
337.913	648.35426
338.43	656.33284
338.947	676.45586
339.464	636.2381
339.981	661.41591
340.497	651.45258
341.014	656.44958
341.53	724.44914
342.046	711.59766
342.562	667.50607
343.078	653.39153
343.594	706.50297
344.11	790.66667
344.626	749.68859
345.141	775.55958
345.657	766.52625
346.172	787.6752
346.687	791.59036
347.202	814.62277
347.717	796.66907
348.232	808.77308
348.747	836.67825
349.261	820.5629
349.776	831.72529
350.29	828.82231
350.805	855.84128
351.319	874.75059
351.833	857.70741
352.347	848.74068
352.861	836.70909
353.374	817.61783
353.888	916.92677
354.401	833.64571
354.915	912.75787
355.428	912.96114
355.941	878.76185
356.454	941.76577
356.967	850.71814
357.48	906.7513
357.993	968.02208
358.505	915.90993
359.018	993.05567
359.53	1006.06922
360.042	1002.86986
360.554	990.04991
361.066	940.95305
361.578	1026.87515
362.09	961.93875
362.602	1050.92779
363.113	1096.11771
363.625	1088.01932
364.136	1080.9315
364.647	1046.06222
365.158	1062.04015
365.669	1084.1333
366.18	1040.03315
366.691	1083.92944
367.201	1131.21093
367.712	1139.10853
368.222	1127.10691
368.733	1116.95624
369.243	1240.17657
369.753	1169.16317
370.263	1137.24147
370.773	1137.25818
371.282	1251.36922
371.792	1253.28817
372.301	1252.39922
372.811	1327.7649
373.32	1348.21158
373.829	1374.48175
374.338	1415.35234
374.847	1411.46215
375.356	1495.61902
375.865	1581.40177
376.373	1612.61771
376.882	1596.98758
377.39	1671.88234
377.898	1669.94984
378.407	1784.75627
378.915	1838.65998
379.423	1944.96215
379.93	2029.01703
380.438	2014.14662
380.946	2160.09377
381.453	2286.30279
381.96	2500.3646
382.468	2612.31281
382.975	2720.5647
383.482	2741.07317
383.989	2768.86353
384.495	2937.3076
385.002	3106.71628
385.509	3356.40434
386.015	3579.43663
386.521	3617.0278
387.028	3761.95928
387.534	3870.54165
388.04	4049.23149
388.546	4105.61813
389.051	4460.40852
389.557	4687.60579
390.063	4880.32116
390.568	5099.62959
391.073	5429.90314
391.578	5600.46417
392.084	5825.86449
392.589	6204.43197
393.093	6789.91165
393.598	7338.75466
394.103	7942.21887
394.607	8728.09068
395.112	9011.57381
395.616	9585.6914
396.12	10445.25129
396.624	11656.26039
397.128	12608.43577
397.632	13749.72367
398.136	15014.08185
398.639	16669.10747
399.143	19186.39361
399.646	21239.44626
400.15	23341.46865
400.653	26189.86537
401.156	30152.95251
401.659	35018.76287
402.162	45415.34877
402.664	60064.4087
403.167	63977.72923
403.67	63769.22307
404.172	63919.58413
404.674	63858.43483
405.176	63738.15102
405.678	63977.72923
406.18	64011.81569
406.682	63863.44694
407.184	63926.60148
407.686	63841.39382
408.187	64025.8516
408.688	63892.51763
409.19	63833.37461
409.691	58419.73165
410.192	50404.76035
410.693	45174.69183
411.194	42575.64429
411.694	39634.5459
412.195	36013.39106
412.696	33605.40722
413.196	33090.52325
413.696	33075.50487
414.196	32674.1231
414.696	30671.73482
415.196	28070.48084
415.696	23089.78291
416.196	18045.88947
416.695	15385.30928
417.195	14557.17706
417.694	13873.26055
418.194	12730.44581
418.693	12247.68403
419.192	11849.236
419.691	11634.22314
420.19	11408.95157
420.688	10947.89732
421.187	10181.63773
421.685	9434.3316
422.184	8319.53234
422.682	7253.48249
423.18	6443.70842
423.678	5827.86364
424.176	5466.02032
424.674	5208.98569
425.172	4735.61719
425.669	4435.08863
426.167	4072.87585
426.664	3834.83402
427.161	3531.02854
427.659	3306.42816
428.156	3191.68354
428.652	2957.69771
429.149	2808.44769
429.646	2701.97205
430.143	2534.32124
430.639	2419.22572
431.135	2339.4742
431.632	2225.98016
432.128	2020.09171
432.624	2064.46287
433.12	1963.83647
433.616	1892.6381
434.111	1809.88823
434.607	1787.90072
435.103	1664.32802
435.598	1654.3007
436.093	1535.56575
436.588	1527.44624
437.083	1407.31477
437.578	1373.37678
438.073	1321.55534
438.568	1329.51127
439.062	1239.01093
439.557	1235.23598
440.051	1103.9682
440.546	1157.06147
441.04	1062.0704
441.534	1058.18314
442.028	1096.12677
442.522	1079.09222
443.015	1010.74125
443.509	1003.00909
444.002	1020.0493
444.496	961.70009
444.989	985.97542
445.482	946.95943
445.975	994.8805
446.468	964.70056
446.961	984.73323
447.454	927.71813
447.947	929.85103
448.439	863.80052
448.931	935.77773
449.424	910.96018
449.916	849.76503
450.408	866.66508
450.9	845.74815
451.392	843.83558
451.884	809.58405
452.375	857.80615
452.867	815.55298
453.358	766.50928
453.849	780.41683
454.341	760.475
454.832	801.46353
455.323	814.74358
455.814	770.51149
456.304	738.47856
456.795	677.35525
457.285	717.36462
457.776	713.41162
458.266	706.46455
458.756	685.41936
459.247	700.4663
459.737	689.46579
460.226	655.31478
460.716	652.37888
461.206	645.36673
461.695	615.35861
462.185	662.386
462.674	638.28797
463.163	672.31885
463.653	650.2102
464.142	636.36904
464.63	542.18892
465.119	599.24204
465.608	588.2325
466.096	575.11144
466.585	541.1136
467.073	491.05719
467.561	505.10368
468.05	511.06732
468.538	500.11505
469.026	525.12811
469.513	503.96021
470.001	525.09079
470.489	526.13341
470.976	521.10364
471.463	492.12113
471.951	470.07307
472.438	476.02242
472.925	460.99631
473.412	432.97076
473.899	473.99318
474.385	458.03175
474.872	400.86823
475.359	406.93065
475.845	412.78743
476.331	390.77103
476.817	389.88472
477.303	432.92809
477.789	380.84623
478.275	380.88363
478.761	339.75885
479.247	370.77127
479.732	319.75511
480.218	391.9611
480.703	348.80796
481.188	301.6181
481.673	315.68594
482.158	312.63823
482.643	360.86643
483.128	343.75387
483.612	394.87631
484.097	332.75618
484.581	349.75932
485.066	335.77579
485.55	376.77646
486.034	333.6798
486.518	354.7978
487.002	243.56812
487.486	260.60487
487.969	252.58788
488.453	254.60673
488.936	271.58286
489.42	303.63569
489.903	234.5611
490.386	207.41394
490.869	313.64913
491.352	241.55769
491.835	231.45444
492.318	228.49386
492.8	276.54437
493.283	249.61146
493.765	180.42982
494.247	317.69849
494.73	252.53488
495.212	192.44193
495.694	269.60688
496.175	224.5201
496.657	265.60079
497.139	234.38396
497.62	238.55151
498.102	223.53666
498.583	157.37698
499.064	199.43041
499.545	213.46955
500.026	232.50596
500.507	177.39705
500.988	261.62619
501.469	170.41338
501.949	194.46537
502.43	248.57491
502.91	244.49732
503.39	191.46018
503.87	198.45465
504.35	180.41
504.83	189.40161
505.31	167.39305
505.79	142.32933
506.269	152.34161
506.749	177.39411
507.228	166.38193
507.707	202.43718
508.187	192.44616
508.666	181.43724
509.145	191.43427
509.623	210.47621
510.102	196.46067
510.581	199.46635
511.059	192.47037
511.538	184.46227
512.016	192.44757
512.494	153.36024
512.972	180.42026
513.45	165.37637
513.928	160.38089
514.406	168.40285
514.884	163.4115
515.361	187.43583
515.839	249.55143
516.316	178.42228
516.793	174.42896
517.27	154.36295
517.747	153.38515
518.224	154.34766
518.701	204.43697
519.178	174.42548
519.654	157.36419
520.131	150.36462
520.607	107.25849
521.083	115.25734
521.56	175.40256
522.036	147.314
522.512	178.42911
522.987	220.51324
523.463	189.43615
523.939	227.54525
524.414	175.39079
524.89	171.39886
525.365	171.37728
525.84	147.34706
526.315	121.28933
526.79	153.33842
527.265	154.34908
527.74	164.38952
528.215	145.33209
528.689	95.20662
529.164	112.23742
529.638	130.3245
530.112	108.25127
530.587	168.3513
531.061	147.34948
531.534	122.2901
532.008	160.38133
532.482	161.36235
532.956	123.30953
533.429	192.45777
533.903	155.33281
534.376	139.30218
534.849	131.29665
535.322	130.30221
535.795	101.2416
536.268	174.41167
536.741	62.14692
537.213	121.27456
537.686	136.32761
538.158	177.39313
538.631	133.31729
539.103	158.34984
539.575	141.28523
540.047	146.3126
540.519	159.37233
540.991	126.30307
541.463	95.22673
541.934	109.24381
542.406	168.39517
542.877	147.32596
543.348	160.37885
543.82	132.31629
544.291	160.36622
544.762	182.42309
545.233	174.43164
545.703	142.311
546.174	163.37046
546.645	155.36835
547.115	170.4019
547.585	185.41517
548.056	175.42148
548.526	217.50016
548.996	187.43635
549.466	194.4597
549.935	186.43427
550.405	185.39687
550.875	196.45384
551.344	150.35173
551.814	212.47194
552.283	286.59645
552.752	233.52889
553.221	218.46736
553.69	235.51413
554.159	275.65852
554.628	253.55328
555.096	236.582
555.565	179.38732
556.033	248.57149
556.502	203.47721
556.97	240.51608
557.438	203.46416
557.906	204.4688
558.374	268.59759
558.842	193.45141
559.31	249.53762
559.777	208.49515
560.245	195.43617
560.712	211.46962
561.18	188.40653
561.647	165.35901
562.114	224.49783
562.581	266.63004
563.048	224.49742
563.514	300.7207
563.981	247.54586
564.448	279.6042
564.914	256.57248
565.381	280.61322
565.847	277.61855
566.313	239.53568
566.779	278.59933
567.245	249.5558
567.711	284.65131
568.176	268.57728
568.642	282.68158
569.108	229.54545
569.573	275.61002
570.038	322.63689
570.504	323.6926
570.969	266.63393
571.434	277.58936
571.899	312.70431
572.363	307.67079
572.828	374.80765
573.293	297.64976
573.757	384.83599
574.222	336.71254
574.686	388.83609
575.15	413.92864
575.614	432.94845
576.078	376.82934
576.542	392.83564
577.006	387.81871
577.469	374.86625
577.933	376.80467
578.396	376.83801
578.86	370.81952
579.323	356.81083
579.786	374.76055
580.249	504.08547
580.712	373.85383
581.175	399.92176
581.637	431.91179
582.1	415.8395
582.563	385.76347
583.025	431.97625
583.487	483.90549
583.95	437.86416
584.412	500.95379
584.874	481.07902
585.336	511.10599
585.797	520.02343
586.259	509.08569
586.721	554.17391
587.182	587.21116
587.643	591.19977
588.105	610.28657
588.566	576.06791
589.027	662.43788
589.488	685.37698
589.949	724.53666
590.41	707.19794
590.87	840.62431
591.331	830.52541
591.791	824.62068
592.252	900.75129
592.712	907.81968
593.172	1025.88132
593.632	1091.91577
594.092	1062.88269
594.552	1128.8991
595.011	1161.07393
595.471	1314.22934
595.931	1383.29129
596.39	1416.51923
596.849	1448.45412
597.308	1538.25417
597.768	1607.00198
598.227	1760.86356
598.685	1873.73712
599.144	2007.96665
599.603	2047.95133
600.062	2120.5474
600.52	2353.92797
600.978	2419.16774
601.437	2558.00464
601.895	2800.71951
602.353	2914.83702
602.811	3054.97413
603.269	3224.26954
603.727	3374.30616
604.184	3441.955
604.642	3755.3702
605.099	3910.9485
605.557	4052.17213
606.014	4280.23149
606.471	4440.23733
606.928	4688.20983
607.385	4972.93458
607.842	5025.22753
608.299	5201.2629
608.755	5346.44944
609.212	5590.74415
609.668	5805.72241
610.125	5997.09061
610.581	6096.85774
611.037	6265.51949
611.493	6325.75599
611.949	6528.0024
612.405	6638.99913
612.861	6664.60589
613.316	6837.84667
613.772	6847.58077
614.227	7086.87622
614.683	6943.20641
615.138	7021.72241
615.593	7103.67581
616.048	7057.59233
616.503	7008.92501
616.958	6995.13023
617.412	6938.7886
617.867	6922.45953
618.321	6934.08844
618.776	6878.37123
619.23	6707.70686
619.684	6619.42952
620.138	6564.57688
620.592	6548.95279
621.046	6434.80323
621.5	6348.94418
621.954	6157.4516
622.407	6151.45322
622.861	6034.11269
623.314	5888.68357
623.768	5767.02797
624.221	5647.98278
624.674	5478.00851
625.127	5502.03906
625.58	5357.87025
626.033	5243.75575
626.485	5115.45542
626.938	5011.4815
627.39	5055.32108
627.843	4802.35967
628.295	4660.44005
628.747	4646.69664
629.199	4458.46359
629.651	4595.4362
630.103	4344.57663
630.555	4254.07251
631.006	4215.73492
631.458	4173.84158
631.909	4023.57264
632.361	3964.7993
632.812	3876.863
633.263	3851.45698
633.714	3710.36877
634.165	3641.19082
634.616	3604.10481
635.067	3556.66349
635.518	3524.14774
635.968	3498.05118
636.419	3454.65297
636.869	3405.17076
637.319	3393.04338
637.769	3321.86445
638.219	3290.16923
638.669	3296.21695
639.119	3258.2645
639.569	3238.28543
640.019	3247.0452
640.468	3266.85782
640.918	3211.21297
641.367	3151.87202
641.816	3232.81354
642.265	3207.11521
642.714	3270.99243
643.163	3312.03683
643.612	3210.43749
644.061	3212.60329
644.51	3213.00645
644.958	3250.77471
645.406	3209.2665
645.855	3177.37179
646.303	3103.06797
646.751	3212.06417
647.199	3171.94198
647.647	3220.08287
648.095	3120.98471
648.543	3102.3504
648.99	3271.29331
649.438	3145.06484
649.885	3132.5578
650.333	3162.12125
650.78	3048.3528
651.227	3063.43411
651.674	3018.00453
652.121	3146.44791
652.568	3064.44155
653.015	2959.49939
653.461	2956.25008
653.908	2981.03863
654.354	2854.25497
654.801	2817.16462
655.247	2818.72525
655.693	2719.78894
656.139	2683.24856
656.585	2728.2596
657.031	2666.1634
657.477	2658.77703
657.922	2642.97338
658.368	2547.38568
658.813	2511.95397
659.259	2612.32826
659.704	2579.19606
660.149	2523.02992
660.594	2468.17029
661.039	2391.94078
661.484	2395.13512
661.929	2351.05127
662.373	2318.4129
662.818	2258.30272
663.262	2233.17662
663.707	2215.43193
664.151	2278.23738
664.595	2231.17564
665.039	2193.28525
665.483	2184.41098
665.927	2195.00671
666.371	2274.05823
666.814	2127.03146
667.258	2201.14337
667.701	2200.57843
668.145	2158.27827
668.588	2139.24602
669.031	2092.96725
669.474	2085.05428
669.917	2081.64911
670.36	2171.30127
670.803	2104.10025
671.245	1988.34122
671.688	2086.12089
672.13	2114.8026
672.573	2137.33726
673.015	2020.03815
673.457	2066.61436
673.899	2088.09271
674.341	2066.05948
674.783	2034.01655
675.225	2081.17292
675.666	2176.20291
676.108	2075.58786
676.549	2059.89869
676.991	2101.66094
677.432	2119.26762
677.873	2026.79194
678.314	2049.99025
678.755	2120.2045
679.196	2024.79618
679.637	2023.99787
680.078	2130.94629
680.518	2102.85178
680.959	2048.98787
681.399	1996.13579
681.839	2077.09528
682.28	2098.22617
682.72	2076.821
683.16	2104.24858
683.6	2224.86113
684.039	2131.41449
684.479	2104.19656
684.919	2179.00308
685.358	2117.24002
685.798	2114.47241
686.237	2181.06278
686.676	2117.78749
687.115	2257.03952
687.554	2263.12023
687.993	2256.74031
688.432	2240.87666
688.871	2246.90388
689.309	2274.13485
689.748	2403.49591
690.186	2353.03185
690.625	2353.05799
691.063	2303.11536
691.501	2359.33017
691.939	2439.46767
692.377	2460.25611
692.815	2584.34567
693.253	2440.14738
693.69	2516.73987
694.128	2516.28167
694.565	2538.14813
695.003	2573.60237
695.44	2636.16976
695.877	2599.12609
696.314	2623.55442
696.751	2740.92967
697.188	2748.06014
697.625	2702.85735
698.061	2745.24122
698.498	2756.16267
698.934	2833.2351
699.371	2899.14806
699.807	2813.1598
700.243	2902.29717
700.679	2904.83088
701.115	3029.08293
701.551	3034.05594
701.987	3003.70345
702.422	3001.22977
702.858	3170.21096
703.294	3224.95424
703.729	3203.3283
704.164	3198.20472
704.599	3277.78043
705.035	3310.7969
705.47	3376.28735
705.904	3364.97567
706.339	3396.91078
706.774	3473.01927
707.209	3533.96409
707.643	3568.13484
708.078	3616.23413
708.512	3581.47174
708.946	3735.00237
709.38	3661.05615
709.814	3739.69499
710.248	3775.22571
710.682	3916.03896
711.116	3901.14964
711.549	3816.5321
711.983	4001.71559
712.416	4101.86499
712.85	4036.20516
713.283	4025.85533
713.716	4116.17273
714.149	4105.67397
714.582	4256.39858
715.015	4200.04881
715.448	4309.21804
715.881	4372.03149
716.313	4314.62959
716.746	4443.66147
717.178	4490.7528
717.61	4550.17418
718.043	4524.93317
718.475	4572.77603
718.907	4623.96694
719.339	4749.18086
719.77	4673.62248
720.202	4686.95667
720.634	4888.69194
721.065	4800.41598
721.497	4879.66697
721.928	4856.662
722.359	5006.55887
722.79	4917.47269
723.221	4906.7543
723.652	4926.93897
724.083	5064.9326
724.514	5103.06077
724.945	5142.17079
725.375	5236.11623
725.806	5143.5564
726.236	5224.81647
726.666	5285.13857
727.096	5347.3832
727.526	5346.83195
727.956	5459.83784
728.386	5382.37908
728.816	5482.69786
729.246	5431.42129
729.675	5309.37722
730.105	5452.31785
730.534	5472.94877
730.964	5508.44317
731.393	5585.2576
731.822	5693.55879
732.251	5578.55747
732.68	5632.8152
733.109	5691.26931
733.537	5831.14489
733.966	5755.34147
734.395	5809.73971
734.823	5829.4334
735.251	5704.0515
735.68	5745.22265
736.108	5822.29478
736.536	5696.86324
736.964	5647.81653
737.392	5798.30608
737.82	5843.93186
738.247	5863.90941
738.675	5780.84241
739.102	5803.28898
739.53	5747.58943
739.957	5834.59826
740.384	5773.01956
740.811	5828.24503
741.238	5869.13939
741.665	5792.86486
742.092	5709.71741
742.519	5713.30569
742.945	5742.13118
743.372	5786.27641
743.798	5716.54103
744.225	5642.95274
744.651	5712.34765
745.077	5651.35427
745.503	5645.09695
745.929	5633.15189
746.355	5584.18209
746.781	5499.30491
747.207	5432.10658
747.632	5492.42465
748.058	5541.51623
748.483	5526.81038
748.908	5420.47526
749.334	5475.36499
749.759	5414.13907
750.184	5398.23477
750.609	5347.36538
751.033	5222.05805
751.458	5327.69315
751.883	5226.46184
752.307	5239.1261
752.732	5224.81647
753.156	5150.51339
753.58	5103.19825
754.005	5025.73236
754.429	5031.30832
754.853	4843.79601
755.277	4837.42415
755.7	5012.66078
756.124	4810.79341
756.548	4810.38413
756.971	4677.70903
757.394	4651.10169
757.818	4671.18644
758.241	4612.08908
758.664	4453.11245
759.087	4517.23885
759.51	4448.90809
759.933	4463.77323
760.356	4425.32423
760.778	4329.95217
761.201	4257.84289
761.623	4143.77933
762.046	4107.66459
762.468	4141.82866
762.89	4108.98467
763.312	4068.05243
763.734	3932.99519
764.156	3866.19745
764.578	3778.64661
765	3841.10302
765.421	3720.51682
765.843	3765.68901
766.264	3570.97609
766.686	3536.31938
767.107	3398.1986
767.528	3535.61778
767.949	3435.51795
768.37	3395.37329
768.791	3299.1316
769.212	3219.51649
769.632	3206.0252
770.053	3076.76099
770.473	3072.19875
770.894	3020.32661
771.314	2911.06562
771.734	2887.0055
772.154	2846.56609
772.575	2793.93306
772.994	2708.83777
773.414	2771.10694
773.834	2696.38384
774.254	2619.24595
774.673	2646.28449
775.093	2551.3651
775.512	2467.2879
775.931	2421.42244
776.351	2420.33008
776.77	2364.22199
777.189	2273.00303
777.607	2196.34293
778.026	2245.23718
778.445	2243.348
778.864	2118.24251
779.282	2108.93161
779.701	2067.16397
780.119	2015.19025
780.537	1992.07285
780.955	1932.0992
781.373	1878.95531
781.791	1908.62914
782.209	1782.50224
782.627	1821.21265
783.045	1717.49051
783.462	1728.97745
783.88	1643.95874
784.297	1628.81726
784.715	1678.97724
785.132	1600.60814
785.549	1566.72067
785.966	1514.69443
786.383	1521.63997
786.8	1470.35749
787.217	1447.4452
787.633	1383.55296
788.05	1341.22613
788.466	1373.26219
788.883	1368.6058
789.299	1326.27753
789.715	1245.27123
790.131	1243.32443
790.547	1226.30546
790.963	1171.2141
791.379	1171.27855
791.795	1091.85995
792.21	1119.96714
792.626	1101.97673
793.041	1030.99799
793.457	1061.03189
793.872	1029.85751
794.287	1074.0248
794.702	936.81541
795.117	987.97035
795.532	1000.02008
795.947	921.74344
796.362	862.62402
796.776	940.69779
797.191	851.71192
797.605	834.62346
798.02	820.64004
798.434	872.54427
798.848	790.64774
799.262	794.63998
799.676	804.62061
800.09	728.50688
800.504	711.44442
800.918	664.28227
801.331	667.46686
801.745	696.32619
802.158	604.29451
802.572	692.41887
802.985	616.26341
803.398	594.21492
803.811	565.24231
804.224	532.14489
804.637	577.19529
805.05	580.14337
805.462	562.194
805.875	503.16627
806.288	520.10991
806.7	426.95257
807.112	503.00781
807.525	414.90244
807.937	503.10208
808.349	420.93993
808.761	509.10869
809.173	450.97798
809.584	436.95884
809.996	428.93848
810.408	374.89398
810.819	434.9115
811.231	484.16385
811.642	513.12734
812.053	457.99636
812.464	372.79611
812.875	397.92697
813.286	361.85978
813.697	365.74715
814.108	340.75309
814.519	394.79209
814.929	350.81357
815.34	276.61084
815.75	350.82255
816.16	290.65733
816.571	342.81251
816.981	313.66537
817.391	296.64935
817.801	287.66201
818.211	283.61862
818.62	288.64244
819.03	315.70513
819.44	252.60265
819.849	215.50167
820.259	230.54415
820.668	245.56357
821.077	260.60631
821.486	235.51826
821.895	186.42504
822.304	212.52801
822.713	224.49017
823.122	210.48991
823.531	165.36221
823.939	229.52277
824.348	218.49093
824.756	197.46058
825.164	212.49691
825.573	187.44234
825.981	202.46643
826.389	212.49769
826.797	237.56472
827.205	227.48739
827.612	165.38183
828.02	137.30252
828.428	182.43659
828.835	146.36905
829.243	159.35404
829.65	152.3613
830.057	131.2999
830.464	153.35744
830.871	192.43256
831.278	175.39805
831.685	155.32275
832.092	154.3522
832.499	183.37512
832.905	140.33405
833.312	119.25143
833.718	172.40741
834.124	198.42265
834.531	133.3151
834.937	153.37393
835.343	141.31864
835.749	127.27598
836.155	138.34434
836.561	129.30184
836.966	97.22546
837.372	158.37844
837.777	143.33918
838.183	125.2604
838.588	135.32058
838.993	148.34079
839.399	112.26222
839.804	84.19659
840.209	77.19099
840.613	153.3183
841.018	102.24543
841.423	123.30117
841.828	100.24336
842.232	96.22282
842.637	159.35726
843.041	74.18358
843.445	114.27024
843.849	114.27014
844.253	112.25182
844.657	109.26402
845.061	106.23265
845.465	95.21915
845.869	107.23598
846.272	84.19697
846.676	63.14342
847.079	88.21655
847.483	118.27919
847.886	96.22044
848.289	89.2318
848.692	28.06819
849.095	90.20525
849.498	75.17954
849.901	89.19233
850.304	71.16222
850.707	69.16851
851.109	83.20006
851.512	93.21906
851.914	76.1855
852.316	131.31885
852.718	93.2368
853.121	91.21326
853.523	75.16617
853.925	87.22058
854.326	66.15989
854.728	85.21067
855.13	47.11853
855.531	115.26169
855.933	55.12541
856.334	98.23563
856.736	64.13851
857.137	96.21451
857.538	65.15851
857.939	92.22078
858.34	65.15018
858.741	70.17556
859.142	92.20939
859.542	55.14138
859.943	41.09826
860.343	64.15353
860.744	67.15671
861.144	80.18862
861.544	72.16837
861.945	85.20736
862.345	105.24308
862.745	101.24151
863.145	55.12353
863.544	91.22092
863.944	91.20464
864.344	65.15281
864.743	102.24077
865.143	109.27006
865.542	47.10313
865.941	84.19982
866.34	48.10894
866.74	52.13527
867.139	93.21556
867.537	70.16933
867.936	81.18723
868.335	49.11994
868.734	51.12604
869.132	50.10988
869.531	36.0828
869.929	37.08153
870.327	70.16061
870.726	57.1351
871.124	75.16575
871.522	89.21622
871.92	87.20509
872.318	63.14655
872.715	61.14262
873.113	77.17833
873.511	35.08388
873.908	56.13867
874.306	36.08728
874.703	79.18724
875.1	73.17649
875.497	68.15533
875.894	70.1678
876.291	90.21137
876.688	33.08254
877.085	56.12787
877.482	57.13713
877.878	57.13369
878.275	22.05434
878.671	63.12914
879.068	77.17748
879.464	80.18458
879.86	62.14037
880.256	16.03756
880.652	47.11525
881.048	25.05918
881.444	48.10792
881.84	54.13195
882.236	84.20182
882.631	75.17728
883.027	86.19764
883.422	29.07127
883.817	27.06623
884.213	28.06961
884.608	104.24873
885.003	28.06453
885.398	56.135
885.793	18.04356
886.188	21.05043
886.582	58.14173
886.977	85.19068
887.371	50.12086
887.766	35.08462
888.16	66.15507
888.554	109.25415
888.949	74.17793
889.343	56.13049
889.737	51.13283
890.131	42.10164
890.525	64.1586
890.918	35.08497
891.312	85.19154
891.706	-2.0051
892.099	70.17035
892.492	85.17218
892.886	47.11028
893.279	7.01727
893.672	69.17002
894.065	87.20851
894.458	36.08643
894.851	61.14217
895.244	40.09858
895.637	60.13904
896.029	93.21829
896.422	68.1569
896.814	56.13327
897.206	109.25004
897.599	103.24205
897.991	72.16771
898.383	61.1383
898.775	108.23344
899.167	25.05712
899.559	42.10152
899.951	63.14051
900.342	24.05845
900.734	63.15403
901.125	23.05809
901.517	40.09479
901.908	53.11982
902.299	31.07339
902.69	91.20632
903.082	105.24154
903.473	96.22256
903.863	46.11245
904.254	113.2514
904.645	43.10152
905.036	109.25625
905.426	40.08631
905.817	26.06114
906.207	36.08151
906.597	61.13802
906.987	59.14586
907.378	56.1371
907.768	47.12056
908.158	56.13065
908.547	70.1765
908.937	27.06614
909.327	53.12319
909.717	35.08427
910.106	66.15082
910.495	40.09501
910.885	57.13926
911.274	61.14608
911.663	64.15441
912.052	30.07049
912.441	42.10393
912.83	73.15823
913.219	45.11324
913.608	75.17645
913.997	5.0123
914.385	73.16652
914.774	69.16031
915.162	104.23824
915.55	60.13783
915.939	57.13957
916.327	42.10006
916.715	95.23529
917.103	58.1343
917.491	114.26659
917.878	94.21947
918.266	57.14169
918.654	92.22673
919.041	89.22589
919.429	54.12201
919.816	67.16271
920.203	100.23312
920.591	59.14076
920.978	98.22827
921.365	53.13476
921.752	30.06767
922.139	104.21275
922.525	70.16145
922.912	75.17398
923.299	53.12683
923.685	-3.00755
924.072	12.02596
924.458	89.21151
924.844	44.10487
925.231	11.02445
925.617	19.04738
926.003	51.12506
926.389	33.08032
926.774	62.15026
927.16	47.112
927.546	89.22123
927.931	33.07885
928.317	44.09625
928.702	36.08137
929.088	141.32176
929.473	87.21366
929.858	98.22998
930.243	88.20353
930.628	86.2019
931.013	34.08141
931.398	73.15667
931.783	42.1056
932.167	86.20293
932.552	59.1414
932.937	77.18144
933.321	56.13633
933.705	18.04338
934.09	63.14932
934.474	50.11251
934.858	82.20446
935.242	64.141
935.626	35.08707
936.009	54.14023
936.393	79.19552
936.777	102.251
937.16	75.18908
937.544	55.12171
937.927	23.05684
938.311	44.10237
938.694	101.25644
939.077	38.08743
939.46	75.17163
939.843	89.17005
940.226	27.0666
940.609	95.20952
940.991	-11.02707
941.374	90.21113
941.757	68.15983
942.139	35.0757
942.522	52.11677
942.904	96.21938
943.286	72.17463
943.668	122.30431
944.05	54.12781
944.432	41.09691
944.814	72.16765
945.196	41.09703
945.578	73.1688
945.959	63.13929
946.341	81.18566
946.722	52.116
947.104	48.11009
947.485	75.16624
947.866	81.19708
948.247	41.1008
948.628	8.01847
949.009	72.17692
949.39	56.1328
949.771	34.0739
950.152	86.20159
950.532	88.21295
950.913	93.21282
951.293	61.16067
951.674	49.11371
952.054	110.26448
952.434	48.1148
952.814	13.02946
953.194	31.07737
953.574	50.11757
953.954	9.0204
954.334	88.21151
954.714	58.13627
955.093	87.20373
955.473	82.19843
955.853	29.07269
956.232	63.16644
956.611	43.09749
956.99	56.13587
957.37	39.09514
957.749	55.12333
958.128	43.10509
958.506	41.10296
958.885	66.15905
959.264	85.20162
959.643	113.2443
960.021	54.12954
960.4	58.1251
960.778	40.09317
961.156	4.00968
961.535	88.19233
961.913	95.21215
962.291	56.14024
962.669	57.13962
963.047	57.14076
963.424	96.23746
963.802	73.17208
964.18	35.08385
964.557	91.19733
964.935	98.2198
965.312	89.22341
965.69	39.09304
966.067	30.06944
966.444	6.01401
966.821	93.22949
967.198	67.1532
967.575	47.11006
967.952	73.16322
968.329	94.21913
968.705	76.1554
969.082	93.23151
969.458	58.13531
969.835	84.19474
970.211	98.24303
970.587	66.15779
970.963	23.05653
971.339	49.1241
971.715	99.23591
972.091	55.1297
972.467	30.07098
972.843	115.27446
973.219	99.22282
973.594	40.10115
973.97	46.10181
974.345	49.11299
974.721	25.05733
975.096	104.24101
975.471	100.22364
975.846	50.11412
976.221	56.13694
976.596	110.25451
976.971	66.15724
977.346	58.12762
977.72	42.10252
978.095	40.09967
978.469	79.17853
978.844	61.14603
979.218	48.11225
979.593	79.17919
979.967	30.06889
980.341	108.23604
980.715	53.12871
981.089	84.20051
981.463	79.17226
981.837	67.15874
982.21	40.08646
982.584	27.06313
982.957	61.14714
983.331	76.16807
983.704	81.19257
984.078	66.15531
984.451	21.0495
984.824	77.18031
985.197	37.08488
985.57	37.0878
985.943	45.10455
986.316	20.04653
986.688	114.25936
987.061	135.2986
987.434	106.26746
987.806	12.02764
988.179	41.09228
988.551	82.19776
988.923	59.13822
989.295	75.17797
989.667	71.16463
990.039	92.22062
990.411	0
990.783	63.13597
991.155	38.0882
991.527	65.14971
991.898	83.19854
992.27	77.18398
992.641	66.15736
993.012	27.05927
993.384	37.0842
993.755	90.22058
994.126	74.17142
994.497	32.07565
994.868	58.12526
995.239	85.1953
995.61	33.08017
995.98	13.03043
996.351	72.17187
996.722	56.12565
997.092	40.09141
997.462	56.12673
997.833	49.10997
998.203	10.02302
998.573	66.15809
998.943	55.12399
999.313	73.16793
999.683	48.11084
1000.053	39.08363
1000.423	40.09251
1000.792	9.02235
1001.162	29.0682
1001.531	85.20014
1001.901	80.18921
1002.27	37.07718
1002.639	-1.00246
1003.009	42.09544
1003.378	66.16224
1003.747	39.08763
1004.116	51.11652
1004.485	99.224
1004.853	-10.02424
1005.222	9.02153
1005.591	55.12424
1005.959	91.19488
1006.328	17.03691
1006.696	51.11718
1007.064	34.0815
1007.433	24.05733
1007.801	64.14726
1008.169	12.02897
1008.537	75.15694
1008.905	41.0922
1009.273	7.01657
1009.64	97.22269
1010.008	54.12271
1010.375	37.0845
1010.743	80.16899
1011.11	87.19973
1011.478	80.19038
1011.845	50.11159
1012.212	88.19094
1012.579	54.12727
1012.946	62.13888
1013.313	54.12151
1013.68	41.08735
1014.047	24.05498
1014.414	12.02725
1014.78	38.09126
1015.147	70.15913
1015.513	57.13128
1015.88	59.14355
1016.246	31.07257
1016.612	64.13786
1016.978	85.19975
1017.344	35.0834
1017.71	85.19553
1018.076	73.16167
1018.442	70.17321
1018.808	94.2261
1019.174	24.05768
1019.539	15.03161
1019.905	43.09769
1020.27	19.04512
1020.636	21.04769
1021.001	83.18956
1021.366	49.11326
1021.731	70.17518
1022.096	40.09818
1022.461	61.13813
1022.826	92.20922
1023.191	61.154
1023.556	49.10897
1023.92	29.06786
1024.285	9.02094
1024.649	64.14873
1025.014	38.08925
1025.378	61.14803
1025.742	33.07806
1026.107	75.15999
1026.471	72.15843
1026.835	49.1165
1027.199	53.12236
1027.562	62.1355
1027.926	50.11624
1028.29	39.0951
1028.654	57.12418
1029.017	131.30472
1029.381	55.12607
1029.744	42.1032
1030.107	107.23894
1030.471	139.31463
1030.834	27.05772
1031.197	87.19861
1031.56	41.09198
1031.923	56.13948
1032.286	94.20874
1032.648	40.09016
1033.011	55.12226
1033.374	17.03792
1033.736	39.09916
1034.099	70.16293
1034.461	49.12003
1034.823	43.10341
1035.185	35.08391
1035.548	75.17487
1035.91	14.03221
1036.272	64.13928
1036.634	76.17696
1036.995	53.11777
1037.357	54.12648
1037.719	65.1512
1038.08	102.23121
1038.442	49.11092
1038.803	27.06114
1039.165	24.0581
1039.526	58.13404
1039.887	44.10063
1040.248	53.12751
1040.609	9.02122
1040.97	57.13269
1041.331	49.12011
1041.692	87.19645
1042.053	42.09055
1042.413	8.0178
1042.774	82.19018
1043.134	59.13192
1043.495	54.13008
1043.855	42.09887
1044.215	37.08766
1044.576	32.07404
1044.936	75.1618
1045.296	90.2136
1045.656	59.1367
1046.016	77.17557
1046.375	101.23206
1046.735	73.16019
1047.095	60.13385
1047.454	50.09894
1047.814	73.16726
1048.173	58.12998
1048.533	56.12208
1048.892	33.07643
1049.251	51.12172
1049.61	40.09468
1049.969	45.10099
1050.328	67.13728
1050.687	22.05112
1051.046	46.10677
1051.405	39.09219
1051.763	88.19387
1052.122	82.19454
1052.48	79.18514
1052.839	102.23102
1053.197	95.21118
1053.555	7.01495
1053.914	31.07257
1054.272	27.06119
1054.63	66.15452
1054.988	42.09656
1055.345	49.0984
1055.703	78.17889
1056.061	84.20915
1056.419	74.18679
1056.776	12.02751
1057.134	-9.01971
1057.491	71.16997
1057.848	39.09261
1058.206	22.04877
1058.563	11.02315
1058.92	50.10919
1059.277	86.20174
1059.634	22.04888
1059.991	62.14203
1060.348	43.09312
1060.704	60.13993
1061.061	49.10616
1061.418	54.12544
1061.774	26.0618
1062.131	80.20625
1062.487	35.07777
1062.843	26.06237
1063.199	96.22705
1063.555	77.17103
1063.911	8.0194
1064.267	72.1386
1064.623	79.185
1064.979	-8.01757
1065.335	102.22801
1065.691	-17.03879
1066.046	54.11222
1066.402	52.11153
1066.757	41.09957
1067.112	39.09133
1067.468	70.15971
1067.823	4.00906
1068.178	89.20261
1068.533	54.12504
1068.888	70.1581
1069.243	43.10184
1069.598	48.11075
1069.952	82.17899
1070.307	39.09329
1070.662	91.20774
1071.016	42.09121
1071.371	61.13267
1071.725	60.13534
1072.079	74.16979
1072.434	67.15597
1072.788	38.0853
1073.142	70.16447
1073.496	23.05223
1073.85	53.11674
1074.203	93.21428
1074.557	59.15308
1074.911	45.10178
1075.265	69.15211
1075.618	78.18147
1075.971	68.15364
1076.325	73.17901
1076.678	15.03296
1077.031	-39.08359
1077.385	34.07097
1077.738	41.08792
1078.091	58.12676
1078.444	17.03734
1078.796	49.116
1079.149	33.07912
1079.502	26.05944
1079.855	28.06267
1080.207	92.2143
1080.56	57.14257
1080.912	62.14368
1081.264	98.22458
1081.617	48.11251
1081.969	26.0637
1082.321	49.11403
1082.673	87.19115
1083.025	15.03397
1083.377	305.64723
1083.728	41.09076
1084.08	0
1084.432	34.07826
1084.783	41.0897
1085.135	19.04619
1085.486	39.08583
1085.838	40.09493
1086.189	56.13121
1086.54	73.16484
1086.891	109.26739
1087.242	122.28586
1087.593	48.10987
1087.944	91.1964
1088.295	58.12478
1088.646	100.23458
1088.996	19.04437
1089.347	15.03522
1089.698	50.11435
1090.048	39.09695
1090.398	43.0944
1090.749	24.05456
1091.099	88.21391
1091.449	75.17913
1091.799	54.12949
1092.149	51.12106
1092.499	67.15597
1092.849	47.11504
1093.199	49.11658
1093.548	81.1873
1093.898	41.09808
1094.248	-22.05444
1094.597	33.08242
1094.947	18.0467
1095.296	59.14027
1095.645	40.09978
1095.994	41.09428
1096.343	75.18105
1096.692	54.13912
1097.041	46.12252
1097.39	14.03369
1097.739	-4.01009
1098.088	64.16368
1098.437	19.04916
1098.785	25.06475
1099.134	13.03289
1099.482	35.09374
1099.83	87.21894
1100.179	89.22677
1100.527	2.0051
1100.875	62.15912
1101.223	93.2383
1101.571	-21.05659
1101.919	64.16477
1102.267	46.12688
1102.615	8.02568
1102.962	13.04164
1103.31	4.01285
1103.658	-4.01283
