Data from N3 R2 sample 6_Subt2__5__10-15-01-895.txt Node

Date: Thu Sep 18 10:15:01 PDT 2025
User: uwsun
Spectrometer: HDX01956
Trigger mode: 0
Integration Time (sec): 5.000000E-1
Scans to average: 1
Nonlinearity correction enabled: true
Boxcar width: 0
Storing dark spectrum: false
XAxis mode: Wavelengths
Number of Pixels in Spectrum: 2068
>>>>>Begin Spectral Data<<<<<
194.03	81.23237
194.578	77.24812
195.127	81.25718
195.676	78.24864
196.225	80.21081
196.773	106.29136
197.321	158.43152
197.87	213.53771
198.418	253.6389
198.966	258.666
199.513	274.68041
200.061	198.49815
200.609	301.77198
201.156	268.57182
201.704	271.66621
202.251	263.68443
202.798	193.49556
203.345	259.62824
203.892	303.74403
204.438	241.56101
204.985	275.63737
205.532	216.5605
206.078	243.58235
206.624	328.79661
207.17	294.67045
207.716	308.73344
208.262	311.59423
208.808	290.71041
209.354	320.76698
209.899	273.67088
210.445	235.57879
210.99	313.74091
211.535	297.68043
212.08	286.64589
212.625	211.52045
213.17	282.70129
213.715	272.60701
214.259	292.66294
214.804	228.54983
215.348	298.66914
215.892	313.73662
216.436	299.66077
216.98	217.46894
217.524	310.71833
218.068	296.72644
218.612	277.68773
219.155	227.52801
219.698	249.57986
220.242	218.5291
220.785	230.53086
221.328	209.50868
221.871	288.7136
222.414	262.63134
222.956	171.40528
223.499	236.51403
224.041	223.499
224.583	216.44586
225.126	239.51139
225.668	258.61039
226.21	270.66534
226.751	266.57568
227.293	265.58123
227.835	237.56818
228.376	223.49592
228.918	212.51801
229.459	225.55028
230	258.60354
230.541	259.5786
231.082	236.56202
231.622	218.48248
232.163	197.46744
232.704	303.73301
233.244	250.6047
233.784	219.51963
234.324	292.63491
234.864	272.5947
235.404	254.58112
235.944	265.60518
236.484	276.66834
237.023	260.59508
237.563	279.62816
238.102	278.63653
238.641	235.57687
239.18	211.48634
239.719	255.62155
240.258	273.59348
240.797	270.6259
241.335	260.61417
241.874	270.50851
242.412	279.65764
242.95	303.70698
243.488	223.48932
244.026	267.60336
244.564	300.5931
245.102	286.62689
245.64	212.49613
246.177	223.48417
246.715	312.72153
247.252	194.43295
247.789	289.5137
248.326	234.55169
248.863	260.55596
249.4	283.61992
249.936	360.71606
250.473	270.6202
251.009	254.56543
251.546	273.59146
252.082	216.45647
252.618	251.54658
253.154	288.6708
253.69	288.62329
254.226	292.67609
254.761	260.56678
255.297	273.5768
255.832	284.65418
256.367	263.60037
256.903	329.7009
257.438	246.56191
257.972	282.60691
258.507	200.45114
259.042	270.56909
259.576	344.7276
260.111	303.66961
260.645	299.62148
261.179	276.62712
261.713	273.59272
262.247	213.47682
262.781	292.59353
263.315	216.5136
263.849	228.55938
264.382	296.65564
264.915	322.73281
265.449	217.51985
265.982	279.61348
266.515	349.8194
267.048	307.6253
267.58	273.56946
268.113	268.56189
268.646	260.61869
269.178	320.68572
269.71	340.71914
270.243	334.74227
270.775	301.74785
271.307	274.63115
271.838	349.7867
272.37	282.66948
272.902	299.65248
273.433	354.74842
273.965	278.6549
274.496	274.659
275.027	323.77432
275.558	354.82676
276.089	304.73446
276.62	256.62853
277.15	276.65827
277.681	256.53507
278.211	315.7393
278.741	315.67282
279.272	290.64209
279.802	282.68004
280.332	287.65647
280.861	295.68128
281.391	276.60829
281.921	282.65268
282.45	253.61138
282.98	296.74732
283.509	350.76133
284.038	290.64235
284.567	322.72125
285.096	333.77635
285.625	297.64455
286.153	328.75431
286.682	309.68486
287.21	252.58465
287.739	284.65026
288.267	317.74458
288.795	315.79429
289.323	298.6771
289.851	373.83632
290.378	292.6287
290.906	316.74642
291.433	302.72825
291.961	338.74086
292.488	318.76016
293.015	309.7048
293.542	367.90413
294.069	367.87004
294.596	290.68635
295.122	359.8241
295.649	339.70933
296.175	361.82968
296.702	359.8409
297.228	329.76129
297.754	338.72898
298.28	323.71618
298.806	297.69325
299.332	368.78551
299.857	352.76568
300.383	360.86676
300.908	325.77109
301.433	403.93876
301.958	365.79817
302.483	296.71082
303.008	396.93786
303.533	340.84364
304.058	350.78072
304.582	393.8826
305.107	297.74998
305.631	341.74129
306.155	337.75468
306.679	417.92803
307.203	378.83654
307.727	342.77863
308.251	421.98376
308.775	447.02354
309.298	364.84042
309.822	389.93142
310.345	428.96729
310.868	417.95337
311.391	396.92844
311.914	390.93221
312.437	409.88568
312.96	383.8605
313.482	383.85732
314.005	368.87897
314.527	391.96996
315.049	404.97376
315.571	375.80617
316.093	452.053
316.615	377.86367
317.137	427.87723
317.659	461.0472
318.18	421.94895
318.702	439.9709
319.223	439.83802
319.744	495.03521
320.265	393.91367
320.786	489.1436
321.307	465.07803
321.828	487.0225
322.348	442.98141
322.869	533.17528
323.389	734.25087
323.909	454.9745
324.43	472.05554
324.95	477.01996
325.47	540.24106
325.989	503.11134
326.509	511.06165
327.029	512.08572
327.548	482.01932
328.067	510.15332
328.587	557.29216
329.106	511.06685
329.625	521.26406
330.144	547.17395
330.662	596.27954
331.181	574.24441
331.7	573.22085
332.218	604.18909
332.736	579.24326
333.255	603.29709
333.773	563.22339
334.291	622.42177
334.808	609.24875
335.326	604.23429
335.844	646.3769
336.361	688.60357
336.879	648.38176
337.396	688.5096
337.913	675.40235
338.43	701.40984
338.947	644.39637
339.464	679.30847
339.981	656.4067
340.497	654.45838
341.014	699.53086
341.53	695.40032
342.046	793.75217
342.562	683.53721
343.078	716.50514
343.594	743.56915
344.11	777.64388
344.626	745.68093
345.141	768.54796
345.657	787.56052
346.172	805.70687
346.687	773.56055
347.202	808.61303
347.717	820.71037
348.232	826.80576
348.747	867.72816
349.261	815.55523
349.776	867.78571
350.29	826.81866
350.805	889.90063
351.319	830.6792
351.833	830.66389
352.347	851.74566
352.861	846.72565
353.374	882.72028
353.888	893.88782
354.401	862.69155
354.915	933.78939
355.428	923.98013
355.941	922.83154
356.454	928.74689
356.967	891.78426
357.48	922.77547
357.993	934.96723
358.505	935.94309
359.018	1010.08303
359.53	1012.07879
360.042	978.83578
360.554	1075.1842
361.066	975.00849
361.578	1062.92356
362.09	1025.03628
362.602	1053.93186
363.113	1098.12057
363.625	1052.97109
364.136	1077.9276
364.647	1078.10959
365.158	1122.12481
365.669	1102.15969
366.18	1080.09168
366.691	1094.94358
367.201	1107.17612
367.712	1161.13768
368.222	1153.14192
368.733	1160.0091
369.243	1251.18968
369.753	1210.21657
370.263	1259.41209
370.773	1191.33612
371.282	1283.4112
371.792	1296.34152
372.301	1315.48234
372.811	1337.77963
373.32	1409.27353
373.829	1365.47104
374.338	1504.44092
374.847	1477.5337
375.356	1545.67207
375.865	1631.44227
376.373	1631.63491
376.882	1720.12278
377.39	1701.91141
377.898	1742.02123
378.407	1815.77975
378.915	1934.7199
379.423	1952.96761
379.93	2064.0383
380.438	2084.19322
380.946	2283.15257
381.453	2381.34565
381.96	2478.35727
382.468	2645.31991
382.975	2721.56492
383.482	2790.07608
383.989	2888.89127
384.495	3077.30445
385.002	3186.69926
385.509	3270.41758
386.015	3597.42938
386.521	3712.99414
387.028	3843.92656
387.534	3950.50425
388.04	4098.21002
388.546	4234.55253
389.051	4567.34898
389.557	4826.52731
390.063	5022.24078
390.568	5204.57038
391.073	5345.94651
391.578	5529.50139
392.084	5803.87394
392.589	6248.42149
393.093	6772.91303
393.598	7284.73825
394.103	7907.19405
394.607	8661.99939
395.112	9188.88262
395.616	9734.04603
396.12	10499.44364
396.624	11528.63163
397.128	12426.32176
397.632	13724.5256
398.136	15001.9657
398.639	16529.51967
399.143	19032.32395
399.646	20888.40088
400.15	23151.72086
400.653	25916.18489
401.156	29624.20515
401.659	34371.41007
402.162	44213.04175
402.664	59841.10808
403.167	63817.80463
403.67	63769.22307
404.172	63919.58413
404.674	63858.43483
405.176	63738.15102
405.678	63977.72923
406.18	64011.81569
406.682	63863.44694
407.184	63926.60148
407.686	63841.39382
408.187	64025.8516
408.688	63892.51763
409.19	63833.37461
409.691	60725.76915
410.192	51888.38543
410.693	46395.45411
411.194	43531.32701
411.694	40926.21406
412.195	37236.11793
412.696	34814.57791
413.196	33726.00674
413.696	34329.32899
414.196	34184.22396
414.696	32389.72529
415.196	29863.23814
415.696	24459.43423
416.196	18709.52327
416.695	15880.39979
417.195	14911.40428
417.694	14307.0268
418.194	13320.70609
418.693	12761.90616
419.192	12369.16055
419.691	12113.78829
420.19	11707.38774
420.688	11461.0918
421.187	10713.67713
421.685	9870.42139
422.184	8617.89211
422.682	7277.4911
423.18	6651.67741
423.678	5889.8378
424.176	5566.9697
424.674	5333.91907
425.172	4864.5442
425.669	4522.04303
426.167	4273.77704
426.664	3886.81181
427.161	3717.96506
427.659	3369.41789
428.156	3287.65896
428.652	3002.70153
429.149	2929.45897
429.646	2792.97608
430.143	2664.35283
430.639	2495.24997
431.135	2370.48933
431.632	2274.99989
432.128	2097.14044
432.624	2091.48352
433.12	2031.87616
433.616	1989.69213
434.111	1896.95531
434.607	1835.94007
435.103	1776.40025
435.598	1707.33592
436.093	1578.60753
436.588	1513.43315
437.083	1526.43021
437.578	1438.4475
438.073	1399.6567
438.568	1306.48143
439.062	1334.10893
439.557	1295.30956
440.051	1218.1089
440.546	1171.07902
441.04	1191.25202
441.534	1143.31418
442.028	1133.17949
442.522	1038.0321
443.015	998.72598
443.509	1048.07773
444.002	1056.10429
444.496	1027.78615
444.989	1012.01552
445.482	997.04014
445.975	1060.97344
446.468	1008.75808
446.961	982.73059
447.454	942.73949
447.947	932.85572
448.439	993.01094
448.931	989.85601
449.424	938.00673
449.916	977.97376
450.408	889.69996
450.9	863.77826
451.392	876.89417
451.884	859.66229
452.375	826.75257
452.867	807.54068
453.358	849.64057
453.849	811.4617
454.341	779.5051
454.832	888.58735
455.323	861.82569
455.814	796.55305
456.304	756.50839
456.795	797.5517
457.285	752.41921
457.776	751.47379
458.266	768.57135
458.756	694.43515
459.247	700.4663
459.737	751.57636
460.226	747.468
460.716	696.45791
461.206	659.39218
461.695	642.41035
462.185	683.4234
462.674	652.31206
463.163	694.35504
463.653	689.27057
464.142	614.32785
464.63	621.33986
465.119	617.27429
465.608	693.41932
466.096	631.20358
466.585	604.22592
467.073	556.18072
467.561	600.28537
468.05	570.17524
468.538	561.23556
469.026	524.1262
469.513	509.97025
470.001	591.21014
470.489	556.19047
470.976	554.16522
471.463	489.11495
471.951	499.13276
472.438	494.05706
472.925	490.05255
473.412	489.08396
473.899	494.03061
474.385	468.05217
474.872	442.95079
475.359	463.04708
475.845	482.90562
476.331	425.83334
476.817	456.02096
477.303	396.85735
477.789	412.91139
478.275	411.94985
478.761	404.89221
479.247	363.75786
479.732	402.93624
480.218	419.02232
480.703	344.79931
481.188	395.79392
481.673	355.76646
482.158	353.71539
482.643	372.89327
483.128	396.86065
483.612	367.82084
484.097	330.75193
484.581	343.74722
485.066	410.93529
485.55	338.70395
486.034	372.75269
486.518	328.74314
487.002	273.63449
487.486	302.69675
487.969	284.65835
488.453	269.64071
488.936	294.6292
489.42	355.73623
489.903	255.609
490.386	192.38528
490.869	352.72364
491.352	241.55769
491.835	298.57699
492.318	297.63383
492.8	283.55726
493.283	290.70672
493.765	241.56874
494.247	257.57342
494.73	283.59662
495.212	237.54059
495.694	282.63452
496.175	307.70108
496.657	295.66472
497.139	253.41294
497.62	217.50495
498.102	255.60993
498.583	179.428
499.064	246.52671
499.545	233.51148
500.026	279.60239
500.507	229.5082
500.988	303.72112
501.469	232.55758
501.949	226.53882
502.43	229.53287
502.91	284.57358
503.39	215.51564
503.87	254.57667
504.35	223.50353
504.83	192.40771
505.31	187.4384
505.79	188.43203
506.269	158.35465
506.749	161.35968
507.228	176.40413
507.707	251.53753
508.187	235.54143
508.666	252.60057
509.145	165.37713
509.623	177.40407
510.102	198.46519
510.581	250.58001
511.059	201.49159
511.538	194.48651
512.016	218.50557
512.494	175.41027
512.972	203.47181
513.45	182.41372
513.928	199.47018
514.406	204.48582
514.884	204.51122
515.361	208.48277
515.839	236.52406
516.316	210.49511
516.793	182.44802
517.27	182.4266
517.747	193.48235
518.224	154.34766
518.701	180.38757
519.178	205.49839
519.654	187.43119
520.131	171.41402
520.607	99.23952
521.083	122.27261
521.56	160.36916
522.036	152.32432
522.512	201.48244
522.987	233.54217
523.463	193.44503
523.939	249.59559
524.414	158.35407
524.89	143.33539
525.365	205.44907
525.84	190.44483
526.315	203.47777
526.79	182.40012
527.265	231.51541
527.74	140.33405
528.215	147.33653
528.689	123.26592
529.164	170.3558
529.638	136.3391
530.112	153.3528
530.587	195.40532
531.061	180.42521
531.534	187.43909
532.008	198.46845
532.482	212.47214
532.956	154.38538
533.429	167.40008
533.903	166.35558
534.376	179.38583
534.849	169.37973
535.322	176.40543
535.795	123.29299
536.268	205.4821
536.741	176.40785
537.213	178.39922
537.686	208.4942
538.158	222.48846
538.631	141.33586
539.103	168.37121
539.575	166.33388
540.047	157.33536
540.519	195.4534
540.991	178.42391
541.463	153.36108
541.934	134.29819
542.406	165.38834
542.877	197.43228
543.348	189.445
543.82	196.4639
544.291	201.45626
544.762	174.40514
545.233	222.54587
545.703	202.4368
546.174	197.44464
546.645	200.47117
547.115	200.47007
547.585	224.49866
548.056	223.53218
548.526	226.51997
548.996	219.50779
549.466	237.55691
549.935	232.53676
550.405	215.45824
550.875	233.53554
551.344	226.52205
551.814	291.63718
552.283	297.61787
552.752	295.66118
553.221	311.65334
553.69	306.65941
554.159	301.71719
554.628	328.7059
555.096	233.57492
555.565	207.44522
556.033	316.71829
556.502	194.45686
556.97	255.54656
557.438	261.5898
557.906	257.58431
558.374	226.50832
558.842	223.5185
559.31	265.5702
559.777	267.62838
560.245	224.49804
560.712	239.52885
561.18	264.56158
561.647	242.51792
562.114	270.59432
562.581	307.72137
563.048	290.63512
563.514	345.82169
563.981	316.68826
564.448	349.74447
564.914	282.62724
565.381	346.74719
565.847	374.81837
566.313	355.77664
566.779	354.75071
567.245	324.71197
567.711	355.80251
568.176	394.82568
568.642	433.0144
569.108	420.9635
569.573	414.89172
570.038	406.78724
570.504	411.86453
570.969	463.05939
571.434	513.03358
571.899	483.05018
572.363	546.13072
572.828	651.32057
573.293	572.17673
573.757	602.24799
574.222	604.20416
574.686	685.38015
575.15	668.42138
575.614	666.38824
576.078	675.39363
576.542	675.34875
577.006	742.44618
577.469	764.63008
577.933	813.5739
578.396	782.59425
578.86	819.64219
579.323	850.74008
579.786	867.56446
580.249	970.88234
580.712	909.85386
581.175	932.92183
581.637	921.73835
582.1	1064.83368
582.563	1087.80456
583.025	1084.12534
583.487	1212.86989
583.95	1143.88961
584.412	1300.00563
584.874	1303.43221
585.336	1398.45906
585.797	1463.25609
586.259	1519.54156
586.721	1581.61182
587.182	1685.63991
587.643	1792.67002
588.105	1808.83413
588.566	1914.42163
589.027	2119.21323
589.488	2165.93117
589.949	2294.26273
590.41	2397.35657
590.87	2584.04768
591.331	2691.82185
591.791	2859.13596
592.252	3074.16422
592.712	3266.31469
593.172	3429.95061
593.632	3790.67902
594.092	3797.68679
594.552	4049.39347
595.011	4338.60548
595.471	4737.31873
595.931	4910.19188
596.39	5322.40281
596.849	5559.05327
597.308	5920.33277
597.768	6358.49629
598.227	6740.8805
598.685	7202.61478
599.144	7630.94464
599.603	7998.15182
600.062	8611.65039
600.52	9282.98361
600.978	9847.35645
601.437	10247.63013
601.895	11217.80149
602.353	11665.9051
602.811	12469.35292
603.269	13194.67933
603.727	13709.41262
604.184	14607.84653
604.642	15571.78975
605.099	16458.38524
605.557	17326.61279
606.014	17991.93039
606.471	19020.38161
606.928	19950.62335
607.385	20972.59825
607.842	21858.11541
608.299	22677.46794
608.755	23628.15177
609.212	24523.34478
609.668	25507.71337
610.125	26404.008
610.581	27119.09082
611.037	28078.15773
611.493	28880.72919
611.949	29599.91435
612.405	30326.32119
612.861	30900.98996
613.316	31346.66798
613.772	32048.2582
614.227	32381.52516
614.683	32858.90754
615.138	32965.2645
615.593	33095.59226
616.048	33537.67602
616.503	33762.68842
616.958	33488.80041
617.412	33601.64938
617.867	33621.73294
618.321	33256.79184
618.776	32930.97092
619.23	32544.49759
619.684	32151.69993
620.138	31645.47382
620.592	31395.94627
621.046	30947.95872
621.5	30427.21181
621.954	29799.24985
622.407	29241.08772
622.861	28626.86594
623.314	28076.976
623.768	27938.23667
624.221	26978.60414
624.674	26293.77882
625.127	25841.54446
625.58	25471.48056
626.033	24925.67722
626.485	24655.30645
626.938	23757.64095
627.39	23429.46654
627.843	22887.04984
628.295	22096.55725
628.747	21902.70204
629.199	21449.5416
629.651	21115.50565
630.103	20778.64901
630.555	20222.11821
631.006	19720.29876
631.458	19520.17979
631.909	18969.03212
632.361	18717.84967
632.812	18430.95401
633.263	18387.06002
633.714	17939.85058
634.165	17609.55669
634.616	17365.91869
635.067	17003.22813
635.518	16785.94049
635.968	16702.13489
636.419	16519.70002
636.869	16380.33783
637.319	16054.16961
637.769	16118.54573
638.219	16027.5394
638.669	15926.29127
639.119	15800.82949
639.569	15811.88891
640.019	15949.13306
640.468	15919.43569
640.918	16029.45865
641.367	15961.93199
641.816	16059.14553
642.265	16262.34761
642.714	16213.18887
643.163	16454.71275
643.612	16578.7746
644.061	16418.99824
644.51	16612.70288
644.958	16818.96232
645.406	16982.05087
645.855	16984.70664
646.303	16857.38463
646.751	17230.79663
647.199	17355.83877
647.647	17333.97307
648.095	17273.69342
648.543	17468.86475
648.99	17465.73499
649.438	17478.87263
649.885	17612.57297
650.333	17510.37362
650.78	17372.44953
651.227	17543.2123
651.674	17101.57861
652.121	17045.14743
652.568	16971.31634
653.015	16990.31645
653.461	16780.82552
653.908	16706.78304
654.354	16450.01399
654.801	16126.75612
655.247	15907.03001
655.693	15578.80416
656.139	15429.0617
656.585	15298.74225
657.031	15068.7769
657.477	14767.17095
657.922	14693.82359
658.368	14402.88462
658.813	14088.41399
659.259	13913.98479
659.704	13770.15118
660.149	13542.76081
660.594	13166.58336
661.039	12977.72598
661.484	12717.53834
661.929	12412.73934
662.373	12238.05758
662.818	12026.00409
663.262	11868.32821
663.707	11722.22762
664.151	11526.55219
664.595	11261.36771
665.039	11182.89605
665.483	10942.81256
665.927	10836.714
666.371	10877.86483
666.814	10568.64584
667.258	10356.87065
667.701	10409.42997
668.145	10197.30913
668.588	10095.01256
669.031	9894.49925
669.474	9899.49281
669.917	9856.49617
670.36	9632.80547
670.803	9688.93602
671.245	9412.35572
671.688	9263.98839
672.13	9134.66604
672.573	9183.89521
673.015	8955.40803
673.457	8949.27407
673.899	8813.18503
674.341	8766.1038
674.783	8787.12393
675.225	8647.99646
675.666	8572.88305
676.108	8425.3855
676.549	8401.52018
676.991	8508.53161
677.432	8289.06767
677.873	8235.26867
678.314	8046.22447
678.755	8060.38766
679.196	7909.95858
679.637	7813.07169
680.078	7659.87092
680.518	7561.73886
680.959	7642.94711
681.399	7509.09301
681.839	7483.97488
682.28	7408.08806
682.72	7290.60305
683.16	7236.07516
683.6	7237.56038
684.039	7113.10479
684.479	7018.98846
684.919	6951.68906
685.358	6980.0347
685.798	6804.37797
686.237	6882.7589
686.676	6789.45222
687.115	6859.6877
687.554	6817.78378
687.993	6649.33272
688.432	6620.50433
688.871	6609.5361
689.309	6629.81222
689.748	6544.02655
690.186	6673.64138
690.625	6632.67688
691.063	6539.78524
691.501	6647.01427
691.939	6628.15174
692.377	6546.89006
692.815	6557.95367
693.253	6478.77591
693.69	6471.27984
694.128	6433.92487
694.565	6514.73851
695.003	6558.27505
695.44	6510.74175
695.877	6562.69056
696.314	6495.07396
696.751	6559.45753
697.188	6457.61235
697.625	6457.39337
698.061	6452.81758
698.498	6520.71465
698.934	6499.79248
699.371	6512.69326
699.807	6508.70909
700.243	6443.86943
700.679	6518.36301
701.115	6677.61216
701.551	6555.59751
701.987	6589.24515
702.422	6581.77085
702.858	6720.75001
703.294	6814.51375
703.729	6679.87447
704.164	6630.75659
704.599	6798.36881
705.035	6694.38825
705.47	6784.85187
705.904	6701.56319
706.339	6799.51109
706.774	6827.62652
707.209	6832.59415
707.643	6969.75722
708.078	7070.86298
708.512	7126.06502
708.946	7059.70216
709.38	7097.72982
709.814	7186.49185
710.248	7167.91179
710.682	7308.83731
711.116	7235.90088
711.549	7239.18776
711.983	7225.60276
712.416	7385.79475
712.85	7377.02004
713.283	7438.78266
713.716	7501.06047
714.149	7487.70722
714.582	7580.63337
715.015	7499.99941
715.448	7618.20176
715.881	7671.52764
716.313	7628.81972
716.746	7768.96523
717.178	7748.02239
717.61	7842.3618
718.043	7943.26808
718.475	7808.10041
718.907	7939.31703
719.339	8013.9961
719.77	7896.10299
720.202	7934.32823
720.634	8183.44067
721.065	8126.22706
721.497	8100.35163
721.928	8241.47198
722.359	8247.46928
722.79	8356.52374
723.221	8304.5928
723.652	8390.77486
724.083	8334.32097
724.514	8409.46895
724.945	8397.502
725.375	8581.74425
725.806	8483.76039
726.236	8441.8503
726.666	8549.7159
727.096	8590.87038
727.526	8717.21005
727.956	8645.79139
728.386	8745.08889
728.816	8618.06132
729.246	8752.12191
729.675	8614.89236
730.105	8686.99774
730.534	8665.85423
730.964	8730.11255
731.393	8839.22612
731.822	9014.61066
732.251	8834.31446
732.68	8878.18679
733.109	8839.24574
733.537	8860.2608
733.966	8929.41813
734.395	8903.23148
734.823	8866.11617
735.251	8636.87947
735.68	8718.05998
736.108	8655.01377
736.536	8736.97009
736.964	8689.8779
737.392	8618.96677
737.82	8570.76831
738.247	8575.77016
738.675	8449.56529
739.102	8418.72138
739.53	8426.86176
739.957	8387.84924
740.384	8283.44325
740.811	8318.59971
741.238	8225.46369
741.665	8186.27338
742.092	7875.89556
742.519	7913.26171
742.945	7909.16279
743.372	7876.24113
743.798	7671.28481
744.225	7822.96993
744.651	7632.13307
745.077	7590.09875
745.503	7331.82271
745.929	7423.88748
746.355	7281.8496
746.781	7148.88384
747.207	6992.68328
747.632	7007.96371
748.058	6934.06057
748.483	6939.48305
748.908	6858.97528
749.334	6793.91135
749.759	6676.70206
750.184	6616.78358
750.609	6593.87658
751.033	6418.57949
751.458	6385.31609
751.883	6241.98984
752.307	6122.72526
752.732	6117.36602
753.156	5948.10806
753.58	6022.75679
754.005	5844.29632
754.429	5711.95141
754.853	5654.34979
755.277	5547.0364
755.7	5510.38524
756.124	5458.43078
756.548	5307.10657
756.971	5252.38485
757.394	5163.81379
757.818	5076.95956
758.241	5119.80474
758.664	4942.8437
759.087	4927.00683
759.51	4757.73888
759.933	4843.56204
760.356	4650.20707
760.778	4666.77178
761.201	4539.69383
761.623	4483.60208
762.046	4349.53982
762.468	4347.72421
762.89	4324.87852
763.312	4298.94149
763.734	4150.89578
764.156	4127.08613
764.578	4042.52496
765	3976.0474
765.421	3840.47799
765.843	3765.68901
766.264	3620.95935
766.686	3575.30883
767.107	3530.16476
767.528	3605.60167
767.949	3479.50918
768.37	3465.35839
768.791	3315.12836
769.212	3197.51832
769.632	3237.01945
770.053	3124.76229
770.473	3107.19561
770.894	3003.32696
771.314	2979.06259
771.734	2945.00302
772.154	2812.56111
772.575	2883.93142
772.994	2769.83862
773.414	2811.10904
773.834	2601.36315
774.254	2611.24432
774.673	2627.28069
775.093	2531.35924
775.512	2490.29524
775.931	2394.41113
776.351	2429.33346
776.77	2358.21965
777.189	2285.00763
777.607	2310.40486
778.026	2279.25371
778.445	2189.31762
778.864	2121.24438
779.282	2093.92393
779.701	2045.14962
780.119	1960.14995
780.537	1949.0427
780.955	1939.10453
781.373	1932.99503
781.791	1875.60982
782.209	1883.56354
782.627	1775.16782
783.045	1758.51907
783.462	1738.98696
783.88	1690.0068
784.297	1619.80818
784.715	1634.93134
785.132	1632.63727
785.549	1535.68809
785.966	1531.71301
786.383	1537.65676
786.8	1537.41957
787.217	1470.46901
787.633	1422.59992
788.05	1394.28126
788.466	1354.24233
788.883	1320.54313
789.299	1232.16808
789.715	1359.40933
790.131	1279.3709
790.547	1224.30281
790.963	1206.26112
791.379	1218.34395
791.795	1193.97916
792.21	1119.96714
792.626	1091.96372
793.041	1157.17589
793.457	1019.9724
793.872	975.78398
794.287	1009.93352
794.702	989.89423
795.117	1001.99188
795.532	1000.02008
795.947	909.7257
796.362	940.73752
796.776	901.64333
797.191	921.82319
797.605	909.73826
798.02	826.64977
798.434	907.59185
798.848	832.71931
799.262	829.69897
799.676	795.60575
800.09	800.62951
800.504	764.53354
800.918	728.38458
801.331	630.39613
801.745	723.36872
802.158	654.38673
802.572	708.44649
802.985	686.38501
803.398	646.30593
803.811	622.35148
804.224	635.33673
804.637	641.30913
805.05	596.17056
805.462	574.21636
805.875	596.35682
806.288	521.11181
806.7	501.10092
807.112	529.05365
807.525	506.07951
807.937	535.16443
808.349	477.05293
808.761	525.13973
809.173	488.05005
809.584	476.03603
809.996	412.90645
810.408	469.09846
810.819	443.92856
811.231	528.25925
811.642	483.06797
812.053	469.01795
812.464	406.86247
812.875	401.93557
813.286	446.04267
813.697	414.83805
814.108	368.81034
814.519	427.8519
814.929	393.90573
815.34	313.68737
815.75	371.86832
816.16	316.71247
816.571	320.76347
816.981	311.6614
817.391	266.58723
817.801	309.70963
818.211	355.76417
818.62	344.75845
819.03	294.66098
819.44	222.53395
819.849	283.65149
820.259	280.65602
820.668	262.60062
821.077	275.63939
821.486	280.61167
821.895	259.58313
822.304	228.5662
822.713	212.46509
823.122	240.55659
823.531	186.40651
823.939	241.54883
824.348	255.5699
824.756	213.49642
825.164	253.58824
825.573	169.40116
825.981	218.50177
826.389	227.53134
826.797	239.56927
827.205	257.54823
827.612	191.43971
828.02	157.34523
828.428	201.48042
828.835	167.42054
829.243	200.44154
829.65	223.52279
830.057	166.37735
830.464	206.47623
830.871	217.48638
831.278	200.45261
831.685	123.25794
832.092	154.3522
832.499	187.38297
832.905	179.42391
833.312	169.35316
833.718	191.45076
834.124	188.40218
834.531	117.27805
834.937	160.39052
835.343	149.33617
835.749	138.29918
836.155	121.30285
836.561	154.35857
836.966	175.40047
837.372	115.27771
837.777	146.3461
838.183	132.27455
838.588	110.26247
838.993	142.32737
839.399	137.31918
839.804	87.20349
840.209	124.30491
840.613	133.27793
841.018	109.26193
841.423	162.39378
841.828	152.36629
842.232	98.22737
842.637	163.36595
843.041	117.28797
843.445	92.21902
843.849	106.25157
844.253	144.32163
844.657	77.18763
845.061	206.44259
845.465	99.22819
845.869	115.2532
846.272	117.27258
846.676	59.13442
847.079	132.32219
847.483	126.29765
847.886	154.34951
848.289	102.26506
848.692	53.12847
849.095	127.28747
849.498	117.27784
849.901	115.24713
850.304	106.24047
850.707	83.20217
851.109	101.24261
851.512	91.21443
851.914	107.25966
852.316	131.31885
852.718	125.31647
853.121	106.24769
853.523	75.16617
853.925	94.23803
854.326	108.25957
854.728	82.20335
855.13	64.16091
855.531	87.19909
855.933	39.08921
856.334	79.19063
856.736	99.21266
857.137	132.29276
857.538	64.1561
857.939	120.28644
858.34	92.21142
858.741	78.19534
859.142	69.15778
859.542	67.17186
859.943	120.28326
860.343	51.12265
860.744	95.22098
861.144	98.23025
861.544	45.10579
861.945	84.20495
862.345	88.20442
862.745	109.26024
863.145	64.14348
863.544	107.25898
863.944	77.17366
864.344	42.09918
864.743	114.26847
865.143	90.22376
865.542	21.04633
865.941	97.23017
866.34	84.18925
866.74	64.16614
867.139	122.28115
867.537	51.12381
867.936	90.20766
868.335	48.11751
868.734	50.12359
869.132	14.031
869.531	72.1644
869.929	103.22383
870.327	64.14702
870.726	47.11161
871.124	84.18529
871.522	34.08345
871.92	71.16789
872.318	74.17176
872.715	72.16798
873.113	76.17605
873.511	68.16195
873.908	75.18507
874.306	122.29099
874.703	68.16151
875.1	38.09248
875.497	56.12823
875.894	94.2243
876.291	62.14641
876.688	37.09248
877.085	39.08936
877.482	122.28988
877.878	124.28701
878.275	59.14473
878.671	31.064
879.068	72.16613
879.464	88.20272
879.86	49.11123
880.256	55.12814
880.652	34.08358
881.048	66.15501
881.444	40.09008
881.84	68.16573
882.236	88.21127
882.631	90.21212
883.027	123.28057
883.422	71.17314
883.817	45.11002
884.213	81.19944
884.608	116.27679
885.003	25.05765
885.398	70.16831
885.793	42.10118
886.188	6.01445
886.582	60.14656
886.977	98.21925
887.371	63.15191
887.766	42.10141
888.16	35.08273
888.554	104.24273
888.949	65.15655
889.343	43.10046
889.737	31.08102
890.131	77.1851
890.525	104.25583
890.918	72.17358
891.312	106.23784
891.706	52.13135
892.099	51.12455
892.492	86.17417
892.886	53.12421
893.279	50.12241
893.672	75.1846
894.065	84.20143
894.458	51.12209
894.851	68.15827
895.244	61.14975
895.637	47.1092
896.029	90.21137
896.422	57.1318
896.814	64.15207
897.206	68.15727
897.599	92.21666
897.991	116.26786
898.383	97.21831
898.775	128.27549
899.167	136.30377
899.559	73.17542
899.951	81.17999
900.342	22.0536
900.734	61.1492
901.125	63.15797
901.517	75.17652
901.908	55.12429
902.299	102.23815
902.69	75.1706
903.082	103.23703
903.473	121.27912
903.863	60.14629
904.254	117.26009
904.645	54.12722
905.036	128.2998
905.426	102.21717
905.817	57.13322
906.207	-17.0389
906.597	79.17809
906.987	56.13852
907.378	98.23804
907.768	61.15609
908.158	31.07268
908.547	67.16903
908.937	30.07344
909.327	56.13008
909.717	57.13666
910.106	43.09872
910.495	37.08793
910.885	96.23283
911.274	88.20966
911.663	71.17107
912.052	41.09612
912.441	128.31172
912.83	46.10028
913.219	63.15803
913.608	56.13224
913.997	61.14848
914.385	104.23575
914.774	74.17176
915.162	122.27846
915.55	48.11053
915.939	88.21423
916.327	64.15183
916.715	85.21091
917.103	81.1867
917.491	107.25056
917.878	78.18269
918.266	37.09231
918.654	116.28461
919.041	85.21589
919.429	56.12648
919.816	65.15792
920.203	115.26729
920.591	100.23669
920.978	82.19161
921.365	55.1398
921.752	44.09897
922.139	87.17866
922.525	80.18414
922.912	53.12348
923.299	34.08166
923.685	3.00754
924.072	60.12847
924.458	79.18811
924.844	104.24502
925.231	53.11679
925.617	63.15586
926.003	57.13962
926.389	44.10688
926.774	88.21223
927.16	52.12379
927.546	74.18445
927.931	54.12851
928.317	42.09191
928.702	88.1968
929.088	116.26604
929.473	83.20399
929.858	101.23688
930.243	83.19215
930.628	100.23413
931.013	98.23178
931.398	95.20292
931.783	32.0806
932.167	109.25605
932.552	62.14851
932.937	68.16052
933.321	79.1915
933.705	-8.01937
934.09	37.08814
934.474	73.16349
934.858	46.11545
935.242	69.15186
935.626	83.20466
936.009	47.1222
936.393	118.28995
936.777	40.09956
937.16	96.24111
937.544	42.09319
937.927	82.20045
938.311	95.2188
938.694	108.27387
939.077	65.14875
939.46	43.09904
939.843	44.08499
940.226	61.14953
940.609	91.20086
940.991	38.09268
941.374	29.06884
941.757	43.10156
942.139	81.17347
942.522	37.08334
942.904	83.19017
943.286	68.16505
943.668	101.25289
944.05	77.18144
944.432	41.09691
944.814	28.06576
945.196	20.04752
945.578	85.19608
945.959	27.06015
946.341	39.09015
946.722	98.21654
947.104	71.16209
947.485	61.1356
947.866	60.14656
948.247	69.16876
948.628	28.0644
949.009	27.0669
949.39	38.09043
949.771	32.06958
950.152	74.17386
950.532	76.18433
950.913	101.23076
951.293	83.2178
951.674	42.0976
952.054	78.18868
952.434	61.14553
952.814	12.0272
953.194	54.13421
953.574	54.12687
953.954	61.13678
954.334	99.23745
954.714	40.09431
955.093	83.19452
955.473	66.16019
955.853	28.0702
956.232	17.04526
956.611	80.18002
956.99	70.16939
957.37	47.11449
957.749	23.05191
958.128	86.2085
958.506	19.0479
958.885	23.05588
959.264	65.15477
959.643	52.11389
960.021	83.19801
960.4	93.19908
960.778	46.10702
961.156	22.05306
961.535	67.14708
961.913	81.18141
962.291	55.13776
962.669	98.23822
963.047	86.21124
963.424	96.23746
963.802	84.19759
964.18	35.08385
964.557	93.20158
964.935	71.16012
965.312	53.1339
965.69	68.16132
966.067	65.14941
966.444	21.04891
966.821	76.18813
967.198	94.21377
967.575	50.11702
967.952	94.20926
968.329	103.23968
968.705	112.22714
969.082	101.25106
969.458	41.09597
969.835	71.16502
970.211	108.26734
970.587	108.25612
970.963	23.05653
971.339	40.10147
971.715	77.18426
972.091	52.1227
972.467	-5.01191
972.843	87.20875
973.219	81.18298
973.594	35.08858
973.97	28.0622
974.345	58.1335
974.721	74.16802
975.096	80.18627
975.471	47.10626
975.846	35.08013
976.221	50.12241
976.596	120.27709
976.971	110.25986
977.346	63.13848
977.72	11.027
978.095	35.08729
978.469	56.12715
978.844	71.16964
979.218	95.22011
979.593	41.09371
979.967	-11.02547
980.341	100.21892
980.715	54.13112
981.089	26.06275
981.463	60.13136
981.837	74.17508
982.21	41.0886
982.584	55.12789
982.957	44.10648
983.331	64.14189
983.704	84.19959
984.078	82.19236
984.451	58.13574
984.824	62.14561
985.197	19.04374
985.57	64.15107
985.943	22.05135
986.316	64.14761
986.688	73.16746
987.061	89.19875
987.434	98.24763
987.806	61.13915
988.179	43.09674
988.551	70.1692
988.923	66.1544
989.295	45.1074
989.667	100.23054
990.039	80.19228
990.411	1.00218
990.783	41.08891
991.155	41.09511
991.527	71.16333
991.898	57.13703
992.27	94.22387
992.641	77.1832
993.012	41.08974
993.384	8.01831
993.755	83.20368
994.126	89.20555
994.497	31.0733
994.868	48.10389
995.239	56.12941
995.61	44.10668
995.98	23.05373
996.351	44.10559
996.722	90.20053
997.092	45.10273
997.462	47.10656
997.833	61.13656
998.203	36.08243
998.573	16.03869
998.943	53.11953
999.313	58.13382
999.683	85.19483
1000.053	13.02803
1000.423	72.16546
1000.792	38.09386
1001.162	11.02596
1001.531	60.14196
1001.901	47.11187
1002.27	13.02726
1002.639	45.10974
1003.009	48.10894
1003.378	36.08898
1003.747	75.16728
1004.116	22.05056
1004.485	54.1233
1004.853	27.06501
1005.222	-25.06019
1005.591	60.1354
1005.959	40.08661
1006.328	66.1418
1006.696	17.03933
1007.064	47.11238
1007.433	65.15406
1007.801	53.12221
1008.169	44.10559
1008.537	114.23648
1008.905	76.16968
1009.273	43.10109
1009.64	62.14334
1010.008	66.14961
1010.375	40.0913
1010.743	66.13985
1011.11	82.18844
1011.478	92.21843
1011.845	52.116
1012.212	49.10721
1012.579	84.19682
1012.946	85.1895
1013.313	64.14372
1013.68	58.12311
1014.047	19.04357
1014.414	62.13934
1014.78	37.08888
1015.147	57.12992
1015.513	42.09702
1015.88	27.06609
1016.246	37.08651
1016.612	60.12936
1016.978	104.24349
1017.344	77.18201
1017.71	70.16151
1018.076	50.11126
1018.442	80.19759
1018.808	80.19294
1019.174	44.10535
1019.539	30.06301
1019.905	61.13808
1020.27	3.00715
1020.636	13.02957
1021.001	87.19853
1021.366	37.08573
1021.731	103.25622
1022.096	11.02714
1022.461	65.14707
1022.826	71.16215
1023.191	40.10136
1023.556	64.14189
1023.92	60.13954
1024.285	45.10397
1024.649	52.12113
1025.014	55.12874
1025.378	42.10229
1025.742	28.0663
1026.107	127.26786
1026.471	103.22516
1026.835	75.17742
1027.199	35.08109
1027.562	22.04849
1027.926	52.12084
1028.29	34.08299
1028.654	72.15636
1029.017	100.23403
1029.381	63.14417
1029.744	75.18317
1030.107	86.19288
1030.471	120.27268
1030.834	67.142
1031.197	100.22769
1031.56	57.12745
1031.923	73.18126
1032.286	120.26504
1032.648	61.1369
1033.011	77.17039
1033.374	98.21491
1033.736	10.02556
1034.099	37.08668
1034.461	54.13215
1034.823	55.13197
1035.185	26.06244
1035.548	41.09624
1035.91	23.05282
1036.272	62.13499
1036.634	99.22947
1036.995	2.00449
1037.357	50.1172
1037.719	64.1489
1038.08	125.28202
1038.442	21.04781
1038.803	52.11715
1039.165	15.03637
1039.526	99.22692
1039.887	70.15926
1040.248	88.2103
1040.609	21.04939
1040.97	29.06788
1041.331	80.19498
1041.692	82.18535
1042.053	73.15634
1042.413	57.12555
1042.774	79.18333
1043.134	86.19122
1043.495	15.0364
1043.855	117.2714
1044.215	37.08766
1044.576	79.18108
1044.936	78.16816
1045.296	80.19023
1045.656	32.07454
1046.016	83.18902
1046.375	53.12294
1046.735	115.25011
1047.095	58.12944
1047.454	75.14754
1047.814	93.21223
1048.173	39.08774
1048.533	64.13928
1048.892	1.00233
1049.251	64.15236
1049.61	38.08998
1049.969	55.12318
1050.328	65.13324
1050.687	27.06268
1051.046	37.08603
1051.405	15.03562
1051.763	56.1242
1052.122	9.02165
1052.48	82.19206
1052.839	87.19765
1053.197	45.10107
1053.555	17.03623
1053.914	64.14884
1054.272	8.0182
1054.63	50.11743
1054.988	65.14875
1055.345	-12.02444
1055.703	90.20592
1056.061	72.17966
1056.419	106.26603
1056.776	23.05261
1057.134	-18.03949
1057.491	102.24273
1057.848	65.15358
1058.206	14.03109
1058.563	63.13107
1058.92	51.11135
1059.277	94.22016
1059.634	74.16262
1059.991	111.25177
1060.348	45.09741
1060.704	123.28329
1061.061	23.05011
1061.418	9.02109
1061.774	42.09953
1062.131	32.08319
1062.487	22.04902
1062.843	67.15947
1063.199	103.24327
1063.555	60.13374
1063.911	33.07966
1064.267	129.24492
1064.623	59.1387
1064.979	-27.05955
1065.335	68.15308
1065.691	8.01816
1066.046	57.11837
1066.402	33.07107
1066.757	50.12122
1067.112	33.07737
1067.468	61.13943
1067.823	-13.02956
1068.178	31.0714
1068.533	73.1684
1068.888	86.1936
1069.243	34.08066
1069.598	41.09473
1069.952	69.15103
1070.307	33.07903
1070.662	57.13102
1071.016	62.13407
1071.371	68.14767
1071.725	83.18635
1072.079	95.21705
1072.434	36.08432
1072.788	33.07415
1073.142	49.1156
1073.496	75.16852
1073.85	47.10366
1074.203	103.23685
1074.557	77.19917
1074.911	103.2302
1075.265	93.20399
1075.618	33.07746
1075.971	74.16699
1076.325	36.08888
1076.678	41.08959
1077.031	-12.02557
1077.385	57.11837
1077.738	49.10489
1078.091	39.08558
1078.444	42.09175
1078.796	72.16969
1079.149	94.22275
1079.502	77.17422
1079.855	26.05822
1080.207	77.17989
1080.56	72.17959
1080.912	66.15283
1081.264	80.18399
1081.617	54.12643
1081.969	59.14366
1082.321	21.04914
1082.673	46.10194
1083.025	26.05875
1083.377	346.72766
1083.728	73.16052
1084.08	72.17029
1084.432	50.11472
1084.783	59.12859
1085.135	90.2159
1085.486	78.17026
1085.838	75.1768
1086.189	96.22318
1086.54	83.18703
1086.891	93.22881
1087.242	109.25605
1087.593	50.1144
1087.944	90.19428
1088.295	87.186
1088.646	112.26212
1088.996	32.07454
1089.347	9.02116
1089.698	44.10075
1090.048	25.0623
1090.398	34.07478
1090.749	69.15542
1091.099	41.10054
1091.449	55.13187
1091.799	31.07466
1092.149	43.10223
1092.499	83.19261
1092.849	49.11989
1093.199	37.08824
1093.548	83.19185
1093.898	21.05043
1094.248	36.08813
1094.597	32.07994
1094.947	69.17742
1095.296	54.12851
1095.645	36.08986
1095.994	90.20492
1096.343	65.15721
1096.692	52.13401
1097.041	66.17521
1097.39	40.09577
1097.739	24.06026
1098.088	39.10018
1098.437	36.09288
1098.785	49.12639
1099.134	25.06312
1099.482	37.09906
1099.83	41.10403
1100.179	76.19409
1100.527	20.05086
1100.875	55.14133
1101.223	56.14442
1101.571	-2.00537
1101.919	48.12392
1102.267	31.08571
1102.615	6.01926
1102.962	3.00962
1103.31	19.06091
1103.658	2.00641
