Data from N3 R2 sample 2_Subt2__4__10-11-58-385.txt Node

Date: Thu Sep 18 10:11:58 PDT 2025
User: uwsun
Spectrometer: HDX01956
Trigger mode: 0
Integration Time (sec): 5.000000E-1
Scans to average: 1
Nonlinearity correction enabled: true
Boxcar width: 0
Storing dark spectrum: false
XAxis mode: Wavelengths
Number of Pixels in Spectrum: 2068
>>>>>Begin Spectral Data<<<<<
194.03	165.46742
194.578	148.47289
195.127	156.49075
195.676	184.57896
196.225	154.40073
196.773	183.49683
197.321	306.81572
197.87	424.02743
198.418	449.09158
198.966	450.12025
199.513	494.17491
200.061	432.03862
200.609	441.10079
201.156	437.89817
201.704	443.05201
202.251	463.16079
202.798	429.05336
203.345	461.07338
203.892	488.15484
204.438	495.09227
204.985	430.96587
205.532	439.09262
206.078	464.06275
206.624	462.09153
207.17	521.13151
207.716	467.07583
208.262	486.88932
208.808	461.09105
209.354	532.22119
209.899	520.21691
210.445	462.08773
210.99	516.17117
211.535	501.09862
212.08	454.99003
212.625	431.01757
213.17	496.18283
213.715	484.03071
214.259	504.0929
214.804	444.02459
215.348	477.02963
215.892	489.10912
216.436	440.94364
216.98	439.9035
217.524	439.99113
218.068	466.10524
218.612	520.23115
219.155	488.07433
219.698	479.06264
220.242	412.9633
220.785	432.95682
221.328	399.93639
221.871	493.1732
222.414	409.95798
222.956	377.85778
223.499	449.93365
224.041	362.78676
224.583	386.76635
225.126	448.91518
225.668	367.84987
226.21	449.06751
226.751	447.9299
227.293	441.9313
227.835	421.97372
228.376	360.77776
228.918	373.88392
229.459	413.97452
230	430.97181
230.541	427.9207
231.082	443.01071
231.622	380.81252
232.163	384.87812
232.704	475.1095
233.244	431.00458
233.784	408.93261
234.324	512.05924
234.864	411.87214
235.404	396.88002
235.944	434.95724
236.484	461.07506
237.023	397.88353
237.563	417.91225
238.102	454.0006
238.641	428.01067
239.18	459.0034
239.719	407.96372
240.258	419.88252
240.797	436.97733
241.335	414.9486
241.874	483.8622
242.412	453.02941
242.95	436.99058
243.488	383.81203
244.026	443.96502
244.564	485.91731
245.102	463.9769
245.64	404.90971
246.177	459.94636
246.715	483.07686
247.252	408.87012
247.789	545.90479
248.326	448.01001
248.863	529.06343
249.4	427.90688
249.936	548.04068
250.473	497.08754
251.009	465.98972
251.546	466.96791
252.082	463.92544
252.618	459.95529
253.154	438.98988
253.69	444.9288
254.226	479.06572
254.761	456.95264
255.297	407.83463
255.832	441.98386
256.367	444.97642
256.903	506.03465
257.438	486.05425
257.972	543.10116
258.507	446.95527
259.042	490.98281
259.576	507.03225
260.111	470.0004
260.645	459.92
261.179	476.03559
261.713	502.0348
262.247	439.93683
262.781	475.92523
263.315	445.00915
263.849	520.20408
264.382	497.05271
264.915	560.21092
265.449	451.02982
265.982	456.9653
266.515	522.18193
267.048	477.93398
267.58	478.95166
268.113	478.95564
268.646	414.95583
269.178	477.98745
269.71	483.98958
270.243	552.16916
270.775	500.19466
271.307	499.0956
271.838	548.18292
272.37	454.0398
272.902	505.05197
273.433	533.08085
273.965	478.07996
274.496	481.10902
275.027	514.18499
275.558	524.1807
276.089	471.09971
276.62	464.09287
277.15	462.06028
277.681	471.9375
278.211	516.16122
278.741	522.06308
279.272	516.0866
279.802	541.23816
280.332	502.09642
280.861	532.16842
281.391	527.09836
281.921	536.17574
282.45	507.16396
282.98	526.27072
283.509	571.18179
284.038	586.21586
284.567	489.05559
285.096	538.20141
285.625	496.02883
286.153	570.24518
286.682	498.05828
287.21	489.07901
287.739	572.23164
288.267	511.15253
288.795	550.32577
289.323	560.20266
289.851	569.22228
290.378	539.09702
290.906	549.23585
291.433	595.35263
291.961	592.22614
292.488	529.21115
293.015	537.16631
293.542	609.43072
294.069	629.41327
294.596	544.22183
295.122	591.29139
295.649	556.10573
296.175	593.2974
296.702	633.40075
297.228	601.31327
297.754	553.13579
298.28	605.26065
298.806	628.368
299.332	618.24582
299.857	641.30676
300.383	582.33984
300.908	626.39646
301.433	631.40154
301.958	624.28791
302.483	594.343
303.008	643.4477
303.533	580.37337
304.058	553.1797
304.582	643.36783
305.107	593.41525
305.631	627.27818
306.155	660.37755
306.679	657.38734
307.203	629.31712
307.727	666.41466
308.251	637.42307
308.775	709.53908
309.298	644.40171
309.822	651.47827
310.345	699.49031
310.868	670.45157
311.391	732.60083
311.914	652.47785
312.437	692.40609
312.96	698.46468
313.482	660.39094
314.005	657.47985
314.527	668.57034
315.049	769.72241
315.571	788.54179
316.093	778.69721
316.615	743.57462
317.137	780.47359
317.659	765.63186
318.18	701.48747
318.702	746.54212
319.223	726.2885
319.744	780.52971
320.265	774.66141
320.786	770.70239
321.307	758.65634
321.828	813.5859
322.348	814.66557
322.869	849.74938
323.389	858.41421
323.909	854.67347
324.43	853.75921
324.95	848.66952
325.47	876.87887
325.989	911.84283
326.509	877.67536
327.029	953.82868
327.548	878.6979
328.067	973.99434
328.587	978.07894
329.106	929.76203
329.625	969.15173
330.144	964.88488
330.662	1013.98128
331.181	1030.0164
331.7	998.93216
332.218	1057.86267
332.736	1052.0296
333.255	1124.14821
333.773	1044.03715
334.291	1085.24839
334.808	1117.02981
335.326	1067.95467
335.844	1111.12993
336.361	1142.42266
336.879	1164.20563
337.396	1200.34995
337.913	1167.16052
338.43	1163.09241
338.947	1237.3449
339.464	1221.05133
339.981	1170.23205
340.497	1209.38702
341.014	1274.45314
341.53	1178.11249
342.046	1322.59903
342.562	1345.61786
343.078	1333.42505
343.594	1327.44682
344.11	1333.47985
344.626	1401.73861
345.141	1373.38802
345.657	1379.36216
346.172	1383.56559
346.687	1348.36703
347.202	1447.4675
347.717	1409.55871
348.232	1459.76562
348.747	1420.47213
349.261	1508.40536
349.776	1513.66996
350.29	1585.93881
350.805	1536.82876
351.319	1541.61905
351.833	1507.5568
352.347	1594.73065
352.861	1554.66872
353.374	1598.5991
353.888	1623.89016
354.401	1617.62081
354.915	1646.62759
355.428	1717.06057
355.941	1680.76087
356.454	1625.54929
356.967	1633.7205
357.48	1683.66386
357.993	1752.03712
358.505	1715.95567
359.018	1809.07725
359.53	1793.0498
360.042	1835.74238
360.554	1829.09348
361.066	1844.07521
361.578	1854.70644
362.09	1853.99243
362.602	1890.7649
363.113	1887.97891
363.625	1964.88376
364.136	1917.71989
364.647	2025.10755
365.158	2015.01715
365.669	1971.09682
366.18	1963.02829
366.691	1972.74168
367.201	2017.14511
367.712	2061.97736
368.222	2098.02313
368.733	2092.77623
369.243	2111.90374
369.753	2151.05147
370.263	2189.2926
370.773	2110.27479
371.282	2210.25021
371.792	2365.17556
372.301	2247.31867
372.811	2347.82046
373.32	2476.88476
373.829	2516.30526
374.338	2634.03124
374.847	2698.23736
375.356	2776.35977
375.865	2839.8666
376.373	3017.16844
376.882	3009.82453
377.39	3017.51363
377.898	3130.62919
378.407	3353.10986
378.915	3483.85674
379.423	3554.20091
379.93	3718.14861
380.438	3974.2717
380.946	4033.02518
381.453	4245.1448
381.96	4561.94626
382.468	4896.64532
382.975	4971.91039
383.482	5100.18838
383.989	5112.21802
384.495	5455.27791
385.002	5730.47991
385.509	6111.12537
386.015	6403.16417
386.521	6748.67531
387.028	7056.67511
387.534	7204.42793
388.04	7350.03762
388.546	7696.7895
389.051	8304.33353
389.557	8921.32062
390.063	9058.53402
390.568	9593.70725
391.073	9889.52819
391.578	10404.96274
392.084	10734.34277
392.589	11477.92218
393.093	12494.85651
393.598	13498.20234
394.103	14603.93398
394.607	15997.46351
395.112	16908.17381
395.616	17954.14019
396.12	19354.13545
396.624	21233.77295
397.128	23205.70574
397.632	25257.50223
398.136	27688.11431
398.639	30733.3436
399.143	35548.84492
399.646	38911.52489
400.15	43178.92993
400.653	49030.23871
401.156	55438.33754
401.659	62325.92932
402.162	63233.0672
402.664	62441.93235
403.167	63977.72923
403.67	63769.22307
404.172	63919.58413
404.674	63858.43483
405.176	63738.15102
405.678	63977.72923
406.18	64011.81569
406.682	63863.44694
407.184	63926.60148
407.686	63841.39382
408.187	64025.8516
408.688	63892.51763
409.19	63833.37461
409.691	63977.72923
410.192	63945.6488
410.693	63713.09355
411.194	63812.32447
411.694	63919.58413
412.195	64038.8851
412.696	62804.90359
413.196	61945.37822
413.696	62110.98598
414.196	61014.58982
414.696	58328.31329
415.196	53083.35566
415.696	42936.92188
416.196	33178.76436
416.695	28733.23411
417.195	27257.65763
417.694	25907.354
418.194	23694.25711
418.693	22857.10238
419.192	22375.25666
419.691	21819.59231
420.19	21227.0762
420.688	20574.17349
421.187	19420.88511
421.685	17773.88932
422.184	15474.37286
422.682	13141.17466
423.18	11957.06248
423.678	10825.70499
424.176	10104.14015
424.674	9573.67302
425.172	8894.28467
425.669	8228.55792
426.167	7475.82699
426.664	6977.58785
427.161	6506.67664
427.659	6113.14168
428.156	5780.44442
428.652	5428.77705
429.149	5273.5651
429.646	5007.11432
430.143	4754.76458
430.639	4534.80269
431.135	4215.37342
431.632	4048.80241
432.128	3752.26176
432.624	3725.80092
433.12	3633.96021
433.616	3600.72806
434.111	3503.25788
434.607	3378.33697
435.103	3246.57726
435.598	3023.59526
436.093	2888.20683
436.588	2750.01521
437.083	2559.97084
437.578	2539.13337
438.073	2468.5326
438.568	2336.381
439.062	2322.70445
439.557	2200.05479
440.051	2191.87092
440.546	2099.87586
441.04	2142.14991
441.534	1998.27774
442.028	2038.09991
442.522	1963.03177
443.015	1879.52357
443.509	1835.98933
444.002	1857.03139
444.496	1827.53372
444.989	1774.92478
445.482	1831.05743
445.975	1775.73665
446.468	1776.49523
446.961	1771.50289
447.454	1687.55273
447.947	1703.79671
448.439	1667.86786
448.931	1694.64281
449.424	1651.99719
449.916	1627.80595
450.408	1574.52291
450.9	1551.70923
451.392	1503.81774
451.884	1486.45306
452.375	1486.70386
452.867	1461.35676
453.358	1440.39613
453.849	1446.19401
454.341	1410.32037
454.832	1393.17348
455.323	1412.63697
455.814	1310.24872
456.304	1321.29474
456.795	1286.21667
457.285	1330.1614
457.776	1322.25019
458.266	1253.28473
458.756	1263.28225
459.247	1216.25876
459.737	1218.29484
460.226	1256.17615
460.716	1176.20364
461.206	1162.18585
461.695	1124.21941
462.185	1176.18424
462.674	1161.06544
463.163	1140.99428
463.653	1128.85599
464.142	1044.05059
464.63	1079.10015
465.119	1048.9578
465.608	1118.07107
466.096	1017.76126
466.585	1002.85144
467.073	992.90865
467.561	995.95153
468.05	953.79798
468.538	956.93262
469.026	945.84899
469.513	954.62262
470.001	930.76007
470.489	879.7521
470.976	904.75659
471.463	871.83407
471.951	878.84114
472.438	820.63247
472.925	827.6491
473.412	798.65635
473.899	814.57922
474.385	855.77121
474.872	784.56072
475.359	779.64955
475.845	769.34204
476.331	682.25481
476.817	693.47687
477.303	745.49089
477.789	652.36805
478.275	636.40183
478.761	670.39535
479.247	675.3101
479.732	627.39322
480.218	687.59339
480.703	651.41846
481.188	667.25514
481.673	657.32486
482.158	623.18312
482.643	595.36572
483.128	627.29382
483.612	625.32142
484.097	569.23172
484.581	574.18721
485.066	562.24061
485.55	567.119
486.034	574.10606
486.518	622.32281
487.002	504.11564
487.486	490.08596
487.969	504.11518
488.453	523.18252
488.936	519.05481
489.42	515.02809
489.903	446.0239
490.386	376.72245
490.869	552.08195
491.352	426.94943
491.835	474.87919
492.318	424.8799
492.8	474.89146
493.283	468.10018
493.765	399.91259
494.247	446.9561
494.73	461.93383
495.212	397.8762
495.694	438.95393
496.175	381.85706
496.657	436.954
497.139	417.64951
497.62	420.93799
498.102	390.90866
498.583	298.69627
499.064	342.71703
499.545	367.78286
500.026	409.85843
500.507	325.70681
500.988	396.92554
501.469	292.69375
501.949	371.85981
502.43	388.87441
502.91	434.84636
503.39	307.72334
503.87	326.7293
504.35	380.83044
504.83	325.6701
505.31	312.7135
505.79	296.66547
506.269	310.67405
506.749	296.64279
507.228	301.6738
507.707	362.75661
508.187	355.79826
508.666	347.81184
509.145	255.57225
509.623	301.66991
510.102	347.79145
510.581	365.82746
511.059	312.74724
511.538	309.75876
512.016	321.72921
512.494	296.67746
512.972	274.62787
513.45	288.64058
513.928	317.73178
514.406	278.65261
514.884	307.75497
515.361	321.72832
515.839	319.69612
516.316	328.75551
516.793	284.68589
517.27	303.69334
517.747	302.73979
518.224	262.5784
518.701	289.60766
519.178	285.68246
519.654	283.64003
520.131	305.71975
520.607	276.64538
521.083	252.54795
521.56	263.59432
522.036	258.53782
522.512	322.75499
522.987	276.63677
523.463	249.56773
523.939	364.85144
524.414	318.68909
524.89	315.71384
525.365	304.652
525.84	283.65045
526.315	301.69485
526.79	290.62305
527.265	301.66185
527.74	240.56165
528.215	230.51774
528.689	233.49186
529.164	244.5023
529.638	232.56835
530.112	296.66302
530.587	310.62782
531.061	264.61345
531.534	260.60177
532.008	286.66509
532.482	316.68855
532.956	290.70777
533.429	288.67397
533.903	295.61426
534.376	300.62981
534.849	313.68245
535.322	304.68233
535.795	217.50754
536.268	300.69241
536.741	277.62901
537.213	295.64566
537.686	301.70231
538.158	336.72156
538.631	266.61834
539.103	301.64654
539.575	290.56661
540.047	359.73321
540.519	354.79715
540.991	320.7412
541.463	299.68557
541.934	262.56751
542.406	341.77495
542.877	383.80742
543.348	386.87381
543.82	296.68698
544.291	375.82108
544.762	384.8569
545.233	379.90471
545.703	366.76361
546.174	373.81153
546.645	396.89717
547.115	404.91157
547.585	401.85983
548.056	388.89653
548.526	431.95083
548.996	428.95112
549.466	482.07617
549.935	467.0278
550.405	498.99609
550.875	498.0817
551.344	449.99094
551.814	519.07974
552.283	577.12385
552.752	586.23263
553.221	573.13245
553.69	597.20425
554.159	663.4672
554.628	648.29681
555.096	628.43377
555.565	576.13866
556.033	638.35335
556.502	542.18742
556.97	585.1627
557.438	563.19172
557.906	609.28361
558.374	596.23664
558.842	590.2699
559.31	611.21503
559.777	640.39417
560.245	610.24545
560.712	634.28515
561.18	687.32518
561.647	621.21831
562.114	695.39134
562.581	729.56911
563.048	710.41518
563.514	767.67566
563.981	786.53932
564.448	806.54732
564.914	740.48736
565.381	849.6343
565.847	830.63939
566.313	831.63332
566.779	809.54376
567.245	831.62949
567.711	821.67725
568.176	805.53241
568.642	879.88086
569.108	885.8383
569.573	869.68728
570.038	907.54866
570.504	947.75615
570.969	941.94777
571.434	961.73977
571.899	972.89607
572.363	948.78896
572.828	1037.92054
573.293	1003.86574
573.757	1020.91946
574.222	1015.83311
574.686	1026.90719
575.15	1041.03559
575.614	1105.07986
576.078	1016.93901
576.542	961.79453
577.006	1024.86397
577.469	995.01591
577.933	1057.92855
578.396	977.90449
578.86	972.88085
579.323	1049.05031
579.786	1005.75053
580.249	1043.98919
580.712	997.99309
581.175	950.9511
581.637	933.75589
582.1	996.74712
582.563	1015.71791
583.025	1017.02503
583.487	1040.68414
583.95	1050.77975
584.412	1037.72218
584.874	1062.0987
585.336	1071.04224
585.797	1061.82704
586.259	1114.0667
586.721	1117.07792
587.182	1127.04598
587.643	1215.11975
588.105	1229.24306
588.566	1237.92487
589.027	1345.49979
589.488	1342.2954
589.949	1346.47276
590.41	1366.9153
590.87	1421.37267
591.331	1563.35878
591.791	1554.54234
592.252	1637.64028
592.712	1588.69445
593.172	1654.56937
593.632	1840.62239
594.092	1910.67207
594.552	2004.6113
595.011	1983.82588
595.471	2122.85757
595.931	2216.87901
596.39	2324.21794
596.849	2363.07754
597.308	2522.68053
597.768	2652.7546
598.227	2745.33719
598.685	2872.04296
599.144	3122.23136
599.603	3204.16601
600.062	3357.52205
600.52	3561.86529
600.978	3730.09751
601.437	3906.76724
601.895	4063.31888
602.353	4335.32556
602.811	4605.35612
603.269	4635.71164
603.727	4868.6522
604.184	5176.10318
604.642	5394.54076
605.099	5627.03982
605.557	5828.23334
606.014	6000.36951
606.471	6304.28461
606.928	6664.42746
607.385	6875.14885
607.842	7068.6157
608.299	7247.75134
608.755	7439.99746
609.212	7711.75766
609.668	7907.94665
610.125	8082.33801
610.581	8248.3917
611.037	8404.44769
611.493	8420.57162
611.949	8585.90668
612.405	8877.11233
612.861	8875.20244
613.316	8924.3562
613.772	8978.37994
614.227	9109.68575
614.683	9033.43751
615.138	9086.60848
615.593	8989.4159
616.048	9135.67955
616.503	8978.47087
616.958	8986.55453
617.412	8850.21684
617.867	8730.92041
618.321	8755.88206
618.776	8527.57906
619.23	8455.62156
619.684	8313.31786
620.138	8144.19923
620.592	8041.32416
621.046	7796.03623
621.5	7716.07043
621.954	7593.63307
622.407	7372.5167
622.861	7302.9575
623.314	7096.53403
623.768	7023.75452
624.221	6807.86683
624.674	6629.62339
625.127	6528.67311
625.58	6412.47948
626.033	6297.34784
626.485	6014.00753
626.938	5963.99662
627.39	5808.93305
627.843	5671.89424
628.295	5422.01733
628.747	5418.26517
629.199	5448.91592
629.651	5228.08047
630.103	5144.12942
630.555	4960.67535
631.006	4830.39895
631.458	4818.49355
631.909	4602.26413
632.361	4540.50427
632.812	4409.60187
633.263	4309.22392
633.714	4162.14636
634.165	4021.04481
634.616	4021.94191
635.067	3811.5602
635.518	3769.06663
635.968	3744.9378
636.419	3676.57022
636.869	3557.13009
637.319	3423.03564
637.769	3314.86622
638.219	3175.18773
638.669	3147.23874
639.119	3022.28741
639.569	3089.3012
640.019	3019.07651
640.468	2970.90682
640.918	2864.23197
641.367	2848.9051
641.816	2768.86768
642.265	2735.13357
642.714	2694.03127
643.163	2608.06673
643.612	2579.38822
644.061	2442.65642
644.51	2470.9976
644.958	2358.788
645.406	2324.16172
645.855	2299.2311
646.303	2244.96289
646.751	2280.98652
647.199	2195.85367
647.647	2170.95599
648.095	2095.83567
648.543	2186.38006
648.99	2156.11052
649.438	2076.88785
649.885	2098.25956
650.333	2161.20947
650.78	2017.05582
651.227	2016.11404
651.674	2002.79306
652.121	1982.10291
652.568	1953.07508
653.015	1885.06413
653.461	1834.85414
653.908	1870.73514
654.354	1858.87709
654.801	1790.76406
655.247	1818.47563
655.693	1748.1644
656.139	1742.79337
656.585	1744.79817
657.031	1720.71767
657.477	1726.45269
657.922	1615.50308
658.368	1655.83063
658.813	1633.51814
659.259	1655.77983
659.704	1636.67764
660.149	1622.5598
660.594	1575.62172
661.039	1549.45533
661.484	1573.61127
661.929	1539.53079
662.373	1511.75847
662.818	1512.7046
663.262	1512.62495
663.707	1454.74219
664.151	1495.63396
664.595	1539.65326
665.039	1479.67962
665.483	1422.70114
665.927	1530.53452
666.371	1421.43451
666.814	1420.4618
667.258	1432.52568
667.701	1425.13316
668.145	1389.58183
668.588	1442.63137
669.031	1405.41333
669.474	1359.42419
669.917	1438.22428
670.36	1388.59074
670.803	1410.50722
671.245	1347.95005
671.688	1428.54978
672.13	1395.28101
672.573	1339.56573
673.015	1356.43674
673.457	1340.11124
673.899	1351.43943
674.341	1293.35556
674.783	1312.36335
675.225	1362.50971
675.666	1408.54727
676.108	1328.07904
676.549	1316.27942
676.991	1388.17997
677.432	1354.87671
677.873	1355.2618
678.314	1432.47622
678.755	1425.59048
679.196	1371.28246
679.637	1374.42791
680.078	1442.42429
680.518	1425.34974
680.959	1388.42624
681.399	1362.5234
681.839	1385.48592
682.28	1420.6092
682.72	1430.34188
683.16	1454.66262
683.6	1518.40917
684.039	1435.04096
684.479	1529.70945
684.919	1516.52349
685.358	1469.66812
685.798	1495.86814
686.237	1547.59714
686.676	1526.39456
687.115	1563.57057
687.554	1592.65526
687.993	1593.37759
688.432	1600.48889
688.871	1616.52128
689.309	1654.72075
689.748	1638.2076
690.186	1562.53865
690.625	1667.65173
691.063	1633.67783
691.501	1693.87622
691.939	1761.01712
692.377	1722.81969
692.815	1810.9344
693.253	1697.72276
693.69	1768.46204
694.128	1774.87066
694.565	1754.75161
695.003	1831.14465
695.44	1795.78548
695.877	1830.78433
696.314	1855.36669
696.751	1910.67877
697.188	1890.76323
697.625	1901.62013
698.061	1969.95119
698.498	1941.87251
698.934	1978.94657
699.371	1990.88762
699.807	1975.8889
700.243	2002.00529
700.679	1973.64251
701.115	2106.90676
701.551	2105.88612
701.987	2096.61043
702.422	2174.05176
702.858	2165.04351
703.294	2147.8504
703.729	2200.15247
704.164	2184.05096
704.599	2253.76806
705.035	2249.7859
705.47	2273.17776
705.904	2324.95869
706.339	2289.90369
706.774	2295.00352
707.209	2357.99731
707.643	2391.14606
708.078	2378.22737
708.512	2258.34024
708.946	2448.10607
709.38	2478.13527
709.814	2521.88649
710.248	2462.29047
710.682	2586.22369
711.116	2591.30573
711.549	2453.52642
711.983	2544.99596
712.416	2661.1671
712.85	2636.40268
713.283	2638.12825
713.716	2639.40562
714.149	2560.00498
714.582	2705.86627
715.015	2631.33919
715.448	2634.50734
715.881	2688.62439
716.313	2796.07862
716.746	2658.14449
717.178	2695.23917
717.61	2833.60939
718.043	2710.39323
718.475	2822.30657
718.907	2829.47857
719.339	2750.91212
719.77	2877.23245
720.202	2827.49719
720.634	2899.3852
721.065	2906.12449
721.497	2903.36153
721.928	2785.33773
722.359	2955.33433
722.79	2869.22277
723.221	2932.44464
723.652	2916.59835
724.083	2907.85143
724.514	3020.96594
724.945	2915.08197
725.375	2963.07779
725.806	2946.3945
726.236	2942.63739
726.666	3024.11474
727.096	2942.34615
727.526	3124.71359
727.956	3042.93471
728.386	3083.35622
728.816	3061.66439
729.246	3102.41266
729.675	2970.32477
730.105	3083.33634
730.534	3117.02692
730.964	3000.46649
731.393	3016.34628
731.822	3110.64217
732.251	3087.59161
732.68	3082.98271
733.109	3126.3962
733.537	3094.34814
733.966	3074.48625
734.395	3145.97594
734.823	3080.71406
735.251	3039.22065
735.68	3077.38139
736.108	3075.47372
736.536	3061.05327
736.964	3042.99477
737.392	3030.47418
737.82	3049.17116
738.247	3008.1617
738.675	3044.06951
739.102	2975.46099
739.53	2999.68639
739.957	2982.72724
740.384	2905.22367
740.811	2961.43375
741.238	2962.36101
741.665	2998.09727
742.092	2856.94617
742.519	2868.43298
742.945	2947.30533
743.372	2927.44196
743.798	2802.61133
744.225	2818.11622
744.651	2854.46487
745.077	2787.43784
745.503	2751.22822
745.929	2787.27091
746.355	2669.25969
746.781	2756.33412
747.207	2631.13593
747.632	2688.41176
748.058	2687.50009
748.483	2673.94787
748.908	2557.38861
749.334	2612.34373
749.759	2606.14916
750.184	2555.20366
750.609	2545.27675
751.033	2486.98868
751.458	2513.7623
751.883	2461.27328
752.307	2406.02399
752.732	2399.49242
753.156	2373.24796
753.58	2343.00247
754.005	2275.30336
754.429	2334.04738
754.853	2278.27903
755.277	2281.0316
755.7	2210.21927
756.124	2107.17241
756.548	2212.967
756.971	2187.11716
757.394	2092.2964
757.818	1993.28101
758.241	2091.27535
758.664	2074.22716
759.087	2068.7024
759.51	1986.04409
759.933	1958.95088
760.356	1999.291
760.778	1921.98883
761.201	1857.85818
761.623	1819.7617
762.046	1820.68658
762.468	1750.73589
762.89	1729.79479
763.312	1833.90734
763.734	1707.73897
764.156	1742.86527
764.578	1616.43897
765	1626.70361
765.421	1576.84397
765.843	1544.89978
766.264	1589.55074
766.686	1498.63315
767.107	1486.54182
767.528	1552.84422
767.949	1453.66939
768.37	1510.6571
768.791	1367.36883
769.212	1407.5987
769.632	1396.33889
770.053	1379.68291
770.473	1306.31556
770.894	1274.33655
771.314	1303.24197
771.734	1190.07975
772.154	1186.33445
772.575	1217.07668
772.994	1152.95646
773.414	1225.17192
773.834	1179.25089
774.254	1129.12412
774.673	1096.09356
775.093	1102.14957
775.512	1135.17189
775.931	1078.16208
776.351	1041.06334
776.77	1035.01432
777.189	1048.94625
777.607	993.04472
778.026	974.95469
778.445	950.96685
778.864	895.86156
779.282	940.79288
779.701	900.84917
780.119	867.82165
780.537	835.72282
780.955	897.85829
781.373	850.73146
781.791	886.62121
782.209	779.44119
782.627	763.71457
783.045	818.51461
783.462	767.65732
783.88	723.60606
784.297	771.63544
784.715	749.64665
785.132	676.3854
785.549	674.44534
785.966	678.4658
786.383	670.42317
786.8	700.36678
787.217	636.30977
787.633	635.38999
788.05	627.24458
788.466	577.15957
788.883	576.30649
789.299	533.10843
789.715	600.27209
790.131	598.29541
790.547	571.24553
790.963	567.22948
791.379	543.21334
791.795	544.06272
792.21	519.05433
792.626	513.05871
793.041	448.99018
793.457	453.996
793.872	488.00138
794.287	472.02034
794.702	452.97857
795.117	475.05943
795.532	437.99787
795.947	433.91802
796.362	429.89485
796.776	454.92239
797.191	440.96966
797.605	444.94524
798.02	427.93254
798.434	404.80321
798.848	439.9879
799.262	383.86473
799.676	408.89803
800.09	378.84456
800.504	340.74995
800.918	345.71805
801.331	326.76914
801.745	334.69314
802.158	295.67531
802.572	363.80051
802.985	320.70111
803.398	298.65126
803.811	249.58465
804.224	240.54975
804.637	314.68971
805.05	253.53783
805.462	276.62382
805.875	284.68822
806.288	256.57862
806.7	219.51061
807.112	266.56312
807.525	206.46884
807.937	242.56034
808.349	220.51263
808.761	274.62762
809.173	260.5879
809.584	241.55171
809.996	204.46842
810.408	307.74324
810.819	277.60192
811.231	375.92213
811.642	335.76501
812.053	284.6419
812.464	166.37108
812.875	254.60975
813.286	215.52641
813.697	144.30952
814.108	189.43181
814.519	250.51929
814.929	180.43245
815.34	141.32085
815.75	181.43939
816.16	159.36999
816.571	201.4905
816.981	187.40843
817.391	182.40886
817.801	164.38757
818.211	151.33929
818.62	203.4608
819.03	140.32469
819.44	145.35385
819.849	149.35219
820.259	137.32996
820.668	156.36523
821.077	159.37815
821.486	122.27542
821.895	159.36532
822.304	159.39983
822.713	153.33983
823.122	152.35865
823.531	105.23341
823.939	144.33436
824.348	171.3888
824.756	148.34935
825.164	138.32815
825.573	117.28051
825.981	136.31816
826.389	145.34486
826.797	169.40795
827.205	132.28922
827.612	111.25962
828.02	89.1985
828.428	112.27225
828.835	112.28482
829.243	104.23421
829.65	114.27295
830.057	77.17819
830.464	132.30965
830.871	148.33644
831.278	87.20141
831.685	135.28236
832.092	67.15591
832.499	92.19247
832.905	96.231
833.312	109.23081
833.718	136.32438
834.124	157.33812
834.531	88.2103
834.937	127.31189
835.343	93.21223
835.749	111.24203
836.155	78.19674
836.561	89.20988
836.966	86.20032
837.372	79.19207
837.777	106.25322
838.183	108.22584
838.588	107.25546
838.993	94.21878
839.399	108.25305
839.804	43.10144
840.209	126.30972
840.613	112.23514
841.018	54.13112
841.423	92.22656
841.828	95.2314
842.232	95.22055
842.637	113.2563
843.041	62.15415
843.445	49.11761
843.849	53.12707
844.253	125.28029
844.657	103.24976
845.061	141.30718
845.465	92.21236
845.869	89.19702
846.272	83.19467
846.676	32.0733
847.079	90.22139
847.483	90.21409
847.886	93.21368
848.289	124.32101
848.692	45.10924
849.095	101.22983
849.498	112.26622
849.901	53.11542
850.304	90.20484
850.707	88.21415
851.109	81.19531
851.512	93.21906
851.914	40.09829
852.316	77.18931
852.718	94.2393
853.121	95.22246
853.523	43.09591
853.925	99.25047
854.326	83.20044
854.728	89.22043
855.13	53.13352
855.531	73.16753
855.933	49.11186
856.334	82.19776
856.736	82.17679
857.137	87.19476
857.538	82.19933
857.939	74.1782
858.34	75.17294
858.741	35.08833
859.142	76.17354
859.542	86.21986
859.943	78.18562
860.343	56.13454
860.744	143.32948
861.144	142.33076
861.544	76.17759
861.945	74.18089
862.345	75.17467
862.745	92.22036
863.145	36.08117
863.544	106.2566
863.944	62.14026
864.344	30.07101
864.743	138.32347
865.143	107.2652
865.542	27.0595
865.941	82.19514
866.34	85.19146
866.74	63.16358
867.139	111.25636
867.537	51.12381
867.936	43.10014
868.335	71.17307
868.734	42.10397
869.132	72.15749
869.531	69.15765
869.929	89.19398
870.327	114.25925
870.726	52.12337
871.124	61.13521
871.522	5.01234
871.92	143.33342
872.318	63.14655
872.715	90.20923
873.113	35.08174
873.511	55.13131
873.908	70.17289
874.306	89.21363
874.703	45.10736
875.1	33.08038
875.497	13.03002
875.894	87.20787
876.291	41.09721
876.688	50.12467
877.085	68.15489
877.482	55.13237
877.878	88.20514
878.275	40.09847
878.671	23.04757
879.068	78.17975
879.464	64.14814
879.86	40.09097
880.256	70.1626
880.652	78.19017
881.048	46.10846
881.444	31.06994
881.84	63.15369
882.236	60.14481
882.631	78.18426
883.027	74.17047
883.422	33.08104
883.817	51.12455
884.213	52.12872
884.608	85.20402
885.003	66.15095
885.398	30.07268
885.793	44.10595
886.188	67.15947
886.582	57.13931
886.977	46.10402
887.371	78.18754
887.766	34.08222
888.16	39.09211
888.554	90.21063
888.949	58.13988
889.343	122.28059
889.737	12.03146
890.131	68.16375
890.525	81.2001
890.918	56.13541
891.312	88.19818
891.706	52.13135
892.099	92.22297
892.492	108.21762
892.886	54.12653
893.279	75.18276
893.672	49.12118
894.065	99.23672
894.458	25.06014
894.851	79.18347
895.244	6.01488
895.637	68.15733
896.029	105.24588
896.422	41.09511
896.814	82.19416
897.206	98.2253
897.599	135.31526
897.991	80.18605
898.383	87.19621
898.775	118.25451
899.167	80.18075
899.559	61.14692
899.951	80.1778
900.342	93.22357
900.734	110.26659
901.125	100.24907
901.517	75.17652
901.908	26.0591
902.299	76.17835
902.69	67.15265
903.082	72.16672
903.473	105.24299
903.863	43.10517
904.254	142.31402
904.645	37.08746
905.036	79.18681
905.426	68.14585
905.817	79.18384
906.207	6.01367
906.597	70.1581
906.987	58.14341
907.378	46.11282
907.768	47.12056
908.158	81.18804
908.547	78.19639
908.937	31.07588
909.327	56.13008
909.717	55.13192
910.106	11.02542
910.495	72.16996
910.885	67.16338
911.274	41.09856
911.663	33.08008
912.052	58.13553
912.441	82.20142
912.83	68.14755
913.219	78.19512
913.608	54.12757
913.997	46.11228
914.385	102.23131
914.774	55.12814
915.162	111.25391
915.55	43.09912
915.939	81.19745
916.327	41.0977
916.715	97.24015
917.103	65.1503
917.491	89.20915
917.878	80.1873
918.266	8.02006
918.654	72.17809
919.041	60.15307
919.429	84.18863
919.816	69.16751
920.203	78.18262
920.591	79.18775
920.978	58.13617
921.365	66.16743
921.752	84.18739
922.139	71.14633
922.525	64.14778
922.912	71.16483
923.299	79.18811
923.685	-4.01006
924.072	-1.00217
924.458	81.1928
924.844	71.16834
925.231	39.08619
925.617	92.2264
926.003	39.09585
926.389	61.1477
926.774	54.13107
927.16	63.14966
927.546	84.20899
927.931	52.12379
928.317	35.07671
928.702	99.2209
929.088	101.23234
929.473	99.24259
929.858	85.19998
930.243	72.16705
930.628	86.2019
931.013	46.10989
931.398	88.18826
931.783	39.09811
932.167	129.30184
932.552	88.20974
932.937	91.21385
933.321	57.13874
933.705	16.03857
934.09	26.06206
934.474	48.10805
934.858	48.12042
935.242	54.11922
935.626	56.13877
936.009	75.19406
936.393	130.31872
936.777	61.15125
937.16	78.19653
937.544	66.14571
937.927	62.15212
938.311	62.14374
938.694	91.23146
939.077	55.12612
939.46	34.07845
939.843	79.15131
940.226	41.10088
940.609	103.22678
940.991	58.14094
941.374	77.18109
941.757	74.17373
942.139	67.14392
942.522	66.14778
942.904	68.15627
943.286	71.17223
943.668	70.17625
944.05	80.1884
944.432	26.06164
944.814	34.07976
945.196	44.10406
945.578	56.12993
945.959	27.06015
946.341	68.15627
946.722	65.14461
947.104	67.15308
947.485	117.25706
947.866	94.22816
948.247	73.17841
948.628	31.07126
949.009	59.14532
949.39	91.21435
949.771	50.10831
950.152	77.18081
950.532	79.1915
950.913	65.14959
951.293	61.16067
951.674	27.06293
952.054	124.29735
952.434	100.23678
952.814	47.10578
953.194	72.17836
953.574	56.13152
953.954	51.1146
954.334	111.26562
954.714	22.05205
955.093	88.20603
955.473	67.16259
955.853	50.12485
956.232	38.10081
956.611	50.1132
956.99	53.12867
957.37	4.00982
957.749	38.08551
958.128	62.15099
958.506	49.12287
958.885	26.06313
959.264	78.18526
959.643	127.27374
960.021	97.23079
960.4	64.13786
960.778	36.08392
961.156	22.05306
961.535	66.14492
961.913	122.27092
962.291	83.20684
962.669	73.17828
963.047	54.13342
963.424	86.21311
963.802	42.0996
964.18	56.13362
964.557	107.23123
964.935	46.10427
965.312	68.17134
965.69	42.10014
966.067	51.11756
966.444	2.00468
966.821	85.21006
967.198	53.12153
967.575	71.16548
967.952	109.2419
968.329	114.26471
968.705	140.2821
969.082	101.25106
969.458	74.1721
969.835	39.09122
970.211	68.16956
970.587	60.14361
970.963	58.14162
971.339	57.14416
971.715	108.25691
972.091	78.18312
972.467	-22.05258
972.843	75.18036
973.219	73.16517
973.594	51.12871
973.97	49.10838
974.345	64.14714
974.721	43.09824
975.096	50.11711
975.471	13.02959
975.846	48.1096
976.221	43.10541
976.596	94.21818
976.971	79.18775
977.346	43.09491
977.72	25.06121
978.095	31.07737
978.469	56.12715
978.844	87.20724
979.218	49.11457
979.593	109.24572
979.967	14.03225
980.341	65.14335
980.715	77.18616
981.089	70.16754
981.463	75.16367
981.837	54.12826
982.21	40.08646
982.584	105.24173
982.957	26.06313
983.331	27.06032
983.704	83.19725
984.078	33.07815
984.451	50.1172
984.824	78.18262
985.197	46.10533
985.57	34.08072
985.943	50.11605
986.316	57.13165
986.688	97.22144
987.061	82.18338
987.434	157.39253
987.806	44.10071
988.179	62.13894
988.551	65.15726
988.923	28.06599
989.295	94.22223
989.667	67.15548
990.039	111.26521
990.411	29.06291
990.783	59.12745
991.155	1.00234
991.527	34.07879
991.898	90.215
992.27	63.15093
992.641	41.09823
993.012	63.13725
993.384	39.08871
993.755	46.11366
994.126	60.13938
994.497	53.12479
994.868	27.0587
995.239	42.09733
995.61	18.04385
995.98	54.12539
996.351	75.17893
996.722	105.23322
997.092	97.21912
997.462	72.16241
997.833	74.16522
998.203	14.0322
998.573	47.11299
998.943	74.16617
999.313	99.22655
999.683	48.11084
1000.053	46.09849
1000.423	48.11084
1000.792	66.16218
1001.162	30.07054
1001.531	58.13728
1001.901	34.08113
1002.27	29.0606
1002.639	42.10248
1003.009	78.17595
1003.378	65.15981
1003.747	74.16508
1004.116	25.05742
1004.485	98.22178
1004.853	26.06261
1005.222	15.03584
1005.591	54.12201
1005.959	54.11657
1006.328	44.09498
1006.696	61.13988
1007.064	11.02648
1007.433	62.14703
1007.801	37.08559
1008.169	43.10321
1008.537	91.18974
1008.905	94.20909
1009.273	42.09876
1009.64	85.19561
1010.008	34.07757
1010.375	73.16551
1010.743	27.0577
1011.11	75.1726
1011.478	37.08878
1011.845	88.19485
1012.212	85.18455
1012.579	38.08984
1012.946	26.05867
1013.313	78.17465
1013.68	74.15652
1014.047	51.11619
1014.414	17.03856
1014.78	80.1906
1015.147	53.1209
1015.513	47.10846
1015.88	62.15077
1016.246	29.06791
1016.612	71.15271
1016.978	81.1905
1017.344	55.13056
1017.71	104.23833
1018.076	51.11347
1018.442	89.21946
1018.808	79.19056
1019.174	3.00724
1019.539	9.01899
1019.905	36.0819
1020.27	5.01191
1020.636	83.18612
1021.001	77.17607
1021.366	29.0673
1021.731	94.23421
1022.096	47.11521
1022.461	92.20702
1022.826	109.24703
1023.191	28.07111
1023.556	45.10016
1023.92	42.09803
1024.285	35.08103
1024.649	30.07018
1025.014	70.16338
1025.378	71.17198
1025.742	22.05215
1026.107	68.14528
1026.471	72.15843
1026.835	79.18673
1027.199	18.04185
1027.562	44.09653
1027.926	70.16209
1028.29	12.02941
1028.654	45.09829
1029.017	64.15084
1029.381	59.13513
1029.744	47.11538
1030.107	102.22801
1030.471	79.181
1030.834	66.13991
1031.197	74.16938
1031.56	87.19332
1031.923	72.17881
1032.286	98.21744
1032.648	46.10355
1033.011	42.09362
1033.374	86.18907
1033.736	38.09664
1034.099	50.11683
1034.461	80.19483
1034.823	55.13197
1035.185	24.05766
1035.548	60.14031
1035.91	52.11874
1036.272	76.16498
1036.634	83.19299
1036.995	12.02689
1037.357	23.0542
1037.719	53.12358
1038.08	116.2622
1038.442	44.0997
1038.803	47.106
1039.165	17.04121
1039.526	28.06509
1039.887	57.13002
1040.248	87.20795
1040.609	11.02592
1040.97	36.08415
1041.331	107.25946
1041.692	79.17868
1042.053	68.14579
1042.413	48.10593
1042.774	88.20385
1043.134	40.08979
1043.495	66.15863
1043.855	99.23047
1044.215	1.00239
1044.576	95.21705
1044.936	57.12344
1045.296	90.2136
1045.656	10.02339
1046.016	49.11236
1046.375	47.10916
1046.735	103.22459
1047.095	99.21907
1047.454	66.13011
1047.814	47.10825
1048.173	90.20036
1048.533	79.17138
1048.892	34.07873
1049.251	60.14295
1049.61	54.12747
1049.969	47.10543
1050.328	67.13728
1050.687	27.06268
1051.046	52.12055
1051.405	45.10624
1051.763	73.16133
1052.122	57.13588
1052.48	66.15507
1052.839	124.2796
1053.197	109.2416
1053.555	93.19495
1053.914	77.17862
1054.272	33.0747
1054.63	76.17759
1054.988	135.30458
1055.345	66.13201
1055.703	71.16307
1056.061	90.22384
1056.419	87.21909
1056.776	29.06626
1057.134	5.01092
1057.491	75.17941
1057.848	38.09026
1058.206	28.062
1058.563	87.18003
1058.92	99.21394
1059.277	37.08763
1059.634	24.0533
1059.991	88.20053
1060.348	22.04786
1060.704	130.29899
1061.061	34.0739
1061.418	30.07002
1061.774	32.07598
1062.131	59.15266
1062.487	56.12389
1062.843	64.15242
1063.199	68.1617
1063.555	61.13594
1063.911	41.09882
1064.267	74.14238
1064.623	86.20111
1064.979	17.03715
1065.335	104.23239
1065.691	32.0723
1066.046	85.17542
1066.402	43.09241
1066.757	96.23073
1067.112	79.18355
1067.468	54.1236
1067.823	-12.02728
1068.178	22.05076
1068.533	100.22944
1068.888	25.05698
1069.243	85.19967
1069.598	79.18115
1069.952	87.1897
1070.307	31.07427
1070.662	106.24126
1071.016	100.21448
1071.371	102.21991
1071.725	42.09509
1072.079	75.17205
1072.434	73.16974
1072.788	47.1053
1073.142	102.23815
1073.496	40.09052
1073.85	42.09273
1074.203	54.12539
1074.557	76.19661
1074.911	28.06355
1075.265	59.13034
1075.618	87.20205
1075.971	62.14026
1076.325	54.13289
1076.678	31.06788
1077.031	15.03178
1077.385	78.16122
1077.738	73.15546
1078.091	51.11163
1078.444	62.13487
1078.796	74.17434
1079.149	85.20177
1079.502	93.20974
1079.855	89.19669
1080.207	66.15452
1080.56	28.0704
1080.912	48.11154
1081.264	81.18626
1081.617	44.10322
1081.969	49.11954
1082.321	29.06775
1082.673	53.11728
1083.025	49.11019
1083.377	287.61143
1083.728	44.09734
1084.08	19.0454
1084.432	21.04846
1084.783	47.1027
1085.135	54.13043
1085.486	64.14011
1085.838	65.15352
1086.189	64.14972
1086.54	49.11119
1086.891	62.15342
1087.242	128.29956
1087.593	46.10533
1087.944	84.18157
1088.295	47.10135
1088.646	124.28952
1088.996	65.15042
1089.347	83.19231
1089.698	63.14371
1090.048	51.1265
1090.398	23.0507
1090.749	50.11306
1091.099	70.17073
1091.449	90.21434
1091.799	72.17206
1092.149	68.16089
1092.499	7.01649
1092.849	46.11261
1093.199	71.16821
1093.548	109.25064
1093.898	55.13121
1094.248	38.09299
1094.597	39.0973
1094.947	55.14177
1095.296	115.27046
1095.645	46.11462
1095.994	111.25166
1096.343	72.1739
1096.692	88.22537
1097.041	61.16207
1097.39	48.11475
1097.739	27.06775
1098.088	57.14596
1098.437	60.15415
1098.785	49.12639
1099.134	21.05306
1099.482	89.23623
1099.83	69.1742
1100.179	68.17391
1100.527	4.0102
1100.875	64.1642
1101.223	62.15973
1101.571	-15.04038
1101.919	67.1724
1102.267	50.13783
1102.615	13.0417
1102.962	9.02884
1103.31	12.0385
1103.658	9.02882
