Data from N3 R2 sample 9_Subt2__1__10-18-26-380.txt Node

Date: Thu Sep 18 10:18:26 PDT 2025
User: uwsun
Spectrometer: HDX01956
Trigger mode: 0
Integration Time (sec): 5.000000E-1
Scans to average: 1
Nonlinearity correction enabled: true
Boxcar width: 0
Storing dark spectrum: false
XAxis mode: Wavelengths
Number of Pixels in Spectrum: 2068
>>>>>Begin Spectral Data<<<<<
194.03	69.1983
194.578	74.23854
195.127	70.22255
195.676	78.24864
196.225	100.26263
196.773	104.28595
197.321	133.3647
197.87	251.62932
198.418	210.53439
198.966	242.62644
199.513	256.63781
200.061	272.6752
200.609	200.52202
201.156	201.4351
201.704	229.56734
202.251	259.67448
202.798	205.52526
203.345	245.59585
203.892	222.55331
204.438	254.58975
204.985	234.54676
205.532	231.59787
206.078	195.47159
206.624	259.63718
207.17	296.67474
207.716	267.64083
208.262	304.58184
208.808	251.61933
209.354	266.64412
209.899	249.61462
210.445	231.56936
210.99	243.58301
211.535	260.6001
212.08	235.53625
212.625	244.59818
213.17	258.64442
213.715	273.60911
214.259	220.50678
214.804	205.49652
215.348	298.66914
215.892	267.634
216.436	202.45546
216.98	231.49769
217.524	275.64166
218.068	297.72876
218.612	260.64754
219.155	259.59862
219.698	274.63492
220.242	160.39256
220.785	268.61388
221.328	252.60839
221.871	261.64991
222.414	188.45937
222.956	184.43499
223.499	167.36907
224.041	161.36487
224.583	149.31219
225.126	202.43568
225.668	186.44618
226.21	219.54475
226.751	246.53467
227.293	191.42546
227.835	239.57276
228.376	232.51496
228.918	173.42579
229.459	200.49142
230	263.61463
230.541	204.46091
231.082	245.58244
231.622	159.35624
232.163	195.46287
232.704	233.57111
233.244	252.60931
233.784	157.37698
234.324	294.63899
234.864	146.32772
235.404	224.51558
235.944	230.52896
236.484	244.59441
237.023	214.49433
237.563	254.5748
238.102	214.4963
238.641	193.47746
239.18	227.52154
239.719	250.60994
240.258	225.49413
240.797	250.58184
241.335	223.53055
241.874	260.49088
242.412	323.75482
242.95	231.54662
243.488	208.45785
244.026	279.62893
244.564	241.48305
245.102	256.56469
245.64	189.4443
246.177	216.46967
246.715	289.6714
247.252	245.54099
247.789	323.56908
248.326	227.53591
248.863	224.48271
249.4	280.61374
249.936	323.64801
250.473	272.62454
251.009	240.53582
251.546	338.7221
252.082	228.48057
252.618	295.63639
253.154	222.52381
253.69	215.47257
254.226	278.64547
254.761	238.52125
255.297	244.51881
255.832	291.66937
256.367	244.55914
256.903	303.64916
257.438	251.57275
257.972	243.52737
258.507	235.52629
259.042	241.5112
259.576	252.54375
260.111	215.48388
260.645	246.51736
261.179	231.52967
261.713	285.61719
262.247	255.5659
262.781	241.49557
263.315	219.52043
263.849	243.59452
264.382	256.57178
264.915	294.67289
265.449	240.57242
265.982	270.59482
266.515	306.72449
267.048	277.56805
267.58	235.49434
268.113	213.45201
268.646	196.47214
269.178	269.58279
269.71	310.65999
270.243	292.6546
270.775	298.7408
271.307	238.55217
271.838	250.57495
272.37	215.51702
272.902	270.59282
273.433	285.61165
273.965	302.70811
274.496	226.54851
275.027	284.68589
275.558	292.69028
276.089	271.65882
276.62	232.57214
277.15	231.5557
277.681	258.53901
278.211	289.68173
278.741	311.66486
279.272	289.64001
279.802	256.62038
280.332	305.69511
280.861	264.61345
281.391	306.67016
281.921	255.59336
282.45	227.55125
282.98	281.71136
283.509	284.62644
284.038	306.67553
284.567	314.70449
285.096	296.69512
285.625	242.53135
286.153	324.74571
286.682	283.63064
287.21	250.58024
287.739	291.66535
288.267	279.66019
288.795	260.66207
289.323	289.65786
289.851	333.75278
290.378	289.62264
290.906	328.77296
291.433	334.80053
291.961	310.6835
292.488	300.7196
293.015	310.70693
293.542	340.84179
294.069	316.75653
294.596	288.68188
295.122	299.69463
295.649	335.70158
296.175	300.69792
296.702	332.78178
297.228	291.67845
297.754	300.65231
298.28	351.77372
298.806	320.74355
299.332	340.73015
299.857	375.81172
300.383	340.82172
300.908	326.77332
301.433	377.8827
301.958	318.70231
302.483	295.70855
303.008	343.82068
303.533	319.79458
304.058	270.61225
304.582	331.75283
305.107	286.72363
305.631	376.81128
306.155	317.71282
306.679	321.72862
307.203	361.80176
307.727	345.78499
308.251	361.85351
308.775	384.89222
309.298	332.77143
309.822	327.79225
310.345	380.86723
310.868	363.83895
311.391	389.91328
311.914	373.89448
312.437	424.91522
312.96	341.77275
313.482	328.74254
314.005	304.73501
314.527	333.83486
315.049	387.9358
315.571	408.87087
316.093	396.93461
316.615	348.80189
317.137	400.82676
317.659	431.98695
318.18	379.86163
318.702	421.9346
319.223	372.72166
319.744	421.89648
320.265	403.93506
320.786	431.01914
321.307	418.98001
321.828	414.88483
322.348	432.9612
322.869	444.99894
323.389	747.26863
323.909	429.92581
324.43	459.02916
324.95	484.03339
325.47	465.08441
325.989	468.04142
326.509	512.0635
327.029	509.08005
327.548	544.13511
328.067	488.10842
328.587	486.143
329.106	442.93853
329.625	501.22002
330.144	541.16255
330.662	551.19423
331.181	549.19646
331.7	508.09738
332.218	545.0876
332.736	502.0955
333.255	558.21173
333.773	526.15183
334.291	574.32456
334.808	610.25052
335.326	552.14113
335.844	619.32698
336.361	611.44545
336.879	633.35412
337.396	625.38935
337.913	661.3775
338.43	696.40137
338.947	624.3587
339.464	641.24637
339.981	640.37707
340.497	639.4293
341.014	635.40926
341.53	650.32304
342.046	721.61684
342.562	698.56619
343.078	688.4551
343.594	729.54426
344.11	766.62447
344.626	734.6598
345.141	729.48238
345.657	754.50648
346.172	763.63251
346.687	667.37894
347.202	793.58853
347.717	772.62724
348.232	750.66573
348.747	768.56568
349.261	750.45349
349.776	842.74387
350.29	833.8314
350.805	819.77728
351.319	818.65943
351.833	822.65087
352.347	838.724
352.861	835.70742
353.374	820.62264
353.888	834.78568
354.401	842.66002
354.915	843.6515
355.428	878.90173
355.941	885.77305
356.454	906.71458
356.967	850.71814
357.48	908.75433
357.993	927.95546
358.505	857.81168
359.018	982.03783
359.53	937.95846
360.042	1037.91863
360.554	948.98277
361.066	903.89152
361.578	1003.84362
362.09	946.915
362.602	991.84611
363.113	1037.03157
363.625	1035.94726
364.136	1055.89876
364.647	1083.11691
365.158	1104.09975
365.669	1028.04934
366.18	1021.00485
366.691	1028.85712
367.201	1101.16733
367.712	1122.08571
368.222	1116.09192
368.733	1055.87846
369.243	1216.14758
369.753	1132.11369
370.263	1126.22543
370.773	1156.2859
371.282	1177.26865
371.792	1145.14696
372.301	1248.39382
372.811	1242.63603
373.32	1295.15519
373.829	1309.40276
374.338	1321.25148
374.847	1439.49296
375.356	1407.52045
375.865	1572.39427
376.373	1561.57007
376.882	1562.94791
377.39	1536.74215
377.898	1565.83896
378.407	1768.74385
378.915	1835.65799
379.423	1849.89344
379.93	2009.00446
380.438	1981.12332
380.946	2096.05877
381.453	2147.22815
381.96	2359.31177
382.468	2470.27409
382.975	2640.54491
383.482	2576.05277
383.989	2676.8358
384.495	2783.2982
385.002	3022.73098
385.509	3133.43104
386.015	3380.50958
386.521	3539.05267
387.028	3615.01234
387.534	3683.62244
388.04	3855.3095
388.546	3949.69281
389.051	4287.50221
389.557	4541.68686
390.063	4729.40687
390.568	4813.79172
391.073	5124.06621
391.578	5352.59726
392.084	5489.02284
392.589	5813.55908
393.093	6296.00871
393.598	6823.67577
394.103	7510.98096
394.607	8214.49072
395.112	8630.01843
395.616	9135.76719
396.12	9903.531
396.624	10830.57915
397.128	11688.27448
397.632	12791.80435
398.136	13935.48151
398.639	15231.80576
399.143	17531.08895
399.646	19352.8622
400.15	21421.59395
400.653	24209.43237
401.156	27284.38639
401.659	31840.73238
402.162	40032.46704
402.664	57480.66744
403.167	62994.96052
403.67	63769.22307
404.172	63919.58413
404.674	63858.43483
405.176	63738.15102
405.678	63977.72923
406.18	64011.81569
406.682	63863.44694
407.184	63926.60148
407.686	63841.39382
408.187	64025.8516
408.688	63892.51763
409.19	63833.37461
409.691	58626.42265
410.192	50093.64504
410.693	44613.43298
411.194	42000.59056
411.694	39487.27296
412.195	35743.22719
412.696	33337.06946
413.196	32469.98252
413.696	32739.4764
414.196	32692.28717
414.696	31336.53943
415.196	28776.93384
415.696	24272.78652
416.196	18458.21451
416.695	15283.29706
417.195	14376.59456
417.694	13761.3291
418.194	12866.38454
418.693	12193.365
419.192	11723.58485
419.691	11670.40571
420.19	11213.07406
420.688	10836.4666
421.187	10242.85379
421.685	9562.62928
422.184	8358.57466
422.682	7187.4609
423.18	6389.71985
423.678	5663.93719
424.176	5312.10102
424.674	5145.0206
425.172	4752.60761
425.669	4336.13889
426.167	4042.88982
426.664	3814.84235
427.161	3477.04441
427.659	3274.43263
428.156	3131.69688
428.652	2907.69205
429.149	2826.44992
429.646	2638.96641
430.143	2495.30958
430.639	2366.20647
431.135	2184.38784
431.632	2151.94713
432.128	2037.10286
432.624	1931.35261
433.12	1942.8235
433.616	1905.64575
434.111	1789.87195
434.607	1722.84446
435.103	1645.3148
435.598	1656.30207
436.093	1579.60849
436.588	1515.43503
437.083	1383.29004
437.578	1343.34292
438.073	1294.519
438.568	1284.45246
439.062	1229.00016
439.557	1197.18775
440.051	1116.98483
440.546	1085.96981
441.04	1123.15815
441.534	1066.19575
442.028	1127.17102
442.522	1073.08352
443.015	969.68854
443.509	1022.03829
444.002	1004.02448
444.496	953.6894
444.989	899.83841
445.482	999.04332
445.975	947.81192
446.468	922.64404
446.961	956.69605
447.454	924.71384
447.947	904.81158
448.439	861.79714
448.931	897.72106
449.424	902.94626
449.916	838.7464
450.408	823.5986
450.9	805.68017
451.392	832.81583
451.884	833.62189
452.375	744.60656
452.867	805.5376
453.358	742.47015
453.849	807.45596
454.341	774.49721
454.832	763.40731
455.323	767.65944
455.814	699.39484
456.304	718.44507
456.795	703.39893
457.285	686.31533
457.776	725.4314
458.266	655.37405
458.756	627.31582
459.247	665.40364
459.737	700.48567
460.226	689.37231
460.716	689.44546
461.206	605.29303
461.695	585.30033
462.185	658.37883
462.674	620.25673
463.163	648.27885
463.653	618.15963
464.142	615.32974
464.63	596.29272
465.119	578.20404
465.608	623.29591
466.096	549.06769
466.585	552.13348
467.073	505.08413
467.561	505.10368
468.05	523.08953
468.538	515.14501
469.026	502.08393
469.513	547.03145
470.001	533.10547
470.489	515.11228
470.976	521.10364
471.463	490.11701
471.951	476.08548
472.438	443.96011
472.925	481.03518
473.412	396.89644
473.899	423.898
474.385	433.98237
474.872	396.86028
475.359	453.0265
475.845	466.879
476.331	410.80678
476.817	399.90562
477.303	410.885
477.789	354.79258
478.275	349.81652
478.761	353.7879
479.247	369.76936
479.732	309.73286
480.218	369.91073
480.703	318.7427
481.188	329.67133
481.673	338.73242
482.158	333.67795
482.643	357.8597
483.128	416.90026
483.612	401.89058
484.097	305.69848
484.581	301.66157
485.066	313.72801
485.55	414.84764
486.034	297.61127
486.518	310.70494
487.002	273.63449
487.486	266.6181
487.969	260.60559
488.453	235.56339
488.936	241.52169
489.42	323.67465
489.903	225.54045
490.386	193.3872
490.869	318.65876
491.352	258.59501
491.835	236.46373
492.318	244.52671
492.8	256.5073
493.283	277.67668
493.765	201.47803
494.247	233.52245
494.73	274.57879
495.212	192.44193
495.694	267.60262
496.175	278.63857
496.657	265.60079
497.139	208.34377
497.62	227.52717
498.102	223.53666
498.583	177.42338
499.064	228.49007
499.545	274.59628
500.026	225.49142
500.507	227.50397
500.988	278.66481
501.469	197.47661
501.949	271.64052
502.43	215.50167
502.91	215.44111
503.39	175.42291
503.87	161.37243
504.35	218.49274
504.83	191.40568
505.31	221.51466
505.79	193.44308
506.269	168.37632
506.749	204.45169
507.228	197.45045
507.707	268.57182
508.187	261.59821
508.666	232.55503
509.145	168.38375
509.623	229.51728
510.102	287.66254
510.581	260.60201
511.059	261.63119
511.538	233.5802
512.016	219.50779
512.494	234.54225
512.972	250.57564
513.45	235.52845
513.928	270.62913
514.406	296.69241
514.884	291.71774
515.361	312.7092
515.839	333.72451
516.316	358.81966
516.793	289.69731
517.27	336.76374
517.747	341.82926
518.224	349.75642
518.701	307.64294
519.178	349.82547
519.654	333.74542
520.131	342.80125
520.607	339.78287
521.083	306.65771
521.56	304.68121
522.036	294.60795
522.512	358.83347
522.987	334.76165
523.463	314.70651
523.939	377.87959
524.414	303.65869
524.89	325.735
525.365	292.62789
525.84	286.65695
526.315	297.68617
526.79	305.65316
527.265	334.72931
527.74	245.57279
528.215	237.53273
528.689	223.47178
529.164	282.57556
529.638	206.50709
530.112	200.45685
530.587	213.44095
531.061	244.56922
531.534	231.53773
532.008	262.61217
532.482	242.5356
532.956	148.37076
533.429	250.5894
533.903	231.48785
534.376	186.40031
534.849	192.42937
535.322	182.41875
535.795	149.35314
536.268	251.58498
536.741	140.32675
537.213	149.33617
537.686	178.42537
538.158	205.45267
538.631	165.39121
539.103	164.36267
539.575	148.29891
540.047	153.32709
540.519	222.51342
540.991	197.46744
541.463	177.41577
541.934	118.26345
542.406	154.36323
542.877	174.38366
543.348	246.57276
543.82	132.31629
544.291	237.53404
544.762	200.46328
545.233	223.54823
545.703	179.38897
546.174	221.49636
546.645	205.48248
547.115	203.47684
547.585	192.43026
548.056	253.6003
548.526	247.5659
548.996	225.52108
549.466	233.54794
549.935	223.51686
550.405	250.52879
550.875	224.51578
551.344	212.49108
551.814	286.62689
552.283	320.66231
552.752	292.65487
553.221	291.61402
553.69	348.74314
554.159	335.79298
554.628	327.7039
555.096	335.81101
555.565	311.65391
556.033	401.89575
556.502	352.80334
556.97	362.75795
557.438	305.68303
557.906	399.88098
558.374	384.83563
558.842	382.86019
559.31	387.81083
559.777	468.05604
560.245	407.87044
560.712	472.99348
561.18	508.02137
561.647	485.98334
562.114	573.17905
562.581	634.39217
563.048	669.34601
563.514	747.63881
563.981	745.47301
564.448	814.5597
564.914	831.63562
565.381	946.77909
565.847	957.83461
566.313	929.78427
566.779	1075.92106
567.245	1134.06548
567.711	1213.25928
568.176	1192.05825
568.642	1359.60788
569.108	1481.67247
569.573	1514.49689
570.038	1638.268
570.504	1738.6085
570.969	1823.04394
571.434	1913.65877
571.899	2001.98409
572.363	2158.92236
572.828	2344.0068
573.293	2300.97616
573.757	2530.10787
574.222	2607.93903
574.686	2773.09341
575.15	2835.36153
575.614	2958.25247
576.078	2920.21195
576.542	2950.04051
577.006	3064.98257
577.469	3227.49248
577.933	3274.99915
578.396	3224.25172
578.86	3297.1936
579.323	3262.35654
579.786	3320.69682
580.249	3294.20701
580.712	3224.41545
581.175	3269.50357
581.637	3239.00902
582.1	3222.74449
582.563	3185.6125
583.025	3190.42661
583.487	3084.47554
583.95	3042.69009
584.412	3054.58469
584.874	2919.44632
585.336	2998.27596
585.797	2891.79052
586.259	2813.18982
586.721	2656.18851
587.182	2659.09158
587.643	2608.01032
588.105	2564.20791
588.566	2521.5837
589.027	2457.37743
589.488	2404.01933
589.949	2382.30076
590.41	2289.34419
590.87	2266.96173
591.331	2290.75811
591.791	2238.00445
592.252	2148.99239
592.712	2066.07402
593.172	2053.83809
593.632	2079.75401
594.092	1984.71371
594.552	1995.60702
595.011	1900.77475
595.471	1960.77268
595.931	1925.73485
596.39	1814.90685
596.849	1877.82774
597.308	1822.44937
597.768	1873.27638
598.227	1888.96621
598.685	1928.77223
599.144	1915.90625
599.603	1916.86961
600.062	1926.46711
600.52	1912.72862
600.978	1989.96237
601.437	2060.83634
601.895	2072.59731
602.353	2077.69748
602.811	2170.8547
603.269	2095.05452
603.727	2251.18135
604.184	2231.92502
604.642	2296.32361
605.099	2466.12361
605.557	2527.35372
606.014	2601.73956
606.471	2651.57499
606.928	2809.90814
607.385	2839.60555
607.842	2923.07469
608.299	3143.16931
608.755	3104.39753
609.212	3173.88749
609.668	3338.91839
610.125	3503.29819
610.581	3460.12282
611.037	3508.82015
611.493	3625.04129
611.949	3769.29792
612.405	3840.12821
612.861	3898.83418
613.316	4040.06213
613.772	4102.7147
614.227	4134.04516
614.683	4182.17319
615.138	4207.82476
615.593	4335.68441
616.048	4338.58267
616.503	4368.99721
616.958	4398.23123
617.412	4362.83549
617.867	4392.40349
618.321	4431.87192
618.776	4363.31028
619.23	4360.73183
619.684	4328.41016
620.138	4287.60108
620.592	4233.05336
621.046	4160.89668
621.5	4097.0565
621.954	4082.47492
622.407	3940.54417
622.861	3912.19922
623.314	3957.68637
623.768	3871.01829
624.221	3775.9499
624.674	3710.92696
625.127	3630.99617
625.58	3651.75903
626.033	3540.63576
626.485	3477.23246
626.938	3438.21291
627.39	3471.08294
627.843	3439.99718
628.295	3364.01702
628.747	3358.23866
629.199	3264.96097
629.651	3263.00419
630.103	3246.01015
630.555	3194.53097
631.006	3164.10428
631.458	3213.17221
631.909	3142.88097
632.361	3114.06167
632.812	3188.07319
633.263	3187.69417
633.714	3229.54319
634.165	3166.29446
634.616	3138.20726
635.067	3281.74961
635.518	3226.21329
635.968	3282.13604
636.419	3415.66572
636.869	3377.17719
637.319	3384.04563
637.769	3535.80073
638.219	3508.11762
638.669	3676.11641
639.119	3671.16189
639.569	3834.12255
640.019	3921.8241
640.468	4079.54789
640.918	4106.91966
641.367	4186.48251
641.816	4320.36426
642.265	4494.60765
642.714	4562.44316
643.163	4754.3956
643.612	4848.78712
644.061	4908.79066
644.51	5093.14626
644.958	5218.82396
645.406	5343.30838
645.855	5375.4097
646.303	5526.96686
646.751	5638.92652
647.199	5824.70107
647.647	5901.83293
648.095	5873.71903
648.543	6079.98827
648.99	6091.99735
649.438	6180.70187
649.885	6186.24026
650.333	6143.77581
650.78	6283.97396
651.227	6187.09752
651.674	6264.59825
652.121	6161.12663
652.568	6095.14003
653.015	6225.16048
653.461	6054.93331
653.908	6045.69788
654.354	5929.99089
654.801	5971.86838
655.247	5911.38105
655.693	5679.81968
656.139	5692.11167
656.585	5652.13678
657.031	5437.13281
657.477	5583.57219
657.922	5359.93076
658.368	5326.52664
658.813	5274.9756
659.259	5256.46311
659.704	5257.29353
660.149	4994.23057
660.594	4938.47553
661.039	4780.27139
661.484	4775.5503
661.929	4706.4896
662.373	4557.12768
662.818	4557.00622
663.262	4516.85397
663.707	4420.31451
664.151	4416.96646
664.595	4380.92596
665.039	4278.17635
665.483	4265.38647
665.927	4254.76087
666.371	4223.8024
666.814	4124.91398
667.258	4217.98175
667.701	4245.12844
668.145	4104.2777
668.588	4157.22155
669.031	4067.86969
669.474	4045.02265
669.917	4076.38523
670.36	4038.32951
670.803	4015.09036
671.245	3954.03499
671.688	4078.11138
672.13	3997.6346
672.573	3907.46852
673.015	3994.08234
673.457	3941.4091
673.899	3853.16013
674.341	3837.1354
674.783	3857.09111
675.225	3797.31066
675.666	3808.26721
676.108	3810.42558
676.549	3756.9257
676.991	3746.54612
677.432	3729.9798
677.873	3649.83148
678.314	3633.11712
678.755	3639.37295
679.196	3472.89911
679.637	3357.22582
680.078	3428.04995
680.518	3343.95789
680.959	3301.20057
681.399	3267.46994
681.839	3227.34067
682.28	3142.51161
682.72	3117.97782
683.16	3015.53833
683.6	3043.95619
684.039	2981.44007
684.479	2899.46418
684.919	2850.166
685.358	2839.50345
685.798	2729.77545
686.237	2756.23104
686.676	2629.92419
687.115	2703.15716
687.554	2638.23637
687.993	2673.81238
688.432	2551.95891
688.871	2586.99217
689.309	2502.21582
689.748	2576.50795
690.186	2422.05318
690.625	2507.10257
691.063	2350.13352
691.501	2436.36122
691.939	2346.42651
692.377	2325.20629
692.815	2301.24598
693.253	2249.077
693.69	2262.68858
694.128	2207.15986
694.565	2164.01476
695.003	2210.43086
695.44	2126.99804
695.877	2100.95318
696.314	2028.4434
696.751	2035.7471
697.188	2022.8428
697.625	1955.65014
698.061	1899.9035
698.498	1858.81599
698.934	1904.8969
699.371	1834.78398
699.807	1835.79449
700.243	1833.88607
700.679	1734.49792
701.115	1747.67893
701.551	1682.61034
701.987	1593.32094
702.422	1620.66144
702.858	1655.6904
703.294	1667.5533
703.729	1592.70128
704.164	1546.58636
704.599	1559.37077
705.035	1478.31326
705.47	1457.55343
705.904	1386.32077
706.339	1433.341
706.774	1362.32979
707.209	1409.36272
707.643	1375.41153
708.078	1326.40561
708.512	1237.38797
708.946	1313.30589
709.38	1292.29299
709.814	1219.0668
710.248	1248.32639
710.682	1201.21267
711.116	1235.29812
711.549	1096.23247
711.983	1104.98061
712.416	1210.1889
712.85	1152.22828
713.283	1122.05794
713.716	1045.07321
714.149	1056.92042
714.582	1055.85044
715.015	939.88481
715.448	1002.04993
715.881	1009.68839
716.313	960.80723
716.746	912.76627
717.178	901.78272
717.61	958.00204
718.043	836.73067
718.475	846.71317
718.907	865.80231
719.339	809.52437
719.77	848.69063
720.202	732.57523
720.634	758.58723
721.065	809.59301
721.497	739.54706
721.928	674.42732
722.359	711.4897
722.79	741.51092
723.221	634.37758
723.652	639.42461
724.083	655.26517
724.514	663.31065
724.945	596.22177
725.375	637.2933
725.806	602.3052
726.236	602.36055
726.666	564.17275
727.096	544.18379
727.526	585.34113
727.956	539.09005
728.386	577.2496
728.816	524.20664
729.246	523.15657
729.675	477.04853
730.105	530.15524
730.534	552.1345
730.964	498.11654
731.393	502.10197
731.822	490.13183
732.251	472.08543
732.68	440.92044
733.109	485.0782
733.537	470.03939
733.966	441.0033
734.395	458.95469
734.823	426.84971
735.251	378.83515
735.68	412.92886
736.108	349.80884
736.536	394.84282
736.964	365.77725
737.392	395.90708
737.82	364.79985
738.247	428.92583
738.675	382.82139
739.102	342.79215
739.53	354.84748
739.957	339.81915
740.384	321.71767
740.811	291.67792
741.238	334.76227
741.665	342.74488
742.092	251.54171
742.519	292.68065
742.945	355.79924
743.372	315.7315
743.798	270.6516
744.225	269.59671
744.651	300.70204
745.077	318.7392
745.503	287.64775
745.929	337.7581
746.355	255.58376
746.781	297.68153
747.207	315.69699
747.632	287.67018
748.058	298.705
748.483	288.61742
748.908	266.62468
749.334	294.67937
749.759	321.71175
750.184	304.68486
750.609	270.62119
751.033	263.57466
751.458	346.70714
751.883	267.61711
752.307	220.49056
752.732	280.67521
753.156	214.50042
753.58	265.58515
754.005	208.49629
754.429	276.61415
754.853	227.53695
755.277	243.54487
755.7	201.47546
756.124	262.61385
756.548	188.42303
756.971	246.56621
757.394	205.49914
757.818	188.46449
758.241	219.52963
758.664	213.51182
759.087	206.44107
759.51	212.49613
759.933	253.57732
760.356	260.63457
760.778	178.41837
761.201	199.45667
761.623	172.3902
762.046	188.41696
762.468	228.51492
762.89	172.40064
763.312	203.47312
763.734	206.47207
764.156	193.45441
764.578	204.43924
765	221.50999
765.421	146.35954
765.843	179.44866
766.264	145.32875
766.686	169.40054
767.107	179.4139
767.528	162.40055
767.949	152.37045
768.37	226.53138
768.791	191.43462
769.212	171.4134
769.632	182.40667
770.053	154.38663
770.473	164.37733
770.894	148.34854
771.314	152.34231
771.734	147.32786
772.154	144.35291
772.575	147.32352
772.994	147.31781
773.414	189.42571
773.834	119.28563
774.254	186.43137
774.673	200.4653
775.093	209.49438
775.512	180.42422
775.931	117.2868
776.351	155.37105
776.77	156.36738
777.189	141.32111
777.607	105.25948
778.026	172.40915
778.445	165.4016
778.864	104.25441
779.282	121.27679
779.701	89.2163
780.119	101.24804
780.537	129.30846
780.955	124.30131
781.373	121.28745
781.791	165.35718
782.209	137.29441
782.627	142.35983
783.045	138.29918
783.462	100.24699
783.88	128.31962
784.297	141.34036
784.715	102.25479
785.132	112.25903
785.549	71.17217
785.966	156.37522
786.383	111.26471
786.8	115.25596
787.217	187.42448
787.633	82.2006
788.05	125.27752
788.466	127.28208
788.883	135.33398
789.299	83.19017
789.715	158.36774
790.131	139.33097
790.547	121.28944
790.963	153.3615
791.379	126.30617
791.795	101.21836
792.21	101.22508
792.626	90.20368
793.041	97.23008
793.457	100.23614
793.872	119.26497
794.287	132.30662
794.702	71.1662
795.117	79.19092
795.532	78.19095
795.947	103.2341
796.362	80.1798
796.776	147.31957
797.191	114.26837
797.605	105.24
798.02	91.21285
798.434	175.36651
798.848	148.35287
799.262	52.12531
799.676	156.36151
800.09	126.29615
800.504	95.22028
800.918	85.18715
801.331	27.06739
801.745	92.20124
802.158	74.17691
802.572	121.28035
802.985	112.25615
803.398	83.18963
803.811	43.10502
804.224	44.10475
804.637	94.21602
805.05	111.24326
805.462	102.23871
805.875	48.12146
806.288	92.21489
806.7	41.09894
807.112	78.17192
807.525	44.10342
807.937	59.14156
808.349	55.13232
808.761	69.16455
809.173	96.22432
809.584	81.19139
809.996	46.10896
810.408	106.26632
810.819	73.16551
811.231	170.43384
811.642	167.39427
812.053	155.35955
812.464	107.2421
812.875	101.24951
813.286	87.21807
813.697	95.20635
814.108	131.30279
814.519	132.28141
814.929	87.21271
815.34	17.03965
815.75	141.34486
816.16	53.12591
816.571	61.15274
816.981	64.14342
817.391	63.14498
817.801	46.11119
818.211	85.19358
818.62	124.28599
819.03	71.16691
819.44	37.09211
819.849	28.06773
820.259	52.12726
820.668	65.15489
821.077	95.22872
821.486	57.13039
821.895	68.15908
822.304	56.14342
822.713	70.15816
823.122	76.18197
823.531	-2.00454
823.939	101.23651
824.348	44.10261
824.756	74.17718
825.164	108.25829
825.573	60.14541
825.981	85.20084
826.389	81.19501
826.797	92.22531
827.205	90.19895
827.612	72.16969
828.02	21.0475
828.428	65.15939
828.835	89.22725
829.243	41.09352
829.65	82.19753
830.057	70.16222
830.464	105.24761
830.871	137.31213
831.278	70.1626
831.685	98.20665
832.092	36.08429
832.499	141.29177
832.905	60.14536
833.312	86.18302
833.718	100.24016
834.124	75.16437
834.531	63.15128
834.937	123.30229
835.343	41.09454
835.749	73.16046
836.155	10.02553
836.561	74.17502
836.966	59.13816
837.372	67.16326
837.777	71.17074
838.183	109.22788
838.588	115.27414
838.993	77.17982
839.399	60.14191
839.804	41.09676
840.209	73.1812
840.613	58.12322
841.018	74.17901
841.423	75.18528
841.828	97.23619
842.232	47.11015
842.637	117.26516
843.041	60.14923
843.445	38.0914
843.849	64.15312
844.253	86.19439
844.657	45.11031
845.061	137.29872
845.465	54.12559
845.869	81.17961
846.272	61.14368
846.676	-44.10233
847.079	72.1777
847.483	100.23742
847.886	51.11816
848.289	95.24717
848.692	57.13806
849.095	102.23206
849.498	77.18426
849.901	61.13261
850.304	67.1532
850.707	75.18296
851.109	52.12607
851.512	54.12816
851.914	64.15656
852.316	70.17232
852.718	98.24931
853.121	83.19482
853.523	34.07597
853.925	54.13772
854.326	31.0756
854.728	82.20335
855.13	50.12603
855.531	57.13123
855.933	56.12766
856.334	70.1692
856.736	141.30013
857.137	91.20355
857.538	22.05408
857.939	115.27477
858.34	26.06054
858.741	43.10837
859.142	50.11477
859.542	67.17186
859.943	69.16449
860.343	44.10595
860.744	69.16133
861.144	73.17235
861.544	27.0637
861.945	57.13978
862.345	62.14476
862.745	103.24619
863.145	88.19631
863.544	83.2018
863.944	36.08187
864.344	14.03324
864.743	78.18498
865.143	84.20907
865.542	28.06169
865.941	63.15047
866.34	95.21355
866.74	63.16358
867.139	109.25184
867.537	56.13582
867.936	54.12549
868.335	41.1005
868.734	41.10151
869.132	28.06182
869.531	35.08051
869.929	79.17255
870.327	48.11062
870.726	69.16316
871.124	103.2263
871.522	77.18749
871.92	42.09987
872.318	74.17176
872.715	48.11251
873.113	68.15777
873.511	36.08626
873.908	54.13377
874.306	66.15911
874.703	21.05033
875.1	32.07796
875.497	49.11236
875.894	71.17016
876.291	60.14174
876.688	37.09248
877.085	61.13915
877.482	56.13475
877.878	126.29153
878.275	37.09114
878.671	41.08446
879.068	116.2653
879.464	83.19139
879.86	68.15377
880.256	51.11891
880.652	59.14436
881.048	69.16196
881.444	9.0204
881.84	61.14886
882.236	63.15197
882.631	128.29944
883.027	48.11115
883.422	33.08104
883.817	53.12939
884.213	54.13362
884.608	120.28611
885.003	50.11472
885.398	71.17068
885.793	41.09879
886.188	-5.01207
886.582	62.15139
886.977	43.09729
887.371	31.0752
887.766	48.11576
888.16	15.03559
888.554	60.14125
888.949	88.21102
889.343	98.22647
889.737	31.08102
890.131	60.1447
890.525	75.18548
890.918	22.05354
891.312	51.11572
891.706	53.13385
892.099	72.17515
892.492	63.12826
892.886	53.12421
893.279	40.09811
893.672	34.08432
894.065	51.12307
894.458	12.02894
894.851	108.24938
895.244	43.10591
895.637	80.18466
896.029	86.20214
896.422	22.05123
896.814	33.07888
897.206	69.15955
897.599	152.35377
897.991	54.12623
898.383	46.10461
898.775	128.27549
899.167	68.15402
899.559	57.13739
899.951	46.10296
900.342	66.15947
900.734	79.19258
901.125	50.12567
901.517	66.15561
901.908	46.10415
902.299	60.14125
902.69	122.27486
903.082	113.25953
903.473	66.15392
903.863	50.12213
904.254	67.15049
904.645	71.16672
905.036	62.14709
905.426	66.14162
905.817	68.15858
906.207	-34.07807
906.597	105.23545
906.987	26.06467
907.378	58.14194
907.768	58.14849
908.158	60.13987
908.547	68.17152
908.937	33.08074
909.327	83.19177
909.717	58.13903
910.106	45.10327
910.495	63.14897
910.885	105.25423
911.274	65.15554
911.663	25.06076
912.052	24.05645
912.441	63.15529
912.83	115.24703
913.219	59.1481
913.608	86.2019
913.997	65.15809
914.385	77.1755
914.774	26.06092
915.162	91.209
915.55	38.08768
915.939	57.13957
916.327	22.05262
916.715	98.24258
917.103	37.08603
917.491	81.19064
917.878	64.15031
918.266	28.06997
918.654	93.22915
919.041	59.15055
919.429	27.06134
919.816	61.14831
920.203	107.24909
920.591	94.22275
920.978	79.18471
921.365	81.20493
921.752	24.0542
922.139	101.20675
922.525	50.11578
922.912	71.16483
923.299	51.12209
923.685	-3.00755
924.072	-2.00434
924.458	71.16932
924.844	71.16834
925.231	13.02889
925.617	46.11416
926.003	75.1831
926.389	54.13092
926.774	102.24534
927.16	97.22892
927.546	89.22123
927.931	72.17075
928.317	70.15228
928.702	76.17038
929.088	86.19843
929.473	92.22573
929.858	58.13718
930.243	85.19671
930.628	85.19959
931.013	37.08854
931.398	73.15667
931.783	3.0076
932.167	95.22377
932.552	47.1129
932.937	74.17447
933.321	60.14596
933.705	22.05298
934.09	51.12116
934.474	51.11474
934.858	59.14773
935.242	53.11704
935.626	44.10927
936.009	62.16078
936.393	125.30675
936.777	85.20983
937.16	67.16915
937.544	85.18691
937.927	43.10588
938.311	68.15746
938.694	87.22144
939.077	39.08972
939.46	3.00696
939.843	65.12492
940.226	16.03955
940.609	77.17046
940.991	51.12409
941.374	70.16485
941.757	61.14357
942.139	47.10139
942.522	53.11899
942.904	69.15854
943.286	53.129
943.668	78.19611
944.05	52.12313
944.432	27.06399
944.814	39.0914
945.196	39.09233
945.578	30.06996
945.959	41.09107
946.341	39.09015
946.722	66.14681
947.104	49.11236
947.485	75.16624
947.866	60.14656
948.247	56.1373
948.628	14.03229
949.009	39.09642
949.39	43.10223
949.771	50.10831
950.152	71.16691
950.532	84.20342
950.913	98.22404
951.293	70.18409
951.674	72.16632
952.054	78.18868
952.434	24.05766
952.814	18.04075
953.194	43.10708
953.574	67.15702
953.954	22.04973
954.334	75.18071
954.714	47.11066
955.093	113.26327
955.473	69.16738
955.853	55.13722
956.232	10.02665
956.611	37.08399
956.99	100.24062
957.37	13.03187
957.749	25.05641
958.128	113.27257
958.506	23.05794
958.885	46.11127
959.264	73.17355
959.643	84.18273
960.021	30.0723
960.4	20.04349
960.778	61.1415
961.156	56.13419
961.535	52.11451
961.913	86.19241
962.291	67.16746
962.669	73.17828
963.047	110.26899
963.424	79.19602
963.802	73.17208
964.18	43.10286
964.557	116.2502
964.935	95.2132
965.312	63.15888
965.69	69.16367
966.067	32.07404
966.444	78.17961
966.821	60.14896
967.198	51.11699
967.575	46.10774
967.952	115.2549
968.329	127.29413
968.705	122.24685
969.082	102.2535
969.458	44.10294
969.835	58.13516
970.211	68.16956
970.587	63.1507
970.963	43.10529
971.339	52.13163
971.715	49.11788
972.091	91.2131
972.467	45.10616
972.843	77.1851
973.219	123.27547
973.594	50.12621
973.97	5.01116
974.345	62.1426
974.721	51.11634
975.096	75.1748
975.471	68.15308
975.846	38.08694
976.221	24.05904
976.596	87.20221
976.971	113.26679
977.346	84.18382
977.72	33.08068
978.095	44.10955
978.469	62.1406
978.844	57.13656
979.218	105.2428
979.593	78.17695
979.967	13.02995
980.341	69.15205
980.715	80.1933
981.089	61.14625
981.463	80.1744
981.837	48.11414
982.21	46.0993
982.584	83.19192
982.957	62.14953
983.331	63.1397
983.704	104.24616
984.078	72.16923
984.451	20.04716
984.824	50.11771
985.197	78.17746
985.57	13.03099
985.943	39.09072
986.316	59.13621
986.688	74.16972
987.061	108.24023
987.434	99.25011
987.806	22.05058
988.179	94.20926
988.551	64.15487
988.923	62.14516
989.295	55.13101
989.667	113.25984
990.039	141.33496
990.411	-18.03944
990.783	37.0803
991.155	48.11119
991.527	64.14743
991.898	56.13465
992.27	74.17691
992.641	59.14086
993.012	26.05709
993.384	13.02973
993.755	60.14787
994.126	83.19192
994.497	41.09676
994.868	56.12099
995.239	32.0743
995.61	44.10668
995.98	49.11389
996.351	48.1151
996.722	46.10342
997.092	46.10499
997.462	29.06599
997.833	63.14098
998.203	42.09606
998.573	41.09867
998.943	74.16617
999.313	54.12469
999.683	55.12683
1000.053	5.0108
1000.423	43.09939
1000.792	8.01987
1001.162	13.03067
1001.531	72.16996
1001.901	36.08587
1002.27	25.05229
1002.639	-4.00984
1003.009	76.17151
1003.378	62.15252
1003.747	32.07201
1004.116	-32.07433
1004.485	54.1233
1004.853	12.02897
1005.222	20.04774
1005.591	57.12871
1005.959	55.1187
1006.328	48.10353
1006.696	22.05084
1007.064	25.06003
1007.433	21.0502
1007.801	34.0787
1008.169	39.09368
1008.537	79.16516
1008.905	86.19161
1009.273	56.13132
1009.64	72.16613
1010.008	77.17415
1010.375	59.13415
1010.743	37.0789
1011.11	131.29809
1011.478	99.23473
1011.845	42.09389
1012.212	113.24388
1012.579	54.12727
1012.946	43.0967
1013.313	60.13485
1013.68	98.2062
1014.047	49.11168
1014.414	47.10596
1014.78	29.06977
1015.147	73.16585
1015.513	72.16533
1015.88	54.13151
1016.246	62.14425
1016.612	63.13574
1016.978	62.14635
1017.344	77.18201
1017.71	52.12041
1018.076	77.17039
1018.442	73.18054
1018.808	59.14286
1019.174	17.04091
1019.539	17.03581
1019.905	57.12913
1020.27	60.14136
1020.636	42.09497
1021.001	78.17832
1021.366	87.19957
1021.731	118.29273
1022.096	68.16604
1022.461	58.13142
1022.826	109.24703
1023.191	35.08877
1023.556	45.10016
1023.92	8.0188
1024.285	45.10397
1024.649	31.07251
1025.014	3.00709
1025.378	98.23617
1025.742	30.07101
1026.107	76.16209
1026.471	74.16276
1026.835	37.08817
1027.199	43.09947
1027.562	30.06601
1027.926	73.16894
1028.29	42.10236
1028.654	74.16064
1029.017	93.21795
1029.381	60.13739
1029.744	18.04443
1030.107	113.25203
1030.471	86.19677
1030.834	34.07258
1031.197	94.21429
1031.56	71.15829
1031.923	32.08005
1032.286	68.15182
1032.648	35.07897
1033.011	106.23314
1033.374	45.09979
1033.736	26.06626
1034.099	52.12146
1034.461	58.14183
1034.823	55.13197
1035.185	45.10768
1035.548	41.09624
1035.91	51.11648
1036.272	77.16711
1036.634	107.24762
1036.995	49.10897
1037.357	25.05889
1037.719	65.1512
1038.08	117.26441
1038.442	27.06139
1038.803	17.03857
1039.165	62.14902
1039.526	87.19989
1039.887	36.08247
1040.248	69.16549
1040.609	53.12387
1040.97	-17.04015
1041.331	72.17574
1041.692	113.2538
1042.053	37.07986
1042.413	67.14727
1042.774	91.21067
1043.134	63.14075
1043.495	86.20591
1043.855	82.19153
1044.215	63.14851
1044.576	60.13805
1044.936	101.21667
1045.296	82.19491
1045.656	33.07685
1046.016	65.14857
1046.375	47.10916
1046.735	75.16451
1047.095	49.10956
1047.454	68.13399
1047.814	53.12192
1048.173	84.18723
1048.533	64.13928
1048.892	27.06261
1049.251	31.07427
1049.61	65.15311
1049.969	74.16508
1050.328	58.11908
1050.687	20.0465
1051.046	69.15943
1051.405	13.03088
1051.763	63.13952
1052.122	50.11935
1052.48	86.20127
1052.839	100.22659
1053.197	63.14098
1053.555	54.11417
1053.914	78.1809
1054.272	5.01138
1054.63	31.07308
1054.988	86.19597
1055.345	58.11623
1055.703	67.154
1056.061	84.20915
1056.419	108.27095
1056.776	30.06853
1057.134	18.03919
1057.491	78.18647
1057.848	65.15358
1058.206	30.0664
1058.563	100.20633
1058.92	62.13505
1059.277	65.15311
1059.634	67.14745
1059.991	125.28271
1060.348	70.15072
1060.704	89.20637
1061.061	76.16371
1061.418	61.1415
1061.774	17.04048
1062.131	43.11157
1062.487	37.08218
1062.843	72.17121
1063.199	58.13818
1063.555	47.10504
1063.911	14.03392
1064.267	85.16312
1064.623	68.15958
1064.979	38.08266
1065.335	45.10178
1065.691	38.08575
1066.046	121.24769
1066.402	11.0238
1066.757	63.15237
1067.112	56.1307
1067.468	101.22899
1067.823	-2.00454
1068.178	33.07597
1068.533	112.25636
1068.888	74.16699
1069.243	70.16492
1069.598	51.1176
1069.952	98.21319
1070.307	79.18753
1070.662	40.09226
1071.016	86.18501
1071.371	72.15623
1071.725	68.15314
1072.079	68.15621
1072.434	79.18347
1072.788	41.09198
1073.142	56.13193
1073.496	37.08379
1073.85	66.14498
1074.203	48.11159
1074.557	57.14795
1074.911	68.15308
1075.265	49.10847
1075.618	66.15392
1075.971	28.06378
1076.325	65.15963
1076.678	36.07875
1077.031	-22.04698
1077.385	92.18956
1077.738	36.07728
1078.091	34.07469
1078.444	69.14988
1078.796	34.08072
1079.149	52.12422
1079.502	62.14071
1079.855	60.13341
1080.207	53.1244
1080.56	55.13761
1080.912	69.15968
1081.264	79.18173
1081.617	81.18864
1081.969	57.13884
1082.321	45.1048
1082.673	57.12603
1083.025	38.08565
1083.377	50.112
1083.728	65.14317
1084.08	27.06441
1084.432	41.09424
1084.783	13.02861
1085.135	72.17331
1085.486	74.16166
1085.838	45.1067
1086.189	100.23229
1086.54	37.08416
1086.891	66.16319
1087.242	91.21451
1087.593	42.09625
1087.944	114.24483
1088.295	94.20066
1088.646	122.28496
1088.996	49.11376
1089.347	52.12122
1089.698	55.12566
1090.048	44.10927
1090.398	51.11177
1090.749	85.19084
1091.099	44.10784
1091.449	52.12474
1091.799	45.1081
1092.149	57.13515
1092.499	37.08664
1092.849	51.12474
1093.199	42.10006
1093.548	65.15078
1093.898	0
1094.248	61.14864
1094.597	55.13682
1094.947	55.14177
1095.296	77.18243
1095.645	48.11956
1095.994	59.13518
1096.343	41.09961
1096.692	71.18238
1097.041	73.19357
1097.39	38.09102
1097.739	65.16199
1098.088	24.06181
1098.437	63.16177
1098.785	38.09821
1099.134	11.02784
1099.482	88.23361
1099.83	39.09899
1100.179	77.19661
1100.527	5.01275
1100.875	62.15912
1101.223	73.18771
1101.571	2.00537
1101.919	85.21803
1102.267	31.08571
1102.615	9.02889
1102.962	8.02564
1103.31	9.02889
1103.658	5.01602
