Data from N3 R2 sample 7_Subt2__5__10-16-10-384.txt Node

Date: Thu Sep 18 10:16:10 PDT 2025
User: uwsun
Spectrometer: HDX01956
Trigger mode: 0
Integration Time (sec): 5.000000E-1
Scans to average: 1
Nonlinearity correction enabled: true
Boxcar width: 0
Storing dark spectrum: false
XAxis mode: Wavelengths
Number of Pixels in Spectrum: 2068
>>>>>Begin Spectral Data<<<<<
194.03	59.16981
194.578	64.20654
195.127	59.18783
195.676	64.20436
196.225	96.25229
196.773	69.19077
197.321	144.39417
197.87	150.38294
198.418	244.61716
198.966	233.60408
199.513	224.56133
200.061	213.53444
200.609	213.55471
201.156	182.39558
201.704	216.53641
202.251	171.45204
202.798	181.46572
203.345	242.58888
203.892	200.50048
204.438	173.40812
204.985	215.50424
205.532	159.41665
206.078	197.47625
206.624	270.66289
207.17	276.6317
207.716	237.57208
208.262	238.4628
208.808	253.62403
209.354	257.62339
209.899	273.67088
210.445	234.57643
210.99	275.65576
211.535	248.57377
212.08	242.55144
212.625	232.57003
213.17	252.63012
213.715	308.68222
214.259	216.49796
214.804	215.51976
215.348	218.49756
215.892	255.60691
216.436	238.53267
216.98	197.42754
217.524	230.54142
218.068	226.56185
218.612	284.70421
219.155	230.53467
219.698	234.54654
220.242	181.44235
220.785	250.57472
221.328	169.41441
221.871	256.63804
222.414	210.51102
222.956	151.35926
223.499	195.42843
224.041	225.50327
224.583	204.42223
225.126	219.47062
225.668	183.43924
226.21	189.4727
226.751	245.53261
227.293	199.44255
227.835	243.5819
228.376	177.39738
228.918	191.46853
229.459	203.49851
230	219.51623
230.541	229.51475
231.082	255.60504
231.622	160.3584
232.163	199.472
232.704	231.56642
233.244	195.47656
233.784	206.49002
234.324	282.61447
234.864	168.37539
235.404	193.44698
235.944	207.47826
236.484	198.4865
237.023	223.5142
237.563	270.60902
238.102	227.52509
238.641	165.41029
239.18	196.45312
239.719	173.42814
240.258	189.41822
240.797	226.52848
241.335	207.494
241.874	253.47848
242.412	251.59486
242.95	217.51489
243.488	170.37719
244.026	253.57336
244.564	239.47926
245.102	242.53537
245.64	228.5319
246.177	187.40912
246.715	276.64285
247.252	227.50313
247.789	209.37921
248.326	214.5065
248.863	229.49296
249.4	230.50946
249.936	251.51194
250.473	256.58969
251.009	238.53158
251.546	238.51949
252.082	205.43427
252.618	227.49684
253.154	235.55308
253.69	215.47257
254.226	250.58368
254.761	269.58528
255.297	213.45595
255.832	223.51993
256.367	252.57654
256.903	240.52119
257.438	220.50516
257.972	238.51707
258.507	201.4533
259.042	271.57107
259.576	245.52944
260.111	210.47311
260.645	243.51139
261.179	251.57321
261.713	282.61108
262.247	225.50244
262.781	219.45256
263.315	231.54768
263.849	204.50273
264.382	260.58023
264.915	253.58383
265.449	239.57014
265.982	246.54467
266.515	238.57091
267.048	189.3953
267.58	230.48435
268.113	235.4963
268.646	165.3998
269.178	208.45651
269.71	278.59599
270.243	279.62713
270.775	245.61494
271.307	227.5278
271.838	260.59675
272.37	220.52854
272.902	231.51136
273.433	254.54877
273.965	232.55143
274.496	197.48074
275.027	264.64
275.558	234.55939
276.089	281.68185
276.62	212.52474
277.15	242.58094
277.681	252.52718
278.211	268.63478
278.741	245.53125
279.272	246.54967
279.802	229.55777
280.332	236.54536
280.861	256.5958
281.391	245.54348
281.921	252.58673
282.45	210.5116
282.98	260.66067
283.509	292.64301
284.038	276.61313
284.567	279.63047
285.096	279.65738
285.625	192.42601
286.153	288.66763
286.682	292.64948
287.21	207.48453
287.739	257.59164
288.267	286.67583
288.795	255.64991
289.323	295.6707
289.851	298.67848
290.378	272.58816
290.906	239.57298
291.433	297.71688
291.961	287.63584
292.488	293.70375
293.015	315.71761
293.542	349.86265
294.069	273.65896
294.596	261.62118
295.122	300.69681
295.649	263.55957
296.175	290.67599
296.702	325.76634
297.228	306.71131
297.754	253.55562
298.28	308.68506
298.806	260.61131
299.332	260.56798
299.857	299.65773
300.383	310.75347
300.908	320.75997
301.433	298.70855
301.958	307.67958
302.483	257.62175
303.008	320.76902
303.533	301.75221
304.058	328.73498
304.582	297.68016
305.107	278.70439
305.631	323.70485
306.155	327.7338
306.679	291.66455
307.203	342.76257
307.727	320.73179
308.251	320.7626
308.775	322.75735
309.298	336.78011
309.822	291.70981
310.345	387.88195
310.868	337.78289
311.391	320.76143
311.914	319.77287
312.437	387.84198
312.96	351.79379
313.482	293.66804
314.005	308.74412
314.527	275.69667
315.049	372.90208
315.571	319.69406
316.093	411.96717
316.615	340.78471
317.137	416.85675
317.659	400.92168
318.18	323.74266
318.702	369.82803
319.223	385.74456
319.744	422.89841
320.265	375.87493
320.786	391.93371
321.307	373.88222
321.828	407.87119
322.348	379.85256
322.869	366.83663
323.389	671.16263
323.909	390.84869
324.43	371.84857
324.95	392.85521
325.47	421.99224
325.989	424.95396
326.509	402.85695
327.029	436.94152
327.548	418.89802
328.067	450.0298
328.587	445.05474
329.106	375.8079
329.625	447.09926
330.144	445.9776
330.662	492.07953
331.181	526.15183
331.7	455.99578
332.218	483.97929
332.736	508.10721
333.255	509.11666
333.773	479.05911
334.291	514.20004
334.808	518.08364
335.326	518.07886
335.844	585.26317
336.361	554.32485
336.879	559.21468
337.396	615.36992
337.913	585.23943
338.43	554.15141
338.947	557.22982
339.464	543.08008
339.981	536.1787
340.497	576.3049
341.014	611.36268
341.53	614.25987
342.046	667.51218
342.562	614.40121
343.078	606.30439
343.594	635.37245
344.11	687.48179
344.626	644.48271
345.141	696.4258
345.657	637.30683
346.172	715.54553
346.687	629.31131
347.202	700.43206
347.717	716.52758
348.232	680.53201
348.747	687.42604
349.261	712.39222
349.776	725.54045
350.29	720.62021
350.805	708.57239
351.319	750.54486
351.833	737.50887
352.347	750.57322
352.861	801.65039
353.374	691.4082
353.888	801.72714
354.401	783.56486
354.915	816.60869
355.428	772.70965
355.941	754.55589
356.454	781.52266
356.967	784.60846
357.48	806.5949
357.993	786.70888
358.505	780.67645
359.018	826.77462
359.53	916.9234
360.042	836.6235
360.554	875.85941
361.066	802.71712
361.578	853.62629
362.09	858.7715
362.602	941.77443
363.113	918.84981
363.625	942.81231
364.136	891.67014
364.647	904.8424
365.158	928.84091
365.669	880.81534
366.18	902.8217
366.691	982.79456
367.201	934.91134
367.712	987.89675
368.222	974.89011
368.733	961.75213
369.243	1068.95895
369.753	1044.99254
370.263	1071.14359
370.773	991.03422
371.282	1075.12198
371.792	1110.09897
372.301	1092.17215
372.811	1096.39928
373.32	1172.01501
373.829	1183.23902
374.338	1241.15966
374.847	1241.2605
375.356	1203.26595
375.865	1310.14647
376.373	1379.38221
376.882	1374.71023
377.39	1390.57291
377.898	1460.71758
378.407	1512.51678
378.915	1592.47347
379.423	1601.67978
379.93	1743.80827
380.438	1717.90647
380.946	1883.92053
381.453	1970.11186
381.96	2091.17183
382.468	2164.14316
382.975	2307.41545
383.482	2359.99995
383.989	2403.71875
384.495	2526.25015
385.002	2696.75432
385.509	2800.42093
386.015	3010.60456
386.521	3144.13934
387.028	3236.11032
387.534	3280.75731
388.04	3443.43028
388.546	3549.85357
389.051	3768.7501
389.557	4038.94269
390.063	4145.72172
390.568	4286.07452
391.073	4515.4093
391.578	4746.93867
392.084	4772.41732
392.589	5106.90114
393.093	5647.27638
393.598	5987.85123
394.103	6579.89974
394.607	7146.95294
395.112	7618.19124
395.616	7995.34903
396.12	8683.91708
396.624	9657.85938
397.128	10356.82328
397.632	11393.97425
398.136	12393.47083
398.639	13436.29107
399.143	15512.62624
399.646	17478.50782
400.15	19117.13895
400.653	21498.19895
401.156	24423.75118
401.659	28373.10798
402.162	36344.03989
402.664	52920.00121
403.167	62502.82794
403.67	63769.22307
404.172	63919.58413
404.674	63858.43483
405.176	63738.15102
405.678	63977.72923
406.18	64011.81569
406.682	63863.44694
407.184	63926.60148
407.686	63841.39382
408.187	64025.8516
408.688	63892.51763
409.19	61124.99508
409.691	51146.59388
410.192	43749.64041
410.693	39017.53176
411.194	36390.6385
411.694	34085.28036
412.195	31343.30796
412.696	29106.5478
413.196	28284.2769
413.696	28789.50385
414.196	28710.30582
414.696	27685.3167
415.196	25235.33242
415.696	20801.61708
416.196	15994.70739
416.695	13370.79667
417.195	12520.87983
417.694	12033.1125
418.194	11057.97979
418.693	10475.34093
419.192	10368.90513
419.691	10134.18343
420.19	9917.52286
420.688	9569.6624
421.187	8960.28482
421.685	8340.51328
422.184	7396.90971
422.682	6157.46917
423.18	5531.04727
423.678	4926.32988
424.176	4630.48295
424.674	4509.37853
425.172	4198.90406
425.669	3838.35561
426.167	3622.05848
426.664	3308.00715
427.161	3084.12159
427.659	2842.43993
428.156	2772.74063
428.652	2576.61447
429.149	2457.36263
429.646	2394.92135
430.143	2211.19274
430.639	2079.06723
431.135	1990.2538
431.632	1859.77715
432.128	1762.89531
432.624	1774.20371
433.12	1694.64432
433.616	1647.46946
434.111	1621.72229
434.607	1517.644
435.103	1471.18042
435.598	1474.16455
436.093	1343.36004
436.588	1310.2249
437.083	1227.11729
437.578	1227.20463
438.073	1148.31115
438.568	1174.30109
439.062	1142.90405
439.557	1023.95192
440.051	1007.84081
440.546	932.757
441.04	954.90836
441.534	930.97506
442.028	962.92704
442.522	943.88851
443.015	896.59099
443.509	936.90509
444.002	894.84919
444.496	803.47828
444.989	868.78737
445.482	827.75812
445.975	879.70916
446.468	845.53633
446.961	873.58173
447.454	771.48393
447.947	827.68647
448.439	803.69745
448.931	833.62266
449.424	794.75256
449.916	763.61634
450.408	706.40915
450.9	746.57721
451.392	768.69867
451.884	702.40893
452.375	688.50327
452.867	677.33274
453.358	691.38523
453.849	698.29395
454.341	637.27212
454.832	648.22919
455.323	717.56768
455.814	651.31335
456.304	622.27918
456.795	637.28683
457.285	633.22903
457.776	685.36496
458.266	583.24218
458.756	546.166
459.247	570.22785
459.737	627.35167
460.226	660.3233
460.716	578.24191
461.206	607.29675
461.695	520.17119
462.185	585.24537
462.674	522.08141
463.163	608.21102
463.653	531.0174
464.142	514.13498
464.63	475.05637
465.119	524.10444
465.608	576.2105
466.096	488.96434
466.585	443.93348
467.073	448.97529
467.561	478.05052
468.05	480.00932
468.538	467.04842
469.026	454.99212
469.513	426.82839
470.001	464.97879
470.489	456.99902
470.976	491.04678
471.463	397.92369
471.951	434.99999
472.438	393.86084
472.925	429.93532
473.412	397.89852
473.899	453.95538
474.385	428.97201
474.872	362.79212
475.359	366.84571
475.845	376.72489
476.331	357.71125
476.817	352.80658
477.303	390.84544
477.789	296.67065
478.275	330.77495
478.761	307.69175
479.247	337.70764
479.732	279.66555
480.218	347.8599
480.703	306.71636
481.188	296.60852
481.673	364.78438
482.158	323.65909
482.643	324.78513
483.128	337.74162
483.612	300.68027
484.097	285.6553
484.581	298.65539
485.066	299.69737
485.55	320.66913
486.034	283.58429
486.518	314.71345
487.002	255.59476
487.486	280.64883
487.969	219.51422
488.453	220.52894
488.936	247.53399
489.42	235.50043
489.903	246.58852
490.386	198.39677
490.869	337.69515
491.352	203.4733
491.835	188.37359
492.318	218.47321
492.8	259.51288
493.283	224.55262
493.765	223.5281
494.247	281.62385
494.73	252.53488
495.212	213.4882
495.694	227.51653
496.175	201.46883
496.657	229.52298
497.139	220.36239
497.62	181.42417
498.102	192.46478
498.583	161.38629
499.064	157.34262
499.545	201.44421
500.026	255.55341
500.507	172.38624
500.988	212.51338
501.469	140.34235
501.949	173.41666
502.43	220.51284
502.91	252.51269
503.39	164.39715
503.87	226.51602
504.35	190.43191
504.83	171.36478
505.31	174.40896
505.79	157.36303
506.269	143.32197
506.749	184.40911
507.228	172.39526
507.707	209.45165
508.187	168.39224
508.666	134.32658
509.145	150.34388
509.623	149.34207
510.102	147.34881
510.581	200.4686
511.059	193.47273
511.538	191.47925
512.016	198.46101
512.494	135.31897
512.972	161.37731
513.45	178.40496
513.928	198.46791
514.406	160.38426
514.884	182.4579
515.361	141.3316
515.839	183.41085
516.316	216.50866
516.793	128.31823
517.27	151.35609
517.747	153.38515
518.224	142.32136
518.701	192.41234
519.178	177.43258
519.654	113.26441
520.131	128.31242
520.607	121.29154
521.083	107.23983
521.56	122.28362
522.036	130.27871
522.512	185.44539
522.987	181.4255
523.463	92.21641
523.939	181.43856
524.414	169.37786
524.89	194.45045
525.365	114.25452
525.84	117.27784
526.315	154.36591
526.79	166.36617
527.265	215.4813
527.74	95.22863
528.215	106.24467
528.689	77.16811
529.164	63.13498
529.638	107.2682
530.112	120.27853
530.587	136.2864
531.061	122.29144
531.534	127.3017
532.008	167.39748
532.482	172.38624
532.956	102.25765
533.429	166.39776
533.903	119.25749
534.376	132.28739
534.849	87.19877
535.322	135.31353
535.795	112.26735
536.268	167.39565
536.741	86.20285
537.213	130.29444
537.686	116.28049
538.158	144.32203
538.631	115.2753
539.103	144.31977
539.575	132.26758
540.047	126.27095
540.519	131.30844
540.991	121.29132
541.463	134.31741
541.934	132.29386
542.406	140.33111
542.877	146.32381
543.348	150.35586
543.82	126.30226
544.291	145.33289
544.762	141.33044
545.233	161.40034
545.703	122.26833
546.174	95.21889
546.645	131.31276
547.115	142.33753
547.585	131.29725
548.056	171.41215
548.526	148.34582
548.996	113.26751
549.466	172.4093
549.935	130.30686
550.405	171.36795
550.875	131.30724
551.344	98.23214
551.814	153.34477
552.283	164.35129
552.752	177.40635
553.221	113.24775
553.69	202.44502
554.159	180.43885
554.628	185.41039
555.096	158.39524
555.565	170.36855
556.033	190.44291
556.502	124.29599
556.97	130.28616
557.438	96.22423
557.906	130.30317
558.374	158.36033
558.842	123.29164
559.31	157.34567
559.777	126.30467
560.245	103.23476
560.712	83.18963
561.18	116.2547
561.647	90.19895
562.114	75.17184
562.581	127.30889
563.048	83.18971
563.514	164.40416
563.981	111.25228
564.448	110.24681
564.914	96.22176
565.381	120.27168
565.847	82.19048
566.313	72.16692
566.779	89.19965
567.245	58.13457
567.711	84.20036
568.176	120.2667
568.642	47.11862
569.108	87.21287
569.573	55.12758
570.038	120.24859
570.504	109.24452
570.969	47.1167
571.434	126.27689
571.899	142.33167
572.363	117.26591
572.828	135.30645
573.293	156.35146
573.757	158.36048
574.222	143.31603
574.686	166.37475
575.15	146.34623
575.614	186.42949
576.078	167.38447
576.542	148.33221
577.006	144.32084
577.469	173.41666
577.933	153.34322
578.396	153.35673
578.86	152.35196
579.323	167.39488
579.786	151.32268
580.249	211.48381
580.712	178.42342
581.175	120.29257
581.637	145.32594
582.1	108.23384
582.563	157.32794
583.025	171.40778
583.487	221.44112
583.95	147.31045
584.412	255.51537
584.874	231.54578
585.336	181.42002
585.797	264.55179
586.259	216.49081
586.721	226.51394
587.182	246.54717
587.643	332.71482
588.105	242.55233
588.566	261.52265
589.027	351.8138
589.488	333.72451
589.949	375.85737
590.41	370.68488
590.87	390.83607
591.331	469.94091
591.791	417.89953
592.252	450.97008
592.712	452.00076
593.172	499.03576
593.632	559.11714
594.092	556.11396
594.552	607.16557
595.011	515.07236
595.471	644.28939
595.931	696.37052
596.39	693.46217
596.849	709.44035
597.308	721.3204
597.768	845.87408
598.227	870.76583
598.685	900.70569
599.144	1017.95168
599.603	1027.9454
600.062	1047.74076
600.52	1187.07177
600.978	1223.23543
601.437	1335.2585
601.895	1413.16689
602.353	1404.22806
602.811	1616.50681
603.269	1601.67834
603.727	1768.86561
604.184	1860.72848
604.642	1935.09976
605.099	2069.96015
605.557	2159.19534
606.014	2241.67488
606.471	2383.47679
606.928	2463.87603
607.385	2630.56009
607.842	2649.06166
608.299	2795.17944
608.755	2879.39582
609.212	3129.89542
609.668	3135.96037
610.125	3301.34028
610.581	3401.1377
611.037	3466.83357
611.493	3495.08152
611.949	3714.31641
612.405	3752.17037
612.861	3709.91109
613.316	3909.11808
613.772	3899.80889
614.227	3970.11831
614.683	4120.20609
615.138	4071.89052
615.593	4076.81452
616.048	4167.67124
616.503	4150.10457
616.958	4211.32138
617.412	4124.95415
617.867	4116.54875
618.321	4121.04363
618.776	4173.41187
619.23	4169.82924
619.684	4024.56667
620.138	4145.6738
620.592	3890.20509
621.046	3996.97295
621.5	3864.15585
621.954	3829.59499
622.407	3703.64861
622.861	3698.2771
623.314	3740.78033
623.768	3647.10164
624.221	3561.05055
624.674	3463.00901
625.127	3478.04412
625.58	3454.82696
626.033	3362.69465
626.485	3345.26213
626.938	3343.23387
627.39	3275.12859
627.843	3252.04171
628.295	3174.0555
628.747	3198.26541
629.199	3165.98002
629.651	3140.02608
630.103	3058.03904
630.555	3117.55002
631.006	3157.10528
631.458	3109.18552
631.909	3088.88991
632.361	3069.067
632.812	3090.08665
633.263	3151.70224
633.714	3167.55941
634.165	3166.29446
634.616	3241.19314
635.067	3254.75644
635.518	3214.21507
635.968	3326.11999
636.419	3352.68509
636.869	3442.16175
637.319	3468.02331
637.769	3552.79492
638.219	3683.06213
638.669	3633.13071
639.119	3786.12126
639.569	3872.10761
640.019	3993.79162
640.468	4188.49258
640.918	4171.88846
641.367	4352.39438
641.816	4452.29189
642.265	4651.52055
642.714	4742.34176
643.163	4809.36439
643.612	5024.6873
644.061	4970.75617
644.51	5099.14291
644.958	5257.8033
645.406	5360.29918
645.855	5502.34183
646.303	5523.96835
646.751	5781.86134
647.199	5847.69174
647.647	5792.87872
648.095	5861.72383
648.543	6033.99861
648.99	6105.99221
649.438	6168.7055
649.885	6131.26117
650.333	6214.76713
650.78	6167.01219
651.227	6293.06215
651.674	6162.62623
652.121	6197.11373
652.568	6232.0904
653.015	6172.17949
653.461	6218.87698
653.908	6263.63182
654.354	6034.94916
654.801	6007.8546
655.247	5917.379
655.693	5910.70287
656.139	5980.98417
656.585	5874.03434
657.031	5789.96107
657.477	5845.46343
657.922	5729.75216
658.368	5700.32983
658.813	5675.77621
659.259	5669.2449
659.704	5602.1123
660.149	5419.99847
660.594	5437.19954
661.039	5342.95935
661.484	5316.24667
661.929	5318.14676
662.373	5170.7851
662.818	5145.67651
663.262	5148.49953
663.707	5196.88832
664.151	5138.56525
664.595	5133.50798
665.039	5051.7573
665.483	5092.94422
665.927	5189.24328
666.371	5168.2812
666.814	5035.42053
667.258	5064.52001
667.701	5071.66575
668.145	5119.74016
668.588	5150.68894
669.031	5144.28579
669.474	5013.50713
669.917	5083.82793
670.36	5270.67954
670.803	5225.44447
671.245	5094.40556
671.688	5165.52897
672.13	5217.96955
672.573	5258.77871
673.015	5261.40662
673.457	5257.69123
673.899	5344.38186
674.341	5296.37544
674.783	5287.34187
675.225	5300.54405
675.666	5454.41794
676.108	5366.59004
676.549	5412.0596
676.991	5503.61726
677.432	5460.06443
677.873	5551.84812
678.314	5556.14108
678.755	5567.41221
679.196	5597.83441
679.637	5467.22467
680.078	5662.95173
680.518	5461.92619
680.959	5533.14984
681.399	5576.42851
681.839	5712.20638
682.28	5711.39581
682.72	5617.82221
683.16	5782.39088
683.6	5739.73147
684.039	5655.18292
684.479	5750.32315
684.919	5942.87979
685.358	5816.34784
685.798	5926.67358
686.237	5967.95582
686.676	5980.59384
687.115	6190.79426
687.554	6221.8923
687.993	6233.38562
688.432	6268.56164
688.871	6385.56837
689.309	6339.87135
689.748	6472.02783
690.186	6481.66581
690.625	6659.6742
691.063	6619.77308
691.501	6791.99547
691.939	6874.11767
692.377	7039.86027
692.815	7063.92113
693.253	6944.73953
693.69	7179.3558
694.128	7159.88316
694.565	7242.75645
695.003	7340.23637
695.44	7455.82676
695.877	7453.7926
696.314	7506.36397
696.751	7549.66257
697.188	7768.8948
697.625	7701.70551
698.061	7959.16332
698.498	7874.04251
698.934	8073.24779
699.371	8014.13948
699.807	8062.19038
700.243	8227.42804
700.679	8210.16151
701.115	8317.40999
701.551	8418.51954
701.987	8427.39442
702.422	8688.95677
702.858	8693.96221
703.294	8852.14043
703.729	8919.35261
704.164	8960.38694
704.599	9105.59718
705.035	9126.64243
705.47	9176.80753
705.904	9411.27367
706.339	9438.33812
706.774	9668.90075
707.209	9523.53914
707.643	9813.26615
708.078	9765.12947
708.512	9962.63681
708.946	10055.97169
709.38	10218.46949
709.814	10364.09169
710.248	10472.2411
710.682	10502.39596
711.116	10648.87856
711.549	10574.48496
711.983	10774.56603
712.416	11066.65159
712.85	11060.429
713.283	11119.91507
713.716	11067.45649
714.149	11183.30805
714.582	11284.95225
715.015	11471.30986
715.448	11577.6437
715.881	11639.0801
716.313	11688.71418
716.746	11985.20246
717.178	12019.26407
717.61	12202.81559
718.043	12270.47152
718.475	12398.38309
718.907	12562.1147
719.339	12674.82732
719.77	12588.68785
720.202	12694.91481
720.634	12935.6939
721.065	13162.78292
721.497	13216.68962
721.928	13253.98562
722.359	13356.76262
722.79	13475.88526
723.221	13780.75022
723.652	13783.42896
724.083	13933.44971
724.514	14081.37269
724.945	14113.35845
725.375	14521.95431
725.806	14306.19776
726.236	14405.43843
726.666	14714.60344
727.096	14983.46018
727.526	15396.39359
727.956	15467.53336
728.386	15333.8269
728.816	15645.01983
729.246	15644.79148
729.675	15727.94531
730.105	15891.61672
730.534	16045.31398
730.964	16362.28076
731.393	16617.58192
731.822	16850.17606
732.251	16903.97914
732.68	17125.93064
733.109	17086.83789
733.537	17400.80427
733.966	17636.14933
734.395	17978.53328
734.823	17926.05995
735.251	18083.88541
735.68	18126.7462
736.108	18196.25266
736.536	18344.98967
736.964	18516.5169
737.392	18656.23582
737.82	18714.34055
738.247	19088.42134
738.675	18997.60724
739.102	18986.6842
739.53	19262.39821
739.957	19015.8983
740.384	19192.55441
740.811	19331.46937
741.238	19645.11595
741.665	19371.59196
742.092	19287.20082
742.519	19111.46228
742.945	19216.4981
743.372	19305.06483
743.798	19457.28061
744.225	19210.30432
744.651	19204.56612
745.077	19121.53182
745.503	19292.85398
745.929	19256.16161
746.355	19030.0739
746.781	18843.26961
747.207	18696.18682
747.632	18756.69324
748.058	18571.83848
748.483	18860.36118
748.908	18644.16261
749.334	18405.32223
749.759	18184.38934
750.184	18035.15742
750.609	18008.45404
751.033	17943.97538
751.458	17770.93722
751.883	17728.82868
752.307	17458.60231
752.732	17400.66158
753.156	17074.83725
753.58	17099.2392
754.005	16825.46163
754.429	16647.70053
754.853	16225.83098
755.277	16128.84803
755.7	15997.47185
756.124	15889.27378
756.548	15632.70298
756.971	15545.12311
757.394	15235.10255
757.818	15138.96029
758.241	14995.89928
758.664	14692.23722
759.087	14670.006
759.51	14224.57335
759.933	14170.37512
760.356	14086.64187
760.778	13696.29935
761.201	13461.76283
761.623	13088.23527
762.046	13032.06165
762.468	13025.71488
762.89	12657.032
763.312	12564.37794
763.734	12391.46606
764.156	12271.53177
764.578	11870.96619
765	11740.73247
765.421	11495.20942
765.843	11245.98362
766.264	11069.74048
766.686	10804.44005
767.107	10549.56846
767.528	10460.10062
767.949	10360.8112
768.37	10135.1487
768.791	9870.4327
769.212	9557.63087
769.632	9494.46969
770.053	9394.32605
770.473	9109.65401
770.894	8848.23337
771.314	8744.98347
771.734	8593.73337
772.154	8417.78817
772.575	8401.43991
772.994	8209.16143
773.414	8081.17607
773.834	7913.24208
774.254	7692.00681
774.673	7609.99358
775.093	7367.002
775.512	7125.90152
775.931	7109.07105
776.351	6917.95814
776.77	6849.85609
777.189	6618.64646
777.607	6463.185
778.026	6425.0079
778.445	6231.22678
778.864	5990.27227
779.282	5918.83433
779.701	5873.25075
780.119	5816.37756
780.537	5640.29463
780.955	5501.48604
781.373	5322.39984
781.791	5387.77189
782.209	5248.7586
782.627	5115.08578
783.045	4967.96983
783.462	4910.91407
783.88	4759.13524
784.297	4685.91471
784.715	4514.22979
785.132	4390.70437
785.549	4364.01756
785.966	4216.15276
786.383	4176.03987
786.8	4058.61073
787.217	3980.88145
787.633	3918.30557
788.05	3769.73892
788.466	3701.77167
788.883	3565.57789
789.299	3544.97119
789.715	3448.20253
790.131	3394.34435
790.547	3296.36967
790.963	3239.33654
791.379	3148.49857
791.795	3109.75161
792.21	3042.93471
792.626	2895.02158
793.041	2881.30816
793.457	2800.27907
793.872	2746.96344
794.287	2638.19878
794.702	2612.16993
795.117	2552.34583
795.532	2444.38316
795.947	2386.99405
796.362	2337.90129
796.776	2346.81267
797.191	2305.15397
797.605	2274.98621
798.02	2125.01555
798.434	2211.63574
798.848	2078.1325
799.262	2012.05434
799.676	1945.92495
800.09	1838.88338
800.504	1861.81813
800.918	1786.55356
801.331	1637.87517
801.745	1679.45989
802.158	1620.72279
802.572	1623.6423
802.985	1601.56874
803.398	1550.49805
803.811	1428.57579
804.224	1460.52358
804.637	1443.4201
805.05	1367.20651
805.462	1317.34295
805.875	1308.5499
806.288	1253.25381
806.7	1169.21031
807.112	1188.00911
807.525	1117.06973
807.937	1126.14481
808.349	1135.16251
808.761	1100.09718
809.173	1125.09182
809.584	1035.98818
809.996	979.89577
810.408	998.09493
810.819	932.74156
811.231	956.09176
811.642	988.95643
812.053	958.86519
812.464	849.62804
812.875	874.84643
813.286	839.81144
813.697	784.45154
814.108	751.51885
814.519	753.38745
814.929	807.70368
815.34	707.42192
815.75	717.56174
816.16	707.46435
816.571	657.46357
816.981	639.26018
817.391	636.29332
817.801	642.37369
818.211	635.28278
818.62	602.25355
819.03	558.18446
819.44	536.20974
819.849	508.11469
820.259	536.19054
820.668	535.15703
821.077	507.12253
821.486	474.99287
821.895	486.04125
822.304	450.06969
822.713	445.92822
823.122	427.95342
823.531	344.72664
823.939	496.06912
824.348	467.99787
824.756	394.88539
825.164	409.92153
825.573	369.84196
825.981	372.82979
826.389	400.90439
826.797	411.94645
827.205	415.85488
827.612	377.83555
828.02	317.67357
828.428	354.82124
828.835	341.83174
829.243	325.69869
829.65	316.7273
830.057	324.71287
830.464	338.76082
830.871	334.73055
831.278	328.72288
831.685	290.5857
832.092	240.53936
832.499	326.64662
832.905	294.68072
833.312	239.49168
833.718	290.6712
834.124	262.5515
834.531	233.54132
834.937	241.57931
835.343	236.52297
835.749	245.51901
836.155	219.53839
836.561	209.48134
836.966	234.52912
837.372	213.50481
837.777	241.56079
838.183	257.51965
838.588	258.59809
838.993	228.5166
839.399	234.53472
839.804	189.4332
840.209	209.50583
840.613	196.40385
841.018	193.45636
841.423	187.45242
841.828	216.5142
842.232	188.4284
842.637	229.50714
843.041	175.4261
843.445	166.38955
843.849	154.3621
844.253	185.40971
844.657	159.38149
845.061	219.4692
845.465	138.31561
845.869	139.3045
846.272	118.27486
846.676	132.29629
847.079	119.29116
847.483	213.49466
847.886	149.3385
848.289	168.4316
848.692	121.28955
849.095	139.31386
849.498	124.29406
849.901	150.31992
850.304	134.30227
850.707	146.35144
851.109	122.29189
851.512	166.38544
851.914	115.27865
852.316	189.45502
852.718	135.34118
853.121	92.21556
853.523	68.15088
853.925	129.32462
854.326	119.28541
854.728	110.27139
855.13	134.33266
855.531	124.28165
855.933	62.14117
856.334	140.33393
856.736	122.26077
857.137	104.23201
857.538	113.27309
857.939	115.27477
858.34	127.28981
858.741	87.21752
859.142	110.24945
859.542	134.33968
859.943	85.202
860.343	118.28016
860.744	137.31603
861.144	66.15604
861.544	96.22344
861.945	84.20495
862.345	114.26345
862.745	115.27425
863.145	74.16556
863.544	92.2233
863.944	123.27479
864.344	24.05687
864.743	126.29604
865.143	119.29429
865.542	16.03534
865.941	138.32486
866.34	64.14478
866.74	84.21731
867.139	152.34819
867.537	74.17887
867.936	122.27969
868.335	47.11508
868.734	48.11869
869.132	74.1618
869.531	51.11695
869.929	81.17684
870.327	108.24591
870.726	94.2212
871.124	111.24347
871.522	101.24482
871.92	118.27648
872.318	81.18775
872.715	109.25245
873.113	37.08637
873.511	92.21809
873.908	89.21905
874.306	79.18998
874.703	91.21518
875.1	75.18125
875.497	90.20467
875.894	115.2733
876.291	123.28701
876.688	74.18371
877.085	79.17955
877.482	120.28524
877.878	117.27119
878.275	65.15928
878.671	44.09058
879.068	111.25412
879.464	72.16639
879.86	61.13813
880.256	54.12583
880.652	78.19017
881.048	60.14108
881.444	106.23549
881.84	82.19933
882.236	97.23247
882.631	132.30856
883.027	81.18633
883.422	32.0786
883.817	71.17275
884.213	41.10169
884.608	134.31863
885.003	70.15997
885.398	22.05338
885.793	24.05801
886.188	55.13121
886.582	85.20666
886.977	59.13306
887.371	74.17806
887.766	74.17759
888.16	28.06627
888.554	36.08514
888.949	95.22751
889.343	80.18554
889.737	64.16631
890.131	61.14709
890.525	114.27991
890.918	15.03655
891.312	85.19154
891.706	39.09874
892.099	69.16795
892.492	98.19793
892.886	95.22081
893.279	37.0908
893.672	66.16272
894.065	74.17779
894.458	32.07688
894.851	82.19033
895.244	53.1303
895.637	98.22539
896.029	56.13239
896.422	27.06281
896.814	16.03837
897.206	83.19139
897.599	68.16089
897.991	118.27237
898.383	62.14054
898.775	128.27549
899.167	66.14955
899.559	30.07268
899.951	47.10517
900.342	93.22357
900.734	72.17574
901.125	42.10571
901.517	64.15096
901.908	62.13991
902.299	91.21293
902.69	92.20855
903.082	69.15987
903.473	89.20662
903.863	83.20149
904.254	56.12606
904.645	36.08511
905.036	75.17748
905.426	67.14374
905.817	57.13322
906.207	-20.0458
906.597	81.18253
906.987	68.16783
907.378	53.12982
907.768	53.13581
908.158	76.17661
908.547	83.20879
908.937	23.05638
909.327	46.10707
909.717	66.15797
910.106	18.04153
910.495	33.07849
910.885	70.1706
911.274	32.07706
911.663	22.0535
912.052	58.13553
912.441	104.25441
912.83	59.12827
913.219	53.13318
913.608	92.21573
913.997	75.18207
914.385	84.19118
914.774	68.15802
915.162	105.24048
915.55	74.16951
915.939	56.13715
916.327	74.17522
916.715	94.23285
917.103	32.07448
917.491	85.1999
917.878	70.16421
918.266	25.06251
918.654	109.26778
919.041	73.18581
919.429	62.13986
919.816	91.22
920.203	77.18031
920.591	65.15489
920.978	76.1778
921.365	79.19994
921.752	24.0542
922.139	65.13414
922.525	70.16145
922.912	60.1396
923.299	53.12683
923.685	19.04761
924.072	26.05608
924.458	57.1363
924.844	73.17302
925.231	26.05762
925.617	81.19973
926.003	59.14447
926.389	17.0415
926.774	21.05129
927.16	63.14966
927.546	98.2432
927.931	57.13557
928.317	34.07453
928.702	52.11715
929.088	79.18253
929.473	93.22814
929.858	56.1325
930.243	86.19898
930.628	75.17645
931.013	80.18987
931.398	46.0993
931.783	17.04293
932.167	119.27899
932.552	69.16505
932.937	29.06897
933.321	40.09767
933.705	16.03857
934.09	45.10703
934.474	59.13252
934.858	35.08802
935.242	52.11485
935.626	68.16814
936.009	24.06265
936.393	95.23442
936.777	47.11683
937.16	47.11908
937.544	66.14571
937.927	80.19563
938.311	44.10237
938.694	80.20388
939.077	45.10339
939.46	36.08303
939.843	57.10975
940.226	40.09843
940.609	91.20086
940.991	1.00246
941.374	48.11352
941.757	69.16215
942.139	55.11845
942.522	81.18081
942.904	82.18792
943.286	68.16505
943.668	79.19859
944.05	55.13016
944.432	60.1413
944.814	75.17453
945.196	29.06879
945.578	58.13452
945.959	44.09767
946.341	80.18341
946.722	29.065
947.104	76.17333
947.485	32.07156
947.866	83.20187
948.247	91.22166
948.628	2.00462
949.009	37.0915
949.39	24.05727
949.771	-2.00438
950.152	63.14834
950.532	102.24618
950.913	53.12226
951.293	60.15806
951.674	71.16405
952.054	83.20059
952.434	80.19016
952.814	41.09239
953.194	10.02505
953.574	76.1778
953.954	11.02492
954.334	68.16406
954.714	31.07322
955.093	90.21063
955.473	101.24353
955.853	78.19378
956.232	26.06911
956.611	73.1645
956.99	49.11904
957.37	16.0392
957.749	22.04967
958.128	85.20612
958.506	40.10046
958.885	27.06555
959.264	78.18526
959.643	76.16561
960.021	78.18626
960.4	105.22419
960.778	57.13233
961.156	24.05786
961.535	35.07735
961.913	93.20777
962.291	88.21911
962.669	49.1202
963.047	87.21366
963.424	78.19357
963.802	48.1137
964.18	15.03607
964.557	48.10504
964.935	122.27227
965.312	41.10381
965.69	43.10251
966.067	46.10614
966.444	8.01868
966.821	75.18569
967.198	27.06224
967.575	63.14707
967.952	72.16102
968.329	107.2488
968.705	99.20137
969.082	73.18239
969.458	104.24044
969.835	100.2311
970.211	81.20149
970.587	59.14124
970.963	41.10043
971.339	55.13915
971.715	73.17482
972.091	84.19697
972.467	57.13416
972.843	91.21818
973.219	113.25359
973.594	49.12371
973.97	37.08205
974.345	84.19234
974.721	77.17472
975.096	72.16791
975.471	77.17302
975.846	78.17703
976.221	33.08104
976.596	123.28385
976.971	78.18541
977.346	53.11674
977.72	27.06609
978.095	34.08481
978.469	73.16517
978.844	43.10329
979.218	59.13768
979.593	84.19033
979.967	22.0506
980.341	87.19099
980.715	95.22889
981.089	52.12489
981.463	92.20005
981.837	89.20996
982.21	57.12276
982.584	83.19192
982.957	51.12325
983.331	27.06032
983.704	79.18789
984.078	40.0946
984.451	41.09627
984.824	48.11304
985.197	30.06892
985.57	9.02147
985.943	28.06527
986.316	13.03029
986.688	76.17424
987.061	107.23806
987.434	84.21279
987.806	43.09844
988.179	61.13673
988.551	72.17397
988.923	75.17515
989.295	51.12158
989.667	72.16692
990.039	93.22297
990.411	27.0586
990.783	63.13597
991.155	56.12952
991.527	95.21749
991.898	33.07969
992.27	43.10341
992.641	50.11958
993.012	53.11571
993.384	42.09548
993.755	59.14543
994.126	98.22593
994.497	54.12712
994.868	40.08672
995.239	19.04423
995.61	55.13307
995.98	30.06999
996.351	79.18832
996.722	70.15661
997.092	35.08006
997.462	55.1245
997.833	51.11441
998.203	32.07333
998.573	56.13439
998.943	83.18604
999.313	108.2467
999.683	78.17904
1000.053	2.00432
1000.423	47.10855
1000.792	54.13298
1001.162	1.00236
1001.531	68.16064
1001.901	29.06926
1002.27	12.02517
1002.639	35.08551
1003.009	52.11792
1003.378	69.16952
1003.747	3.00679
1004.116	12.02763
1004.485	34.07795
1004.853	42.10083
1005.222	19.04536
1005.591	69.15542
1005.959	34.07371
1006.328	57.1227
1006.696	0
1007.064	23.05525
1007.433	37.08817
1007.801	28.06489
1008.169	41.09845
1008.537	108.22434
1008.905	74.16529
1009.273	78.18212
1009.64	99.22719
1010.008	25.05714
1010.375	28.06406
1010.743	81.17107
1011.11	109.24914
1011.478	43.10306
1011.845	42.09389
1012.212	63.13743
1012.579	64.15055
1012.946	54.12116
1013.313	75.16804
1013.68	68.14402
1014.047	33.07546
1014.414	23.0521
1014.78	66.15767
1015.147	36.0824
1015.513	94.2149
1015.88	80.19388
1016.246	17.0399
1016.612	62.13361
1016.978	77.18123
1017.344	56.13291
1017.71	66.1524
1018.076	51.11347
1018.442	75.18541
1018.808	73.17629
1019.174	9.02169
1019.539	68.14163
1019.905	71.16039
1020.27	12.02854
1020.636	57.1285
1021.001	118.26759
1021.366	85.19506
1021.731	113.28058
1022.096	74.18049
1022.461	89.20039
1022.826	83.1891
1023.191	42.10639
1023.556	41.09133
1023.92	55.12804
1024.285	30.06952
1024.649	44.10265
1025.014	42.09856
1025.378	86.20772
1025.742	53.12489
1026.107	40.08598
1026.471	99.2166
1026.835	29.06921
1027.199	-6.01401
1027.562	81.17632
1027.926	55.12774
1028.29	58.14094
1028.654	47.10261
1029.017	110.25693
1029.381	31.0714
1029.744	81.1976
1030.107	84.18847
1030.471	88.20126
1030.834	29.06197
1031.197	108.24551
1031.56	90.19986
1031.923	56.13948
1032.286	110.24346
1032.648	47.10578
1033.011	104.22884
1033.374	62.13699
1033.736	15.0383
1034.099	34.0797
1034.461	100.24263
1034.823	66.15803
1035.185	35.08391
1035.548	75.17487
1035.91	40.09156
1036.272	95.20539
1036.634	48.11238
1036.995	44.09795
1037.357	61.14268
1037.719	78.18097
1038.08	115.25999
1038.442	25.05687
1038.803	23.05213
1039.165	48.11567
1039.526	70.16138
1039.887	57.13002
1040.248	73.17495
1040.609	24.05641
1040.97	46.10732
1041.331	53.12982
1041.692	67.15191
1042.053	103.21915
1042.413	64.14076
1042.774	88.20385
1043.134	35.07864
1043.495	63.15151
1043.855	108.25097
1044.215	28.06645
1044.576	68.15621
1044.936	50.10845
1045.296	76.18086
1045.656	39.09072
1046.016	39.08961
1046.375	99.22756
1046.735	56.12332
1047.095	88.19518
1047.454	62.12234
1047.814	74.16951
1048.173	71.15868
1048.533	49.10698
1048.892	36.08333
1049.251	41.09804
1049.61	53.12513
1049.969	16.03612
1050.328	67.13728
1050.687	46.10639
1051.046	28.06522
1051.405	39.09219
1051.763	76.16786
1052.122	34.08141
1052.48	95.22194
1052.839	72.16407
1053.197	55.12328
1053.555	35.07431
1053.914	86.19914
1054.272	25.05668
1054.63	104.24168
1054.988	102.23168
1055.345	66.13201
1055.703	118.26846
1056.061	77.19196
1056.419	63.15934
1056.776	13.0298
1057.134	6.0131
1057.491	35.08436
1057.848	58.13723
1058.206	-14.03127
1058.563	87.18003
1058.92	96.20759
1059.277	101.23624
1059.634	64.14094
1059.991	100.22732
1060.348	45.09741
1060.704	86.19953
1061.061	50.10831
1061.418	45.10472
1061.774	39.09247
1062.131	54.13985
1062.487	26.05788
1062.843	74.1759
1063.199	46.10985
1063.555	95.21022
1063.911	51.12269
1064.267	54.1044
1064.623	51.12008
1064.979	-22.04847
1065.335	101.22583
1065.691	62.13923
1066.046	117.23972
1066.402	42.09028
1066.757	75.18098
1067.112	51.11915
1067.468	75.17094
1067.823	4.00906
1068.178	57.1306
1068.533	54.12504
1068.888	26.05925
1069.243	43.10184
1069.598	31.07177
1069.952	144.31019
1070.307	52.12408
1070.662	104.2368
1071.016	58.12553
1071.371	64.13911
1071.725	72.16201
1072.079	91.20808
1072.434	46.10753
1072.788	23.05179
1073.142	76.17835
1073.496	69.15523
1073.85	78.17091
1074.203	80.1848
1074.557	66.17104
1074.911	30.06806
1075.265	80.17595
1075.618	74.1723
1075.971	37.08413
1076.325	30.07415
1076.678	92.19886
1077.031	-6.01277
1077.385	69.14291
1077.738	44.09429
1078.091	91.1975
1078.444	51.1112
1078.796	62.14641
1079.149	73.17369
1079.502	47.10699
1079.855	53.11801
1080.207	79.18449
1080.56	62.15493
1080.912	78.18018
1081.264	52.12027
1081.617	57.13337
1081.969	54.13161
1082.321	10.02345
1082.673	30.0667
1083.025	85.18974
1083.377	346.72766
1083.728	56.12358
1084.08	27.06441
1084.432	42.09652
1084.783	22.04833
1085.135	51.12325
1085.486	62.13579
1085.838	42.09964
1086.189	85.19803
1086.54	33.07512
1086.891	81.19973
1087.242	129.30184
1087.593	36.0826
1087.944	39.08511
1088.295	97.20693
1088.646	118.27583
1088.996	71.16411
1089.347	12.02819
1089.698	67.15271
1090.048	53.13141
1090.398	59.12908
1090.749	25.05682
1091.099	37.0908
1091.449	73.17442
1091.799	35.08423
1092.149	31.07387
1092.499	44.1029
1092.849	49.11989
1093.199	71.16821
1093.548	47.10941
1093.898	-10.02415
1094.248	-4.00987
1094.597	39.0973
1094.947	44.11363
1095.296	74.17542
1095.645	86.21272
1095.994	27.06226
1096.343	86.20717
1096.692	71.18238
1097.041	43.11459
1097.39	71.16899
1097.739	75.18657
1098.088	91.23162
1098.437	29.07491
1098.785	-6.01562
1099.134	11.02784
1099.482	45.12032
1099.83	58.14672
1100.179	105.26679
1100.527	11.02802
1100.875	51.13114
1101.223	75.19279
1101.571	-9.02421
1101.919	64.16477
1102.267	33.09121
1102.615	7.02247
1102.962	-4.01284
1103.31	5.01606
1103.658	0
