Data from N3 R2 sample 3_Subt2__0__10-13-19-388.txt Node

Date: Thu Sep 18 10:13:19 PDT 2025
User: uwsun
Spectrometer: HDX01956
Trigger mode: 0
Integration Time (sec): 5.000000E-1
Scans to average: 1
Nonlinearity correction enabled: true
Boxcar width: 0
Storing dark spectrum: false
XAxis mode: Wavelengths
Number of Pixels in Spectrum: 2068
>>>>>Begin Spectral Data<<<<<
194.03	149.42312
194.578	135.43203
195.127	134.4227
195.676	145.45846
196.225	147.38298
196.773	167.45457
197.321	295.78784
197.87	325.80393
198.418	365.90317
198.966	411.03021
199.513	379.92301
200.061	353.86324
200.609	363.92083
201.156	390.81007
201.704	376.9063
202.251	353.90435
202.798	373.92735
203.345	382.90507
203.892	362.87916
204.438	366.83091
204.985	442.99037
205.532	347.87995
206.078	392.9126
206.624	435.03298
207.17	421.93537
207.716	352.83111
208.262	391.73263
208.808	430.02363
209.354	431.00892
209.899	416.99509
210.445	391.93513
210.99	405.94156
211.535	428.95467
212.08	365.81098
212.625	372.89022
213.17	361.88477
213.715	410.88879
214.259	376.83906
214.804	346.81568
215.348	369.81646
215.892	432.99301
216.436	349.76319
216.98	369.77141
217.524	402.91446
218.068	398.95822
218.612	420.01315
219.155	359.8132
219.698	403.90987
220.242	370.87225
220.785	382.85491
221.328	350.82927
221.871	396.9617
222.414	394.92556
222.956	292.67582
223.499	343.73008
224.041	341.74444
224.583	351.70255
225.126	394.81473
225.668	372.86059
226.21	374.90387
226.751	351.74581
227.293	376.80536
227.835	341.80125
228.376	334.72561
228.918	360.85526
229.459	348.83153
230	355.81459
230.541	378.82363
231.082	398.91817
231.622	325.7032
232.163	340.7844
232.704	372.88818
233.244	355.8416
233.784	375.86288
234.324	390.83029
234.864	357.76649
235.404	376.83906
235.944	378.84352
236.484	404.95459
237.023	337.75934
237.563	375.82766
238.102	360.81066
238.641	359.86092
239.18	334.75089
239.719	359.85797
240.258	361.77006
240.797	381.86372
241.335	394.90641
241.874	426.77163
242.412	386.89085
242.95	373.85828
243.488	375.79645
244.026	391.86116
244.564	386.74774
245.102	393.84195
245.64	333.76075
246.177	357.75294
246.715	393.89418
247.252	355.76581
247.789	434.74253
248.326	390.89148
248.863	365.76271
249.4	372.79955
249.936	416.81665
250.473	385.86393
251.009	313.68823
251.546	426.89273
252.082	337.69328
252.618	383.81061
253.154	392.89424
253.69	382.81008
254.226	385.87492
254.761	427.89779
255.297	355.73655
255.832	372.84178
256.367	370.82635
256.903	407.85235
257.438	443.97157
257.972	401.8409
258.507	375.81553
259.042	391.80218
259.576	405.84516
260.111	429.92303
260.645	430.86765
261.179	421.92838
261.713	377.80035
262.247	376.81336
262.781	414.8181
263.315	358.82789
263.849	379.90368
264.382	397.8608
264.915	453.00152
265.449	374.86899
265.982	420.8961
266.515	451.03561
267.048	444.87615
267.58	387.78681
268.113	402.81786
268.646	383.88972
269.178	400.84232
269.71	467.96026
270.243	428.93255
270.775	422.02296
271.307	406.91048
271.838	473.03711
272.37	403.93432
272.902	439.92952
273.433	466.96101
273.965	440.00163
274.496	377.88892
275.027	417.98167
275.558	451.03106
276.089	441.03559
276.62	394.94249
277.15	389.90758
277.681	448.8965
278.211	458.04268
278.741	412.86149
279.272	456.97458
279.802	458.06533
280.332	397.88792
280.861	407.9189
281.391	431.91896
281.921	384.8707
282.45	403.94614
282.98	428.05265
283.509	482.0171
284.038	510.07582
284.567	402.88556
285.096	456.03519
285.625	391.83152
286.153	490.08821
286.682	498.05828
287.21	388.87584
287.739	411.91695
288.267	467.06257
288.795	401.99548
289.323	484.05615
289.851	539.1652
290.378	408.85652
290.906	431.99526
291.433	488.133
291.961	493.04331
292.488	466.08014
293.015	503.10023
293.542	539.2833
294.069	508.16928
294.596	416.96044
295.122	531.17477
295.649	480.97298
296.175	451.01575
296.702	532.20168
297.228	530.17524
297.754	517.07032
298.28	551.1617
298.806	502.12229
299.332	518.06785
299.857	507.06457
300.383	478.12285
300.908	486.11501
301.433	546.23385
301.958	553.15928
302.483	451.04882
303.008	517.19358
303.533	490.18008
304.058	527.13047
304.582	510.1158
305.107	528.27556
305.631	527.09836
306.155	525.12811
306.679	543.17486
307.203	549.16964
307.727	502.10382
308.251	575.30079
308.775	559.25171
309.298	535.19102
309.822	554.28241
310.345	620.34427
310.868	596.31138
311.391	574.29668
311.914	544.25973
312.437	643.32094
312.96	599.28405
313.482	545.17718
314.005	576.31863
314.527	565.35453
315.049	623.43689
315.571	584.19714
316.093	606.3696
316.615	627.36207
317.137	591.16755
317.659	646.4132
318.18	603.30654
318.702	676.41909
319.223	644.16696
319.744	673.35283
320.265	684.49641
320.786	654.48059
321.307	656.46405
321.828	707.41343
322.348	741.541
322.869	693.47751
323.389	817.36171
323.909	689.40221
324.43	771.61909
324.95	713.44783
325.47	764.67789
325.989	770.60741
326.509	784.53105
327.029	782.56178
327.548	762.51405
328.067	729.57582
328.587	811.78749
329.106	788.54542
329.625	809.85721
330.144	844.69666
330.662	873.76347
331.181	874.77476
331.7	805.62968
332.218	847.57348
332.736	873.75703
333.255	833.7041
333.773	888.79749
334.291	952.0306
334.808	896.71955
335.326	911.7337
335.844	985.9464
336.361	1012.20697
336.879	947.88955
337.396	996.04313
337.913	988.91095
338.43	979.84442
338.947	991.99112
339.464	994.77275
339.981	1017.011
340.497	987.04868
341.014	991.03604
341.53	1046.93964
342.046	1112.29267
342.562	1009.11851
343.078	1113.13582
343.594	1074.10372
344.11	1123.19629
344.626	1171.41177
345.141	1116.07043
345.657	1129.06099
346.172	1186.30616
346.687	1161.13662
347.202	1239.22853
347.717	1164.243
348.232	1184.39242
348.747	1225.24022
349.261	1191.06792
349.776	1287.40225
350.29	1294.56995
350.805	1235.44297
351.319	1298.34752
351.833	1304.33103
352.347	1295.39236
352.861	1319.40431
353.374	1245.22117
353.888	1393.62491
354.401	1341.33819
354.915	1369.35365
355.428	1417.71815
355.941	1363.4326
356.454	1359.29193
356.967	1299.35823
357.48	1389.37939
357.993	1455.71686
358.505	1382.58834
359.018	1470.72419
359.53	1542.79636
360.042	1476.43777
360.554	1523.78462
361.066	1419.63648
361.578	1536.45456
362.09	1530.6897
362.602	1539.4864
363.113	1547.67415
363.625	1595.59776
364.136	1592.48203
364.647	1617.77104
365.158	1609.69473
365.669	1610.78592
366.18	1657.77873
366.691	1597.47775
367.201	1670.85873
367.712	1739.75347
368.222	1745.78026
368.733	1697.53634
369.243	1812.72276
369.753	1835.85163
370.263	1850.0538
370.773	1753.99475
371.282	1863.01796
371.792	2016.00179
372.301	1942.12238
372.811	1972.53339
373.32	2101.76582
373.829	2008.06415
374.338	2105.87149
374.847	2121.0431
375.356	2191.17275
375.865	2394.82455
376.373	2493.12025
376.882	2476.68193
377.39	2528.43187
377.898	2631.56487
378.407	2793.15863
378.915	2887.96599
379.423	2962.29095
379.93	3110.28472
380.438	3142.47859
380.946	3376.24799
381.453	3465.4283
381.96	3644.34934
382.468	4003.10991
382.975	4072.37392
383.482	4180.69577
383.989	4201.68864
384.495	4609.74975
385.002	4678.0227
385.509	5132.61093
386.015	5311.52708
386.521	5512.06258
387.028	5805.90644
387.534	5933.48823
388.04	6086.18072
388.546	6284.5603
389.051	6950.49516
389.557	7332.81255
390.063	7504.75957
390.568	7755.16201
391.073	8039.065
391.578	8358.69305
392.084	8799.08455
392.589	9302.02503
393.093	10185.30628
393.598	10873.86736
394.103	11791.92804
394.607	13010.13796
395.112	13555.8026
395.616	14381.63194
396.12	15545.65725
396.624	17543.64274
397.128	18732.26148
397.632	20515.38592
398.136	22420.46205
398.639	24913.63663
399.143	28437.51227
399.646	31517.08886
400.15	34811.71666
400.653	39492.98887
401.156	44785.83349
401.659	51886.04915
402.162	61974.68929
402.664	62283.03238
403.167	63977.72923
403.67	63769.22307
404.172	63919.58413
404.674	63858.43483
405.176	63738.15102
405.678	63977.72923
406.18	64011.81569
406.682	63863.44694
407.184	63926.60148
407.686	63841.39382
408.187	64025.8516
408.688	63892.51763
409.19	63833.37461
409.691	63977.72923
410.192	63945.6488
410.693	63713.09355
411.194	63277.82274
411.694	60330.09731
412.195	54973.07426
412.696	51416.44315
413.196	50428.61605
413.696	51269.44333
414.196	50623.35053
414.696	48225.0966
415.196	43667.48552
415.696	35231.58801
416.196	27166.06609
416.695	23631.35407
417.195	22523.74968
417.694	21318.08565
418.194	19726.08862
418.693	18842.03435
419.192	18535.21266
419.691	18086.75489
420.19	17529.9811
420.688	16970.83945
421.187	15964.18921
421.685	14594.158
422.184	12690.20087
422.682	10955.44634
423.18	9744.09247
423.678	8846.16181
424.176	8287.38186
424.674	7884.91313
425.172	7422.86868
425.669	6845.03212
426.167	6264.78825
426.664	5796.81347
427.161	5286.15246
427.659	4973.7193
428.156	4815.92784
428.652	4529.27729
429.149	4306.09721
429.646	4096.61424
430.143	3957.16661
430.639	3774.15908
431.135	3496.61758
431.632	3243.07875
432.128	3198.39006
432.624	3081.87077
433.12	2970.09888
433.616	2896.88683
434.111	2833.32385
434.607	2718.35363
435.103	2624.65796
435.598	2562.62568
436.093	2364.11228
436.588	2259.91449
437.083	2139.84502
437.578	2130.98524
438.073	2007.26673
438.568	1948.14257
439.062	1973.57752
439.557	1875.86295
440.051	1821.66955
440.546	1736.64715
441.04	1709.83433
441.534	1716.02852
442.028	1628.76868
442.522	1615.74131
443.015	1599.33831
443.509	1625.79807
444.002	1527.71698
444.496	1431.22942
444.989	1533.69152
445.482	1471.6932
445.975	1478.47183
446.468	1457.24806
446.961	1424.22674
447.454	1360.25356
447.947	1384.46961
448.439	1386.55915
448.931	1388.35309
449.424	1479.79959
449.916	1414.57363
450.408	1297.23868
450.9	1279.39079
451.392	1226.45268
451.884	1245.18935
452.375	1323.50474
452.867	1209.08609
453.358	1253.18977
453.849	1212.96518
454.341	1195.08144
454.832	1199.975
455.323	1237.40838
455.814	1156.06444
456.304	1094.01244
456.795	1106.99738
457.285	1068.86208
457.776	1093.97435
458.266	1030.98377
458.756	1042.98871
459.247	1052.0325
459.737	1018.01064
460.226	1019.8759
460.716	988.93733
461.206	1013.97569
461.695	958.96578
462.185	966.88791
462.674	909.72236
463.163	966.76615
463.653	934.6184
464.142	951.9098
464.63	866.77127
465.119	917.76794
465.608	870.71128
466.096	845.52933
466.585	837.60963
467.073	795.60135
467.561	827.68571
468.05	806.57482
468.538	830.72589
469.026	772.57171
469.513	774.37957
470.001	798.55843
470.489	790.60694
470.976	767.53851
471.463	729.58253
471.951	721.56382
472.438	681.39912
472.925	686.41225
473.412	712.50591
473.899	675.35249
474.385	709.51623
474.872	649.33209
475.359	634.38459
475.845	632.14225
476.331	558.05816
476.817	630.36076
477.303	635.30273
477.789	504.09151
478.275	570.2735
478.761	566.20565
479.247	580.15087
479.732	547.23536
480.218	613.44236
480.703	548.21975
481.188	581.11608
481.673	537.1123
482.158	510.99648
482.643	556.28603
483.128	560.17269
483.612	504.09337
484.097	476.05049
484.581	497.04537
485.066	511.13986
485.55	515.02857
486.034	439.87462
486.518	487.06562
487.002	449.00505
487.486	421.94818
487.969	376.85568
488.453	429.99025
488.936	397.83068
489.42	453.91889
489.903	348.81626
490.386	300.58698
490.869	452.90827
491.352	385.86534
491.835	383.7265
492.318	331.70117
492.8	403.77116
493.283	345.83207
493.765	352.81272
494.247	356.778
494.73	381.78591
495.212	284.64164
495.694	364.80523
496.175	320.72885
496.657	369.81884
497.139	330.52703
497.62	338.76766
498.102	367.85896
498.583	285.6676
499.064	309.65257
499.545	337.72355
500.026	337.71856
500.507	305.66614
500.988	299.71215
501.469	228.54838
501.949	328.76665
502.43	333.75891
502.91	380.75056
503.39	291.68778
503.87	299.67263
504.35	291.64793
504.83	308.63747
505.31	243.56343
505.79	221.50451
506.269	225.49808
506.749	266.58134
507.228	303.67799
507.707	316.66721
508.187	302.68647
508.666	279.66147
509.145	236.53168
509.623	245.55162
510.102	273.63198
510.581	354.80432
511.059	268.64726
511.538	249.61823
512.016	307.69939
512.494	272.62554
512.972	277.63437
513.45	243.54554
513.928	262.61145
514.406	290.67918
514.884	279.68967
515.361	300.68358
515.839	335.72855
516.316	306.70794
516.793	269.65151
517.27	239.55394
517.747	266.65597
518.224	272.59922
518.701	284.5978
519.178	257.6187
519.654	228.52143
520.131	262.62344
520.607	214.5065
521.083	213.46699
521.56	263.59432
522.036	208.43841
522.512	251.5967
522.987	295.67802
523.463	295.66635
523.939	286.67924
524.414	255.56001
524.89	250.57403
525.365	246.53422
525.84	202.47181
526.315	241.563
526.79	284.61095
527.265	284.62671
527.74	186.43989
528.215	229.51559
528.689	215.45566
529.164	197.40984
529.638	212.52128
530.112	208.47435
530.587	247.50745
531.061	268.62225
531.534	221.51547
532.008	249.58328
532.482	229.5082
532.956	187.46516
533.429	281.65849
533.903	268.56139
534.376	263.55665
534.849	224.49762
535.322	259.58671
535.795	206.48285
536.268	257.59825
536.741	193.44574
537.213	266.58576
537.686	269.63161
538.158	280.60856
538.631	277.64251
539.103	233.50782
539.575	269.52819
540.047	258.53901
540.519	280.64008
540.991	275.64267
541.463	269.6205
541.934	264.57159
542.406	290.66587
542.877	275.5935
543.348	281.64972
543.82	280.65191
544.291	307.68185
544.762	308.69812
545.233	318.76799
545.703	278.59135
546.174	327.71841
546.645	351.80251
547.115	351.80057
547.585	382.82245
548.056	394.9093
548.526	360.80601
548.996	374.84045
549.466	430.9722
549.935	379.85116
550.405	420.85526
550.875	402.89261
551.344	354.79682
551.814	444.94072
552.283	438.88257
552.752	506.08278
553.221	499.00301
553.69	509.04715
554.159	503.14969
554.628	499.03253
555.096	502.17473
555.565	495.99857
556.033	569.2249
556.502	532.16793
556.97	490.99688
557.438	503.07844
557.906	524.12475
558.374	585.21675
558.842	554.2015
559.31	587.17373
559.777	536.193
560.245	521.08487
560.712	609.24143
561.18	566.12304
561.647	557.10901
562.114	612.24841
562.581	660.44143
563.048	643.30134
563.514	742.62954
563.981	700.39845
564.448	736.4365
564.914	691.40437
565.381	727.44005
565.847	739.49046
566.313	710.43485
566.779	738.43224
567.245	725.45683
567.711	791.62685
568.176	750.44656
568.642	840.81244
569.108	796.68594
569.573	770.52997
570.038	915.55901
570.504	917.71306
570.969	867.82405
571.434	950.72461
571.899	909.7994
572.363	976.82933
572.828	999.86747
573.293	1016.8839
573.757	1011.90667
574.222	1016.83446
574.686	1022.90162
575.15	1048.04594
575.614	1137.12358
576.078	1012.93323
576.542	1083.96219
577.006	1070.92534
577.469	1093.16561
577.933	1102.98812
578.396	1077.04877
578.86	1104.06835
579.323	1053.0562
579.786	1114.88559
580.249	1137.11836
580.712	1105.1529
581.175	1000.02928
581.637	1089.97209
582.1	1134.91854
582.563	1142.86772
583.025	1129.19043
583.487	1233.89084
583.95	1173.92345
584.412	1272.97912
584.874	1282.40521
585.336	1256.28964
585.797	1308.10649
586.259	1335.34348
586.721	1333.34967
587.182	1416.38672
587.643	1480.40701
588.105	1491.54569
588.566	1546.19609
589.027	1698.88708
589.488	1643.59107
589.949	1749.89811
590.41	1840.21184
590.87	1883.76362
591.331	2003.64722
591.791	2099.93983
592.252	2197.01524
592.712	2314.20167
593.172	2389.97262
593.632	2568.89767
594.092	2713.91962
594.552	2804.77524
595.011	2910.07034
595.471	3161.99057
595.931	3272.94413
596.39	3417.30245
596.849	3659.02701
597.308	3778.41646
597.768	3988.67666
598.227	4214.01285
598.685	4538.46226
599.144	4757.58408
599.603	5017.37182
600.062	5370.50318
600.52	5747.76068
600.978	5968.96659
601.437	6270.61463
601.895	6643.24001
602.353	7155.42616
602.811	7535.69861
603.269	7922.16031
603.727	8255.4844
604.184	8789.04735
604.642	9187.86657
605.099	9651.85064
605.557	10113.0805
606.014	10603.09964
606.471	11120.55423
606.928	11789.47836
607.385	12114.33183
607.842	12686.59699
608.299	13126.40172
608.755	13779.84644
609.212	14059.32896
609.668	14622.15146
610.125	15056.09598
610.581	15462.63458
611.037	15909.22208
611.493	16217.74839
611.949	16600.05125
612.405	16831.7506
612.861	17322.96745
613.316	17547.70269
613.772	17711.87813
614.227	18021.54837
614.683	18223.39005
615.138	18042.48058
615.593	18187.6219
616.048	18356.19018
616.503	18157.04075
616.958	18260.50726
617.412	18162.69858
617.867	17993.04745
618.321	17882.62023
618.776	17633.88889
619.23	17393.4026
619.684	17152.64749
620.138	16783.67069
620.592	16739.80111
621.046	16360.08475
621.5	16028.05712
621.954	15691.20893
622.407	15269.84274
622.861	15034.79965
623.314	14708.97209
623.768	14399.44461
624.221	14128.86332
624.674	13785.60446
625.127	13456.94596
625.58	13192.41313
626.033	12965.08204
626.485	12562.412
626.938	12272.69037
627.39	12133.03588
627.843	11722.89273
628.295	11419.36275
628.747	11249.37407
629.199	10835.82485
629.651	10676.16058
630.103	10420.21218
630.555	10072.25984
631.006	9863.42208
631.458	9622.77714
631.909	9359.15495
632.361	9217.85034
632.812	9096.60959
633.263	9054.48531
633.714	8733.85622
634.165	8593.85563
634.616	8250.40579
635.067	8142.07708
635.518	8052.22807
635.968	7865.51844
636.419	7780.71291
636.869	7689.96705
637.319	7522.78853
637.769	7307.55313
638.219	7300.78445
638.669	7196.80015
639.119	6950.80798
639.569	7075.83335
640.019	7041.61803
640.468	6960.44936
640.918	6930.75294
641.367	6693.42445
641.816	6736.38623
642.265	6780.65983
642.714	6758.55684
643.163	6773.60566
643.612	6597.99904
644.061	6631.1923
644.51	6603.56783
644.958	6564.3592
645.406	6585.82634
645.855	6503.94619
646.303	6576.6145
646.751	6502.63724
647.199	6389.52781
647.647	6447.66696
648.095	6340.57273
648.543	6326.94985
648.99	6261.93971
649.438	6258.67966
649.885	6246.21863
650.333	6136.77681
650.78	6161.01429
651.227	6058.14594
651.674	6035.66686
652.121	5976.19974
652.568	5773.27965
653.015	5810.33291
653.461	5703.08344
653.908	5674.84834
654.354	5606.13919
654.801	5474.09633
655.247	5370.61214
655.693	5324.01488
656.139	5307.31027
656.585	5160.3975
657.031	5006.36924
657.477	5092.82027
657.922	4950.15497
658.368	4864.78718
658.813	4673.31205
659.259	4733.75834
659.704	4667.62584
660.149	4449.53711
660.594	4374.78836
661.039	4366.50232
661.484	4259.83031
661.929	4166.77937
662.373	4140.33263
662.818	4036.26034
663.262	4007.10531
663.707	3931.52958
664.151	3873.2174
664.595	3799.189
665.039	3843.36236
665.483	3727.5942
665.927	3585.04632
666.371	3653.04805
666.814	3557.13814
667.258	3570.23957
667.701	3481.48682
668.145	3419.49943
668.588	3363.47986
669.031	3261.14391
669.474	3238.2752
669.917	3241.71534
670.36	3258.54391
670.803	3237.32398
671.245	3073.38544
671.688	3066.38184
672.13	2980.94604
672.573	3036.62849
673.015	3034.3262
673.457	2978.72802
673.899	2953.34395
674.341	2958.31747
674.783	2927.28588
675.225	2845.44734
675.666	2899.41866
676.108	2848.703
676.549	2751.10553
676.991	2851.78193
677.432	2754.29866
677.873	2674.98753
678.314	2749.228
678.755	2705.43558
679.196	2571.98129
679.637	2680.24808
680.078	2620.1035
680.518	2559.99857
680.959	2657.21309
681.399	2566.41744
681.839	2588.30939
682.28	2551.43917
682.72	2492.96488
683.16	2424.41528
683.6	2546.94748
684.039	2400.46806
684.479	2438.36198
684.919	2461.1076
685.358	2358.36861
685.798	2382.63857
686.237	2389.14947
686.676	2393.88271
687.115	2354.07646
687.554	2465.1946
687.993	2410.77976
688.432	2369.91857
688.871	2404.95442
689.309	2381.17733
689.748	2473.50291
690.186	2301.01362
690.625	2387.06921
691.063	2345.13167
691.501	2445.36458
691.939	2350.42841
692.377	2335.21042
692.815	2403.28831
693.253	2370.12453
693.69	2366.71459
694.128	2424.25238
694.565	2377.10255
695.003	2460.55917
695.44	2510.14356
695.877	2406.07923
696.314	2410.54019
696.751	2445.89284
697.188	2437.00993
697.625	2457.82966
698.061	2461.18292
698.498	2539.1291
698.934	2519.18627
699.371	2506.10233
699.807	2566.12842
700.243	2537.24447
700.679	2480.8132
701.115	2657.07588
701.551	2551.0354
701.987	2638.72455
702.422	2617.20156
702.858	2674.20689
703.294	2794.99428
703.729	2716.32147
704.164	2637.19861
704.599	2718.84688
705.035	2707.86855
705.47	2708.30886
705.904	2780.0415
706.339	2805.9922
706.774	2858.10801
707.209	2831.07514
707.643	2879.23487
708.078	2865.33325
708.512	2801.52174
708.946	2929.16916
709.38	2993.1914
709.814	2925.90349
710.248	3022.37561
710.682	3100.25572
711.116	3160.34303
711.549	2990.65353
711.983	3033.01267
712.416	3101.17644
712.85	3065.44651
713.283	3124.13438
713.716	3106.44761
714.149	3232.99014
714.582	3258.80745
715.015	3239.36222
715.448	3205.55896
715.881	3255.53592
716.313	3214.04879
716.746	3322.11662
717.178	3324.21943
717.61	3404.6042
718.043	3349.38975
718.475	3398.26431
718.907	3417.45424
719.339	3399.82036
719.77	3400.17717
720.202	3472.46459
720.634	3444.33638
721.065	3418.05258
721.497	3561.28008
721.928	3547.26769
722.359	3559.24811
722.79	3609.10862
723.221	3551.37526
723.652	3625.5324
724.083	3590.69255
724.514	3663.80495
724.945	3691.91782
725.375	3704.91027
725.806	3661.28615
726.236	3699.5541
726.666	3707.95519
727.096	3728.20877
727.526	3823.5932
727.956	3852.69543
728.386	3891.16214
728.816	3797.54693
729.246	3839.24733
729.675	3759.17286
730.105	3860.15177
730.534	3854.80911
730.964	3826.31161
731.393	3901.14398
731.822	3808.51752
732.251	3845.44752
732.68	3951.71115
733.109	3933.19361
733.537	3936.13537
733.966	3971.2787
734.395	3985.69817
734.823	3967.39913
735.251	3955.97684
735.68	3949.16706
736.108	3873.30277
736.536	3883.81862
736.964	3903.74111
737.392	3928.28154
737.82	3929.93195
738.247	3950.9088
738.675	4026.7707
739.102	3856.2949
739.53	3940.52625
739.957	3900.59038
740.384	3867.01434
740.811	3882.25372
741.238	3947.14221
741.665	3897.85674
742.092	3706.75368
742.519	3829.27934
742.945	3833.12293
743.372	3851.27686
743.798	3746.5316
744.225	3718.94837
744.651	3799.32974
745.077	3723.33302
745.503	3681.10103
745.929	3705.13936
746.355	3670.15674
746.781	3683.22667
747.207	3593.03838
747.632	3625.35217
748.058	3605.46547
748.483	3672.77491
748.908	3630.36175
749.334	3660.27818
749.759	3556.07147
750.184	3517.16307
750.609	3498.26186
751.033	3443.93626
751.458	3501.63175
751.883	3488.2912
752.307	3364.02732
752.732	3347.62855
753.156	3313.3357
753.58	3334.03186
754.005	3230.47409
754.429	3235.11302
754.853	3187.44477
755.277	3172.12807
755.7	3143.4152
756.124	3055.43429
756.548	3049.09571
756.971	3047.30357
757.394	2965.60987
757.818	2970.68659
758.241	3012.58531
758.664	2912.53021
759.087	2902.84948
759.51	2841.35971
759.933	2798.25576
760.356	2817.67321
760.778	2748.33532
761.201	2757.22201
761.623	2527.0923
762.046	2594.00398
762.468	2601.14388
762.89	2560.24161
763.312	2593.28647
763.734	2493.17306
764.156	2475.29897
764.578	2409.84008
765	2317.1649
765.421	2350.44684
765.843	2283.54336
766.264	2268.98392
766.686	2186.18541
767.107	2155.05916
767.528	2170.3849
767.949	2128.27501
768.37	2065.12985
768.791	2065.94888
769.212	1980.15254
769.632	2019.83584
770.053	1944.28903
770.473	1885.86004
770.894	1913.96601
771.314	1815.71365
771.734	1866.70614
772.154	1778.02487
772.575	1775.59322
772.994	1750.51051
773.414	1715.66752
773.834	1593.74406
774.254	1659.72681
774.673	1690.77745
775.093	1614.77536
775.512	1543.66859
775.931	1563.7913
776.351	1495.6557
776.77	1521.62618
777.189	1479.45813
777.607	1464.70102
778.026	1365.4947
778.445	1389.59578
778.864	1371.55202
779.282	1336.30694
779.701	1362.50971
780.119	1232.38112
780.537	1184.25232
780.955	1207.32772
781.373	1202.2536
781.791	1239.06823
782.209	1176.96419
782.627	1105.30814
783.045	1099.89471
783.462	1061.14791
783.88	998.08943
784.297	1090.15114
784.715	1035.13799
785.132	991.88803
785.549	977.95937
785.966	984.98927
786.383	959.90998
786.8	956.75485
787.217	952.82281
787.633	907.87234
788.05	855.60806
788.466	874.63782
788.883	860.839
789.299	813.58665
789.715	833.67721
790.131	854.74986
790.547	850.74557
790.963	827.69486
791.379	787.67085
791.795	714.33947
792.21	747.43974
792.626	712.40471
793.041	672.41378
793.457	730.50968
793.872	664.30925
794.287	664.37732
794.702	635.31914
795.117	665.42572
795.532	601.32488
795.947	582.19196
796.362	576.16049
796.776	601.17845
797.191	637.34388
797.605	577.19103
798.02	566.19781
798.434	609.15142
798.848	553.21334
799.262	554.20508
799.676	545.16311
800.09	529.14306
800.504	457.98326
800.918	450.91468
801.331	420.97276
801.745	418.85118
802.158	432.9616
802.572	482.03445
802.985	429.91827
803.398	446.94413
803.811	363.83328
804.224	370.82533
804.637	421.90388
805.05	396.81556
805.462	406.89325
805.875	319.76793
806.288	367.81068
806.7	330.75253
807.112	355.73688
807.525	315.70106
807.937	353.79929
808.349	299.68584
808.761	347.78315
809.173	368.81374
809.584	344.77115
809.996	309.69455
810.408	344.827
810.819	370.78806
811.231	383.9404
811.642	353.80319
812.053	293.66102
812.464	268.58645
812.875	265.63482
813.286	308.74103
813.697	251.52706
814.108	275.61738
814.519	325.66377
814.929	246.58358
815.34	206.46258
815.75	267.63766
816.16	238.54517
816.571	214.52095
816.981	188.41053
817.391	231.5137
817.801	208.48735
818.211	273.59802
818.62	240.54069
819.03	183.42079
819.44	182.44107
819.849	161.37967
820.259	220.5215
820.668	163.3811
821.077	204.48097
821.486	157.3519
821.895	201.45793
822.304	170.42664
822.713	152.33768
823.122	149.35178
823.531	161.35373
823.939	161.37258
824.348	193.43686
824.756	182.42677
825.164	167.39488
825.573	123.29456
825.981	154.35899
826.389	166.3932
826.797	177.42661
827.205	202.43605
827.612	95.2229
828.02	125.27672
828.428	148.35733
828.835	147.37151
829.243	154.34326
829.65	129.30798
830.057	102.23487
830.464	162.37779
830.871	168.38035
831.278	161.36725
831.685	162.3368
832.092	81.18797
832.499	139.28776
832.905	109.26163
833.312	75.15999
833.718	174.41199
834.124	154.33187
834.531	122.28965
834.937	114.28064
835.343	129.29224
835.749	153.33064
836.155	111.27833
836.561	118.2767
836.966	135.31142
837.372	116.28007
837.777	95.22742
838.183	126.26243
838.588	134.31827
838.993	133.30717
839.399	96.22547
839.804	113.26295
840.209	117.28807
840.613	80.16914
841.018	82.19806
841.423	117.2868
841.828	115.27907
842.232	65.1518
842.637	140.3158
843.041	97.23962
843.445	26.06268
843.849	95.22594
844.253	123.27592
844.657	89.21638
845.061	165.35764
845.465	78.18054
845.869	68.15119
846.272	91.2131
846.676	58.13217
847.079	132.32219
847.483	91.21643
847.886	105.24067
848.289	109.28291
848.692	50.12127
849.095	73.16706
849.498	81.19368
849.901	109.23454
850.304	80.18245
850.707	69.16851
851.109	94.2261
851.512	76.17961
851.914	80.19512
852.316	72.17718
852.718	124.314
853.121	102.23853
853.523	68.15088
853.925	60.15286
854.326	85.20519
854.728	32.08008
855.13	35.08846
855.531	94.21481
855.933	74.16808
856.334	79.19063
856.736	77.16619
857.137	116.25813
857.538	43.10529
857.939	78.18769
858.34	25.05822
858.741	51.12834
859.142	76.17354
859.542	79.20222
859.943	77.18327
860.343	46.11073
860.744	66.1544
861.144	107.25096
861.544	90.20972
861.945	76.18571
862.345	93.21582
862.745	90.21566
863.145	50.11242
863.544	90.21853
863.944	85.19138
864.344	45.1062
864.743	109.25694
865.143	105.26034
865.542	2.00443
865.941	116.27424
866.34	58.13137
866.74	75.19433
867.139	96.22238
867.537	41.09972
867.936	86.19859
868.335	78.18989
868.734	65.16022
869.132	48.10553
869.531	98.2226
869.929	37.08153
870.327	68.15608
870.726	50.11867
871.124	63.13958
871.522	64.15621
871.92	115.26961
872.318	74.17176
872.715	60.14031
873.113	76.17605
873.511	33.07912
873.908	53.13131
874.306	106.25361
874.703	47.11208
875.1	46.11178
875.497	36.08277
875.894	70.1678
876.291	81.19057
876.688	67.16655
877.085	70.15939
877.482	109.25964
877.878	83.19368
878.275	45.11068
878.671	22.04551
879.068	74.17067
879.464	77.17777
879.86	80.18046
880.256	37.08651
880.652	50.12254
881.048	14.03321
881.444	71.15888
881.84	10.02464
882.236	101.24187
882.631	97.2283
883.027	112.25605
883.422	2.00494
883.817	46.11245
884.213	59.14586
884.608	111.26511
885.003	44.10108
885.398	14.03402
885.793	61.14642
886.188	7.01685
886.582	46.11266
886.977	85.19068
887.371	31.0752
887.766	24.05814
888.16	54.12717
888.554	58.13659
888.949	90.21574
889.343	93.21513
889.737	53.13799
890.131	66.15899
890.525	73.1806
890.918	41.09942
891.312	78.17602
891.706	61.15384
892.099	82.1991
892.492	79.16025
892.886	67.15659
893.279	68.16592
893.672	57.14076
894.065	78.18726
894.458	49.11735
894.851	113.26067
895.244	57.14004
895.637	78.18011
896.029	99.2321
896.422	31.07205
896.814	56.13327
897.206	68.15727
897.599	88.2074
897.991	96.22256
898.383	99.22272
898.775	116.2503
899.167	98.22061
899.559	35.08471
899.951	85.18872
900.342	56.13557
900.734	103.24995
901.125	66.1654
901.517	72.16956
901.908	72.16215
902.299	71.16678
902.69	92.20855
903.082	90.20766
903.473	113.26109
903.863	63.15352
904.254	132.29252
904.645	55.12955
905.036	98.23088
905.426	76.16273
905.817	64.14937
906.207	5.01139
906.597	87.19581
906.987	20.0498
907.378	53.12982
907.768	67.17126
908.158	56.13065
908.547	98.24586
908.937	64.15569
909.327	98.22575
909.717	37.08905
910.106	67.15308
910.495	75.17694
910.885	88.21375
911.274	66.15791
911.663	50.12095
912.052	10.02359
912.441	88.21591
912.83	63.13685
913.219	86.21483
913.608	80.18803
913.997	93.22501
914.385	105.23796
914.774	68.15802
915.162	97.22251
915.55	87.19877
915.939	50.12259
916.327	43.10243
916.715	74.18398
917.103	54.12514
917.491	38.09019
917.878	97.22635
918.266	60.14907
918.654	101.2485
919.041	79.20087
919.429	33.07488
919.816	30.07336
920.203	94.21939
920.591	82.19476
920.978	66.15471
921.365	77.19495
921.752	35.07887
922.139	54.11172
922.525	63.1455
922.912	64.14878
923.299	57.1363
923.685	17.04261
924.072	85.18101
924.458	44.10547
924.844	64.15195
925.231	25.05541
925.617	49.12154
926.003	52.12749
926.389	27.06579
926.774	-6.01473
927.16	72.17075
927.546	94.23345
927.931	28.06697
928.317	56.12218
928.702	61.13718
929.088	141.32176
929.473	88.21607
929.858	94.22077
930.243	87.20125
930.628	56.13224
931.013	62.14766
931.398	64.13763
931.783	27.06807
932.167	116.27212
932.552	71.16977
932.937	60.14185
933.321	81.19627
933.705	33.0793
934.09	45.10703
934.474	54.12141
934.858	38.09551
935.242	34.07538
935.626	81.19981
936.009	61.15822
936.393	93.22957
936.777	94.23166
937.16	89.22381
937.544	48.10637
937.927	57.13998
938.311	74.17115
938.694	84.21392
939.077	47.10795
939.46	28.06468
939.843	37.07159
940.226	38.09355
940.609	65.14425
940.991	65.15774
941.374	66.15555
941.757	54.12727
942.139	77.16505
942.522	88.19615
942.904	87.19917
943.286	57.13864
943.668	59.14885
944.05	63.14886
944.432	25.05928
944.814	42.09837
945.196	28.06643
945.578	63.14597
945.959	94.20648
946.341	63.14493
946.722	93.20571
947.104	56.12823
947.485	86.19018
947.866	62.15139
948.247	107.25985
948.628	-17.03945
949.009	58.14289
949.39	47.11165
949.771	17.03708
950.152	59.13903
950.532	112.2698
950.913	28.06491
951.293	64.16848
951.674	103.23647
952.054	76.18391
952.434	65.15495
952.814	26.05877
953.194	39.09719
953.574	90.20997
953.954	71.15888
954.334	100.2398
954.714	83.19406
955.093	106.2473
955.473	72.17456
955.853	57.14215
956.232	51.13501
956.611	71.16006
956.99	74.17894
957.37	52.12655
957.749	16.03617
958.128	39.09539
958.506	45.11292
958.885	46.11127
959.264	81.19228
959.643	76.16561
960.021	86.20505
960.4	52.1123
960.778	62.14379
961.156	36.08659
961.535	50.11016
961.913	118.26226
962.291	85.21175
962.669	66.1614
963.047	57.14076
963.424	92.22773
963.802	61.14413
964.18	54.1289
964.557	90.1952
964.935	80.18009
965.312	60.1514
965.69	70.16601
966.067	16.03714
966.444	-9.02108
966.821	82.20276
967.198	104.23603
967.575	61.14245
967.952	100.22234
968.329	108.25107
968.705	143.28795
969.082	115.28513
969.458	48.11221
969.835	87.20157
970.211	82.20394
970.587	92.21885
970.963	58.14162
971.339	20.05092
971.715	82.19604
972.091	59.13903
972.467	22.05213
972.843	75.18036
973.219	92.20736
973.594	43.10868
973.97	50.11057
974.345	79.18108
974.721	8.01841
975.096	90.20914
975.471	62.13974
975.846	25.05735
976.221	9.0222
976.596	85.19764
976.971	99.23437
977.346	69.15147
977.72	12.02945
978.095	45.11202
978.469	69.15625
978.844	98.23294
979.218	94.21784
979.593	27.06189
979.967	40.09167
980.341	45.09966
980.715	64.15511
981.089	52.12489
981.463	74.16153
981.837	39.0929
982.21	27.05852
982.584	79.18282
982.957	43.10408
983.331	91.20061
983.704	93.22059
984.078	20.04749
984.451	31.07293
984.824	67.1572
985.197	11.02537
985.57	-25.06003
985.943	38.08841
986.316	41.095
986.688	59.13572
987.061	84.18778
987.434	67.17024
987.806	22.05058
988.179	18.0407
988.551	64.15487
988.923	58.1359
989.295	102.24077
989.667	59.13713
990.039	91.21826
990.411	44.09515
990.783	45.0975
991.155	63.1455
991.527	36.08339
991.898	72.17259
992.27	83.19809
992.641	79.18789
993.012	13.02862
993.384	32.07289
993.755	31.07681
994.126	114.26198
994.497	33.078
994.868	40.08672
995.239	99.22683
995.61	72.17364
995.98	39.09083
996.351	57.13645
996.722	102.2267
997.092	37.0846
997.462	55.1245
997.833	73.16302
998.203	20.04594
998.573	87.20755
998.943	81.18163
999.313	92.21083
999.683	81.18581
1000.053	11.02373
1000.423	60.13822
1000.792	50.12322
1001.162	32.07521
1001.531	98.23016
1001.901	35.0835
1002.27	17.03562
1002.639	0
1003.009	79.17817
1003.378	54.13303
1003.747	48.10766
1004.116	62.14134
1004.485	32.07339
1004.853	50.11986
1005.222	25.05962
1005.591	91.20405
1005.959	54.11657
1006.328	108.22994
1006.696	25.05774
1007.064	35.08388
1007.433	70.16575
1007.801	63.14498
1008.169	74.17657
1008.537	147.30269
1008.905	99.21998
1009.273	74.17291
1009.64	84.19335
1010.008	66.14961
1010.375	55.12516
1010.743	32.06831
1011.11	90.2065
1011.478	88.20909
1011.845	46.10275
1012.212	74.16105
1012.579	75.17604
1012.946	63.14109
1013.313	55.12374
1013.68	68.14402
1014.047	57.12971
1014.414	6.01364
1014.78	58.13877
1015.147	50.11412
1015.513	74.16986
1015.88	87.21057
1016.246	29.06791
1016.612	47.10161
1016.978	91.2136
1017.344	35.0834
1017.71	79.18195
1018.076	73.16167
1018.442	112.275
1018.808	29.07061
1019.174	46.1101
1019.539	9.01899
1019.905	78.17595
1020.27	54.12737
1020.636	55.12404
1021.001	74.16931
1021.366	46.10639
1021.731	103.25622
1022.096	75.18289
1022.461	84.18933
1022.826	74.1689
1023.191	47.11895
1023.556	45.10016
1023.92	26.06087
1024.285	38.08792
1024.649	80.18532
1025.014	47.11019
1025.378	64.15522
1025.742	21.04979
1026.107	51.10936
1026.471	76.16709
1026.835	84.19836
1027.199	28.06496
1027.562	33.07257
1027.926	42.09779
1028.29	60.14574
1028.654	55.11988
1029.017	86.20182
1029.381	47.1079
1029.744	58.1421
1030.107	82.18406
1030.471	93.21248
1030.834	33.07046
1031.197	102.23215
1031.56	32.07192
1031.923	45.11231
1032.286	84.18692
1032.648	68.15239
1033.011	78.17256
1033.374	49.10856
1033.736	47.11934
1034.099	41.09597
1034.461	86.20921
1034.823	29.06993
1035.185	39.09343
1035.548	57.13337
1035.91	38.08701
1036.272	139.29768
1036.634	87.20213
1036.995	73.16154
1037.357	64.14961
1037.719	79.18326
1038.08	99.22455
1038.442	46.10419
1038.803	32.07239
1039.165	44.10612
1039.526	92.21117
1039.887	62.14128
1040.248	65.15602
1040.609	53.12387
1040.97	25.05857
1041.331	94.2285
1041.692	84.18979
1042.053	73.15634
1042.413	57.12555
1042.774	84.19474
1043.134	76.16933
1043.495	84.2012
1043.855	124.28724
1044.215	16.03806
1044.576	48.11071
1044.936	52.11274
1045.296	61.14558
1045.656	31.07222
1046.016	63.14406
1046.375	67.15499
1046.735	99.21605
1047.095	83.18428
1047.454	79.15527
1047.814	65.14917
1048.173	45.10111
1048.533	68.14786
1048.892	4.00932
1049.251	28.06712
1049.61	52.12279
1049.969	30.06753
1050.328	74.15138
1050.687	19.04418
1051.046	53.12285
1051.405	57.13426
1051.763	48.10664
1052.122	32.07665
1052.48	57.13416
1052.839	117.26419
1053.197	66.1476
1053.555	57.12043
1053.914	76.17633
1054.272	36.08144
1054.63	19.04489
1054.988	53.12158
1055.345	31.06251
1055.703	72.16533
1056.061	62.15499
1056.419	68.17183
1056.776	5.01148
1057.134	3.00655
1057.491	57.13682
1057.848	46.10909
1058.206	6.01335
1058.563	66.13722
1058.92	78.16932
1059.277	65.15311
1059.634	24.0533
1059.991	116.26284
1060.348	39.08453
1060.704	123.28329
1061.061	65.14035
1061.418	61.1415
1061.774	76.17891
1062.131	75.19352
1062.487	54.11952
1062.843	56.13357
1063.199	22.05278
1063.555	52.1161
1063.911	21.05081
1064.267	100.19121
1064.623	60.14103
1064.979	27.05887
1065.335	95.21267
1065.691	19.04304
1066.046	66.13679
1066.402	19.04104
1066.757	29.07059
1067.112	45.10525
1067.468	72.1642
1067.823	13.0294
1068.178	52.11926
1068.533	72.16613
1068.888	58.13131
1069.243	36.08537
1069.598	39.09015
1069.952	53.1164
1070.307	-2.00482
1070.662	85.19428
1071.016	70.15111
1071.371	70.15195
1071.725	55.12419
1072.079	68.15621
1072.434	40.09361
1072.788	57.12745
1073.142	73.17141
1073.496	60.13523
1073.85	64.14064
1074.203	77.17798
1074.557	82.21192
1074.911	69.1553
1075.265	97.21258
1075.618	93.21573
1075.971	67.15141
1076.325	51.12557
1076.678	56.12198
1077.031	-13.02771
1077.385	115.23573
1077.738	54.11547
1078.091	64.1397
1078.444	73.15843
1078.796	45.10661
1079.149	62.14783
1079.502	72.16308
1079.855	98.21618
1080.207	84.19597
1080.56	64.15987
1080.912	60.1391
1081.264	96.22009
1081.617	34.07992
1081.969	46.11228
1082.321	53.12324
1082.673	115.25118
1083.025	45.10128
1083.377	376.78552
1083.728	76.16702
1084.08	41.09755
1084.432	71.16222
1084.783	36.07885
1085.135	17.04135
1085.486	77.16811
1085.838	81.19072
1086.189	53.12426
1086.54	85.19146
1086.891	73.18027
1087.242	108.25375
1087.593	58.13249
1087.944	119.25529
1088.295	81.17339
1088.646	100.23458
1088.996	29.06759
1089.347	31.07257
1089.698	18.04143
1090.048	45.11174
1090.398	47.10309
1090.749	38.08614
1091.099	72.17554
1091.449	66.15791
1091.799	39.09379
1092.149	45.10694
1092.499	74.17203
1092.849	74.18022
1093.199	59.14011
1093.548	39.09093
1093.898	49.11703
1094.248	10.0246
1094.597	15.03759
1094.947	45.1162
1095.296	89.21037
1095.645	55.13682
1095.994	69.15778
1096.343	44.10684
1096.692	58.14932
1097.041	72.19095
1097.39	52.12422
1097.739	37.09268
1098.088	51.13073
1098.437	52.13378
1098.785	40.10334
1099.134	46.1157
1099.482	59.15738
1099.83	74.18666
1100.179	139.35104
1100.527	-13.03325
1100.875	18.04655
1101.223	82.21052
1101.571	11.02949
1101.919	67.1724
1102.267	25.06919
1102.615	15.04811
1102.962	2.00642
1103.31	2.00642
1103.658	-5.01604
