Data from N3 R2 sample 9_Subt2__0__10-18-25-379.txt Node

Date: Thu Sep 18 10:18:25 PDT 2025
User: uwsun
Spectrometer: HDX01956
Trigger mode: 0
Integration Time (sec): 5.000000E-1
Scans to average: 1
Nonlinearity correction enabled: true
Boxcar width: 0
Storing dark spectrum: false
XAxis mode: Wavelengths
Number of Pixels in Spectrum: 2068
>>>>>Begin Spectral Data<<<<<
194.03	67.19261
194.578	63.20334
195.127	62.19731
195.676	69.22019
196.225	93.24453
196.773	103.28325
197.321	119.32704
197.87	171.43493
198.418	242.61232
198.966	258.666
199.513	256.63781
200.061	191.48115
200.609	213.55471
201.156	243.52129
201.704	192.4789
202.251	221.57928
202.798	221.56466
203.345	229.55861
203.892	233.57956
204.438	212.49633
204.985	268.62201
205.532	231.59787
206.078	263.62787
206.624	260.63953
207.17	320.72591
207.716	252.60655
208.262	245.47562
208.808	246.60755
209.354	266.64412
209.899	280.68719
210.445	261.63973
210.99	245.58758
211.535	286.65668
212.08	225.51446
212.625	238.58412
213.17	278.69185
213.715	250.56045
214.259	277.6308
214.804	228.54983
215.348	294.66071
215.892	285.67439
216.436	248.55391
216.98	200.43377
217.524	235.55265
218.068	276.67987
218.612	265.65939
219.155	212.49458
219.698	224.52421
220.242	229.55465
220.785	259.59434
221.328	198.48291
221.871	273.6783
222.414	275.66103
222.956	165.39151
223.499	176.38823
224.041	217.48618
224.583	197.40838
225.126	186.40255
225.668	226.538
226.21	202.50402
226.751	280.60416
227.293	212.47018
227.835	250.59786
228.376	218.4853
228.918	197.48271
229.459	204.50087
230	225.52975
230.541	226.50832
231.082	261.61856
231.622	166.37138
232.163	197.46744
232.704	274.66649
233.244	231.56075
233.784	193.46024
234.324	268.58571
234.864	211.46728
235.404	212.48913
235.944	250.57266
236.484	256.62224
237.023	225.5186
237.563	260.58766
238.102	264.60618
238.641	243.59562
239.18	215.49516
239.719	231.56558
240.258	227.49831
240.797	222.51953
241.335	252.5962
241.874	293.54871
242.412	275.64871
242.95	246.58043
243.488	207.45575
244.026	260.58838
244.564	268.53381
245.102	259.57094
245.64	198.46464
246.177	202.44054
246.715	258.60306
247.252	208.46285
247.789	284.50546
248.326	239.56293
248.863	230.495
249.4	247.54518
249.936	265.53877
250.473	279.63972
251.009	237.52945
251.546	280.60572
252.082	216.45647
252.618	205.45078
253.154	187.44423
253.69	231.50602
254.226	263.61246
254.761	283.61391
255.297	232.49458
255.832	247.57316
256.367	254.58088
256.903	284.61095
257.438	247.56408
257.972	245.53148
258.507	254.56661
259.042	247.52324
259.576	304.64863
260.111	252.56284
260.645	285.59423
261.179	196.45258
261.713	291.62937
262.247	226.50457
262.781	264.54005
263.315	219.52043
263.849	250.61085
264.382	291.64524
264.915	295.67504
265.449	218.52214
265.982	262.57816
266.515	263.62787
267.048	303.61772
267.58	244.51225
268.113	217.4601
268.646	218.52294
269.178	227.49621
269.71	304.64806
270.243	289.64827
270.775	285.71017
271.307	244.56542
271.838	276.63144
272.37	256.61081
272.902	293.6402
273.433	297.63575
273.965	273.64375
274.496	246.59481
275.027	274.66299
275.558	267.63424
276.089	253.61714
276.62	253.62151
277.15	277.66052
277.681	232.48749
278.211	272.64375
278.741	249.53946
279.272	302.66698
279.802	258.62499
280.332	267.61319
280.861	232.54251
281.391	257.56867
281.921	279.64612
282.45	277.66634
282.98	295.74493
283.509	336.73306
284.038	302.66726
284.567	331.74003
285.096	309.72381
285.625	252.55214
286.153	312.71981
286.682	268.59907
287.21	256.59345
287.739	267.61343
288.267	269.63776
288.795	262.66693
289.323	324.73229
289.851	339.76541
290.378	266.57592
290.906	286.6795
291.433	277.67113
291.961	335.73475
292.488	292.70148
293.015	332.75373
293.542	309.7694
294.069	277.66811
294.596	268.63698
295.122	315.72948
295.649	279.59154
296.175	320.7415
296.702	369.86262
297.228	301.70038
297.754	317.68677
298.28	355.78188
298.806	301.70204
299.332	314.6781
299.857	398.85726
300.383	274.67047
300.908	306.72868
301.433	333.78642
301.958	329.72493
302.483	282.67901
303.008	333.79828
303.533	310.77343
304.058	308.69301
304.582	325.74009
305.107	300.75715
305.631	322.70281
306.155	333.74634
306.679	320.72649
307.203	363.80587
307.727	333.75953
308.251	313.74692
308.775	415.95833
309.298	350.81035
309.822	333.80587
310.345	394.89663
310.868	363.83895
311.391	380.89373
311.914	330.79786
312.437	379.82598
312.96	387.86877
313.482	347.78251
314.005	323.77815
314.527	354.88413
315.049	372.90208
315.571	390.83571
316.093	409.96284
316.615	356.81901
317.137	388.80412
317.659	396.91319
318.18	408.9221
318.702	410.91226
319.223	367.71281
319.744	422.89841
320.265	425.9818
320.786	396.94474
321.307	439.02287
321.828	450.95426
322.348	413.92255
322.869	449.00711
323.389	769.29836
323.909	438.94341
324.43	425.96149
324.95	443.95602
325.47	467.08865
325.989	494.09347
326.509	514.06719
327.029	545.14752
327.548	509.07018
328.067	442.01308
328.587	556.29009
329.106	464.98051
329.625	478.16891
330.144	531.14347
330.662	577.24375
331.181	554.2061
331.7	494.07027
332.218	530.06128
332.736	519.12859
333.255	589.27073
333.773	552.20225
334.291	606.3896
334.808	594.22206
335.326	552.14113
335.844	614.31767
336.361	667.56099
336.879	628.34485
337.396	636.41061
337.913	581.23202
338.43	637.29977
338.947	650.4076
339.464	641.24637
339.981	592.28676
340.497	603.35867
341.014	640.4189
341.53	636.29861
342.046	730.63402
342.562	643.45891
343.078	709.4927
343.594	722.53174
344.11	709.52211
344.626	732.65595
345.141	747.51282
345.657	716.44302
346.172	768.64145
346.687	747.51696
347.202	796.59345
347.717	741.57243
348.232	731.62988
348.747	804.6258
349.261	715.3971
349.776	806.68263
350.29	805.78017
350.805	777.70109
351.319	798.62617
351.833	799.6131
352.347	823.6988
352.861	841.71738
353.374	805.59849
353.888	866.84147
354.401	857.6837
354.915	884.71523
355.428	880.90525
355.941	874.75542
356.454	872.66378
356.967	883.77148
357.48	876.70533
357.993	923.94872
358.505	896.87808
359.018	997.06213
359.53	930.94682
360.042	939.7793
360.554	1007.0773
361.066	921.92161
361.578	1006.84776
362.09	944.91182
362.602	979.82911
363.113	1019.00466
363.625	997.89306
364.136	1029.86412
364.647	1058.08009
365.158	1020.98044
365.669	1005.01403
366.18	1021.00485
366.691	992.80832
367.201	1041.0777
367.712	1086.03652
368.222	1116.09192
368.733	1097.93236
369.243	1122.02916
369.753	1112.08644
370.263	1176.29747
370.773	1087.18366
371.282	1166.25328
371.792	1209.23189
372.301	1200.32794
372.811	1190.55394
373.32	1235.08845
373.829	1274.35868
374.338	1337.26918
374.847	1356.39966
375.356	1371.47819
375.865	1561.38501
376.373	1540.54982
376.882	1615.00818
377.39	1626.83733
377.898	1611.88915
378.407	1722.707
378.915	1843.66328
379.423	1865.90551
379.93	1972.98105
380.438	2003.13895
380.946	2140.08316
381.453	2149.22933
381.96	2376.31888
382.468	2548.29702
382.975	2620.5393
383.482	2636.06212
383.989	2691.84072
384.495	2745.29371
385.002	2974.73786
385.509	3129.43128
386.015	3442.48832
386.521	3638.02072
387.028	3588.02125
387.534	3647.63681
388.04	3819.32264
388.546	3945.69465
389.051	4221.53685
389.557	4607.65045
390.063	4717.41366
390.568	4787.80635
391.073	5091.08449
391.578	5437.55073
392.084	5517.0087
392.589	5788.56906
393.093	6257.02091
393.598	6807.67592
394.103	7409.94545
394.607	8167.44787
395.112	8640.03117
395.616	9044.60671
396.12	9864.42076
396.624	10772.3536
397.128	11799.83842
397.632	13068.67474
398.136	13995.97953
398.639	15313.6115
399.143	17546.27395
399.646	19561.72614
400.15	21327.23021
400.653	24185.08536
401.156	27562.89628
401.659	31726.62576
402.162	40107.13467
402.664	57789.64257
403.167	63067.39154
403.67	63769.22307
404.172	63919.58413
404.674	63858.43483
405.176	63738.15102
405.678	63977.72923
406.18	64011.81569
406.682	63863.44694
407.184	63926.60148
407.686	63841.39382
408.187	64025.8516
408.688	63892.51763
409.19	63833.37461
409.691	58500.78893
410.192	50146.51223
410.693	44906.1833
411.194	41878.33804
411.694	39404.56251
412.195	35945.85108
412.696	33355.22873
413.196	32464.93663
413.696	32851.49264
414.196	32895.10737
414.696	31252.69781
415.196	28865.97421
415.696	23975.54703
416.196	18450.10856
416.695	15441.87605
417.195	14399.79548
417.694	13704.86559
418.194	12605.60619
418.693	12169.22452
419.192	11773.84272
419.691	11657.33958
420.19	11359.72622
420.688	10696.94997
421.187	10211.74339
421.685	9534.56255
422.184	8304.51644
422.682	7164.45409
423.18	6228.76152
423.678	5782.8831
424.176	5327.09299
424.674	4949.12989
425.172	4757.60479
425.669	4396.10865
426.167	4033.89397
426.664	3747.86937
427.161	3505.03632
427.659	3200.44103
428.156	3086.70581
428.652	2904.69166
429.149	2825.44981
429.646	2657.96836
430.143	2458.29757
430.639	2404.22047
431.135	2252.42795
431.632	2191.96547
432.128	1951.04413
432.624	2019.42717
433.12	1896.79391
433.616	1849.61187
434.111	1798.87932
434.607	1744.86389
435.103	1689.34498
435.598	1624.27979
436.093	1575.60467
436.588	1481.40263
437.083	1424.33199
437.578	1334.33261
438.073	1305.53388
438.568	1259.419
439.062	1282.05623
439.557	1179.16445
440.051	1131.00256
440.546	1080.96318
441.04	1122.15673
441.534	1022.12566
442.028	1107.14257
442.522	1034.02615
443.015	966.68462
443.509	1031.05201
444.002	1013.03847
444.496	978.72263
444.989	945.91254
445.482	899.88148
445.975	941.80302
446.468	909.62623
446.961	971.71605
447.454	861.62174
447.947	896.79883
448.439	907.87401
448.931	905.7331
449.424	852.85792
449.916	897.84507
450.408	817.58919
450.9	749.58252
451.392	762.68749
451.884	788.55051
452.375	767.64814
452.867	784.50502
453.358	761.50117
453.849	789.42995
454.341	725.41868
454.832	780.43263
455.323	802.72229
455.814	728.44304
456.304	737.4769
456.795	717.4222
457.285	696.33133
457.776	696.38338
458.266	651.36685
458.756	599.26472
459.247	651.37826
459.737	674.43851
460.226	666.33351
460.716	645.36614
461.206	608.29861
461.695	560.25113
462.185	647.35904
462.674	634.28105
463.163	631.2502
463.653	622.166
464.142	590.28241
464.63	591.28322
465.119	603.24924
465.608	606.26525
466.096	532.03874
466.585	533.09907
467.073	458.99494
467.561	490.07423
468.05	497.04124
468.538	516.147
469.026	487.05485
469.513	531.00514
470.001	555.14554
470.489	478.04039
470.976	515.09233
471.463	449.03183
471.951	486.1061
472.438	452.97773
472.925	463.00021
473.412	430.96666
473.899	419.89028
474.385	448.01124
474.872	415.8979
475.359	418.95584
475.845	400.76671
476.331	376.74579
476.817	371.84686
477.303	367.79949
477.789	333.7488
478.275	338.7925
478.761	356.7941
479.247	386.80176
479.732	357.83883
480.218	407.99746
480.703	303.70976
481.188	399.80122
481.673	289.6328
482.158	379.76351
482.643	370.88881
483.128	341.74979
483.612	380.84763
484.097	332.75618
484.581	349.75932
485.066	324.75195
485.55	331.69044
486.034	302.62086
486.518	303.69
487.002	252.58811
487.486	234.54718
487.969	229.53665
488.453	221.53124
488.936	255.55034
489.42	299.62785
489.903	264.62941
490.386	188.3776
490.869	289.60257
491.352	253.58406
491.835	228.44885
492.318	204.44415
492.8	242.48113
493.283	280.68362
493.765	222.52584
494.247	261.58186
494.73	254.53889
495.212	225.51446
495.694	262.59194
496.175	251.57968
496.657	230.52515
497.139	230.37781
497.62	223.51829
498.102	253.60538
498.583	144.34662
499.064	202.43662
499.545	259.56544
500.026	254.55135
500.507	194.43367
500.988	292.69642
501.469	175.42514
501.949	254.60232
502.43	255.59032
502.91	264.53564
503.39	139.3382
503.87	293.65994
504.35	246.55285
504.83	178.37914
505.31	199.46544
505.79	190.43645
506.269	189.42153
506.749	176.39197
507.228	236.53538
507.707	260.55572
508.187	223.51502
508.666	256.60964
509.145	239.53811
509.623	218.49354
510.102	226.52806
510.581	311.71279
511.059	241.58502
511.538	235.58496
512.016	299.68227
512.494	266.61248
512.972	292.6667
513.45	234.52631
513.928	285.66211
514.406	302.70561
514.884	328.80347
515.361	292.66643
515.839	388.83429
516.316	324.7469
516.793	349.83249
517.27	278.63934
517.747	337.82015
518.224	340.73833
518.701	372.76786
519.178	354.83648
519.654	367.81576
520.131	348.81434
520.607	377.86402
521.083	315.67574
521.56	344.76449
522.036	325.66739
522.512	381.88298
522.987	365.82712
523.463	309.69598
523.939	363.84927
524.414	340.7333
524.89	359.80626
525.365	322.68792
525.84	318.72576
526.315	309.71218
526.79	290.62305
527.265	330.72119
527.74	284.65888
528.215	257.57531
528.689	263.55153
529.164	224.46321
529.638	224.54957
530.112	229.52003
530.587	258.52873
531.061	244.56922
531.534	238.55326
532.008	250.58551
532.482	255.56283
532.956	214.52969
533.429	241.56918
533.903	210.44555
534.376	187.40238
534.849	234.51876
535.322	210.48046
535.795	174.4104
536.268	211.49563
536.741	155.36069
537.213	218.4849
537.686	190.453
538.158	170.37814
538.631	218.51157
539.103	224.48914
539.575	176.35317
540.047	210.44341
540.519	193.44893
540.991	191.45373
541.463	147.34733
541.934	160.35412
542.406	207.4832
542.877	186.40909
543.348	181.42683
543.82	187.44337
544.291	184.41911
544.762	232.53399
545.233	243.59518
545.703	207.44713
546.174	207.46626
546.645	212.49827
547.115	190.44744
547.585	206.4603
548.056	212.507
548.526	253.57894
548.996	194.45206
549.466	251.5882
549.935	245.56537
550.405	251.53079
550.875	276.6289
551.344	216.49994
551.814	252.55633
552.283	349.71764
552.752	299.6696
553.221	315.66116
553.69	365.77657
554.159	308.73288
554.628	325.6999
555.096	330.79966
555.565	286.60466
556.033	432.95881
556.502	346.7906
556.97	368.76949
557.438	377.83172
557.906	373.82806
558.374	386.83963
558.842	369.83313
559.31	443.91666
559.777	433.98595
560.245	398.85285
560.712	484.01417
561.18	530.0603
561.647	547.09159
562.114	599.22544
562.581	615.35578
563.048	644.30307
563.514	736.61839
563.981	785.53772
564.448	775.49879
564.914	850.66562
565.381	893.70104
565.847	968.85082
566.313	1009.90104
566.779	1110.966
567.245	1101.02182
567.711	1244.29955
568.176	1273.15189
568.642	1333.57372
569.108	1440.62508
569.573	1522.50469
570.038	1597.23922
570.504	1710.58721
570.969	1828.04827
571.434	1946.67754
571.899	2070.02549
572.363	2184.934
572.828	2277.98344
573.293	2364.99749
573.757	2476.09487
574.222	2559.93253
574.686	2684.08576
575.15	2791.35697
575.614	2891.25176
576.078	2908.21186
576.542	2988.03813
577.006	3114.97582
577.469	3119.49998
577.933	3261.00208
578.396	3261.24608
578.86	3259.20036
579.323	3263.3564
579.786	3382.67857
580.249	3385.18845
580.712	3258.41137
581.175	3257.50493
581.637	3229.01095
582.1	3212.74684
582.563	3085.6349
583.025	3134.43097
583.487	3118.46741
583.95	3014.69473
584.412	3075.58042
584.874	3016.44944
585.336	2891.27543
585.797	2859.79279
586.259	2787.18805
586.721	2726.19816
587.182	2708.09724
587.643	2658.0166
588.105	2558.20652
588.566	2514.58317
589.027	2454.37633
589.488	2327.99545
589.949	2342.28416
590.41	2279.34268
590.87	2314.97909
591.331	2258.74858
591.791	2216.99551
592.252	2137.98691
592.712	2085.08542
593.172	2069.84633
593.632	2080.75447
594.092	2001.7227
594.552	1956.58778
595.011	1853.74344
595.471	1902.7375
595.931	1963.75723
596.39	1804.89872
596.849	1892.83812
597.308	1790.4305
597.768	1883.28554
598.227	1874.95562
598.685	1855.72513
599.144	1870.87431
599.603	1869.83706
600.062	1920.4642
600.52	1900.72119
600.978	1898.90111
601.437	1936.76693
601.895	2004.56807
602.353	1972.64714
602.811	2045.79649
603.269	1972.97931
603.727	2202.15732
604.184	2258.93542
604.642	2286.31874
605.099	2449.11883
605.557	2430.32128
606.014	2506.73036
606.471	2531.53719
606.928	2735.90721
607.385	2770.59365
607.842	2876.07551
608.299	3020.18038
608.755	3015.40025
609.212	3125.89609
609.668	3196.94974
610.125	3294.3414
610.581	3375.14377
611.037	3481.82885
611.493	3511.07693
611.949	3704.31965
612.405	3829.13358
612.861	3732.90233
613.316	3881.12938
613.772	3992.76701
614.227	4089.06594
614.683	4110.21134
615.138	4075.88864
615.593	4131.78804
616.048	4148.68075
616.503	4189.08623
616.958	4207.32322
617.412	4281.87713
617.867	4227.49178
618.321	4338.92415
618.776	4272.35957
619.23	4180.82382
619.684	4120.51906
620.138	4118.68719
620.592	4141.0971
621.046	4091.92958
621.5	3991.10363
621.954	3910.55821
622.407	3845.58786
622.861	3832.23017
623.314	3791.75946
623.768	3758.06246
624.221	3558.05187
624.674	3576.97413
625.127	3607.00428
625.58	3551.79526
626.033	3448.66767
626.485	3445.24036
626.938	3360.23042
627.39	3334.11663
627.843	3245.04306
628.295	3216.04843
628.747	3230.26104
629.199	3197.97436
629.651	3167.02189
630.103	3130.03
630.555	3069.56058
631.006	3069.11575
631.458	3064.18957
631.909	3108.88676
632.361	3001.07307
632.812	3040.09166
633.263	3011.72797
633.714	3095.57617
634.165	3022.30453
634.616	3004.21754
635.067	3062.79567
635.518	3063.23136
635.968	3171.17346
636.419	3186.7284
636.869	3309.19132
637.319	3305.06387
637.769	3392.84533
638.219	3516.11535
638.669	3477.17658
639.119	3514.20939
639.569	3675.17977
640.019	3803.87421
640.468	3958.60642
640.918	3967.9829
641.367	4097.52788
641.816	4185.43595
642.265	4394.66176
642.714	4400.53229
643.163	4548.51136
643.612	4638.90432
644.061	4736.88761
644.51	4953.22491
644.958	5089.89378
645.406	5136.42281
645.855	5226.4918
646.303	5377.04363
646.751	5494.99706
647.199	5592.80361
647.647	5699.92044
648.095	5694.79508
648.543	5730.08912
648.99	5887.0799
649.438	5848.82172
649.885	5976.32524
650.333	5922.81845
650.78	6054.0538
651.227	6102.1288
651.674	6072.65439
652.121	6039.17363
652.568	5987.18355
653.015	5821.32771
653.461	5912.98952
653.908	5862.76678
654.354	5852.02406
654.801	5529.06831
655.247	5563.52036
655.693	5532.89863
656.139	5441.23833
656.585	5446.24155
657.031	5358.17454
657.477	5332.69332
657.922	5168.03349
658.368	5076.66689
658.813	5037.10606
659.259	4981.61807
659.704	4986.44533
660.149	4759.36384
660.594	4765.57366
661.039	4695.31961
661.484	4588.6551
661.929	4554.57462
662.373	4462.17742
662.818	4410.08349
663.262	4331.95115
663.707	4326.36063
664.151	4299.02672
664.595	4197.01816
665.039	4133.24421
665.483	4113.45432
665.927	4101.83658
666.371	4085.86973
666.814	4003.96984
667.258	3997.08389
667.701	3987.26389
668.145	3973.33288
668.588	4012.28499
669.031	3961.91797
669.474	3901.08462
669.917	3898.4724
670.36	3888.38887
670.803	3898.13952
671.245	3836.09436
671.688	3881.19444
672.13	3806.72071
672.573	3836.49374
673.015	3775.16986
673.457	3799.47536
673.899	3768.1919
674.341	3719.17864
674.783	3641.16897
675.225	3656.35683
675.666	3705.30262
676.108	3633.502
676.549	3599.98252
676.991	3640.58995
677.432	3589.04544
677.873	3449.89822
678.314	3557.14083
678.755	3471.41621
679.196	3435.91008
679.637	3276.24104
680.078	3338.072
680.518	3307.96651
680.959	3196.21762
681.399	3242.47282
681.839	3106.35237
682.28	3020.51369
682.72	3048.98688
683.16	2930.53407
683.6	2956.96452
684.039	2939.44792
684.479	2718.44035
684.919	2820.16477
685.358	2738.48773
685.798	2675.75965
686.237	2660.21804
686.676	2603.92133
687.115	2611.1435
687.554	2526.21157
687.993	2468.79062
688.432	2568.96159
688.871	2466.96968
689.309	2408.18679
689.748	2385.49362
690.186	2345.02916
690.625	2380.06696
691.063	2312.11896
691.501	2328.31647
691.939	2311.4094
692.377	2239.16783
692.815	2264.22878
693.253	2214.06131
693.69	2207.67191
694.128	2122.11429
694.565	2125.99567
695.003	2166.40344
695.44	2095.98167
695.877	2020.90895
696.314	1982.42509
696.751	2006.73228
697.188	1987.82299
697.625	1888.61257
698.061	1977.9564
698.498	1788.76412
698.934	1851.8587
699.371	1785.74749
699.807	1797.76621
700.243	1728.80013
700.679	1680.45914
701.115	1703.64407
701.551	1620.55807
701.987	1627.34662
702.422	1601.64368
702.858	1622.66037
703.294	1543.44712
703.729	1487.59278
704.164	1496.53599
704.599	1543.35722
705.035	1428.26645
705.47	1414.50536
705.904	1401.33653
706.339	1376.28273
706.774	1347.31318
707.209	1364.31465
707.643	1288.30937
708.078	1297.36999
708.512	1272.4353
708.946	1235.21228
709.38	1258.25192
709.814	1210.05642
710.248	1229.30155
710.682	1234.25504
711.116	1200.25204
711.549	1113.25846
711.983	1083.95326
712.416	1133.08908
712.85	1052.08277
713.283	1066.98366
713.716	1001.006
714.149	1029.88396
714.582	1001.78022
715.015	946.89583
715.448	999.04516
715.881	903.5542
716.313	907.72942
716.746	858.6829
717.178	920.8123
717.61	910.92336
718.043	816.69675
718.475	839.70169
718.907	884.83419
719.339	775.47234
719.77	859.70823
720.202	753.61318
720.634	783.6306
721.065	738.4772
721.497	744.55582
721.928	696.4669
722.359	688.44875
722.79	639.33277
723.221	709.51623
723.652	647.44008
724.083	629.22241
724.514	663.31065
724.945	634.28867
725.375	617.25834
725.806	570.24413
726.236	601.35857
726.666	549.14531
727.096	584.2602
727.526	562.29426
727.956	575.15342
728.386	554.20559
728.816	586.33295
729.246	523.15657
729.675	451.99868
730.105	523.14164
730.534	482.00597
730.964	458.03512
731.393	496.09015
731.822	454.05601
732.251	476.09377
732.68	426.89391
733.109	390.88574
733.537	452.00326
733.966	440.00123
734.395	398.84069
734.823	353.71605
735.251	362.80248
735.68	391.88531
736.108	365.84323
736.536	352.75982
736.964	383.81238
737.392	369.85179
737.82	382.83622
738.247	374.81837
738.675	338.73367
739.102	331.76835
739.53	343.82287
739.957	339.81915
740.384	302.67785
740.811	300.69764
741.238	356.80886
741.665	352.76503
742.092	213.46344
742.519	314.72875
742.945	353.79506
743.372	363.83495
743.798	295.70855
744.225	315.69205
744.651	265.6244
745.077	293.68446
745.503	260.59006
745.929	351.78732
746.355	284.64634
746.781	265.612
747.207	301.66797
747.632	315.7315
748.058	308.72725
748.483	333.70695
748.908	297.69325
749.334	284.65757
749.759	282.63036
750.184	303.68274
750.609	283.64941
751.033	279.60755
751.458	299.6176
751.883	229.53329
752.307	217.48418
752.732	290.698
753.156	222.51831
753.58	243.53904
754.005	227.53965
754.429	249.55718
754.853	244.57526
755.277	251.56188
755.7	246.57682
756.124	222.52421
756.548	253.56169
756.971	264.60545
757.394	194.47333
757.818	226.55447
758.241	184.44793
758.664	169.40949
759.087	218.46555
759.51	168.39656
759.933	201.46347
760.356	241.59028
760.778	236.5484
761.201	226.51581
761.623	193.43597
762.046	210.46361
762.468	225.50846
762.89	205.47439
763.312	197.45968
763.734	199.45667
764.156	203.47703
764.578	223.47819
765	192.44563
765.421	191.46644
765.843	167.41949
766.264	137.31112
766.686	163.38677
767.107	163.3781
767.528	190.46737
767.949	181.43873
768.37	209.49304
768.791	126.29048
769.212	141.34281
769.632	163.36565
770.053	120.30311
770.473	178.4084
770.894	137.32332
771.314	169.37926
771.734	158.35159
772.154	132.32423
772.575	142.31284
772.994	130.28208
773.414	197.44301
773.834	166.39487
774.254	186.43137
774.673	214.49649
775.093	142.34025
775.512	124.29542
775.931	151.3678
776.351	171.4081
776.77	146.3445
777.189	129.29449
777.607	157.38427
778.026	125.30003
778.445	126.30892
778.864	121.29506
779.282	80.18451
779.701	110.26629
780.119	100.24563
780.537	105.25222
780.955	138.33444
781.373	106.25254
781.791	191.41116
782.209	115.24831
782.627	103.26282
783.045	117.25479
783.462	115.28325
783.88	119.29763
784.297	107.25995
784.715	111.27682
785.132	137.31528
785.549	124.29769
785.966	118.28587
786.383	102.24366
786.8	153.33785
787.217	161.36739
787.633	141.34114
788.05	120.2667
788.466	138.30581
788.883	139.34363
789.299	103.23504
789.715	160.37225
790.131	132.31472
790.547	83.19998
790.963	109.25974
791.379	107.26092
791.795	68.14805
792.21	87.19444
792.626	93.21034
793.041	104.24635
793.457	68.16157
793.872	70.15745
794.287	154.35617
794.702	82.19153
795.117	106.25486
795.532	133.32227
795.947	113.2563
796.362	68.1532
796.776	158.34268
797.191	93.21983
797.605	107.24447
798.02	90.21055
798.434	154.32402
798.848	125.29935
799.262	62.14913
799.676	146.33901
800.09	109.25704
800.504	108.24978
800.918	82.18066
801.331	71.17578
801.745	86.18836
802.158	91.21685
802.572	156.35893
802.985	111.25391
803.398	84.19188
803.811	53.1292
804.224	119.27921
804.637	95.21828
805.05	104.22826
805.462	102.23871
805.875	58.14651
806.288	85.19881
806.7	50.12045
807.112	66.14583
807.525	39.09176
807.937	87.20763
808.349	78.18683
808.761	138.32473
809.173	100.23348
809.584	104.24463
809.996	84.19751
810.408	82.20691
810.819	97.21885
811.231	146.37417
811.642	191.44883
812.053	137.31893
812.464	68.15508
812.875	66.16409
813.286	118.29412
813.697	97.21061
814.108	97.22572
814.519	167.35331
814.929	75.18378
815.34	20.04662
815.75	95.23434
816.16	42.09999
816.571	64.16016
816.981	92.20498
817.391	42.09706
817.801	34.08237
818.211	76.1734
818.62	55.12859
819.03	139.32243
819.44	41.10199
819.849	10.02427
820.259	28.06883
820.668	61.14547
821.077	116.27817
821.486	60.13717
821.895	67.15677
822.304	52.13327
822.713	108.24212
823.122	77.18433
823.531	18.04074
823.939	111.25942
824.348	88.20345
824.756	61.14642
825.164	73.17575
825.573	75.18125
825.981	74.17522
826.389	57.13786
826.797	128.31138
827.205	95.20978
827.612	71.16737
828.02	7.01588
828.428	42.10343
828.835	61.15653
829.243	87.19661
829.65	55.13317
830.057	5.01174
830.464	99.23374
830.871	85.19569
831.278	46.10736
831.685	96.20252
832.092	43.10054
832.499	135.27973
832.905	43.10451
833.312	51.10936
833.718	118.28242
834.124	114.24778
834.531	70.16786
834.937	86.2128
835.343	71.16274
835.749	66.14528
836.155	68.17183
836.561	69.16335
836.966	57.13353
837.372	20.04916
837.777	62.14936
838.183	60.1268
838.588	102.24376
838.993	112.25975
839.399	62.14658
839.804	33.078
840.209	69.17139
840.613	87.18366
841.018	72.17423
841.423	68.1682
841.828	83.20263
842.232	15.03537
842.637	119.26958
843.041	49.12211
843.445	25.06028
843.849	60.14366
844.253	85.19217
844.657	87.2116
845.061	116.25406
845.465	55.12789
845.869	68.15119
846.272	75.17618
846.676	23.05278
847.079	88.21655
847.483	71.16951
847.886	88.20239
848.289	63.16481
848.692	65.15721
849.095	50.11495
849.498	77.18426
849.901	63.1369
850.304	59.13513
850.707	51.12497
851.109	77.18581
851.512	42.09991
851.914	53.12992
852.316	89.21833
852.718	101.2568
853.121	67.15776
853.523	61.13555
853.925	96.24301
854.326	57.13832
854.728	82.20335
855.13	37.09348
855.531	55.12667
855.933	48.1096
856.334	69.16682
856.736	79.17043
857.137	67.15061
857.538	84.20411
857.939	93.22314
858.34	30.0698
858.741	83.20767
859.142	53.12158
859.542	46.11843
859.943	58.13856
860.343	40.0964
860.744	57.13358
861.144	63.14903
861.544	52.12208
861.945	52.12763
862.345	61.14245
862.745	110.26257
863.145	30.06773
863.544	76.18502
863.944	42.0954
864.344	51.12022
864.743	67.15923
865.143	99.24573
865.542	-4.00887
865.941	79.18811
866.34	87.19589
866.74	60.15587
867.139	101.23373
867.537	18.04397
867.936	105.24154
868.335	47.11508
868.734	81.19907
869.132	52.11423
869.531	52.11921
869.929	36.07935
870.327	63.14475
870.726	83.19573
871.124	54.11987
871.522	81.19708
871.92	33.07861
872.318	73.16947
872.715	32.07524
873.113	76.17605
873.511	56.13368
873.908	31.07712
874.306	45.10892
874.703	41.09789
875.1	43.10455
875.497	73.16659
875.894	57.13697
876.291	55.13006
876.688	14.03514
877.085	72.16387
877.482	60.14426
877.878	72.16837
878.275	49.12043
878.671	32.06605
879.068	56.12962
879.464	91.2095
879.86	26.0593
880.256	22.05159
880.652	59.14436
881.048	41.09676
881.444	-5.01136
881.84	21.05163
882.236	51.1233
882.631	82.19356
883.027	82.18859
883.422	30.07372
883.817	0
884.213	26.06467
884.608	78.18747
885.003	14.03235
885.398	28.06786
885.793	22.0532
886.188	-12.029
886.582	55.13447
886.977	62.13974
887.371	31.0752
887.766	37.08942
888.16	44.10382
888.554	58.13659
888.949	95.22751
889.343	77.17869
889.737	49.12766
890.131	61.14709
890.525	61.15125
890.918	31.07531
891.312	49.11123
891.706	25.06345
892.099	73.17755
892.492	82.16622
892.886	56.13116
893.279	18.04433
893.672	54.13342
894.065	97.23203
894.458	45.10785
894.851	114.26292
895.244	36.08879
895.637	81.18693
896.029	71.16737
896.422	-1.00234
896.814	41.09785
897.206	55.12753
897.599	85.20045
897.991	57.13317
898.383	26.05937
898.775	99.2144
899.167	48.10916
899.559	32.0775
899.951	56.12508
900.342	40.09712
900.734	75.18296
901.125	44.11071
901.517	46.10888
901.908	24.05458
902.299	39.09219
902.69	129.29021
903.082	99.22801
903.473	110.25431
903.863	29.07111
904.254	85.19021
904.645	84.19674
905.036	59.14005
905.426	89.19002
905.817	22.05177
906.207	-32.07345
906.597	65.14695
906.987	32.0795
907.378	65.15886
907.768	64.16368
908.158	58.13526
908.547	58.14656
908.937	3.00738
909.327	70.16215
909.717	38.09144
910.106	57.13049
910.495	49.11618
910.885	65.15857
911.274	22.05308
911.663	60.14487
912.052	84.19528
912.441	55.13577
912.83	69.14969
913.219	47.11823
913.608	83.19497
913.997	84.20358
914.385	85.19342
914.774	55.12814
915.162	68.1569
915.55	38.08768
915.939	44.108
916.327	51.1213
916.715	94.23285
917.103	54.12514
917.491	68.16045
917.878	81.18961
918.266	22.05504
918.654	86.21218
919.041	80.20337
919.429	32.07263
919.816	62.15071
920.203	94.21939
920.591	74.17603
920.978	76.1778
921.365	35.08928
921.752	11.02491
922.139	126.25647
922.525	33.07667
922.912	72.16712
923.299	54.1292
923.685	-3.00755
924.072	5.01083
924.458	75.17872
924.844	29.06932
925.231	40.08838
925.617	74.18271
926.003	64.15656
926.389	13.03176
926.774	57.13827
927.16	80.18943
927.546	75.18691
927.931	58.13792
928.317	36.07888
928.702	59.13274
929.088	75.17343
929.473	90.2209
929.858	86.20229
930.243	55.12804
930.628	97.22724
931.013	71.1688
931.398	46.0993
931.783	43.10809
932.167	95.22377
932.552	81.19331
932.937	88.20692
933.321	87.21057
933.705	15.03617
934.09	15.03588
934.474	86.19209
934.858	71.17739
935.242	28.06215
935.626	46.1142
936.009	63.16335
936.393	129.31633
936.777	51.12668
937.16	61.15417
937.544	8.01788
937.927	44.10832
938.311	102.23459
938.694	79.20137
939.077	38.08743
939.46	67.15357
939.843	64.12302
940.226	15.03708
940.609	90.1987
940.991	53.12891
941.374	52.12289
941.757	44.1039
942.139	43.09285
942.522	51.11455
942.904	64.1472
943.286	54.13141
943.668	101.25289
944.05	19.04528
944.432	35.08283
944.814	77.17911
945.196	35.08292
945.578	99.22774
945.959	27.06015
946.341	76.17438
946.722	44.09832
947.104	67.15308
947.485	78.17278
947.866	49.11994
948.247	79.19286
948.628	25.05753
949.009	25.06196
949.39	87.20509
949.771	-4.00876
950.152	77.18081
950.532	86.20819
950.913	48.11084
951.293	42.11098
951.674	84.19358
952.054	120.28798
952.434	69.16436
952.814	42.09463
953.194	2.00502
953.574	91.21226
953.954	40.09008
954.334	100.2398
954.714	7.01661
955.093	94.21982
955.473	53.12896
955.853	35.08764
956.232	47.1245
956.611	66.14894
956.99	69.167
957.37	39.09514
957.749	19.04292
958.128	30.0735
958.506	62.1551
958.885	48.11607
959.264	70.16652
959.643	110.23797
960.021	68.16269
960.4	81.17384
960.778	40.09317
961.156	17.04104
961.535	33.07296
961.913	104.23181
962.291	41.10296
962.669	47.11534
963.047	86.21124
963.424	119.29311
963.802	28.06658
964.18	29.06956
964.557	59.12881
964.935	71.16012
965.312	31.07863
965.69	47.11196
966.067	68.15621
966.444	33.07667
966.821	65.16122
967.198	22.05076
967.575	66.15398
967.952	130.28724
968.329	89.20768
968.705	127.25667
969.082	96.23885
969.458	71.16522
969.835	68.15815
970.211	97.24059
970.587	57.1365
970.963	41.10043
971.339	56.14166
971.715	84.20074
972.091	52.1227
972.467	28.06627
972.843	93.22289
973.219	65.14731
973.594	24.06086
973.97	29.06441
974.345	53.12212
974.721	13.02988
975.096	87.20229
975.471	66.14864
975.846	16.03677
976.221	60.14661
976.596	90.20906
976.971	82.19476
977.346	39.08616
977.72	43.10494
978.095	42.10461
978.469	70.15848
978.844	64.15312
979.218	97.22465
979.593	64.14561
979.967	4.00923
980.341	63.139
980.715	81.19568
981.089	60.14388
981.463	78.17011
981.837	98.23079
982.21	44.09502
982.584	80.1851
982.957	69.16619
983.331	77.17025
983.704	43.10298
984.078	51.12036
984.451	48.11256
984.824	65.15257
985.197	-15.03477
985.57	30.07128
985.943	3.00703
986.316	29.06735
986.688	83.19002
987.061	117.25976
987.434	100.2526
987.806	10.02305
988.179	38.08558
988.551	30.07306
988.923	69.16133
989.295	81.19198
989.667	45.10488
990.039	150.35572
990.411	53.11439
990.783	46.09964
991.155	42.09741
991.527	37.08569
991.898	57.13703
992.27	44.10579
992.641	89.21127
993.012	26.05709
993.384	14.03201
993.755	75.18432
994.126	124.28439
994.497	59.13876
994.868	42.09102
995.239	42.09733
995.61	42.10187
995.98	44.10237
996.351	60.14355
996.722	47.10565
997.092	68.15452
997.462	74.16686
997.833	81.18059
998.203	41.09379
998.573	58.13914
998.943	117.26041
999.313	70.16112
999.683	70.16093
1000.053	20.04306
1000.423	56.12911
1000.792	0
1001.162	56.13101
1001.531	62.14664
1001.901	-5.01202
1002.27	48.09988
1002.639	32.07822
1003.009	42.09544
1003.378	81.19856
1003.747	49.10988
1004.116	53.12104
1004.485	52.11878
1004.853	10.02415
1005.222	27.06436
1005.591	49.11083
1005.959	44.09519
1006.328	65.13969
1006.696	-11.02559
1007.064	8.01927
1007.433	32.07633
1007.801	40.09248
1008.169	33.07936
1008.537	68.14251
1008.905	57.12776
1009.273	57.13364
1009.64	73.1684
1010.008	58.13169
1010.375	7.01608
1010.743	30.06407
1011.11	125.28479
1011.478	78.18569
1011.845	47.10496
1012.212	106.22912
1012.579	52.1226
1012.946	25.05643
1013.313	72.16142
1013.68	89.18763
1014.047	37.08454
1014.414	67.15042
1014.78	106.25128
1015.147	38.08694
1015.513	68.15627
1015.88	69.16757
1016.246	59.13735
1016.612	56.12084
1016.978	118.27551
1017.344	100.23532
1017.71	59.13643
1018.076	74.16385
1018.442	92.22673
1018.808	64.15482
1019.174	52.12432
1019.539	36.07551
1019.905	67.15147
1020.27	11.02616
1020.636	35.07926
1021.001	76.17382
1021.366	81.18603
1021.731	100.24889
1022.096	37.09087
1022.461	77.1738
1022.826	47.10786
1023.191	8.02039
1023.556	71.15718
1023.92	60.13954
1024.285	45.10397
1024.649	13.03051
1025.014	47.11019
1025.378	67.16241
1025.742	44.10386
1026.107	99.21009
1026.471	59.13018
1026.835	49.1165
1027.199	23.05342
1027.562	8.01768
1027.926	39.09086
1028.29	52.1265
1028.654	84.18195
1029.017	86.20182
1029.381	60.13739
1029.744	36.08856
1030.107	58.13083
1030.471	77.17649
1030.834	5.01074
1031.197	113.25662
1031.56	55.12303
1031.923	74.18371
1032.286	82.18255
1032.648	27.06102
1033.011	131.28661
1033.374	54.11952
1033.736	13.03321
1034.099	20.04701
1034.461	49.12003
1034.823	63.15093
1035.185	11.02649
1035.548	72.16798
1035.91	33.07564
1036.272	71.15429
1036.634	120.27698
1036.995	68.15063
1037.357	29.06826
1037.719	56.13049
1038.08	85.19334
1038.442	2.00457
1038.803	-1.00228
1039.165	51.12283
1039.526	49.11344
1039.887	34.07792
1040.248	23.05565
1040.609	5.0118
1040.97	65.15108
1041.331	102.24757
1041.692	111.24941
1042.053	32.06914
1042.413	50.11029
1042.774	88.20385
1043.134	67.14956
1043.495	57.13723
1043.855	59.13843
1044.215	17.04043
1044.576	59.13578
1044.936	91.19564
1045.296	86.20426
1045.656	25.05831
1046.016	51.1169
1046.375	34.07917
1046.735	77.16882
1047.095	73.16241
1047.454	83.16297
1047.814	78.17853
1048.173	33.07433
1048.533	68.14786
1048.892	44.10168
1049.251	55.13116
1049.61	91.21326
1049.969	34.07648
1050.328	72.14735
1050.687	5.01166
1051.046	59.13659
1051.405	-3.00715
1051.763	87.19171
1052.122	31.07427
1052.48	55.1295
1052.839	94.21325
1053.197	23.05189
1053.555	50.10581
1053.914	50.11661
1054.272	-16.03658
1054.63	86.20056
1054.988	56.12838
1055.345	43.08647
1055.703	90.20592
1056.061	73.18212
1056.419	79.19923
1056.776	11.02522
1057.134	-5.01094
1057.491	66.15815
1057.848	63.14891
1058.206	4.0089
1058.563	61.12696
1058.92	93.20123
1059.277	79.18558
1059.634	93.20356
1059.991	66.15107
1060.348	57.12307
1060.704	66.15374
1061.061	70.15098
1061.418	60.13921
1061.774	43.10188
1062.131	94.24175
1062.487	4.00895
1062.843	33.07906
1063.199	74.17576
1063.555	61.13594
1063.911	25.06044
1064.267	50.09676
1064.623	44.10374
1064.979	-4.00878
1065.335	56.12637
1065.691	24.05431
1066.046	41.08545
1066.402	63.1348
1066.757	57.13801
1067.112	74.1721
1067.468	44.10091
1067.823	-1.00227
1068.178	48.11018
1068.533	57.13191
1068.888	31.07057
1069.243	33.07831
1069.598	63.14493
1069.952	112.24292
1070.307	32.07665
1070.662	71.16274
1071.016	87.18712
1071.371	53.11547
1071.725	36.08161
1072.079	57.13123
1072.434	60.13987
1072.788	25.05627
1073.142	82.19221
1073.496	24.05449
1073.85	56.12327
1074.203	64.14831
1074.557	80.20682
1074.911	75.16859
1075.265	89.19538
1075.618	65.15162
1075.971	38.08638
1076.325	81.19833
1076.678	60.13058
1077.031	-53.11395
1077.385	13.02726
1077.738	42.09004
1078.091	58.12676
1078.444	26.05699
1078.796	86.20214
1079.149	34.0815
1079.502	43.09797
1079.855	34.07601
1080.207	52.12208
1080.56	34.08539
1080.912	55.12763
1081.264	49.1134
1081.617	28.06589
1081.969	-11.02713
1082.321	45.1048
1082.673	39.08655
1083.025	5.01135
1083.377	44.09868
1083.728	65.14317
1084.08	30.07153
1084.432	45.10335
1084.783	8.01763
1085.135	16.03892
1085.486	21.04639
1085.838	50.11844
1086.189	80.18657
1086.54	58.13137
1086.891	87.21429
1087.242	86.20293
1087.593	41.09398
1087.944	90.19428
1088.295	134.28356
1088.646	72.16983
1088.996	20.0467
1089.347	2.00471
1089.698	43.09848
1090.048	40.09941
1090.398	45.09875
1090.749	10.0228
1091.099	55.13452
1091.449	59.14135
1091.799	4.00968
1092.149	45.10694
1092.499	35.08199
1092.849	-4.00988
1093.199	50.11894
1093.548	63.1462
1093.898	14.03366
1094.248	-23.05692
1094.597	28.06999
1094.947	58.14943
1095.296	106.24973
1095.645	52.12943
1095.994	55.12612
1096.343	96.23082
1096.692	62.15951
1097.041	41.1093
1097.39	26.06242
1097.739	54.13484
1098.088	15.03869
1098.437	56.14397
1098.785	76.19512
1099.134	3.0076
1099.482	42.11235
1099.83	60.15172
1100.179	79.20165
1100.527	-9.02301
1100.875	41.10561
1101.223	59.15208
1101.571	19.05087
1101.919	45.11624
1102.267	36.09946
1102.615	-1.00321
1102.962	1.00321
1103.31	0
1103.658	-2.00641
