Data from N3 R2 sample 10_Subt2__2__10-19-01-378.txt Node

Date: Thu Sep 18 10:19:01 PDT 2025
User: uwsun
Spectrometer: HDX01956
Trigger mode: 0
Integration Time (sec): 5.000000E-1
Scans to average: 1
Nonlinearity correction enabled: true
Boxcar width: 0
Storing dark spectrum: false
XAxis mode: Wavelengths
Number of Pixels in Spectrum: 2068
>>>>>Begin Spectral Data<<<<<
194.03	98.28043
194.578	103.33088
195.127	97.30738
195.676	87.27703
196.225	123.32177
196.773	146.39875
197.321	212.57397
197.87	276.68887
198.418	313.7819
198.966	306.78329
199.513	331.81337
200.061	290.71751
200.609	269.69379
201.156	302.63961
201.704	243.60047
202.251	315.81239
202.798	304.76533
203.345	318.76277
203.892	301.73939
204.438	300.6902
204.985	315.72427
205.532	262.67445
206.078	277.65951
206.624	356.86005
207.17	337.76182
207.716	309.73568
208.262	281.54082
208.808	361.87262
209.354	339.80957
209.899	319.77722
210.445	309.75062
210.99	316.74758
211.535	347.78698
212.08	317.71136
212.625	293.71176
213.17	357.87562
213.715	301.66769
214.259	342.76856
214.804	284.6776
215.348	298.66914
215.892	306.72113
216.436	282.62542
216.98	282.60091
217.524	308.71398
218.068	322.78643
218.612	361.88247
219.155	315.71993
219.698	300.69158
220.242	259.62375
220.785	282.64413
221.328	267.64277
221.871	355.86878
222.414	265.6382
222.956	225.52769
223.499	280.60416
224.041	227.50753
224.583	286.58107
225.126	256.54574
225.668	265.6261
226.21	330.80417
226.751	324.6925
227.293	256.56256
227.835	285.67699
228.376	240.53183
228.918	281.67775
229.459	255.62016
230	311.71993
230.541	234.52545
231.082	295.69453
231.622	247.54335
232.163	262.61385
232.704	315.76031
233.244	278.66887
233.784	268.62987
234.324	341.73372
234.864	228.50314
235.404	295.66934
235.944	260.59436
236.484	319.76618
237.023	284.64687
237.563	308.68932
238.102	296.67529
238.641	293.71149
239.18	259.59124
239.719	285.69077
240.258	296.64032
240.797	314.72154
241.335	269.63432
241.874	333.61746
242.412	320.74825
242.95	277.64962
243.488	194.42829
244.026	342.76099
244.564	307.60594
245.102	328.71257
245.64	283.65305
246.177	305.65062
246.715	313.7237
247.252	295.64457
247.789	308.54478
248.326	306.71131
248.863	263.56201
249.4	278.60961
249.936	394.77748
250.473	322.73192
251.009	249.55488
251.546	339.72408
252.082	302.62618
252.618	334.71449
253.154	288.6708
253.69	300.64759
254.226	389.88329
254.761	308.66457
255.297	296.62224
255.832	267.61711
256.367	316.71363
256.903	345.73243
257.438	298.67354
257.972	326.69496
258.507	267.594
259.042	328.68251
259.576	353.74516
260.111	304.67168
260.645	323.66777
261.179	310.69951
261.713	330.70776
262.247	317.69439
262.781	380.7569
263.315	277.65089
263.849	279.67801
264.382	327.71962
264.915	346.7836
265.449	260.61773
265.982	335.72793
266.515	329.77547
267.048	368.73914
267.58	275.57338
268.113	302.62841
268.646	264.62772
269.178	273.59095
269.71	346.73086
270.243	382.84046
270.775	395.96448
271.307	283.65071
271.838	351.79088
272.37	327.76956
272.902	328.71136
273.433	405.84666
273.965	353.8194
274.496	315.75169
275.027	319.76531
275.558	378.87863
276.089	315.75945
276.62	319.77403
277.15	326.77004
277.681	309.63825
278.211	361.83963
278.741	329.70059
279.272	324.71227
279.802	299.7187
280.332	344.7778
280.861	310.71377
281.391	348.75537
281.921	307.70701
282.45	321.76571
282.98	352.87977
283.509	421.90193
284.038	362.78977
284.567	378.83689
285.096	370.85631
285.625	273.5955
286.153	376.85637
286.682	350.76909
287.21	324.74094
287.739	331.7507
288.267	380.88154
288.795	326.8204
289.323	332.74915
289.851	388.86726
290.378	309.66287
290.906	384.89504
291.433	360.85855
291.961	392.84942
292.488	297.71281
293.015	362.81683
293.542	420.02229
294.069	371.87885
294.596	368.85776
295.122	414.93985
295.649	397.82001
296.175	341.78686
296.702	423.97835
297.228	386.88304
297.754	392.83564
298.28	428.9282
298.806	406.92729
299.332	393.83432
299.857	437.93337
300.383	369.88691
300.908	444.02702
301.433	460.05736
301.958	375.8183
302.483	338.80517
303.008	431.01167
303.533	368.90843
304.058	365.81165
304.582	385.86605
305.107	354.88477
305.631	419.89571
306.155	391.86585
306.679	422.93818
307.203	423.92732
307.727	373.84388
308.251	379.89294
308.775	464.05892
309.298	429.97764
309.822	388.9292
310.345	480.07126
310.868	425.97009
311.391	457.05652
311.914	443.04595
312.437	486.03318
312.96	430.95675
313.482	448.98935
314.005	418.9888
314.527	431.05906
315.049	499.17886
315.571	497.03848
316.093	483.1185
316.615	454.02189
317.137	463.94346
317.659	485.09647
318.18	471.04876
318.702	502.09365
319.223	480.90719
319.744	462.975
320.265	486.10699
320.786	554.27937
321.307	538.22956
321.828	545.1299
322.348	528.14941
322.869	542.19291
323.389	855.41041
323.909	570.19103
324.43	518.14764
324.95	543.1448
325.47	615.3925
325.989	580.26118
326.509	595.2134
327.029	586.22289
327.548	605.24556
328.067	577.2873
328.587	675.52972
329.106	606.23895
329.625	629.49551
330.144	623.31546
330.662	627.33722
331.181	651.38847
331.7	654.36923
332.218	675.30698
332.736	685.43769
333.255	671.42251
333.773	665.41407
334.291	714.60211
334.808	738.46971
335.326	705.40813
335.844	709.49073
336.361	778.78141
336.879	738.54326
337.396	770.66062
337.913	761.55104
338.43	766.51777
338.947	736.56486
339.464	798.49442
339.981	741.56014
340.497	820.76625
341.014	773.66673
341.53	796.56701
342.046	841.83972
342.562	843.83558
343.078	879.78209
343.594	854.76009
344.11	843.75799
344.626	851.8788
345.141	882.73166
345.657	882.71053
346.172	916.89557
346.687	888.74592
347.202	942.82272
347.717	884.8179
348.232	934.99558
348.747	959.87112
349.261	960.76839
349.776	1003.00171
350.29	1012.14015
350.805	1016.11129
351.319	1002.94821
351.833	1023.96039
352.347	1044.04771
352.861	1029.01113
353.374	1035.94631
353.888	1045.13468
354.401	1065.99109
354.915	1060.9715
355.428	1066.21533
355.941	1095.08712
356.454	1043.90869
356.967	1041.01167
357.48	1059.97304
357.993	1115.25434
358.505	1135.25315
359.018	1169.32613
359.53	1136.26922
360.042	1208.14001
360.554	1210.384
361.066	1188.33186
361.578	1195.09125
362.09	1195.28151
362.602	1239.16746
363.113	1176.22951
363.625	1240.21618
364.136	1249.13724
364.647	1249.34712
365.158	1302.35953
365.669	1273.39585
366.18	1259.33601
366.691	1274.1588
367.201	1276.41027
367.712	1345.3648
368.222	1317.34896
368.733	1339.21187
369.243	1379.33462
369.753	1404.44924
370.263	1405.59884
370.773	1378.58586
371.282	1380.53292
371.792	1501.57376
372.301	1502.70848
372.811	1539.05669
373.32	1567.4195
373.829	1540.66686
374.338	1698.6112
374.847	1650.70372
375.356	1642.76894
375.865	1822.57865
376.373	1896.84422
376.882	1919.31436
377.39	1951.12399
377.898	2022.25814
378.407	2144.98294
378.915	2146.82773
379.423	2233.12805
379.93	2445.21146
380.438	2404.35921
380.946	2559.2457
381.453	2660.43513
381.96	2905.44302
382.468	3053.35262
382.975	3187.60142
383.482	3266.0364
383.989	3307.91884
384.495	3462.2442
385.002	3702.52805
385.509	3823.27588
386.015	4116.18413
386.521	4233.76295
387.028	4447.63324
387.534	4569.17609
388.04	4691.90836
388.546	4868.2014
389.051	5224.97986
389.557	5576.11658
390.063	5783.8494
390.568	6002.16865
391.073	6172.59744
391.578	6518.09932
392.084	6753.63212
392.589	7084.41322
393.093	7709.10093
393.598	8296.42147
394.103	9045.57072
394.607	9846.33527
395.112	10323.69406
395.616	11231.12999
396.12	11993.26998
396.624	13376.92102
397.128	14472.45456
397.632	15927.96991
398.136	17115.83022
398.639	18685.10223
399.143	21610.49991
399.646	23843.18779
400.15	26141.76863
400.653	29577.48625
401.156	33983.20514
401.659	38980.69048
402.162	49078.45088
402.664	60369.09126
403.167	63977.72923
403.67	63769.22307
404.172	63919.58413
404.674	63858.43483
405.176	63738.15102
405.678	63977.72923
406.18	64011.81569
406.682	63863.44694
407.184	63926.60148
407.686	63841.39382
408.187	64025.8516
408.688	63892.51763
409.19	63833.37461
409.691	63977.72923
410.192	61901.25672
410.693	54679.78499
411.194	51067.62564
411.694	48821.46497
412.195	44288.16565
412.696	40694.30597
413.196	39525.43728
413.696	39831.25638
414.196	39936.38655
414.696	38284.76387
415.196	35959.95477
415.696	30006.50747
416.196	22840.02721
416.695	18750.9534
417.195	17600.74238
417.694	16897.30173
418.194	15581.29043
418.693	14885.02434
419.192	14307.33764
419.691	14331.76253
420.19	13866.41794
420.688	13369.39463
421.187	12635.21161
421.685	11720.69005
422.184	10331.79334
422.682	8663.79577
423.18	7822.993
423.678	7075.65157
424.176	6599.6314
424.674	6229.55117
425.172	5861.02014
425.669	5471.51418
426.167	5081.32986
426.664	4625.43376
427.161	4251.72516
427.659	4015.21704
428.156	3822.45968
428.652	3603.64686
429.149	3422.42117
429.646	3178.94318
430.143	3143.37985
430.639	2910.31649
431.135	2790.62798
431.632	2544.07887
432.128	2454.30884
432.624	2468.71272
433.12	2330.01006
433.616	2317.82437
434.111	2174.1295
434.607	2188.17308
435.103	2112.56077
435.598	2018.49988
436.093	1922.88725
436.588	1825.6868
437.083	1691.57091
437.578	1661.66295
438.073	1570.8602
438.568	1564.78954
439.062	1566.3166
439.557	1443.47766
440.051	1338.24478
440.546	1394.33552
441.04	1292.38385
441.534	1310.5526
442.028	1323.43096
442.522	1267.34858
443.015	1264.03403
443.509	1218.32051
444.002	1215.33316
444.496	1218.01252
444.989	1190.27358
445.482	1186.32466
445.975	1198.15397
446.468	1182.96888
446.961	1074.84803
447.454	1105.95863
447.947	1112.12113
448.439	1062.11725
448.931	1070.96852
449.424	1068.22145
449.916	1064.1056
450.408	1028.90053
450.9	1015.01917
451.392	1026.14624
451.884	955.80615
452.375	929.92719
452.867	981.79498
453.358	940.7773
453.849	949.65098
454.341	912.70664
454.832	965.69127
455.323	988.03577
455.814	907.72357
456.304	908.74848
456.795	921.74089
457.285	884.61511
457.776	913.72406
458.266	840.69093
458.756	828.6614
459.247	864.74488
459.737	796.65439
460.226	867.65622
460.716	835.69587
461.206	774.59435
461.695	755.61955
462.185	755.54855
462.674	720.4265
463.163	780.49229
463.653	746.35632
464.142	730.53998
464.63	675.43971
465.119	699.41743
465.608	753.52151
466.096	697.30848
466.585	704.3967
467.073	688.41955
467.561	660.39581
468.05	663.33882
468.538	652.40893
469.026	619.30357
469.513	643.18439
470.001	656.32375
470.489	613.29658
470.976	674.38067
471.463	579.29656
471.951	649.42903
472.438	536.1367
472.925	558.18137
473.412	534.17282
473.899	540.11528
474.385	567.24932
474.872	552.15744
475.359	573.2673
475.845	546.00815
476.331	510.97995
476.817	538.18459
477.303	524.10154
477.789	474.03298
478.275	473.07754
478.761	483.04706
479.247	465.94883
479.732	495.12956
480.218	503.20847
480.703	430.98209
481.188	520.01334
481.673	440.93265
482.158	429.8543
482.643	429.01675
483.128	530.11711
483.612	465.01697
484.097	423.94567
484.581	439.93683
485.066	412.93948
485.55	420.85876
486.034	398.8005
486.518	445.98417
487.002	350.80103
487.486	360.82093
487.969	339.77726
488.453	317.74806
488.936	344.72823
489.42	352.73049
489.903	339.79655
490.386	288.5651
490.869	367.75193
491.352	325.73949
491.835	328.63052
492.318	342.72273
492.8	389.74689
493.283	337.81401
493.765	272.63803
494.247	349.76383
494.73	312.65356
495.212	323.72393
495.694	340.75591
496.175	310.7075
496.657	367.81474
497.139	338.53858
497.62	311.71022
498.102	318.75144
498.583	223.52872
499.064	263.56103
499.545	305.65937
500.026	324.6928
500.507	309.6743
500.988	323.76576
501.469	238.57134
501.949	305.71612
502.43	289.6645
502.91	346.68886
503.39	236.56374
503.87	295.66418
504.35	197.44718
504.83	262.54786
505.31	259.59862
505.79	216.49359
506.269	240.52962
506.749	237.52114
507.228	299.6696
507.707	314.66327
508.187	318.72049
508.666	252.60057
509.145	229.51665
509.623	286.63851
510.102	249.57917
510.581	257.59542
511.059	245.59429
511.538	261.6466
512.016	254.58485
512.494	253.58406
512.972	261.59965
513.45	255.57107
513.928	239.5603
514.406	291.68139
514.884	276.68263
515.361	255.58633
515.839	323.70425
516.316	296.68617
516.793	274.66299
517.27	292.66965
517.747	304.74442
518.224	253.55959
518.701	248.52616
519.178	295.70505
519.654	256.58216
520.131	264.62796
520.607	231.54493
521.083	240.52319
521.56	231.52542
522.036	211.44444
522.512	294.69312
522.987	301.69098
523.463	249.56773
523.939	304.71947
524.414	274.59932
524.89	277.63258
525.365	238.51773
525.84	242.56078
526.315	267.62054
526.79	232.50467
527.265	287.63293
527.74	221.51912
528.215	230.51774
528.689	191.40692
529.164	232.47889
529.638	224.54957
530.112	201.45904
530.587	229.47238
531.061	191.45023
531.534	227.52884
532.008	220.51828
532.482	272.59822
532.956	187.46516
533.429	258.60732
533.903	195.41508
534.376	256.54266
534.849	214.4764
535.322	232.52844
535.795	177.41723
536.268	246.57389
536.741	196.4524
537.213	191.42722
537.686	238.56221
538.158	236.51774
538.631	225.52728
539.103	214.46829
539.575	193.38577
540.047	211.44542
540.519	232.53548
540.991	225.53099
541.463	210.49011
541.934	184.4052
542.406	215.50108
542.877	182.40062
543.348	239.55723
543.82	192.45478
544.291	239.53833
544.762	234.53838
545.233	268.65336
545.703	235.50457
546.174	251.56026
546.645	234.54761
547.115	247.5752
547.585	269.59324
548.056	270.63853
548.526	301.68212
548.996	245.56514
549.466	236.55467
549.935	305.69539
550.405	298.62368
550.875	306.69303
551.344	284.64844
551.814	303.66177
552.283	313.64884
552.752	308.68847
553.221	344.7174
553.69	375.79611
554.159	367.86333
554.628	365.77927
555.096	383.9188
555.565	351.73151
556.033	392.87728
556.502	372.84555
556.97	373.77908
557.438	343.76211
557.906	389.8607
558.374	425.91679
558.842	365.82477
559.31	387.81083
559.777	446.01081
560.245	422.89958
560.712	479.00478
561.18	546.08833
561.647	491.99414
562.114	614.25192
562.581	602.33069
563.048	661.33233
563.514	727.60159
563.981	719.43016
564.448	760.475
564.914	850.66562
565.381	912.72931
565.847	930.79433
566.313	973.84921
566.779	1056.89621
567.245	1071.98266
567.711	1147.17071
568.176	1258.13498
568.642	1333.57372
569.108	1396.57258
569.573	1409.38954
570.038	1543.19929
570.504	1689.57084
570.969	1734.9644
571.434	1877.63734
571.899	1913.92523
572.363	2100.89462
572.828	2180.94356
573.293	2228.94877
573.757	2375.06534
574.222	2440.91019
574.686	2619.07714
575.15	2700.34378
575.614	2858.25048
576.078	2832.20944
576.542	2915.04202
577.006	2963.99235
577.469	3066.50137
577.933	3154.02148
578.396	3090.26642
578.86	3275.19759
579.323	3205.36377
579.786	3148.73905
580.249	3262.21263
580.712	3215.41643
581.175	3198.51052
581.637	3136.02667
582.1	3103.76951
582.563	3111.6295
583.025	3039.43455
583.487	2994.49457
583.95	2963.7022
584.412	2951.60263
584.874	2939.44741
585.336	2834.27248
585.797	2798.79562
586.259	2640.17042
586.721	2591.17681
587.182	2616.0854
587.643	2487.9889
588.105	2441.17474
588.566	2368.56544
589.027	2388.35062
589.488	2345.00113
589.949	2261.24703
590.41	2234.33512
590.87	2186.92921
591.331	2240.74291
591.791	2079.92931
592.252	2127.98186
592.712	2071.07705
593.172	2061.84224
593.632	2038.73444
594.092	1918.67677
594.552	1948.5837
595.011	1823.72256
595.471	1896.73371
595.931	1878.70564
596.39	1793.88968
596.849	1779.75558
597.308	1796.43409
597.768	1767.17422
598.227	1792.89046
598.685	1805.69048
599.144	1873.87649
599.603	1816.79827
600.062	1868.43784
600.52	1867.70021
600.978	1843.86094
601.437	1938.76815
601.895	2012.57168
602.353	1946.63342
602.811	2091.81923
603.269	2078.04472
603.727	2065.08069
604.184	2201.91287
604.642	2252.30161
605.099	2330.07993
605.557	2361.29423
606.014	2364.70625
606.471	2495.52392
606.928	2663.9033
607.385	2652.56622
607.842	2783.07347
608.299	2889.1833
608.755	2940.39912
609.212	3053.90694
609.668	3076.96895
610.125	3235.3499
610.581	3430.13057
611.037	3456.83666
611.493	3412.10366
611.949	3562.36146
612.405	3708.19076
612.861	3750.89535
613.316	3823.15199
613.772	3911.80362
614.227	3907.14439
614.683	4034.25069
615.138	3943.9483
615.593	4074.81547
616.048	4136.68672
616.503	4048.15074
616.958	4196.32825
617.412	4210.91261
617.867	4233.48864
618.321	4196.00312
618.776	4137.43049
619.23	4121.85257
619.684	4102.52813
620.138	4105.69359
620.592	3958.17764
621.046	4047.94995
621.5	3962.11598
621.954	3974.528
622.407	3913.55682
622.861	3944.18627
623.314	3801.75528
623.768	3818.03952
624.221	3656.00747
624.674	3660.9453
625.127	3616.00127
625.58	3588.78226
626.033	3552.63138
626.485	3460.23671
626.938	3520.19167
627.39	3455.08729
627.843	3394.00948
628.295	3404.00688
628.747	3321.24592
629.199	3314.94965
629.651	3237.00941
630.103	3285.00207
630.555	3230.52121
631.006	3265.08726
631.458	3290.15897
631.909	3328.83995
632.361	3359.01567
632.812	3394.03018
633.263	3386.63968
633.714	3405.48876
634.165	3470.23955
634.616	3429.15447
635.067	3480.69014
635.518	3674.1007
635.968	3706.95622
636.419	3780.52608
636.869	3799.04691
637.319	3941.84856
637.769	4003.60699
638.219	4145.86668
638.669	4210.88949
639.119	4354.86304
639.569	4487.81331
640.019	4639.45475
640.468	4788.16153
640.918	4869.51176
641.367	5083.98371
641.816	5268.83618
642.265	5455.07453
642.714	5499.92677
643.163	5771.85741
643.612	5975.19438
644.061	6129.25493
644.51	6233.63719
644.958	6519.36291
645.406	6531.8356
645.855	6633.92206
646.303	6870.60221
646.751	7160.65046
647.199	7262.57223
647.647	7453.7597
648.095	7391.6464
648.543	7485.26118
648.99	7581.98262
649.438	7598.80676
649.885	7768.26662
650.333	7849.47968
650.78	7825.14163
651.227	7934.27242
651.674	7820.8966
652.121	7807.20463
652.568	7889.24768
653.015	7852.26897
653.461	7716.99878
653.908	7699.83457
654.354	7611.94835
654.801	7446.80152
655.247	7436.44807
655.693	7284.38018
656.139	7187.81602
656.585	7110.80794
657.031	7101.71936
657.477	6996.32978
657.922	6808.50226
658.368	6738.98556
658.813	6626.50625
659.259	6603.91648
659.704	6554.77762
660.149	6336.63698
660.594	6275.8437
661.039	6218.59491
661.484	6084.88931
661.929	6010.82344
662.373	5914.39439
662.818	5759.34844
663.262	5743.18572
663.707	5707.60972
664.151	5571.32969
664.595	5510.30212
665.039	5425.54814
665.483	5404.76854
665.927	5346.15777
666.371	5428.1404
666.814	5338.25232
667.258	5272.40351
667.701	5207.5935
668.145	5217.68479
668.588	5154.68668
669.031	5092.31489
669.474	5118.44778
669.917	5140.79695
670.36	5063.7965
670.803	5075.52875
671.245	4823.5525
671.688	4988.62914
672.13	4954.1157
672.573	4872.99726
673.015	4819.65601
673.457	4856.91019
673.899	4725.72989
674.341	4802.65368
674.783	4742.64882
675.225	4770.84314
675.666	4749.81256
676.108	4670.96886
676.549	4716.44612
676.991	4613.09835
677.432	4596.509
677.873	4584.37648
678.314	4477.73636
678.755	4467.0209
679.196	4370.503
679.637	4155.93937
680.078	4217.73391
680.518	4150.64321
680.959	4005.96894
681.399	3958.28108
681.839	3856.17306
682.28	3830.36418
682.72	3858.75269
683.16	3758.41719
683.6	3689.78702
684.039	3577.25094
684.479	3512.40947
684.919	3478.08365
685.358	3465.47148
685.798	3320.82937
686.237	3369.19199
686.676	3196.89285
687.115	3201.14633
687.554	3095.2586
687.993	3142.77411
688.432	3085.96291
688.871	2992.00445
689.309	2948.27651
689.748	2912.48392
690.186	2909.11739
690.625	2842.14714
691.063	2789.23191
691.501	2746.44536
691.939	2837.57672
692.377	2711.31614
692.815	2728.37579
693.253	2625.19206
693.69	2577.74618
694.128	2460.26453
694.565	2479.13343
695.003	2469.56294
695.44	2459.13002
695.877	2362.06508
696.314	2324.52667
696.751	2282.84876
697.188	2310.97178
697.625	2313.7958
698.061	2261.10956
698.498	2137.98505
698.934	2142.04119
699.371	2065.9308
699.807	2049.93271
700.243	2039.02859
700.679	1939.62458
701.115	2005.85261
701.551	1888.76192
701.987	1867.50222
702.422	1897.88693
702.858	1798.81024
703.294	1871.70115
703.729	1774.86748
704.164	1742.76373
704.599	1731.50347
705.035	1656.46323
705.47	1578.68022
705.904	1655.57464
706.339	1613.50716
706.774	1565.53581
707.209	1524.47776
707.643	1510.55714
708.078	1521.62618
708.512	1432.63786
708.946	1436.44277
709.38	1430.44937
709.814	1345.2048
710.248	1342.44455
710.682	1355.40221
711.116	1365.45983
711.549	1224.42173
711.983	1183.0788
712.416	1309.30957
712.85	1223.32614
713.283	1205.16495
713.716	1174.26016
714.149	1104.98364
714.582	1114.92422
715.015	1078.09374
715.448	1158.28667
715.881	1042.72815
716.313	1040.9199
716.746	1032.94208
717.178	988.9155
717.61	995.06256
718.043	917.86427
718.475	1001.95594
718.907	943.93107
719.339	900.65847
719.77	856.70344
720.202	866.81038
720.634	827.70554
721.065	839.64056
721.497	811.67102
721.928	756.57258
722.359	793.6317
722.79	799.60794
723.221	727.54873
723.652	718.57482
724.083	666.28307
724.514	715.39644
724.945	699.4
725.375	678.36383
725.806	649.39317
726.236	654.46259
726.666	648.32255
727.096	628.34254
727.526	641.45319
727.956	647.27658
728.386	573.24198
728.816	589.33898
729.246	628.35875
729.675	519.13098
730.105	538.17072
730.534	554.1381
730.964	505.13063
731.393	550.19535
731.822	517.1879
732.251	504.15175
732.68	447.93363
733.109	498.10417
733.537	511.12058
733.966	532.18849
734.395	503.03617
734.823	435.86585
735.251	467.01059
735.68	442.99037
736.108	408.93448
736.536	429.91073
736.964	425.89319
737.392	458.03638
737.82	383.83824
738.247	396.86247
738.675	396.84893
739.102	392.89893
739.53	400.94916
739.957	412.98177
740.384	395.8696
740.811	357.82082
741.238	408.91721
741.665	392.84471
742.092	302.64464
742.519	360.82788
742.945	344.77622
743.372	334.7727
743.798	334.79626
744.225	345.75317
744.651	324.75463
745.077	320.74355
745.503	300.67529
745.929	379.84522
746.355	325.7335
746.781	313.71593
747.207	301.66797
747.632	337.77918
748.058	345.80875
748.483	345.73051
748.908	334.77393
749.334	312.71838
749.759	358.78766
750.184	309.69541
750.609	311.70964
751.033	320.69076
751.458	292.60409
751.883	272.62804
752.307	285.62694
752.732	308.73879
753.156	274.63316
753.58	283.62254
754.005	258.60968
754.429	313.69113
754.853	313.72801
755.277	312.68964
755.7	303.70253
756.124	285.66473
756.548	275.60774
756.971	321.72773
757.394	247.59666
757.818	317.76456
758.241	273.65348
758.664	267.63497
759.087	255.54019
759.51	226.52744
759.933	283.64185
760.356	286.69463
760.778	260.60129
761.201	271.61289
761.623	231.51775
762.046	227.49936
762.468	300.66755
762.89	241.5537
763.312	243.56187
763.734	260.58934
764.156	283.65461
764.578	201.43306
765	285.64928
765.421	207.50401
765.843	264.65152
766.264	182.40953
766.686	209.49151
767.107	198.4561
767.528	261.63356
767.949	199.48072
768.37	281.65359
768.791	220.49766
769.212	205.49241
769.632	226.5004
770.053	212.52666
770.473	156.3595
770.894	208.4841
771.314	193.43099
771.734	219.48115
772.154	198.48038
772.575	225.48705
772.994	146.31571
773.414	191.43004
773.834	181.42931
774.254	175.40674
774.673	215.49872
775.093	230.54184
775.512	134.31863
775.931	177.42903
776.351	163.3896
776.77	165.38789
777.189	175.39579
777.607	161.39377
778.026	195.4618
778.445	206.49754
778.864	122.29745
779.282	141.32124
779.701	166.3976
780.119	190.4589
780.537	110.26398
780.955	168.40485
781.373	147.34746
781.791	134.29199
782.209	172.36684
782.627	135.34252
783.045	123.26751
783.462	110.27119
783.88	158.39238
784.297	118.28608
784.715	128.31823
785.132	141.32422
785.549	132.31641
785.966	144.34715
786.383	113.26937
786.8	162.35705
787.217	159.36298
787.633	139.33642
788.05	149.32916
788.466	115.25607
788.883	160.39401
789.299	120.2729
789.715	152.35419
790.131	154.36563
790.547	154.36605
790.963	149.35232
791.379	107.26092
791.795	127.27304
792.21	144.31804
792.626	83.18811
793.041	122.28798
793.457	100.23614
793.872	117.26063
794.287	161.37184
794.702	115.26687
795.117	77.18616
795.532	106.25815
795.947	121.274
796.362	103.23039
796.776	149.32378
797.191	133.31193
797.605	145.32875
798.02	101.23577
798.434	147.30977
798.848	136.32501
799.262	104.24816
799.676	131.30508
800.09	100.23623
800.504	75.1746
800.918	100.21948
801.331	19.04749
801.745	57.1256
802.158	77.18398
802.572	131.30291
802.985	89.20449
803.398	119.26991
803.811	61.14848
804.224	98.23088
804.637	60.13882
805.05	61.1351
805.462	110.25703
805.875	99.24824
806.288	91.2126
806.7	62.14902
807.112	86.18923
807.525	35.08241
807.937	95.22638
808.349	36.08692
808.761	113.2672
809.173	112.26088
809.584	109.25615
809.996	60.14174
810.408	96.24163
810.819	87.19669
811.231	127.32656
811.642	187.43977
812.053	132.30759
812.464	52.11898
812.875	76.18861
813.286	128.31846
813.697	73.15931
814.108	98.228
814.519	119.25441
814.929	93.22712
815.34	73.1684
815.75	102.25128
816.16	33.0787
816.571	67.16758
816.981	72.16109
817.391	40.09248
817.801	50.12077
818.211	84.19134
818.62	111.25667
819.03	107.24978
819.44	70.17321
819.849	32.07735
820.259	63.15386
820.668	60.14311
821.077	100.24053
821.486	115.25999
821.895	56.13132
822.304	86.21909
822.713	55.12465
823.122	55.13222
823.531	24.05425
823.939	88.2066
824.348	65.15096
824.756	109.25924
825.164	89.21363
825.573	45.10937
825.981	64.15183
826.389	93.2234
826.797	137.33271
827.205	98.21627
827.612	70.16504
828.02	30.06773
828.428	68.16666
828.835	80.2046
829.243	84.18995
829.65	56.13557
830.057	34.07935
830.464	113.26606
830.871	97.22278
831.278	55.12814
831.685	116.24364
832.092	58.13521
832.499	128.26564
832.905	76.18357
833.312	57.12207
833.718	80.19286
834.124	91.19876
834.531	89.21265
834.937	70.17372
835.343	89.20326
835.749	39.08634
836.155	55.1393
836.561	62.14698
836.966	87.20261
837.372	47.11496
837.777	65.15649
838.183	63.13305
838.588	99.23672
838.993	104.24158
839.399	58.13723
839.804	24.05683
840.209	69.17139
840.613	100.2105
841.018	53.12871
841.423	61.15108
841.828	51.12525
842.232	80.18627
842.637	125.28283
843.041	40.09985
843.445	46.11048
843.849	68.16257
844.253	85.19217
844.657	66.16116
845.061	155.33668
845.465	91.21009
845.869	94.20787
846.272	73.17155
846.676	59.13442
847.079	57.14107
847.483	54.12934
847.886	98.22494
848.289	87.22666
848.692	55.13327
849.095	52.1195
849.498	102.24292
849.901	72.15616
850.304	83.18918
850.707	63.15403
851.109	93.22374
851.512	109.25595
851.914	40.09829
852.316	99.24241
852.718	84.21422
853.121	54.12747
853.523	19.04259
853.925	68.17299
854.326	27.06589
854.728	49.12225
855.13	43.10852
855.531	49.11299
855.933	61.13892
856.334	53.12852
856.736	92.19792
857.137	78.17494
857.538	78.18975
857.939	80.19242
858.34	68.15702
858.741	46.11586
859.142	2.00463
859.542	49.12609
859.943	53.12673
860.343	48.1155
860.744	102.23694
861.144	93.21872
861.544	48.11278
861.945	55.13492
862.345	83.19299
862.745	71.17074
863.145	48.10797
863.544	77.18742
863.944	66.14918
864.344	34.08041
864.743	106.25002
865.143	82.20417
865.542	22.04853
865.941	80.19045
866.34	69.15593
866.74	65.16871
867.139	106.24506
867.537	14.03422
867.936	90.20766
868.335	27.06636
868.734	57.14071
869.132	75.16395
869.531	46.10559
869.929	74.1618
870.327	34.07857
870.726	52.12337
871.124	74.16358
871.522	27.06636
871.92	63.1492
872.318	67.15573
872.715	29.06823
873.113	27.06315
873.511	92.21809
873.908	72.17777
874.306	69.16625
874.703	74.17556
875.1	9.02202
875.497	59.13502
875.894	67.1607
876.291	72.16969
876.688	69.17146
877.085	28.0643
877.482	89.21281
877.878	102.23712
878.275	65.15928
878.671	27.0558
879.068	80.18429
879.464	55.12753
879.86	71.16045
880.256	58.13505
880.652	41.10065
881.048	29.0686
881.444	29.06546
881.84	77.18735
882.236	47.11371
882.631	107.25135
883.027	63.14545
883.422	65.15868
883.817	65.15833
884.213	29.07209
884.608	102.24404
885.003	-7.01624
885.398	56.135
885.793	31.07483
886.188	-6.01448
886.582	51.12479
886.977	91.20389
887.371	71.17094
887.766	51.12293
888.16	55.1295
888.554	70.16447
888.949	117.27901
889.343	51.11896
889.737	24.0628
890.131	68.16375
890.525	105.25824
890.918	70.16882
891.312	84.18933
891.706	19.04828
892.099	62.15111
892.492	107.21566
892.886	51.11957
893.279	54.1321
893.672	77.18945
894.065	67.16119
894.458	41.09834
894.851	61.14217
895.244	18.04454
895.637	111.25463
896.029	88.20676
896.422	37.0859
896.814	59.14032
897.206	76.17549
897.599	95.2236
897.991	70.16312
898.383	66.14949
898.775	87.1889
899.167	68.15402
899.559	43.10392
899.951	79.17562
900.342	39.09471
900.734	74.18056
901.125	4.01014
901.517	47.11122
901.908	67.15104
902.299	55.1296
902.69	94.21299
903.082	103.23703
903.473	81.18834
903.863	8.01969
904.254	93.20777
904.645	29.06865
905.036	94.22163
905.426	74.15851
905.817	29.06815
906.207	-17.0389
906.597	97.21787
906.987	32.0795
907.378	76.18537
907.768	58.14849
908.158	57.13296
908.547	66.16654
908.937	-4.00985
909.327	41.09552
909.717	33.07948
910.106	46.10554
910.495	43.10207
910.885	34.08342
911.274	31.07466
911.663	31.07526
912.052	30.07049
912.441	68.16746
912.83	83.17952
913.219	48.12073
913.608	87.20421
913.997	82.19881
914.385	80.18223
914.774	33.07722
915.162	96.22026
915.55	63.14464
915.939	55.13472
916.327	57.13541
916.715	63.15695
917.103	62.14345
917.491	134.31213
917.878	50.11775
918.266	35.08735
918.654	89.21946
919.041	48.12272
919.429	67.15098
919.816	68.16511
920.203	83.19413
920.591	58.1384
920.978	58.13617
921.365	87.21988
921.752	43.09674
922.139	57.11784
922.525	58.13409
922.912	54.12578
923.299	47.1126
923.685	39.09737
924.072	62.13269
924.458	15.03616
924.844	37.0883
925.231	15.03332
925.617	76.18758
926.003	45.11047
926.389	34.08274
926.774	34.08283
927.16	70.16607
927.546	68.16968
927.931	63.14966
928.317	105.22671
928.702	98.21871
929.088	60.13915
929.473	90.2209
929.858	67.15819
930.243	80.18532
930.628	69.16253
931.013	45.10752
931.398	99.21128
931.783	56.14044
932.167	85.2006
932.552	51.12242
932.937	69.16284
933.321	82.19866
933.705	20.04818
934.09	22.05256
934.474	84.1877
934.858	83.20692
935.242	61.13448
935.626	22.05486
936.009	45.11704
936.393	87.215
936.777	39.09709
937.16	90.22628
937.544	69.15224
937.927	84.20526
938.311	97.22332
938.694	108.27387
939.077	76.17354
939.46	20.04627
939.843	-6.01173
940.226	1.00248
940.609	95.20952
940.991	26.06356
941.374	45.10649
941.757	74.17373
942.139	37.07999
942.522	112.2484
942.904	56.129
943.286	55.13382
943.668	90.22579
944.05	58.13718
944.432	59.13897
944.814	58.13542
945.196	58.1368
945.578	68.1574
945.959	26.05793
946.341	76.17438
946.722	52.116
947.104	74.16883
947.485	35.07822
947.866	68.16585
948.247	93.22645
948.628	22.05066
949.009	7.01741
949.39	57.13515
949.771	49.10616
950.152	67.15763
950.532	100.24144
950.913	68.1564
951.293	55.14501
951.674	47.10911
952.054	72.17436
952.434	63.15024
952.814	14.03172
953.194	5.01254
953.574	48.11291
953.954	35.0789
954.334	84.20205
954.714	30.07087
955.093	88.20603
955.473	61.1482
955.853	44.10999
956.232	48.12713
956.611	47.10647
956.99	88.21223
957.37	39.09514
957.749	7.01585
958.128	38.09296
958.506	35.08798
958.885	45.10888
959.264	87.20628
959.643	136.29258
960.021	101.24012
960.4	54.11657
960.778	54.12544
961.156	32.07703
961.535	62.13625
961.913	94.20996
962.291	51.12784
962.669	45.11047
963.047	78.19187
963.424	84.20823
963.802	44.10431
964.18	36.08623
964.557	89.19307
964.935	92.20659
965.312	78.19618
965.69	75.17769
966.067	59.13578
966.444	16.0373
966.821	48.11943
967.198	38.0874
967.575	72.16778
967.952	81.18081
968.329	109.25335
968.705	146.29379
969.082	77.19224
969.458	65.15144
969.835	74.1719
970.211	99.24546
970.587	105.24915
970.963	33.08095
971.339	57.14416
971.715	74.17718
972.091	45.10633
972.467	40.09446
972.843	92.22053
973.219	32.07301
973.594	44.11118
973.97	8.01785
974.345	62.1426
974.721	59.13437
975.096	89.20686
975.471	125.2781
975.846	43.09828
976.221	39.09567
976.596	74.17244
976.971	82.19476
977.346	52.11456
977.72	41.10009
978.095	8.02005
978.469	25.05712
978.844	105.24925
979.218	13.03061
979.593	76.17249
979.967	20.04602
980.341	83.18236
980.715	76.18377
981.089	69.16518
981.463	64.13999
981.837	59.14
982.21	16.03476
982.584	60.13938
982.957	59.14237
983.331	56.12436
983.704	88.20893
984.078	48.11335
984.451	9.02127
984.824	14.03319
985.197	56.12797
985.57	6.01432
985.943	24.05599
986.316	48.11106
986.688	51.11751
987.061	100.22281
987.434	94.23769
987.806	23.05287
988.179	63.14115
988.551	58.14051
988.923	35.08238
989.295	51.12158
989.667	59.13713
990.039	91.21826
990.411	1.00218
990.783	47.10179
991.155	40.09281
991.527	57.13149
991.898	72.17259
992.27	99.23555
992.641	50.11958
993.012	6.01323
993.384	34.07742
993.755	97.23742
994.126	88.20328
994.497	13.03085
994.868	53.11458
995.239	68.15677
995.61	42.10187
995.98	20.04675
996.351	26.06261
996.722	81.18081
997.092	57.12981
997.462	25.05694
997.833	68.15201
998.203	13.02991
998.573	49.11775
998.943	89.19924
999.313	69.15885
999.683	58.13366
1000.053	-4.00866
1000.423	17.0395
1000.792	-3.00747
1001.162	10.02361
1001.531	73.17228
1001.901	35.0835
1002.27	44.09164
1002.639	36.08794
1003.009	-9.02066
1003.378	36.08898
1003.747	62.13866
1004.116	49.112
1004.485	18.0414
1004.853	-14.03397
1005.222	-8.0192
1005.591	110.24569
1005.959	35.07586
1006.328	66.1418
1006.696	5.01159
1007.064	26.06242
1007.433	61.14469
1007.801	6.01397
1008.169	8.01933
1008.537	108.22434
1008.905	58.12998
1009.273	43.10109
1009.64	69.1593
1010.008	65.14737
1010.375	69.15657
1010.743	62.13149
1011.11	104.23795
1011.478	87.20676
1011.845	46.10275
1012.212	100.21643
1012.579	102.23815
1012.946	63.14109
1013.313	53.11929
1013.68	103.21648
1014.047	19.04357
1014.414	97.21643
1014.78	44.10555
1015.147	22.0505
1015.513	49.11304
1015.88	58.14115
1016.246	4.00941
1016.612	98.20956
1016.978	56.13234
1017.344	51.12116
1017.71	108.2473
1018.076	53.11787
1018.442	58.14383
1018.808	116.27785
1019.174	40.09585
1019.539	50.10455
1019.905	35.07964
1020.27	47.11101
1020.636	65.14629
1021.001	90.20525
1021.366	63.14521
1021.731	79.19738
1022.096	10.02468
1022.461	63.14261
1022.826	71.16215
1023.191	41.10388
1023.556	74.16371
1023.92	52.12113
1024.285	34.07873
1024.649	55.12804
1025.014	50.11716
1025.378	57.13843
1025.742	54.12722
1026.107	72.15369
1026.471	89.19513
1026.835	82.19371
1027.199	55.12693
1027.562	62.1355
1027.926	87.20077
1028.29	62.15054
1028.654	121.26003
1029.017	53.12518
1029.381	30.06911
1029.744	61.14936
1030.107	83.18627
1030.471	101.23039
1030.834	0
1031.197	97.221
1031.56	49.10974
1031.923	31.07756
1032.286	79.17598
1032.648	40.09016
1033.011	91.20078
1033.374	67.14789
1033.736	17.04339
1034.099	97.22456
1034.461	50.12245
1034.823	29.06993
1035.185	62.14788
1035.548	88.20466
1035.91	76.1727
1036.272	76.16498
1036.634	75.17467
1036.995	17.03806
1037.357	30.0706
1037.719	68.15808
1038.08	105.23787
1038.442	41.09296
1038.803	34.07688
1039.165	29.07014
1039.526	75.17274
1039.887	61.13903
1040.248	79.18912
1040.609	-1.00236
1040.97	71.16483
1041.331	93.22611
1041.692	40.09119
1042.053	89.18994
1042.413	36.07965
1042.774	69.16044
1043.134	67.14956
1043.495	79.18941
1043.855	127.29402
1044.215	21.04991
1044.576	85.1946
1044.936	61.13199
1045.296	94.22292
1045.656	25.05831
1046.016	78.17782
1046.375	72.16639
1046.735	86.1882
1047.095	55.12282
1047.454	92.18026
1047.814	85.19428
1048.173	25.05641
1048.533	60.13069
1048.892	25.05799
1049.251	63.15001
1049.61	58.1368
1049.969	33.07424
1050.328	85.17345
1050.687	45.1041
1051.046	64.14802
1051.405	22.05217
1051.763	102.22406
1052.122	32.07665
1052.48	58.13649
1052.839	106.23989
1053.197	11.02488
1053.555	53.11208
1053.914	88.20369
1054.272	25.05668
1054.63	63.14759
1054.988	67.15326
1055.345	58.11623
1055.703	92.21041
1056.061	97.24094
1056.419	71.17931
1056.776	-25.05774
1057.134	22.04786
1057.491	68.16288
1057.848	47.11144
1058.206	10.02223
1058.563	61.12696
1058.92	86.18637
1059.277	24.05698
1059.634	45.09949
1059.991	104.23623
1060.348	57.12307
1060.704	106.24496
1061.061	40.08683
1061.418	29.0677
1061.774	40.09482
1062.131	49.12701
1062.487	60.13263
1062.843	51.12176
1063.199	29.06948
1063.555	83.18412
1063.911	14.03392
1064.267	67.12913
1064.623	46.10842
1064.979	-18.03962
1065.335	48.1085
1065.691	24.05431
1066.046	52.10811
1066.402	30.06465
1066.757	73.17622
1067.112	96.22229
1067.468	85.19334
1067.823	31.06986
1068.178	55.12607
1068.533	50.11587
1068.888	77.17366
1069.243	58.13696
1069.598	55.12672
1069.952	80.1747
1070.307	54.1288
1070.662	96.21894
1071.016	49.10625
1071.371	70.15195
1071.725	45.10182
1072.079	61.14032
1072.434	7.01649
1072.788	35.07861
1073.142	99.23129
1073.496	80.17957
1073.85	22.04877
1074.203	69.15974
1074.557	92.23735
1074.911	55.12414
1075.265	54.11942
1075.618	85.19749
1075.971	39.08864
1076.325	72.17659
1076.678	68.14774
1077.031	-42.09008
1077.385	74.15309
1077.738	57.12181
1078.091	47.10296
1078.444	67.1456
1078.796	73.17202
1079.149	117.27602
1079.502	81.18313
1079.855	71.1575
1080.207	57.13369
1080.56	35.08789
1080.912	43.10002
1081.264	118.26933
1081.617	65.15185
1081.969	26.0637
1082.321	37.0863
1082.673	51.1129
1083.025	59.13241
1083.377	33.07418
1083.728	101.22079
1084.08	16.03825
1084.432	31.0714
1084.783	4.00882
1085.135	38.09206
1085.486	88.19168
1085.838	58.13718
1086.189	83.19345
1086.54	63.14255
1086.891	97.23848
1087.242	95.22377
1087.593	87.19757
1087.944	101.21752
1088.295	83.1776
1088.646	104.24378
1088.996	53.12294
1089.347	48.11198
1089.698	46.10529
1090.048	24.05982
1090.398	87.18922
1090.749	83.18642
1091.099	49.11998
1091.449	57.13661
1091.799	28.06748
1092.149	53.12576
1092.499	53.12372
1092.849	43.10533
1093.199	62.14715
1093.548	87.20093
1093.898	37.08857
1094.248	48.11725
1094.597	55.13682
1094.947	43.11107
1095.296	57.13557
1095.645	27.06751
1095.994	73.16679
1096.343	89.21428
1096.692	81.2077
1097.041	46.12252
1097.39	54.12895
1097.739	24.06026
1098.088	26.06694
1098.437	35.09031
1098.785	-3.00781
1099.134	27.06814
1099.482	38.10172
1099.83	76.19163
1100.179	100.25431
1100.527	22.05593
1100.875	52.13369
1101.223	79.20293
1101.571	-6.01613
1101.919	68.17494
1102.267	58.15968
1102.615	7.02247
1102.962	-5.01605
1103.31	6.01926
1103.658	1.00321
