Data from N3 R2 sample 1_Subt2__0__10-11-32-391.txt Node

Date: Thu Sep 18 10:11:32 PDT 2025
User: uwsun
Spectrometer: HDX01956
Trigger mode: 0
Integration Time (sec): 5.000000E-1
Scans to average: 1
Nonlinearity correction enabled: true
Boxcar width: 0
Storing dark spectrum: false
XAxis mode: Wavelengths
Number of Pixels in Spectrum: 2068
>>>>>Begin Spectral Data<<<<<
194.03	67.19261
194.578	78.25131
195.127	84.26661
195.676	77.24549
196.225	88.23158
196.773	85.23442
197.321	168.4581
197.87	224.56437
198.418	276.69411
198.966	286.73468
199.513	291.72038
200.061	227.56813
200.609	246.63701
201.156	245.52536
201.704	219.54356
202.251	230.60195
202.798	230.58672
203.345	321.76952
203.892	295.72546
204.438	247.57429
204.985	263.61101
205.532	219.56799
206.078	287.682
206.624	288.70472
207.17	336.75972
207.716	279.66809
208.262	325.61888
208.808	301.73584
209.354	257.62339
209.899	278.68253
210.445	258.63273
210.99	249.59672
211.535	313.71478
212.08	268.60747
212.625	262.64016
213.17	268.66818
213.715	255.57107
214.259	256.58546
214.804	258.61864
215.348	310.69437
215.892	314.73882
216.436	248.55391
216.98	265.56677
217.524	296.6878
218.068	294.7218
218.612	265.65939
219.155	288.6618
219.698	278.64368
220.242	243.587
220.785	246.56598
221.328	211.51336
221.871	296.73235
222.414	265.6382
222.956	180.42587
223.499	248.53879
224.041	241.53728
224.583	237.4869
225.126	247.52759
225.668	251.59463
226.21	275.67704
226.751	245.53261
227.293	243.53545
227.835	242.57962
228.376	187.41897
228.918	264.6388
229.459	240.58533
230	262.61241
230.541	250.55953
231.082	275.64997
231.622	241.53082
232.163	233.54901
232.704	244.59685
233.244	267.64375
233.784	213.50598
234.324	331.71373
234.864	261.57198
235.404	201.46477
235.944	272.62029
236.484	243.59209
237.023	236.54276
237.563	253.57266
238.102	273.62571
238.641	245.6003
239.18	236.54124
239.719	250.60994
240.258	269.58528
240.797	274.63467
241.335	251.59394
241.874	260.49088
242.412	278.65541
242.95	282.6607
243.488	245.5351
244.026	300.67336
244.564	287.56913
245.102	277.60832
245.64	217.50734
246.177	233.5048
246.715	225.52934
247.252	258.56814
247.789	309.5464
248.326	248.5831
248.863	232.49909
249.4	271.59514
249.936	347.69229
250.473	293.66992
251.009	271.60115
251.546	303.65224
252.082	273.56972
252.618	278.6019
253.154	288.6708
253.69	263.57223
254.226	293.67827
254.761	294.63627
255.297	262.5549
255.832	307.70391
256.367	297.67333
256.903	309.66115
257.438	268.60944
257.972	259.56017
258.507	248.55391
259.042	300.62815
259.576	347.73346
260.111	248.55437
260.645	306.63504
261.179	291.65919
261.713	314.67577
262.247	250.55538
262.781	283.57642
263.315	231.54768
263.849	271.65956
264.382	277.61599
264.915	286.65563
265.449	247.58832
265.982	306.66903
266.515	296.70217
267.048	289.59105
267.58	274.57142
268.113	327.67665
268.646	267.63449
269.178	265.57462
269.71	354.74645
270.243	335.74433
270.775	318.78763
271.307	305.6982
271.838	306.69584
272.37	272.64699
272.902	298.65044
273.433	342.72495
273.965	310.72572
274.496	287.68856
275.027	334.799
275.558	313.7369
276.089	319.76851
276.62	242.5957
277.15	305.72337
277.681	275.57236
278.211	281.66389
278.741	330.70257
279.272	279.61915
279.802	300.72097
280.332	331.7504
280.861	316.72672
281.391	335.72917
281.921	318.73073
282.45	299.71625
282.98	325.81627
283.509	327.71478
284.038	312.68791
284.567	357.79387
285.096	340.79157
285.625	318.68703
286.153	370.84373
286.682	360.7894
287.21	286.65905
287.739	309.70394
288.267	320.75118
288.795	344.86289
289.323	333.75125
289.851	330.74646
290.378	330.70471
290.906	344.80814
291.433	302.72825
291.961	380.82553
292.488	371.87783
293.015	307.70052
293.542	389.95442
294.069	358.85019
294.596	273.64824
295.122	394.89808
295.649	344.71899
296.175	358.82328
296.702	389.9058
297.228	371.8513
297.754	339.73098
298.28	374.82044
298.806	366.84268
299.332	386.82071
299.857	379.81968
300.383	365.87797
300.908	382.89633
301.433	374.87619
301.958	344.75559
302.483	332.79179
303.008	403.95315
303.533	358.88537
304.058	379.84033
304.582	332.75496
305.107	371.92439
305.631	355.76942
306.155	360.80236
306.679	425.94426
307.203	402.88519
307.727	382.86265
308.251	399.93639
308.775	441.01099
309.298	406.92953
309.822	372.89361
310.345	455.02059
310.868	430.98051
311.391	402.9414
311.914	371.89003
312.437	424.91522
312.96	450.99709
313.482	433.95923
314.005	410.97138
314.527	384.95382
315.049	469.11429
315.571	506.05522
316.093	445.03809
316.615	400.91212
317.137	487.98695
317.659	476.07806
318.18	412.93038
318.702	485.06034
319.223	418.80199
319.744	512.06681
320.265	476.08635
320.786	532.23385
321.307	466.08014
321.828	537.11527
322.348	472.03948
322.869	550.20852
323.389	811.3539
323.909	432.93168
324.43	490.09181
324.95	492.04868
325.47	542.24517
325.989	564.2305
326.509	564.15816
327.029	594.23742
327.548	552.14979
328.067	538.20982
328.587	595.37007
329.106	546.13122
329.625	566.36181
330.144	599.27135
330.662	603.29264
331.181	622.33486
331.7	615.29854
332.218	573.13616
332.736	633.34361
333.255	610.3102
333.773	668.41953
334.291	664.50507
334.808	690.38928
335.326	684.37276
335.844	715.50138
336.361	708.64374
336.879	735.538
337.396	749.62253
337.913	727.49307
338.43	740.47506
338.947	785.65141
339.464	733.39445
339.981	721.52463
340.497	739.61921
341.014	767.65591
341.53	715.43407
342.046	878.90576
342.562	771.70425
343.078	801.65261
343.594	802.67205
344.11	832.73925
344.626	853.88243
345.141	899.75804
345.657	867.68739
346.172	848.78131
346.687	877.72871
347.202	870.71208
347.717	864.7847
348.232	872.88793
348.747	937.83763
349.261	916.70571
349.776	943.90936
350.29	947.03079
350.805	955.01113
351.319	943.85897
351.833	977.89279
352.347	961.92282
352.861	958.9049
353.374	963.84258
353.888	966.00813
354.401	966.84966
354.915	1011.90295
355.428	1044.1801
355.941	1023.98486
356.454	1039.90326
356.967	989.9361
357.48	1018.91569
357.993	1047.14935
358.505	1045.11739
359.018	1104.22953
359.53	1070.1696
360.042	1077.97303
360.554	1117.24813
361.066	1103.20775
361.578	1088.95781
362.09	1145.21208
362.602	1130.03231
363.113	1173.22542
363.625	1183.14475
364.136	1139.00533
364.647	1196.2763
365.158	1193.22083
365.669	1184.2762
366.18	1166.21264
366.691	1128.98662
367.201	1220.33551
367.712	1240.23884
368.222	1296.32377
368.733	1256.12129
369.243	1315.26392
369.753	1369.40968
370.263	1303.47035
370.773	1302.48811
371.282	1379.53171
371.792	1367.42607
372.301	1502.70848
372.811	1451.94121
373.32	1545.40041
373.829	1476.5983
374.338	1557.49052
374.847	1607.6638
375.356	1663.78887
375.865	1752.53199
376.373	1814.78546
376.882	1807.21061
377.39	1868.05874
377.898	1984.22971
378.407	2063.94054
378.915	2171.83829
379.423	2216.11998
379.93	2334.17174
380.438	2360.34083
380.946	2428.20801
381.453	2590.41762
381.96	2828.43604
382.468	2990.35389
382.975	2982.60115
383.482	3145.05742
383.989	3163.92089
384.495	3424.25323
385.002	3546.58987
385.509	3715.31329
386.015	3999.24459
386.521	4114.82182
387.028	4252.7361
387.534	4365.28975
388.04	4588.9648
388.546	4740.27408
389.051	5168.01083
389.557	5399.20796
390.063	5662.90402
390.568	5812.25246
391.073	6047.63642
391.578	6294.16261
392.084	6542.65107
392.589	7029.40101
393.093	7605.05047
393.598	8171.29031
394.103	8929.37221
394.607	9728.03164
395.112	10297.61228
395.616	10764.23927
396.12	11744.92663
396.624	13158.34046
397.128	14026.67368
397.632	15625.80861
398.136	16852.71906
398.639	18687.12905
399.143	21681.52791
399.646	23886.81461
400.15	25947.14606
400.653	29863.63567
401.156	33931.76979
401.659	39313.49978
402.162	50969.40896
402.664	60607.93024
403.167	63977.72923
403.67	63769.22307
404.172	63919.58413
404.674	63858.43483
405.176	63738.15102
405.678	63977.72923
406.18	64011.81569
406.682	63863.44694
407.184	63926.60148
407.686	63841.39382
408.187	64025.8516
408.688	63892.51763
409.19	63833.37461
409.691	63977.72923
410.192	56431.97849
410.693	50973.47925
411.194	48211.31251
411.694	44755.1038
412.195	40961.7275
412.696	38348.95439
413.196	37648.71539
413.696	37882.9452
414.196	36907.17634
414.696	35276.68298
415.196	31897.04742
415.696	25922.69778
416.196	20131.99983
416.695	17572.84386
417.195	16629.23103
417.694	15806.88146
418.194	14766.11685
418.693	13838.83337
419.192	13488.72405
419.691	13147.39439
420.19	12899.33973
420.688	12390.97339
421.187	11413.93204
421.685	10628.86506
422.184	9286.02143
422.682	8099.05783
423.18	7204.71124
423.678	6595.64413
424.176	6099.74614
424.674	5883.66412
425.172	5454.21687
425.669	4930.81683
426.167	4645.57647
426.664	4316.60288
427.161	3961.86476
427.659	3708.3323
428.156	3469.60219
428.652	3338.69374
429.149	3180.45558
429.646	3032.96464
430.143	2830.37749
430.639	2717.29891
431.135	2572.57108
431.632	2383.03746
432.128	2303.24888
432.624	2323.63733
433.12	2253.98195
433.616	2186.78064
434.111	2094.08521
434.607	2089.11719
435.103	1872.45455
435.598	1853.42183
436.093	1805.8028
436.588	1700.59461
437.083	1597.49348
437.578	1540.55121
438.073	1493.77172
438.568	1485.70135
439.062	1458.22544
439.557	1289.30234
440.051	1330.23611
440.546	1301.23378
441.04	1292.38385
441.534	1242.45855
442.028	1270.36404
442.522	1191.24874
443.015	1106.85889
443.509	1140.21234
444.002	1124.20496
444.496	1141.92575
444.989	1135.19689
445.482	1097.19471
445.975	1095.0198
446.468	1105.87886
446.961	1061.83189
447.454	1047.88337
447.947	1066.05569
448.439	1004.02818
448.931	1054.94676
449.424	1012.13086
449.916	999.00657
450.408	987.84318
450.9	919.87003
451.392	919.96901
451.884	915.74723
452.375	886.85548
452.867	858.61805
453.358	897.71363
453.849	925.61929
454.341	877.65516
454.832	846.52842
455.323	882.86171
455.814	824.59712
456.304	813.6009
456.795	799.55486
457.285	832.53982
457.776	826.59263
458.266	761.55947
458.756	716.47343
459.247	769.58652
459.737	793.64925
460.226	778.51788
460.716	677.424
461.206	716.49391
461.695	686.49321
462.185	743.52803
462.674	689.37485
463.163	709.37947
463.653	685.26444
464.142	663.41898
464.63	677.44336
465.119	638.31154
465.608	665.3705
466.096	628.19872
466.585	604.22592
467.073	639.33277
467.561	604.29284
468.05	603.2342
468.538	580.2724
469.026	591.25216
469.513	571.07048
470.001	524.08895
470.489	571.21868
470.976	528.11678
471.463	540.21878
471.951	535.20576
472.438	514.09519
472.925	520.10991
473.412	479.06396
473.899	491.02502
474.385	472.06032
474.872	421.90972
475.359	468.05733
475.845	465.87733
476.331	443.86494
476.817	446.00057
477.303	468.99762
477.789	404.89519
478.275	442.01308
478.761	413.91036
479.247	377.78464
479.732	430.99591
480.218	428.04257
480.703	354.82091
481.188	404.81032
481.673	438.92882
482.158	396.79464
482.643	355.85521
483.128	363.79447
483.612	438.96525
484.097	378.85292
484.581	340.74115
485.066	333.77146
485.55	335.69817
486.034	348.708
486.518	377.84563
487.002	299.69134
487.486	296.68372
487.969	320.7365
488.453	285.67673
488.936	274.58893
489.42	327.6824
489.903	321.75691
490.386	233.46312
490.869	347.71417
491.352	271.62337
491.835	337.64641
492.318	305.64977
492.8	310.60655
493.283	294.71593
493.765	288.67344
494.247	306.67581
494.73	254.53889
495.212	248.56442
495.694	277.62391
496.175	264.60812
496.657	285.6435
497.139	260.42353
497.62	272.62604
498.102	220.52974
498.583	184.43954
499.064	242.51859
499.545	273.59423
500.026	277.59833
500.507	206.45935
500.988	243.58501
501.469	191.46262
501.949	250.59329
502.43	234.54396
502.91	273.55276
503.39	207.49722
503.87	225.51384
504.35	219.4949
504.83	217.45829
505.31	152.35879
505.79	144.33383
506.269	186.4151
506.749	223.4918
507.228	218.49635
507.707	202.43718
508.187	218.50397
508.666	234.5596
509.145	192.43645
509.623	166.3798
510.102	225.52583
510.581	205.47985
511.059	211.51509
511.538	200.50102
512.016	226.52329
512.494	171.40121
512.972	197.45841
513.45	196.44428
513.928	214.50415
514.406	201.47895
514.884	214.53531
515.361	183.42684
515.839	245.54303
516.316	204.48153
516.793	208.50956
517.27	205.47834
517.747	188.47028
518.224	170.38253
518.701	173.37305
519.178	219.53103
519.654	188.43341
520.131	197.47464
520.607	156.37337
521.083	110.24641
521.56	157.36246
522.036	151.32226
522.512	221.52842
522.987	198.46392
523.463	158.36687
523.939	248.59331
524.414	182.40583
524.89	194.45045
525.365	173.38153
525.84	169.39729
526.315	192.45285
526.79	190.417
527.265	227.50691
527.74	182.43077
528.215	120.27621
528.689	148.31826
529.164	117.24775
529.638	138.34397
530.112	128.29662
530.587	170.35533
531.061	151.35871
531.534	200.46842
532.008	196.4639
532.482	176.39489
532.956	173.43143
533.429	199.47382
533.903	164.35145
534.376	151.32743
534.849	149.33617
535.322	173.39876
535.795	131.31156
536.268	203.47759
536.741	134.31311
537.213	155.34928
537.686	214.50787
538.158	214.47165
538.631	149.35437
539.103	152.33698
539.575	180.36087
540.047	185.39276
540.519	221.51121
540.991	190.45144
541.463	169.3976
541.934	160.35412
542.406	207.4832
542.877	226.49288
543.348	210.49242
543.82	180.42735
544.291	246.5533
544.762	221.50979
545.233	243.59518
545.703	205.443
546.174	229.51348
546.645	201.47343
547.115	256.5951
547.585	245.54303
548.056	295.69426
548.526	292.66294
548.996	215.49891
549.466	262.61265
549.935	323.73375
550.405	295.61781
550.875	296.67174
551.344	270.61821
551.814	364.78471
552.283	358.73465
552.752	407.89113
553.221	389.80313
553.69	411.86568
554.159	409.95423
554.628	407.86102
555.096	389.93213
555.565	378.78305
556.033	398.88961
556.502	398.89987
556.97	399.82858
557.438	313.69979
557.906	395.87288
558.374	438.94219
558.842	384.86434
559.31	415.86411
559.777	389.89366
560.245	406.86848
560.712	509.06078
561.18	383.79358
561.647	451.92151
562.114	484.01552
562.581	464.05467
563.048	482.01087
563.514	534.22334
563.981	511.06496
564.448	535.09332
564.914	481.02364
565.381	543.12123
565.847	542.14194
566.313	522.09974
566.779	539.09503
567.245	564.17483
567.711	538.16874
568.176	549.10929
568.642	568.29613
569.108	558.24255
569.573	544.13712
570.038	636.16415
570.504	607.21996
570.969	559.2548
571.434	645.26071
571.899	637.34036
572.363	686.37678
572.828	660.33611
573.293	644.30367
573.757	659.34899
574.222	605.20587
574.686	673.35966
575.15	663.41226
575.614	725.49164
576.078	639.32982
576.542	638.28561
577.006	634.26699
577.469	675.4677
577.933	703.39634
578.396	628.32458
578.86	625.30873
579.323	663.41409
579.786	706.32574
580.249	723.48485
580.712	627.35976
581.175	621.36902
581.637	622.25907
582.1	649.24097
582.563	623.16529
583.025	642.38966
583.487	703.24532
583.95	618.16875
584.412	675.23164
584.874	705.50961
585.336	710.47221
585.797	691.30612
586.259	754.52388
586.721	722.47446
587.182	732.4618
587.643	739.45021
588.105	788.59777
588.566	799.40039
589.027	888.83677
589.488	851.64601
589.949	883.80974
590.41	911.45999
590.87	958.80082
591.331	1049.82357
591.791	1038.94004
592.252	1024.93453
592.712	1072.06827
593.172	1171.07046
593.632	1290.14858
594.092	1250.10883
594.552	1430.21437
595.011	1351.29799
595.471	1475.39682
595.931	1558.46064
596.39	1591.70605
596.849	1635.63555
597.308	1684.36238
597.768	1882.28462
598.227	1927.99487
598.685	2051.84241
599.144	2102.02166
599.603	2212.03545
600.062	2453.62566
600.52	2562.97559
600.978	2671.22874
601.437	2779.02785
601.895	2949.70633
602.353	3079.81681
602.811	3262.9388
603.269	3390.23975
603.727	3656.23264
604.184	3756.84683
604.642	4055.25512
605.099	4211.80842
605.557	4334.03872
606.014	4512.1029
606.471	4644.13006
606.928	4948.06246
607.385	5167.8239
607.842	5242.10723
608.299	5494.10621
608.755	5609.31027
609.212	5820.64371
609.668	6059.62717
610.125	6172.02436
610.581	6312.79092
611.037	6386.49386
611.493	6496.71879
611.949	6669.97652
612.405	6751.01047
612.861	6848.60145
613.316	6947.84603
613.772	7097.60792
614.227	7054.87322
614.683	7122.25403
615.138	7103.73295
615.593	7036.66578
616.048	7143.60884
616.503	7054.9276
616.958	7001.13016
617.412	6888.7876
617.867	6905.45771
618.321	6894.07937
618.776	6842.3677
619.23	6717.70614
619.684	6510.43901
620.138	6526.58175
620.592	6439.97706
621.046	6301.83635
621.5	6090.02885
621.954	6051.48241
622.407	6008.49617
622.861	5885.17558
623.314	5792.72243
623.768	5697.06052
624.221	5450.06142
624.674	5292.10601
625.127	5252.17093
625.58	5199.95396
626.033	5078.84445
626.485	4967.5392
626.938	4895.54736
627.39	4760.48829
627.843	4647.44736
628.295	4548.50271
628.747	4423.81806
629.199	4262.5689
629.651	4258.61906
630.103	4085.70895
630.555	4016.19888
631.006	3956.85861
631.458	3794.01012
631.909	3679.72439
632.361	3622.93725
632.812	3585.97383
633.263	3558.58026
633.714	3366.50184
634.165	3288.27766
634.616	3249.19183
635.067	3165.7767
635.518	3121.22648
635.968	2964.2304
636.419	3063.75269
636.869	2894.2282
637.319	2918.11017
637.769	2786.933
638.219	2754.19662
638.669	2721.23601
639.119	2573.2447
639.569	2616.26957
640.019	2555.05324
640.468	2555.89799
640.918	2473.16962
641.367	2489.8789
641.816	2483.84262
642.265	2431.07636
642.714	2384.97321
643.163	2395.01874
643.612	2419.33595
644.061	2276.62359
644.51	2325.95704
644.958	2276.76559
645.406	2241.12595
645.855	2238.20244
646.303	2158.9261
646.751	2229.96646
647.199	2194.85328
647.647	2147.94523
648.095	2157.86407
648.543	2140.36868
648.99	2086.07135
649.438	2081.89043
649.885	2090.25432
650.333	2004.17178
650.78	2010.05125
651.227	1980.08918
651.674	1946.76101
652.121	1976.09864
652.568	1994.10428
653.015	1834.02218
653.461	1776.80875
653.908	1750.65009
654.354	1824.85138
654.801	1783.75868
655.247	1684.38911
655.693	1689.10218
656.139	1687.74594
656.585	1697.75779
657.031	1633.64257
657.477	1596.35727
657.922	1511.41087
658.368	1527.69895
658.813	1538.43567
659.259	1517.64125
659.704	1550.5959
660.149	1402.349
660.594	1455.4997
661.039	1436.34789
661.484	1430.46495
661.929	1379.36592
662.373	1326.53167
662.818	1288.43418
663.262	1300.38083
663.707	1281.51652
664.151	1274.3715
664.595	1281.35704
665.039	1213.34376
665.483	1200.40058
665.927	1206.17282
666.371	1223.20412
666.814	1216.21981
667.258	1121.13474
667.701	1158.87089
668.145	1192.32223
668.588	1150.25079
669.031	1097.03658
669.474	1120.11896
669.917	1106.87502
670.36	1121.2284
670.803	1110.12444
671.245	1025.62952
671.688	1099.12604
672.13	1090.93247
672.573	993.05933
673.015	1034.00904
673.457	1084.83265
673.899	1010.98145
674.341	999.95478
674.783	1000.94432
675.225	1000.00721
675.666	1070.0998
676.108	960.66183
676.549	962.82163
676.991	1003.74888
677.432	1025.56834
677.873	941.74759
678.314	1003.93031
678.755	1092.15008
679.196	946.75733
679.637	962.88097
680.078	974.84439
680.518	959.78373
680.959	988.90731
681.399	985.99538
681.839	1007.98158
682.28	962.96956
682.72	968.7876
683.16	1033.08924
683.6	980.7927
684.039	987.59932
684.479	1007.02267
684.919	1006.90694
685.358	1011.04653
685.798	1003.14917
686.237	1023.96039
686.676	950.73683
687.115	1124.06986
687.554	1098.07521
687.993	1101.88409
688.432	1031.86681
688.871	1080.94437
689.309	1129.12309
689.748	1125.76791
690.186	1054.95451
690.625	1086.00962
691.063	1138.11867
691.501	1135.21356
691.939	1152.29066
692.377	1115.12943
692.815	1180.24577
693.253	1217.21329
693.69	1129.88896
694.128	1136.16286
694.565	1209.18985
695.003	1261.48987
695.44	1266.26168
695.877	1208.17091
696.314	1150.81729
696.751	1265.13025
697.188	1266.19817
697.625	1190.00927
698.061	1245.2644
698.498	1242.2209
698.934	1259.275
699.371	1248.218
699.807	1270.25147
700.243	1279.3288
700.679	1249.06461
701.115	1303.25383
701.551	1210.13141
701.987	1238.99747
702.422	1328.35474
702.858	1338.36401
703.294	1343.24895
703.729	1322.40316
704.164	1299.31672
704.599	1391.21792
705.035	1329.16758
705.47	1341.42008
705.904	1340.27126
706.339	1392.29937
706.774	1366.33419
707.209	1434.38868
707.643	1414.4552
708.078	1373.46179
708.512	1387.58317
708.946	1465.47316
709.38	1414.43208
709.814	1428.28832
710.248	1436.55498
710.682	1493.55454
711.116	1503.61538
711.549	1457.72858
711.983	1460.38478
712.416	1504.52241
712.85	1532.70019
713.283	1534.53012
713.716	1570.74189
714.149	1478.4064
714.582	1599.41658
715.015	1540.66965
715.448	1633.87402
715.881	1554.2255
716.313	1594.54523
716.746	1647.64324
717.178	1627.68403
717.61	1703.9841
718.043	1677.83068
718.475	1685.77144
718.907	1707.90327
719.339	1686.51444
719.77	1706.73964
720.202	1626.83586
720.634	1768.89257
721.065	1733.6912
721.497	1811.91252
721.928	1727.83183
722.359	1761.85178
722.79	1789.80159
723.221	1795.95409
723.652	1791.05281
724.083	1811.5636
724.514	1878.69241
724.945	1869.76255
725.375	1877.76628
725.806	1882.99022
726.236	1905.17714
726.666	1946.83971
727.096	1912.97889
727.526	2004.30381
727.956	2017.75201
728.386	2000.0482
728.816	2017.27962
729.246	2137.17523
729.675	1979.00953
730.105	2098.09491
730.534	2115.87631
730.964	2052.16149
731.393	2080.08977
731.822	2095.31885
732.251	2184.33777
732.68	2159.85935
733.109	2204.20069
733.537	2264.19136
733.966	2241.28804
734.395	2322.9224
734.823	2189.66229
735.251	2266.08822
735.68	2205.18772
736.108	2190.25086
736.536	2177.91962
736.964	2238.89702
737.392	2235.27512
737.82	2226.03209
738.247	2243.02977
738.675	2236.95584
739.102	2287.29132
739.53	2344.50332
739.957	2300.51468
740.384	2251.08176
740.811	2234.24335
741.238	2315.22213
741.665	2262.98549
742.092	2174.8227
742.519	2210.23474
742.945	2312.17483
743.372	2224.24598
743.798	2236.40309
744.225	2195.97104
744.651	2149.22744
745.077	2146.21058
745.503	2056.99435
745.929	2213.10891
746.355	2139.07514
746.781	2090.09757
747.207	2113.9636
747.632	2073.15867
748.058	2145.2761
748.483	2057.77577
748.908	2052.15241
749.334	2061.10913
749.759	2002.91593
750.184	1919.91412
750.609	1995.02545
751.033	1941.76825
751.458	1964.59182
751.883	1908.98276
752.307	1832.74189
752.732	1979.23648
753.156	1822.92144
753.58	1893.78189
754.005	1770.9563
754.429	1783.74279
754.853	1776.94087
755.277	1755.72421
755.7	1769.91407
756.124	1731.88982
756.548	1652.61059
756.971	1650.73492
757.394	1645.91613
757.818	1619.93442
758.241	1605.85794
758.664	1608.83196
759.087	1574.38751
759.51	1508.62891
759.933	1505.56702
760.356	1517.82334
760.778	1456.56424
761.201	1474.51716
761.623	1418.40297
762.046	1389.31261
762.468	1436.44407
762.89	1393.45974
763.312	1406.49624
763.734	1394.43044
764.156	1372.48313
764.578	1345.1902
765	1312.36575
765.421	1293.49869
765.843	1256.52314
766.264	1230.17128
766.686	1147.19806
767.107	1178.17826
767.528	1197.38634
767.949	1124.23283
768.37	1259.3579
768.791	1176.13901
769.212	1051.11122
769.632	1124.02045
770.053	1020.15147
770.473	1052.98752
770.894	1020.98983
771.314	977.82626
771.734	955.77189
772.154	951.97548
772.575	1028.84298
772.994	948.69747
773.414	963.82308
773.834	897.82936
774.254	931.837
774.673	938.86077
775.093	852.76068
775.512	883.79265
775.931	918.90985
776.351	884.81708
776.77	822.68119
777.189	794.56673
777.607	765.65651
778.026	774.62433
778.445	763.64516
778.864	705.52779
779.282	707.42388
779.701	737.56937
780.119	724.56867
780.537	671.43488
780.955	689.49309
781.373	650.38363
781.791	681.30981
782.209	661.25847
782.627	631.45593
783.045	633.22552
783.462	578.29883
783.88	585.33631
784.297	583.28676
784.715	553.26515
785.132	568.19209
785.549	540.19099
785.966	559.23887
786.383	606.30495
786.8	583.16949
787.217	511.08147
787.633	523.17147
788.05	560.12871
788.466	490.00413
788.883	515.18235
789.299	475.00032
789.715	422.93078
790.131	459.02325
790.547	438.98383
790.963	456.01173
791.379	449.02236
791.795	433.86949
792.21	442.9152
792.626	342.73413
793.041	432.95801
793.457	396.88112
793.872	373.78668
794.287	405.88974
794.702	333.73928
795.117	413.93473
795.532	351.81541
795.947	403.86002
796.362	347.73699
796.776	367.76043
797.191	387.86235
797.605	351.76237
798.02	347.77067
798.434	321.65054
798.848	331.76136
799.262	304.69745
799.676	378.83724
800.09	320.72355
800.504	282.62958
800.918	276.58327
801.331	244.58485
801.745	279.58612
802.158	252.58187
802.572	306.68287
802.985	281.62073
803.398	247.54563
803.811	260.60917
804.224	228.52352
804.637	233.52052
805.05	247.52576
805.462	250.56805
805.875	211.51835
806.288	227.51611
806.7	151.35678
807.112	191.41098
807.525	189.43163
807.937	266.61297
808.349	230.53488
808.761	230.5315
809.173	270.60927
809.584	211.48595
809.996	167.38631
810.408	235.57666
810.819	223.49015
811.231	236.59523
811.642	254.58952
812.053	228.52122
812.464	180.40121
812.875	177.43113
813.286	219.53581
813.697	149.31992
814.108	193.44059
814.519	241.5016
814.929	139.33655
815.34	137.312
815.75	197.47679
816.16	141.32927
816.571	136.3359
816.981	155.34084
817.391	133.30179
817.801	112.26735
818.211	199.44273
818.62	152.34861
819.03	145.33595
819.44	104.25574
819.849	128.30378
820.259	126.3041
820.668	119.28063
821.077	130.31091
821.486	101.22899
821.895	111.25748
822.304	104.2641
822.713	129.28795
823.122	120.28491
823.531	106.23559
823.939	149.34563
824.348	128.29357
824.756	122.28943
825.164	111.26532
825.573	91.21926
825.981	94.22172
826.389	111.26572
826.797	177.42661
827.205	150.32741
827.612	161.37287
828.02	79.17656
828.428	114.27701
828.835	116.29479
829.243	143.31947
829.65	89.21411
830.057	102.23487
830.464	142.33245
830.871	139.31655
831.278	103.2377
831.685	125.26202
832.092	75.17425
832.499	172.35344
832.905	74.1788
833.312	96.20386
833.718	148.35219
834.124	146.31517
834.531	97.23141
834.937	121.29748
835.343	55.12647
835.749	79.17343
836.155	83.20917
836.561	86.20293
836.966	94.21861
837.372	82.19925
837.777	69.166
838.183	124.25837
838.588	90.21557
838.993	157.36087
839.399	83.19543
839.804	30.07095
840.209	112.27602
840.613	94.19813
841.018	46.11186
841.423	87.21445
841.828	108.26243
842.232	95.22055
842.637	133.30044
843.041	38.09489
843.445	46.11048
843.849	101.23994
844.253	121.27155
844.657	44.10788
845.061	175.3785
845.465	80.1851
845.869	63.14022
846.272	54.12737
846.676	50.11412
847.079	108.26479
847.483	76.18128
847.886	90.20691
848.289	86.2241
848.692	49.11887
849.095	124.28085
849.498	71.1701
849.901	59.12832
850.304	110.24935
850.707	57.13952
851.109	84.20243
851.512	74.17495
851.914	63.15415
852.316	99.24241
852.718	95.24181
853.121	45.10641
853.523	35.07819
853.925	33.08447
854.326	103.24779
854.728	76.18868
855.13	82.2055
855.531	74.16979
855.933	88.19932
856.334	101.2427
856.736	98.21056
857.137	112.24944
857.538	83.20172
857.939	49.11855
858.34	80.18429
858.741	66.16564
859.142	32.07372
859.542	76.19464
859.943	86.20434
860.343	51.12265
860.744	80.18664
861.144	86.20253
861.544	50.11743
861.945	94.22893
862.345	51.11933
862.745	90.21566
863.145	109.2421
863.544	72.17541
863.944	82.18474
864.344	56.13188
864.743	90.21294
865.143	62.15493
865.542	42.09226
865.941	99.23482
866.34	51.11568
866.74	52.13527
867.139	95.22011
867.537	63.1526
867.936	48.11168
868.335	78.18989
868.734	81.19907
869.132	18.03982
869.531	88.20029
869.929	85.18542
870.327	62.14248
870.726	91.21426
871.124	82.18096
871.522	33.08101
871.92	27.06439
872.318	47.10967
872.715	26.06121
873.113	52.12103
873.511	36.08626
873.908	49.12149
874.306	66.15911
874.703	52.12389
875.1	44.10696
875.497	54.1237
875.894	64.15359
876.291	44.10427
876.688	17.04264
877.085	62.1414
877.482	67.16088
877.878	108.25077
878.275	53.13016
878.671	54.11092
879.068	68.15702
879.464	83.19139
879.86	58.13142
880.256	29.06791
880.652	65.15886
881.048	22.05211
881.444	54.12126
881.84	35.08583
882.236	47.11371
882.631	79.18659
883.027	63.14545
883.422	45.11027
883.817	25.06135
884.213	66.16295
884.608	91.21818
885.003	46.10563
885.398	16.03886
885.793	25.06042
886.188	13.03126
886.582	37.09077
886.977	68.15308
887.371	40.09687
887.766	28.06778
888.16	32.07568
888.554	30.07104
888.949	68.16369
889.343	81.18782
889.737	37.0966
890.131	67.16137
890.525	63.15615
890.918	38.0922
891.312	66.1493
891.706	45.11381
892.099	59.14388
892.492	109.21959
892.886	13.0307
893.279	44.10784
893.672	59.14564
894.065	79.18962
894.458	47.1126
894.851	63.14678
895.244	30.07407
895.637	61.14133
896.029	96.2252
896.422	26.06049
896.814	40.09548
897.206	80.18458
897.599	71.16789
897.991	93.21573
898.383	56.1271
898.775	92.19954
899.167	113.25359
899.559	22.05338
899.951	29.06514
900.342	64.1547
900.734	94.2285
901.125	43.10821
901.517	57.13463
901.908	65.14659
902.299	23.05453
902.69	71.16163
903.082	86.19859
903.473	114.26334
903.863	31.07599
904.254	111.24706
904.645	61.14352
905.036	72.17048
905.426	53.11404
905.817	55.12859
906.207	-44.10124
906.597	100.22447
906.987	27.06714
907.378	71.17333
907.768	54.13835
908.158	45.10521
908.547	46.11649
908.937	12.02948
909.327	56.13008
909.717	40.09621
910.106	40.09189
910.495	34.08085
910.885	63.15374
911.274	69.16499
911.663	53.12813
912.052	64.14937
912.441	50.12354
912.83	29.06345
913.219	57.14313
913.608	64.1509
913.997	27.06614
914.385	94.21351
914.774	91.21051
915.162	101.2315
915.55	32.07392
915.939	82.19985
916.327	119.27932
916.715	93.23042
917.103	31.07217
917.491	62.14647
917.878	73.17115
918.266	46.11458
918.654	99.24367
919.041	67.17072
919.429	74.16652
919.816	80.19381
920.203	76.17801
920.591	75.17838
920.978	77.1801
921.365	46.11711
921.752	56.12565
922.139	109.22272
922.525	67.15462
922.912	69.16025
923.299	30.07211
923.685	47.11717
924.072	6.013
924.458	61.14575
924.844	43.10251
925.231	15.03332
925.617	56.13872
926.003	72.17587
926.389	33.08032
926.774	61.14786
927.16	59.14027
927.546	107.2651
927.931	44.10491
928.317	54.11787
928.702	52.11715
929.088	125.28617
929.473	88.21607
929.858	61.14419
930.243	88.20353
930.628	84.19728
931.013	47.11226
931.398	19.04125
931.783	41.1031
932.167	99.23301
932.552	56.13429
932.937	86.20229
933.321	40.09767
933.705	10.02414
934.09	44.10467
934.474	72.16128
934.858	61.15268
935.242	67.14752
935.626	60.14858
936.009	62.16078
936.393	97.23927
936.777	50.12422
937.16	93.2337
937.544	12.02679
937.927	68.16666
938.311	103.23685
938.694	67.17114
939.077	47.10795
939.46	30.06927
939.843	73.14002
940.226	18.04448
940.609	121.2654
940.991	12.02941
941.374	60.14158
941.757	77.18067
942.139	53.11419
942.522	74.16542
942.904	99.2261
943.286	60.14585
943.668	97.24305
944.05	71.1675
944.432	55.12965
944.814	40.09372
945.196	42.09937
945.578	81.187
945.959	42.09327
946.341	32.07407
946.722	55.12262
947.104	102.2314
947.485	34.07601
947.866	74.18029
948.247	103.25033
948.628	-6.01389
949.009	19.04714
949.39	60.14218
949.771	9.01967
950.152	68.15995
950.532	103.24854
950.913	72.16546
951.293	47.12408
951.674	44.10221
952.054	78.18868
952.434	67.15966
952.814	50.11246
953.194	21.05251
953.574	105.24424
953.954	22.04973
954.334	66.15929
954.714	34.08026
955.093	59.13892
955.473	73.17695
955.853	52.1298
956.232	29.07705
956.611	85.19107
956.99	40.09734
957.37	52.12655
957.749	73.16309
958.128	92.2228
958.506	59.14767
958.885	44.10648
959.264	116.2735
959.643	103.22316
960.021	78.18626
960.4	60.12936
960.778	-2.0047
961.156	22.05306
961.535	61.13408
961.913	55.12384
962.291	31.07798
962.669	52.12749
963.047	46.11383
963.424	94.2326
963.802	48.1137
964.18	55.13126
964.557	81.17602
964.935	78.17566
965.312	91.22834
965.69	30.07169
966.067	50.11527
966.444	11.02567
966.821	74.18324
967.198	39.08968
967.575	88.20442
967.952	110.24407
968.329	78.1824
968.705	156.31319
969.082	82.20454
969.458	44.10294
969.835	70.16273
970.211	63.15723
970.587	80.19074
970.963	20.04918
971.339	49.1241
971.715	41.09879
972.091	59.13903
972.467	18.04269
972.843	81.19457
973.219	105.23603
973.594	46.1162
973.97	44.09743
974.345	83.19009
974.721	28.06417
975.096	89.20686
975.471	58.13083
975.846	25.05735
976.221	12.02958
976.596	140.32199
976.971	86.20411
977.346	80.17521
977.72	41.10009
978.095	37.09224
978.469	66.14955
978.844	89.21192
979.218	64.1492
979.593	59.13437
979.967	43.09848
980.341	46.10185
980.715	92.22179
981.089	61.14625
981.463	50.10969
981.837	88.20764
982.21	7.01524
982.584	43.10022
982.957	32.07761
983.331	53.11777
983.704	115.27161
984.078	21.04985
984.451	20.04716
984.824	87.20333
985.197	38.08715
985.57	10.02385
985.943	70.16183
986.316	66.15216
986.688	59.13572
987.061	84.18778
987.434	122.30695
987.806	8.01844
988.179	31.06991
988.551	65.15726
988.923	3.0071
989.295	72.17095
989.667	32.07477
990.039	102.24413
990.411	28.06076
990.783	33.07168
991.155	58.13409
991.527	76.17466
991.898	76.18204
992.27	73.17455
992.641	91.21593
993.012	57.12434
993.384	58.13142
993.755	63.15518
994.126	72.16685
994.497	13.03085
994.868	15.03269
995.239	8.01866
995.61	28.06809
995.98	41.09545
996.351	58.13882
996.722	80.17861
997.092	53.1208
997.462	40.09082
997.833	38.08547
998.203	2.00461
998.573	72.17226
998.943	73.16396
999.313	69.15885
999.683	36.08333
1000.053	18.03877
1000.423	21.04875
1000.792	10.02483
1001.162	57.13332
1001.531	92.21632
1001.901	24.05738
1002.27	1.0021
1002.639	30.07336
1003.009	35.07964
1003.378	43.10615
1003.747	66.14748
1004.116	34.07795
1004.485	40.09159
1004.853	-2.00484
1005.222	16.03822
1005.591	55.12424
1005.959	36.07801
1006.328	82.17557
1006.696	32.0738
1007.064	38.09102
1007.433	72.17042
1007.801	40.09248
1008.169	24.05782
1008.537	66.13838
1008.905	78.17408
1009.273	30.07071
1009.64	57.13191
1010.008	33.07531
1010.375	110.24752
1010.743	76.16068
1011.11	118.26922
1011.478	66.15749
1011.845	18.04044
1012.212	117.2523
1012.579	52.1226
1012.946	48.10783
1013.313	69.15479
1013.68	68.14402
1014.047	-11.02538
1014.414	86.19233
1014.78	38.09126
1015.147	55.12541
1015.513	43.09931
1015.88	36.08797
1016.246	30.07024
1016.612	70.15059
1016.978	71.1673
1017.344	72.17035
1017.71	78.17968
1018.076	74.16385
1018.442	88.21703
1018.808	114.27316
1019.174	38.09109
1019.539	39.08175
1019.905	16.03655
1020.27	51.12036
1020.636	12.0273
1021.001	60.13767
1021.366	26.06037
1021.731	86.21459
1022.096	24.05908
1022.461	58.13142
1022.826	84.19134
1023.191	54.1365
1023.556	39.08691
1023.92	8.0188
1024.285	28.06491
1024.649	24.05621
1025.014	16.03774
1025.378	68.1648
1025.742	-4.00953
1026.107	82.17466
1026.471	99.2166
1026.835	44.10471
1027.199	12.02793
1027.562	-3.00665
1027.926	28.06538
1028.29	74.17928
1028.654	65.14137
1029.017	94.22025
1029.381	60.13739
1029.744	36.08856
1030.107	136.30188
1030.471	45.10381
1030.834	12.02574
1031.197	63.14452
1031.56	36.08084
1031.923	57.14195
1032.286	60.13418
1032.648	14.03172
1033.011	81.17909
1033.374	48.10637
1033.736	5.01279
1034.099	46.10757
1034.461	31.07619
1034.823	54.12959
1035.185	2.00483
1035.548	61.14262
1035.91	76.1727
1036.272	81.17564
1036.634	54.12628
1036.995	35.07806
1037.357	82.19101
1037.719	63.1466
1038.08	89.20228
1038.442	38.08621
1038.803	3.00683
1039.165	-16.03902
1039.526	62.14317
1039.887	49.11195
1040.248	57.13703
1040.609	41.09605
1040.97	19.04456
1041.331	75.18296
1041.692	94.21195
1042.053	57.12249
1042.413	24.05323
1042.774	95.21976
1043.134	33.07418
1043.495	57.13723
1043.855	112.26006
1044.215	51.1205
1044.576	39.09011
1044.936	59.12772
1045.296	111.26237
1045.656	4.00937
1046.016	38.08733
1046.375	67.15499
1046.735	61.13419
1047.095	85.18864
1047.454	90.17643
1047.814	67.1537
1048.173	22.04967
1048.533	71.15429
1048.892	29.06722
1049.251	29.0695
1049.61	40.09468
1049.969	25.05634
1050.328	58.11908
1050.687	22.05112
1051.046	41.09526
1051.405	22.05217
1051.763	68.15044
1052.122	19.04562
1052.48	80.18745
1052.839	66.15058
1053.197	64.14319
1053.555	51.1079
1053.914	63.14655
1054.272	39.08817
1054.63	42.0988
1054.988	63.14423
1055.345	42.08448
1055.703	110.25066
1056.061	58.14509
1056.419	86.21661
1056.776	2.00459
1057.134	38.08238
1057.491	103.24506
1057.848	33.07846
1058.206	38.08396
1058.563	85.17597
1058.92	46.10054
1059.277	82.19251
1059.634	44.0973
1059.991	107.24289
1060.348	66.14223
1060.704	77.17897
1061.061	41.08898
1061.418	28.06538
1061.774	36.08541
1062.131	27.07025
1062.487	47.10418
1062.843	95.2249
1063.199	35.08375
1063.555	108.23834
1063.911	20.0484
1064.267	60.11584
1064.623	69.1619
1064.979	25.05454
1065.335	67.15086
1065.691	34.07679
1066.046	37.07718
1066.402	60.12847
1066.757	88.21183
1067.112	57.13301
1067.468	65.14845
1067.823	14.03166
1068.178	90.20484
1068.533	102.23394
1068.888	57.12908
1069.243	57.13463
1069.598	29.06717
1069.952	56.12291
1070.307	19.04562
1070.662	75.17177
1071.016	95.20398
1071.371	133.28483
1071.725	68.15314
1072.079	54.1244
1072.434	31.07268
1072.788	18.04057
1073.142	117.27237
1073.496	4.00912
1073.85	81.17737
1074.203	46.10698
1074.557	58.15052
1074.911	94.21048
1075.265	85.18675
1075.618	79.18376
1075.971	40.09089
1076.325	43.10603
1076.678	42.09175
1077.031	27.05705
1077.385	24.05021
1077.738	24.05165
1078.091	43.09428
1078.444	24.05263
1078.796	70.16504
1079.149	68.16195
1079.502	53.12051
1079.855	53.11801
1080.207	82.19138
1080.56	56.14009
1080.912	74.17108
1081.264	50.11569
1081.617	68.15877
1081.969	61.14848
1082.321	75.17363
1082.673	20.04456
1083.025	58.13019
1083.377	39.08756
1083.728	60.1323
1084.08	35.08337
1084.432	70.15997
1084.783	14.0308
1085.135	44.10648
1085.486	22.04859
1085.838	85.19998
1086.189	75.17508
1086.54	46.10444
1086.891	68.16808
1087.242	87.20524
1087.593	30.06892
1087.944	66.14321
1088.295	104.22152
1088.646	130.30317
1088.996	98.2253
1089.347	56.13044
1089.698	74.16842
1090.048	22.05486
1090.398	44.09657
1090.749	45.10186
1091.099	60.14661
1091.449	61.14608
1091.799	67.16027
1092.149	52.12341
1092.499	42.09826
1092.849	7.01726
1093.199	25.05976
1093.548	60.13932
1093.898	36.0862
1094.248	12.02951
1094.597	-3.00754
1094.947	20.05187
1095.296	80.18943
1095.645	62.15403
1095.994	87.19821
1096.343	45.10924
1096.692	80.20517
1097.041	32.08543
1097.39	52.12422
1097.739	35.0877
1098.088	49.12565
1098.437	47.12102
1098.785	6.01559
1099.134	18.0455
1099.482	48.12828
1099.83	28.07121
1100.179	61.1562
1100.527	24.06099
1100.875	92.23487
1101.223	53.13676
1101.571	5.01342
1101.919	55.14182
1102.267	51.14056
1102.615	4.01285
1102.962	4.01283
1103.31	10.03209
1103.658	-6.01925
