Data from N3 R2 sample 6_Subt2__4__10-15-01-389.txt Node

Date: Thu Sep 18 10:15:01 PDT 2025
User: uwsun
Spectrometer: HDX01956
Trigger mode: 0
Integration Time (sec): 5.000000E-1
Scans to average: 1
Nonlinearity correction enabled: true
Boxcar width: 0
Storing dark spectrum: false
XAxis mode: Wavelengths
Number of Pixels in Spectrum: 2068
>>>>>Begin Spectral Data<<<<<
194.03	73.20967
194.578	74.23854
195.127	66.20994
195.676	70.22336
196.225	111.29097
196.773	89.24529
197.321	167.45544
197.87	231.58127
198.418	256.64613
198.966	240.62148
199.513	262.65204
200.061	234.58491
200.609	262.67656
201.156	255.54562
201.704	251.61933
202.251	197.51849
202.798	234.59651
203.345	264.63976
203.892	264.65295
204.438	237.55213
204.985	222.51994
205.532	231.59787
206.078	274.65274
206.624	283.69313
207.17	364.81832
207.716	275.65902
208.262	285.54799
208.808	303.74045
209.354	341.81403
209.899	283.69416
210.445	279.68156
210.99	264.63086
211.535	274.63065
212.08	263.59674
212.625	270.65872
213.17	280.69657
213.715	281.62592
214.259	329.74132
214.804	235.56596
215.348	297.66704
215.892	283.66991
216.436	276.61288
216.98	266.56879
217.524	255.59734
218.068	287.70553
218.612	313.77199
219.155	247.57225
219.698	269.62396
220.242	247.59621
220.785	248.57035
221.328	272.65419
221.871	249.62138
222.414	249.60149
222.956	184.43499
223.499	196.43053
224.041	231.51605
224.583	220.45371
225.126	192.415
225.668	253.59914
226.21	248.61361
226.751	283.61024
227.293	251.55215
227.835	237.56818
228.376	276.60701
228.918	254.61577
229.459	209.51267
230	261.61019
230.541	263.58704
231.082	252.59827
231.622	201.44644
232.163	255.59827
232.704	309.74668
233.244	270.65061
233.784	259.60979
234.324	302.65526
234.864	212.4694
235.404	224.51558
235.944	236.54211
236.484	302.7277
237.023	262.59942
237.563	227.51653
238.102	282.64517
238.641	239.58625
239.18	208.47971
239.719	238.58196
240.258	249.54407
240.797	250.58184
241.335	265.62537
241.874	280.52605
242.412	268.63306
242.95	230.54436
243.488	212.46627
244.026	290.65225
244.564	293.58021
245.102	285.62483
245.64	245.56964
246.177	233.5048
246.715	303.70197
247.252	240.5305
247.789	299.5301
248.326	261.61211
248.863	281.59813
249.4	289.63226
249.936	331.66283
250.473	293.66992
251.009	238.53158
251.546	284.61384
252.082	258.54021
252.618	312.6706
253.154	271.63332
253.69	258.56194
254.226	276.64108
254.761	279.60575
255.297	202.43344
255.832	283.65201
256.367	247.56567
256.903	261.56425
257.438	294.66504
257.972	223.48603
258.507	257.57294
259.042	276.58096
259.576	335.70996
260.111	258.57553
260.645	282.58837
261.179	285.64639
261.713	254.5537
262.247	246.54695
262.781	281.57261
263.315	210.49991
263.849	283.68721
264.382	270.6013
264.915	279.64049
265.449	222.53132
265.982	289.63413
266.515	282.67077
267.048	298.60821
267.58	277.57729
268.113	287.5992
268.646	244.5824
269.178	256.55617
269.71	322.68375
270.243	311.69446
270.775	343.84565
271.307	252.58303
271.838	291.66375
272.37	293.69412
272.902	271.59489
273.433	326.69345
273.965	280.65935
274.496	268.6453
275.027	294.7087
275.558	309.72805
276.089	285.69103
276.62	252.61917
277.15	297.70549
277.681	274.57041
278.211	284.67059
278.741	315.67282
279.272	286.63376
279.802	274.66175
280.332	272.62404
280.861	327.75036
281.391	268.59165
281.921	299.68969
282.45	288.69135
282.98	282.71377
283.509	306.67186
284.038	327.71871
284.567	346.77116
285.096	329.76763
285.625	280.60986
286.153	314.72414
286.682	292.64948
287.21	263.60883
287.739	329.74647
288.267	305.71807
288.795	330.82987
289.323	298.6771
289.851	402.89595
290.378	296.63676
290.906	299.7086
291.433	299.72143
291.961	346.75711
292.488	292.70148
293.015	297.67907
293.542	423.02903
294.069	306.73399
294.596	321.75514
295.122	329.75978
295.649	294.6213
296.175	366.84033
296.702	305.72198
297.228	288.67185
297.754	352.75689
298.28	336.74299
298.806	332.7696
299.332	385.81876
299.857	357.77573
300.383	294.71673
300.908	346.81758
301.433	391.91296
301.958	337.74131
302.483	318.76045
303.008	352.84076
303.533	330.82033
304.058	327.73289
304.582	378.85153
305.107	350.87541
305.631	335.72917
306.155	374.83114
306.679	377.84598
307.203	382.84469
307.727	371.83969
308.251	340.80714
308.775	394.91364
309.298	389.89366
309.822	368.88468
310.345	446.00221
310.868	401.91975
311.391	393.92195
311.914	378.90561
312.437	421.90933
312.96	399.89349
313.482	357.80341
314.005	371.88562
314.527	344.86072
315.049	414.99597
315.571	392.83963
316.093	418.9823
316.615	379.86791
317.137	422.86793
317.659	464.05339
318.18	388.88048
318.702	452.99693
319.223	442.84313
319.744	453.9579
320.265	437.005
320.786	491.14783
321.307	432.00791
321.828	460.97334
322.348	446.98946
322.869	456.02138
323.389	694.19525
323.909	467.99959
324.43	474.05959
324.95	514.09044
325.47	497.15188
325.989	492.08949
326.509	510.05981
327.029	526.11206
327.548	468.99459
328.067	501.135
328.587	564.30661
329.106	514.07241
329.625	581.39398
330.144	547.17395
330.662	528.1499
331.181	611.31432
331.7	587.24693
332.218	563.1189
332.736	573.23194
333.255	634.3548
333.773	561.21955
334.291	578.33274
334.808	618.26466
335.326	642.3008
335.844	639.36402
336.361	679.58537
336.879	679.43824
337.396	676.48698
337.913	664.38284
338.43	663.34494
338.947	666.43737
339.464	651.26284
339.981	650.39562
340.497	697.54058
341.014	694.5215
341.53	646.31608
342.046	797.75955
342.562	730.62732
343.078	736.54044
343.594	759.59737
344.11	796.67714
344.626	787.76058
345.141	833.65416
345.657	776.54262
346.172	769.64323
346.687	740.50512
347.202	812.61952
347.717	804.68289
348.232	794.74745
348.747	793.60756
349.261	777.49622
349.776	847.75229
350.29	883.92108
350.805	841.81653
351.319	798.62617
351.833	877.73922
352.347	878.79017
352.861	874.77154
353.374	915.77083
353.888	955.99171
354.401	859.68685
354.915	924.77593
355.428	896.93331
355.941	908.80956
356.454	962.79596
356.967	883.77148
357.48	971.84808
357.993	989.05647
358.505	939.94968
359.018	1031.11646
359.53	1012.07879
360.042	1056.94465
360.554	1052.14851
361.066	998.0454
361.578	1064.92622
362.09	1028.04083
362.602	1000.85877
363.113	1039.03454
363.625	1080.00839
364.136	1091.94573
364.647	1119.16893
365.158	1162.17946
365.669	1102.15969
366.18	1043.03759
366.691	1076.92039
367.201	1122.19794
367.712	1209.1998
368.222	1212.21914
368.733	1160.0091
369.243	1223.15608
369.753	1213.22042
370.263	1210.34516
370.773	1212.36572
371.282	1237.35057
371.792	1337.39088
372.301	1265.41666
372.811	1337.77963
373.32	1393.25758
373.829	1430.54686
374.338	1506.44283
374.847	1476.53264
375.356	1542.66895
375.865	1597.41495
376.373	1675.67359
376.882	1638.03409
377.39	1720.92942
377.898	1713.99398
378.407	1850.80534
378.915	1912.70679
379.423	1933.95456
379.93	2095.05636
380.438	2125.21876
380.946	2315.16608
381.453	2276.2979
381.96	2522.3716
382.468	2651.32113
382.975	2694.55873
383.482	2722.07166
383.989	2790.86932
384.495	3040.30633
385.002	3101.71725
385.509	3291.41467
386.015	3544.45043
386.521	3755.97802
387.028	3864.91785
387.534	3913.52174
388.04	4142.19018
388.546	4246.54628
389.051	4578.34281
389.557	4957.45292
390.063	4982.26335
390.568	5275.53072
391.073	5362.93763
391.578	5671.42782
392.084	5809.87135
392.589	6200.43296
393.093	6747.91533
393.598	7206.71808
394.103	7852.15708
394.607	8644.97657
395.112	9180.86794
395.616	9734.04603
396.12	10547.61777
396.624	11732.64729
397.128	12603.40438
397.632	13815.24271
398.136	14920.18654
398.639	16411.19
399.143	19167.13405
399.646	21236.40238
400.15	23133.45609
400.653	26063.16659
401.156	29744.53061
401.659	34313.92804
402.162	44099.66661
402.664	59851.25592
403.167	63812.68163
403.67	63769.22307
404.172	63919.58413
404.674	63858.43483
405.176	63738.15102
405.678	63977.72923
406.18	64011.81569
406.682	63863.44694
407.184	63926.60148
407.686	63841.39382
408.187	64025.8516
408.688	63892.51763
409.19	63833.37461
409.691	60900.15616
410.192	51723.64522
410.693	46295.02632
411.194	43672.97913
411.694	41015.05417
412.195	37104.06735
412.696	34835.75158
413.196	33863.16793
413.696	34362.60746
414.196	34164.05529
414.696	32527.00282
415.196	29670.11256
415.696	24319.44956
416.196	18709.52327
416.695	15847.04777
417.195	15129.47066
417.694	14378.67256
418.194	13282.41524
418.693	12600.85772
419.192	12357.08843
419.691	12047.41445
420.19	11733.51924
420.688	11357.62117
421.187	10738.78249
421.685	9895.49084
422.184	8611.88402
422.682	7470.57575
423.18	6540.69131
423.678	6044.77854
424.176	5591.9575
424.674	5363.90344
425.172	4958.49081
425.669	4535.03612
426.167	4258.78469
426.664	3924.7951
427.161	3585.01153
427.659	3411.41001
428.156	3226.67503
428.652	3016.70247
429.149	2961.4605
429.646	2782.97587
430.143	2656.3512
430.639	2464.24055
431.135	2378.49312
431.632	2214.9755
432.128	2165.17972
432.624	2097.48803
433.12	2063.89364
433.616	1990.69265
434.111	1958.99944
434.607	1910.99783
435.103	1807.41854
435.598	1707.33592
436.093	1676.69701
436.588	1592.50486
437.083	1444.35193
437.578	1428.43685
438.073	1370.61964
438.568	1378.57328
439.062	1341.11585
439.557	1286.29873
440.051	1205.09343
440.546	1225.14509
441.04	1185.2439
441.534	1173.35886
442.028	1158.21442
442.522	1130.16489
443.015	1029.76518
443.509	1070.11061
444.002	1120.19915
444.496	1012.76693
444.989	1023.0323
445.482	1009.05917
445.975	1031.93309
446.468	1037.79506
446.961	1027.78897
447.454	960.76486
447.947	956.89299
448.439	989.00464
448.931	955.80703
449.424	926.98785
449.916	957.94214
450.408	924.7521
450.9	893.82778
451.392	902.93963
451.884	816.59514
452.375	837.77168
452.867	881.65218
453.358	818.59227
453.849	805.45309
454.341	841.60105
454.832	807.47229
455.323	869.83946
455.814	802.56256
456.304	737.4769
456.795	706.40394
457.285	738.39751
457.776	770.50438
458.266	766.56796
458.756	697.44039
459.247	710.484
459.737	724.52865
460.226	731.44191
460.716	710.48269
461.206	670.41204
461.695	650.42555
462.185	674.40742
462.674	695.38492
463.163	708.37785
463.653	665.23358
464.142	612.32409
464.63	589.27942
465.119	632.30094
465.608	656.35465
466.096	615.17755
466.585	572.16933
467.073	554.17698
467.561	551.1927
468.05	567.16983
468.538	574.2608
469.026	530.13765
469.513	534.01009
470.001	608.24023
470.489	582.23924
470.976	565.18552
471.463	523.18444
471.951	473.07928
472.438	482.034
472.925	493.05832
473.412	456.0176
473.899	472.9913
474.385	516.14889
474.872	412.89199
475.359	495.1123
475.845	479.90065
476.331	434.84918
476.817	424.95747
477.303	463.98804
477.789	373.83185
478.275	411.94985
478.761	407.89827
479.247	439.90106
479.732	390.91045
480.218	417.01781
480.703	371.85743
481.188	406.81396
481.673	358.77244
482.158	383.77086
482.643	391.93549
483.128	410.88841
483.612	409.90683
484.097	307.70278
484.581	413.88632
485.066	332.7693
485.55	353.73273
486.034	340.69299
486.518	368.82697
487.002	278.64547
487.486	283.65539
487.969	274.63643
488.453	296.70136
488.936	308.65716
489.42	337.70171
489.903	301.71251
490.386	209.41775
490.869	285.59476
491.352	274.62989
491.835	273.53175
492.318	259.55729
492.8	335.65158
493.283	289.70441
493.765	216.51222
494.247	267.59449
494.73	268.56686
495.212	220.50354
495.694	252.57051
496.175	280.64291
496.657	276.62433
497.139	252.41142
497.62	216.50272
498.102	253.60538
498.583	197.46942
499.064	192.41589
499.545	253.55304
500.026	210.46012
500.507	194.43367
500.988	271.64894
501.469	193.46729
501.949	250.59329
502.43	236.5484
502.91	295.59429
503.39	177.42758
503.87	218.49856
504.35	212.47976
504.83	224.47234
505.31	193.45194
505.79	177.40765
506.269	188.41939
506.749	162.36184
507.228	250.56552
507.707	228.4907
508.187	238.54802
508.666	247.58922
509.145	211.47779
509.623	199.45227
510.102	178.41983
510.581	227.52905
511.059	216.5268
511.538	197.49377
512.016	197.45877
512.494	190.44413
512.972	207.48073
513.45	172.39178
513.928	256.59815
514.406	162.38891
514.884	209.52328
515.361	191.4448
515.839	196.43886
516.316	255.59593
516.793	176.43373
517.27	173.40622
517.747	173.43393
518.224	209.46652
518.701	200.42878
519.178	211.5124
519.654	228.52143
520.131	192.46303
520.607	124.29859
521.083	181.39951
521.56	175.40256
522.036	161.34286
522.512	202.48475
522.987	251.58198
523.463	184.42504
523.939	242.57962
524.414	161.36057
524.89	201.46606
525.365	186.40909
525.84	171.40184
526.315	145.34512
526.79	185.40646
527.265	228.50903
527.74	145.34565
528.215	179.40715
528.689	139.29948
529.164	163.34168
529.638	119.29763
530.112	169.38845
530.587	173.36136
531.061	148.35179
531.534	188.44135
532.008	189.44794
532.482	225.49974
532.956	153.38294
533.429	231.54662
533.903	155.33281
534.376	163.35255
534.849	183.41001
535.322	178.40987
535.795	94.22515
536.268	196.46175
536.741	150.34939
537.213	180.40353
537.686	196.46677
538.158	226.49685
538.631	156.37052
539.103	188.41366
539.575	183.36663
540.047	188.39887
540.519	236.54428
540.991	148.35449
541.463	173.40669
541.934	189.41577
542.406	168.39517
542.877	194.42596
543.348	173.4086
543.82	177.42047
544.291	205.46496
544.762	212.48991
545.233	206.50803
545.703	222.47799
546.174	186.42076
546.645	209.49151
547.115	174.41104
547.585	218.4859
548.056	251.59578
548.526	240.55063
548.996	209.48557
549.466	227.53446
549.935	233.53897
550.405	171.36795
550.875	253.57918
551.344	247.56817
551.814	192.4292
552.283	271.56705
552.752	288.64643
553.221	309.64942
553.69	311.66946
554.159	267.64034
554.628	287.62311
555.096	272.66632
555.565	221.4739
556.033	335.75854
556.502	258.59999
556.97	282.60091
557.438	222.50566
557.906	230.52579
558.374	249.55741
558.842	296.67828
559.31	287.61462
559.777	285.66838
560.245	237.52552
560.712	273.59979
561.18	302.63709
561.647	262.55829
562.114	312.6807
562.581	333.77849
563.048	313.68216
563.514	323.77255
563.981	312.68013
564.448	384.8129
564.914	347.76138
565.381	352.75917
565.847	336.74113
566.313	374.81491
566.779	390.82055
567.245	421.90621
567.711	403.90208
568.176	359.75816
568.642	417.98205
569.108	433.99073
569.573	419.90152
570.038	459.87875
570.504	496.02196
570.969	422.97545
571.434	545.09011
571.899	518.11806
572.363	578.18856
572.828	599.22932
573.293	598.22312
573.757	644.3227
574.222	604.20416
574.686	674.36137
575.15	635.36074
575.614	792.60516
576.078	711.45623
576.542	705.39901
577.006	756.46862
577.469	813.71636
577.933	816.57859
578.396	784.59761
578.86	873.72886
579.323	874.77959
579.786	857.55031
580.249	927.81714
580.712	935.89573
581.175	902.87239
581.637	1007.86116
582.1	1068.83865
582.563	1098.8174
583.025	1080.11946
583.487	1250.90753
583.95	1133.87816
584.412	1242.94894
584.874	1372.51818
585.336	1372.42936
585.797	1479.2704
586.259	1521.54356
586.721	1568.59937
587.182	1670.62737
587.643	1722.61787
588.105	1864.87656
588.566	1975.44923
589.027	2035.15919
589.488	2121.91047
589.949	2282.25711
590.41	2469.36096
590.87	2560.04347
591.331	2768.823
591.791	2940.13572
592.252	3078.16386
592.712	3226.32032
593.172	3478.93638
593.632	3786.68072
594.092	3910.63685
594.552	4154.3396
595.011	4380.58306
595.471	4694.3431
595.931	4964.16135
596.39	5326.40062
596.849	5653.00737
597.308	5940.32619
597.768	6393.4843
598.227	6779.87721
598.685	7223.62045
599.144	7658.95928
599.603	8059.20397
600.062	8718.83232
600.52	9326.07916
600.978	9820.28319
601.437	10417.21269
601.895	11168.56791
602.353	11664.89976
602.811	12561.94501
603.269	13215.83096
603.727	14098.55962
604.184	14864.24298
604.642	15641.50007
605.099	16367.36066
605.557	17225.3948
606.014	18296.90498
606.471	19164.3154
606.928	20011.48009
607.385	20981.72906
607.842	21852.02695
608.299	22903.75542
608.755	23824.98593
609.212	24621.73014
609.668	25674.99511
610.125	26365.4958
610.581	27401.68569
611.037	28239.09523
611.493	29008.20164
611.949	29877.99003
612.405	30447.57053
612.861	31053.52903
613.316	31567.84445
613.772	32135.07208
614.227	32395.65618
614.683	32720.67873
615.138	33193.28583
615.593	33586.87934
616.048	33755.54385
616.503	34036.01984
616.958	33877.16332
617.412	33634.93648
617.867	33580.37855
618.321	33260.82669
618.776	33340.56005
619.23	32854.30446
619.684	32238.50506
620.138	31920.09873
620.592	31553.49772
621.046	31200.50143
621.5	30605.07618
621.954	30154.05133
622.407	29205.68938
622.861	28814.07101
623.314	28376.57202
623.768	27839.01515
624.221	26994.80886
624.674	26508.62003
625.127	26143.61115
625.58	25637.74964
626.033	25031.1421
626.485	24535.61495
626.938	24138.09328
627.39	23552.23789
627.843	23025.05189
628.295	22398.95591
628.747	21990.98478
629.199	21628.13092
629.651	21228.13126
630.103	20801.98365
630.555	20216.03163
631.006	19671.62199
631.458	19555.66978
631.909	19120.08568
632.361	18966.18264
632.812	18556.60956
633.263	18361.72559
633.714	18127.28544
634.165	17710.81568
634.616	17289.99521
635.067	17081.16785
635.518	16899.26441
635.968	16734.52324
636.419	16693.72645
636.869	16386.40581
637.319	15969.24837
637.769	16088.21093
638.219	16025.51752
638.669	16124.43048
639.119	15802.85076
639.569	15912.95857
640.019	16039.10856
640.468	15932.57825
640.918	16034.5133
641.367	15943.73396
641.816	16190.6037
642.265	16214.82072
642.714	16338.59024
643.163	16593.29512
643.612	16529.21506
644.061	16712.41724
644.51	16662.27583
644.958	16915.10453
645.406	17078.19017
645.855	17113.22695
646.303	17031.44724
646.751	17322.9173
647.199	17323.4412
647.647	17357.25765
648.095	17544.02432
648.543	17442.53297
648.99	17415.11593
649.438	17687.46911
649.885	17618.64769
650.333	17543.79938
650.78	17392.69577
651.227	17415.65337
651.674	17368.828
652.121	17365.98271
652.568	17088.69976
653.015	16816.29202
653.461	16866.82809
653.908	16656.19613
654.354	16264.94822
654.801	15911.42428
655.247	15855.46841
655.693	15725.27991
656.139	15517.96331
656.585	15183.60746
657.031	15146.53422
657.477	14927.71784
657.922	14714.01213
658.368	14468.45744
658.813	14221.56271
659.259	14005.73243
659.704	13716.7273
660.149	13503.45685
660.594	13336.81976
661.039	12916.29701
661.484	12692.37433
661.929	12467.07615
662.373	12302.42492
662.818	12055.1629
663.262	12075.4533
663.707	11674.99745
664.151	11488.36998
664.595	11339.72193
665.039	11196.95628
665.483	11106.46333
665.927	10896.95804
666.371	10888.90968
666.814	10612.80712
667.258	10317.74226
667.701	10381.32497
668.145	10125.09535
668.588	10026.81806
669.031	9887.47952
669.474	9769.14297
669.917	9603.78174
670.36	9687.93544
670.803	9521.53537
671.245	9371.24845
671.688	9278.01642
672.13	9111.61912
672.573	9026.62562
673.015	9037.54999
673.457	8906.19116
673.899	8773.12448
674.341	8782.12789
674.783	8726.03237
675.225	8602.9379
675.666	8556.86295
676.108	8501.49646
676.549	8419.54238
676.991	8358.32232
677.432	8304.08991
677.873	8143.16999
678.314	8141.30933
678.755	8036.36911
679.196	8103.13341
679.637	7930.15284
680.078	7775.94268
680.518	7664.79763
680.959	7513.88602
681.399	7628.13949
681.839	7530.99293
682.28	7441.0973
682.72	7307.60888
683.16	7157.06538
683.6	7153.53687
684.039	7178.13106
684.479	6978.98759
684.919	7007.6938
685.358	6965.03477
685.798	6783.38142
686.237	6811.7597
686.676	6816.45328
687.115	6812.68772
687.554	6809.78406
687.993	6755.33398
688.432	6568.50893
688.871	6605.53645
689.309	6598.81665
689.748	6637.0293
690.186	6555.6542
690.625	6604.68005
691.063	6531.78663
691.501	6573.02784
691.939	6583.16114
692.377	6606.87965
692.815	6528.9595
693.253	6485.77455
693.69	6528.27503
694.128	6491.91165
694.565	6569.72967
695.003	6495.29148
695.44	6582.73032
695.877	6525.69617
696.314	6476.07476
696.751	6591.45475
697.188	6541.59934
697.625	6531.38506
698.061	6456.81672
698.498	6516.71532
698.934	6595.7764
699.371	6587.68218
699.807	6514.70807
700.243	6509.8554
700.679	6597.35717
701.115	6611.61789
701.551	6548.59841
701.987	6621.24449
702.422	6649.76183
702.858	6734.74898
703.294	6723.51337
703.729	6758.86631
704.164	6708.74851
704.599	6747.36656
705.035	6654.38898
705.47	6763.85338
705.904	6814.56161
706.339	6886.51524
706.774	6894.62846
707.209	6945.60023
707.643	6982.75807
708.078	6950.8557
708.512	6950.06013
708.946	7043.7001
709.38	7086.72819
709.814	7241.50897
710.248	7252.92665
710.682	7297.83437
711.116	7257.90539
711.549	7269.19167
711.983	7227.60333
712.416	7399.79969
712.85	7379.02058
713.283	7422.7764
713.716	7611.10355
714.149	7450.69028
714.582	7533.60611
715.015	7498.99904
715.448	7662.22021
715.881	7666.52383
716.313	7660.83814
716.746	7707.92728
717.178	7775.03882
717.61	7826.35305
718.043	7868.21779
718.475	7891.15526
718.907	7918.30305
719.339	7877.8755
719.77	8061.2343
720.202	7993.36881
720.634	8095.36333
721.065	8217.31856
721.497	8122.37062
721.928	8124.36303
722.359	8231.45349
722.79	8383.55477
723.221	8397.69012
723.652	8371.75557
724.083	8469.50088
724.514	8306.34138
724.945	8480.60759
725.375	8501.63438
725.806	8494.77353
726.236	8541.96061
726.666	8406.53077
727.096	8719.04631
727.526	8594.05852
727.956	8584.69965
728.386	8688.00735
728.816	8698.16152
729.246	8740.10466
729.675	8709.02304
730.105	8641.93534
730.534	8642.81971
730.964	8743.13083
731.393	8811.18286
731.822	8897.42848
732.251	8748.19311
732.68	8848.13467
733.109	8813.20613
733.537	8882.29579
733.966	8862.31368
734.395	8796.04719
734.823	8761.92849
735.251	8888.26449
735.68	8703.03876
736.108	8691.06204
736.536	8612.78239
736.964	8563.69012
737.392	8612.95906
737.82	8554.74665
738.247	8576.77153
738.675	8488.61611
739.102	8340.63815
739.53	8484.92285
739.957	8319.78493
740.384	8363.53172
740.811	8322.60381
741.238	8203.44269
741.665	8190.2775
742.092	7953.9616
742.519	7971.30196
742.945	8028.25345
743.372	7846.22233
743.798	7707.30043
744.225	7712.89719
744.651	7587.11402
745.077	7503.06541
745.503	7430.85527
745.929	7479.90803
746.355	7352.86885
746.781	7221.89593
747.207	7111.699
747.632	7049.9656
748.058	7041.0604
748.483	6949.48425
748.908	6923.97295
749.334	6782.9122
749.759	6666.70298
750.184	6558.79228
750.609	6475.89926
751.033	6464.57143
751.458	6287.33298
751.883	6307.96949
752.307	6148.71697
752.732	6109.36926
753.156	6057.06393
753.58	5979.77259
754.005	5832.30189
754.429	5820.90272
754.853	5707.32342
755.277	5655.98327
755.7	5528.37579
756.124	5402.46094
756.548	5379.0683
756.971	5238.3926
757.394	5231.77535
757.818	5186.89711
758.241	5064.83597
758.664	5049.78295
759.087	4930.00514
759.51	4831.69716
759.933	4762.60789
760.356	4753.15097
760.778	4736.73269
761.201	4599.66076
761.623	4501.59222
762.046	4381.52262
762.468	4365.71473
762.89	4331.87492
763.312	4285.94804
763.734	4154.89384
764.156	4044.12363
764.578	4012.53963
765	4002.03607
765.421	3841.47764
765.843	3733.69818
766.264	3707.92808
766.686	3626.29409
767.107	3613.13983
767.528	3549.61473
767.949	3493.50621
768.37	3461.3593
768.791	3360.11863
769.212	3335.50276
769.632	3250.0169
770.053	3147.76245
770.473	3141.19196
770.894	3076.32433
771.314	2987.06208
771.734	2874.00581
772.154	2780.55576
772.575	2809.93309
772.994	2774.8386
773.414	2802.10865
773.834	2695.38366
774.254	2645.25097
774.673	2681.29088
775.093	2600.37834
775.512	2495.29679
775.931	2454.43556
776.351	2444.33897
776.77	2437.24852
777.189	2301.01362
777.607	2289.39418
778.026	2211.21979
778.445	2155.29736
778.864	2079.21759
779.282	2157.95557
779.701	2021.13353
780.119	2007.18454
780.537	1972.05901
780.955	1921.09076
781.373	1938.9993
781.791	1941.64765
782.209	1855.54732
782.627	1772.16484
783.045	1706.48263
783.462	1731.98031
783.88	1692.00885
784.297	1669.85776
784.715	1579.87165
785.132	1627.63278
785.549	1561.71547
785.966	1531.71301
786.383	1531.65049
786.8	1534.41687
787.217	1423.41988
787.633	1422.59992
788.05	1404.29139
788.466	1370.25907
788.883	1362.59808
789.299	1307.25602
789.715	1312.35377
790.131	1295.39118
790.547	1220.2975
790.963	1250.31869
791.379	1192.30802
791.795	1186.97126
792.21	1138.99077
792.626	1124.00502
793.041	1091.08448
793.457	1082.06178
793.872	1041.8735
794.287	1068.0164
794.702	995.90299
795.117	966.93773
795.532	981.99178
795.947	977.82447
796.362	937.73326
796.776	971.74009
797.191	927.83252
797.605	870.6792
798.02	853.69314
798.434	861.52909
798.848	888.81222
799.262	809.6654
799.676	850.69541
800.09	789.61109
800.504	734.48341
800.918	677.30336
801.331	677.48575
801.745	700.33253
802.158	686.44454
802.572	708.44649
802.985	681.37648
803.398	723.43612
803.811	608.32494
804.224	602.27634
804.637	615.26334
805.05	579.14166
805.462	611.28445
805.875	540.24304
806.288	531.13074
806.7	538.1732
807.112	536.06589
807.525	492.05277
807.937	484.06462
808.349	527.15136
808.761	519.12811
809.173	529.12842
809.584	477.03799
809.996	422.9265
810.408	487.13669
810.819	476.99045
811.231	500.19875
811.642	501.10369
812.053	446.97464
812.464	368.78823
812.875	397.92697
813.286	403.95204
813.697	394.80122
814.108	422.9187
814.519	421.8411
814.929	352.81789
815.34	330.7221
815.75	371.86832
816.16	331.74399
816.571	325.77466
816.981	337.71263
817.391	305.66783
817.801	319.73112
818.211	322.69805
818.62	293.65292
819.03	333.74266
819.44	244.58441
819.849	291.66883
820.259	250.58918
820.668	303.68888
821.077	279.64817
821.486	262.57453
821.895	226.51228
822.304	237.58758
822.713	235.51305
823.122	292.67019
823.531	233.50416
823.939	239.54449
824.348	234.52523
824.756	218.50757
825.164	203.47666
825.573	226.53055
825.981	195.45089
826.389	207.48643
826.797	233.55562
827.205	257.54823
827.612	200.45961
828.02	182.3981
828.428	207.49419
828.835	155.39117
829.243	198.43731
829.65	188.44376
830.057	163.37076
830.464	192.4451
830.871	273.60483
831.278	157.35841
831.685	191.39452
832.092	168.38314
832.499	186.38101
832.905	136.32476
833.312	156.32693
833.718	180.4257
834.124	187.40013
834.531	148.34962
834.937	140.34298
835.343	98.22341
835.749	140.30339
836.155	158.39281
836.561	166.3856
836.966	152.34945
837.372	122.29422
837.777	129.3068
838.183	113.23603
838.588	158.37353
838.993	181.41403
839.399	128.29874
839.804	110.25612
840.209	138.33846
840.613	149.31026
841.018	149.35532
841.423	123.30117
841.828	120.29093
842.232	124.28622
842.637	90.20509
843.041	82.20313
843.445	176.41221
843.849	122.28865
844.253	128.28684
844.657	100.24263
845.061	197.42408
845.465	93.21462
845.869	94.20787
846.272	81.19005
846.676	84.19041
847.079	134.32695
847.483	119.2815
847.886	98.22494
848.289	97.25228
848.692	51.12367
849.095	124.28085
849.498	113.26855
849.901	91.19657
850.304	150.33725
850.707	99.24043
851.109	101.24261
851.512	107.25135
851.914	80.19512
852.316	91.22315
852.718	98.24931
853.121	85.19944
853.523	90.19878
853.925	61.15538
854.326	85.20519
854.728	80.19846
855.13	86.21537
855.531	86.19685
855.933	76.17256
856.334	82.19776
856.736	88.18948
857.137	171.37617
857.538	118.2849
857.939	84.20189
858.34	65.15018
858.741	76.1904
859.142	93.21163
859.542	75.19211
859.943	68.16213
860.343	108.25691
860.744	103.23921
861.144	95.22333
861.544	52.12208
861.945	77.18812
862.345	72.16778
862.745	78.18733
863.145	93.20725
863.544	88.21375
863.944	105.23545
864.344	66.15513
864.743	144.33714
865.143	81.20171
865.542	48.10531
865.941	90.21385
866.34	98.22016
866.74	41.10686
867.139	109.25184
867.537	41.09972
867.936	104.23929
868.335	66.16104
868.734	94.23046
869.132	50.10988
869.531	100.22705
869.929	93.20253
870.327	97.22135
870.726	46.10926
871.124	70.15487
871.522	94.22816
871.92	109.25585
872.318	50.11661
872.715	76.17717
873.113	33.0771
873.511	73.17369
873.908	56.13867
874.306	89.21363
874.703	62.14743
875.1	46.11178
875.497	67.15308
875.894	80.1914
876.291	79.18594
876.688	25.06262
877.085	62.1414
877.482	93.22221
877.878	129.29829
878.275	60.14716
878.671	62.12712
879.068	77.17748
879.464	74.17094
879.86	29.0661
880.256	80.18547
880.652	27.06646
881.048	52.12246
881.444	58.13014
881.84	67.16332
882.236	72.17338
882.631	77.18194
883.027	75.17274
883.422	38.09324
883.817	63.15352
884.213	42.10416
884.608	82.19694
885.003	30.06911
885.398	84.20143
885.793	66.15827
886.188	34.08144
886.582	72.17548
886.977	85.19068
887.371	40.09687
887.766	70.16812
888.16	56.13183
888.554	55.1296
888.949	83.19922
889.343	91.21059
889.737	52.13541
890.131	57.13755
890.525	80.19767
890.918	62.14975
891.312	74.16713
891.706	48.12133
892.099	88.21343
892.492	115.23135
892.886	43.10097
893.279	71.17314
893.672	55.13587
894.065	72.17305
894.458	37.08881
894.851	53.12372
895.244	57.14004
895.637	115.26359
896.029	97.2275
896.422	109.24944
896.814	62.14737
897.206	65.15042
897.599	142.33115
897.991	89.20662
898.383	75.16956
898.775	134.28803
899.167	108.24262
899.559	68.16356
899.951	67.14931
900.342	56.13557
900.734	72.17574
901.125	51.12816
901.517	59.1393
901.908	38.08617
902.299	21.04981
902.69	126.28364
903.082	124.28416
903.473	104.24072
903.863	49.11971
904.254	94.20996
904.645	52.12256
905.036	113.26544
905.426	56.12042
905.817	56.13091
906.207	-9.02056
906.597	97.21787
906.987	51.12627
907.378	73.17815
907.768	49.12565
908.158	50.11679
908.547	87.2187
908.937	11.02702
909.327	77.17812
909.717	26.0627
910.106	27.06219
910.495	38.09029
910.885	88.21375
911.274	60.14372
911.663	99.23727
912.052	76.17696
912.441	94.23038
912.83	73.15823
913.219	60.15058
913.608	104.2433
913.997	57.13884
914.385	119.26892
914.774	62.14425
915.162	109.24944
915.55	64.1469
915.939	67.16375
916.327	49.11658
916.715	124.30548
917.103	25.05827
917.491	85.1999
917.878	68.15958
918.266	53.13184
918.654	100.24608
919.041	85.21589
919.429	60.1354
919.816	80.19381
920.203	87.20333
920.591	93.22042
920.978	104.24196
921.365	99.24967
921.752	73.16322
922.139	112.2287
922.525	91.209
922.912	50.11656
923.299	69.16461
923.685	14.03511
924.072	17.03674
924.458	37.08881
924.844	53.1261
925.231	24.05321
925.617	46.11416
926.003	60.14689
926.389	54.13092
926.774	42.10217
927.16	68.16139
927.546	112.27724
927.931	80.18943
928.317	70.15228
928.702	73.16376
929.088	108.24809
929.473	79.1943
929.858	61.14419
930.243	97.22394
930.628	71.16717
931.013	81.1922
931.398	64.13763
931.783	40.10061
932.167	109.25605
932.552	75.1792
932.937	79.18608
933.321	87.21057
933.705	36.08646
934.09	26.06206
934.474	101.22489
934.858	49.12291
935.242	54.11922
935.626	56.13877
936.009	67.1736
936.393	99.24412
936.777	81.2001
937.16	91.22875
937.544	36.07998
937.927	66.16182
938.311	76.1757
938.694	65.16609
939.077	69.15778
939.46	32.07386
939.843	85.16256
940.226	28.06906
940.609	128.28034
940.991	6.01472
941.374	67.15788
941.757	47.11092
942.139	85.18188
942.522	75.16762
942.904	33.07637
943.286	59.14345
943.668	62.15633
944.05	46.10905
944.432	61.14363
944.814	17.04001
945.196	79.18558
945.578	132.30165
945.959	21.04684
946.341	65.14947
946.722	34.07613
947.104	72.16434
947.485	67.14875
947.866	57.13931
948.247	105.25509
948.628	7.01617
949.009	66.16236
949.39	78.18419
949.771	31.06742
950.152	60.14136
950.532	93.22484
950.913	67.15413
951.293	57.15023
951.674	57.13207
952.054	86.20772
952.434	109.25764
952.814	56.12581
953.194	32.07985
953.574	73.17088
953.954	42.09455
954.334	79.1902
954.714	66.15483
955.093	41.09688
955.473	81.19605
955.853	45.11247
956.232	53.14025
956.611	51.11544
956.99	41.09976
957.37	47.11449
957.749	27.06089
958.128	56.13653
958.506	11.02777
958.885	54.13043
959.264	105.24809
959.643	99.21468
960.021	48.11528
960.4	70.15059
960.778	62.14379
961.156	65.15548
961.535	15.03329
961.913	121.26876
962.291	52.13032
962.669	67.16381
963.047	80.19672
963.424	121.29792
963.802	50.11839
964.18	62.14777
964.557	53.11586
964.935	71.16012
965.312	80.20114
965.69	32.07644
966.067	62.1426
966.444	43.09971
966.821	98.24161
967.198	56.12833
967.575	112.25893
967.952	122.27002
968.329	67.15702
968.705	125.25275
969.082	69.17252
969.458	50.11683
969.835	88.20385
970.211	61.15229
970.587	67.16015
970.963	48.11742
971.339	42.10651
971.715	71.1701
972.091	36.08521
972.467	50.11784
972.843	91.21818
973.219	91.20515
973.594	54.13621
973.97	49.10838
974.345	71.163
974.721	57.12986
975.096	82.19086
975.471	91.20389
975.846	49.11186
976.221	33.08104
976.596	129.29734
976.971	116.27371
977.346	81.17737
977.72	37.0904
978.095	68.16857
978.469	97.2184
978.844	85.20255
979.218	91.21101
979.593	54.1231
979.967	50.11435
980.341	109.23817
980.715	83.20044
981.089	21.05073
981.463	40.08794
981.837	83.19604
982.21	64.13763
982.584	56.13019
982.957	67.16143
983.331	56.12436
983.704	102.24152
984.078	39.09226
984.451	59.13805
984.824	48.11304
985.197	17.03915
985.57	26.06183
985.943	19.04437
986.316	51.11793
986.688	144.32562
987.061	117.25976
987.434	105.26499
987.806	43.09844
988.179	33.07439
988.551	55.13332
988.923	40.09405
989.295	80.18965
989.667	83.192
990.039	105.25117
990.411	44.09515
990.783	78.1678
991.155	50.11578
991.527	20.04648
991.898	46.11081
992.27	55.13197
992.641	51.12195
993.012	43.09408
993.384	30.06836
993.755	69.16977
994.126	92.21236
994.497	54.12712
994.868	32.06949
995.239	43.09963
995.61	79.19027
995.98	31.07231
996.351	91.21643
996.722	62.13894
997.092	64.14555
997.462	85.19123
997.833	83.18497
998.203	11.02531
998.573	58.13914
998.943	93.20802
999.313	73.16793
999.683	59.13594
1000.053	1.00216
1000.423	50.11541
1000.792	31.07667
1001.162	10.02361
1001.531	89.20939
1001.901	48.11423
1002.27	57.11837
1002.639	42.10248
1003.009	65.14701
1003.378	36.08898
1003.747	66.14748
1004.116	39.08932
1004.485	85.19287
1004.853	14.03379
1005.222	11.0263
1005.591	76.17095
1005.959	111.23669
1006.328	113.24032
1006.696	47.10808
1007.064	42.10053
1007.433	41.09763
1007.801	23.05335
1008.169	51.12223
1008.537	91.18974
1008.905	66.14766
1009.273	29.06836
1009.64	59.13648
1010.008	69.15631
1010.375	54.1229
1010.743	52.11052
1011.11	95.21775
1011.478	98.23241
1011.845	77.17089
1012.212	128.27537
1012.579	63.14822
1012.946	13.02941
1013.313	50.1126
1013.68	107.22469
1014.047	44.10039
1014.414	14.03177
1014.78	87.207
1015.147	74.16808
1015.513	78.17889
1015.88	52.12669
1016.246	75.17405
1016.612	95.20328
1016.978	105.24578
1017.344	51.12116
1017.71	67.15468
1018.076	65.14419
1018.442	68.16832
1018.808	64.15482
1019.174	53.12668
1019.539	41.08591
1019.905	69.15593
1020.27	44.10398
1020.636	61.1374
1021.001	90.20525
1021.366	61.14066
1021.731	117.2903
1022.096	32.07866
1022.461	97.21805
1022.826	72.1644
1023.191	35.08877
1023.556	90.19845
1023.92	-9.02122
1024.285	32.07413
1024.649	53.12343
1025.014	64.14955
1025.378	50.12159
1025.742	33.07806
1026.107	125.26376
1026.471	34.07541
1026.835	42.09999
1027.199	53.12236
1027.562	54.11822
1027.926	61.1415
1028.29	31.07571
1028.654	58.12633
1029.017	56.13219
1029.381	72.16447
1029.744	58.1421
1030.107	81.18186
1030.471	53.12207
1030.834	49.10426
1031.197	91.20758
1031.56	82.1824
1031.923	60.14934
1032.286	79.17598
1032.648	32.07224
1033.011	105.23099
1033.374	36.07998
1033.736	42.10673
1034.099	44.10294
1034.461	32.07863
1034.823	31.07472
1035.185	39.09343
1035.548	59.138
1035.91	115.25925
1036.272	105.22652
1036.634	76.17696
1036.995	39.08691
1037.357	68.15883
1037.719	78.18097
1038.08	138.31053
1038.442	33.07494
1038.803	19.0431
1039.165	13.03154
1039.526	73.1682
1039.887	57.13002
1040.248	132.31279
1040.609	39.0914
1040.97	51.11887
1041.331	102.24757
1041.692	75.16977
1042.053	67.14367
1042.413	36.07965
1042.774	41.09586
1043.134	55.12308
1043.495	15.0364
1043.855	78.18233
1044.215	65.15317
1044.576	19.04407
1044.936	59.12772
1045.296	61.14558
1045.656	33.07685
1046.016	72.16434
1046.375	38.08841
1046.735	111.24162
1047.095	91.2017
1047.454	68.13399
1047.814	70.16048
1048.173	14.03166
1048.533	39.08533
1048.892	8.01862
1049.251	29.0695
1049.61	57.13447
1049.969	58.12982
1050.328	93.18943
1050.687	37.08573
1051.046	3.00702
1051.405	60.14125
1051.763	64.14171
1052.122	7.01685
1052.48	97.22652
1052.839	80.18201
1053.197	43.09662
1053.555	45.09533
1053.914	51.11891
1054.272	19.04313
1054.63	40.09413
1054.988	79.18028
1055.345	55.11029
1055.703	86.19692
1056.061	66.16487
1056.419	100.25124
1056.776	12.02751
1057.134	43.09312
1057.491	42.1011
1057.848	63.14891
1058.206	3.00668
1058.563	64.13312
1058.92	62.13505
1059.277	60.14147
1059.634	63.13877
1059.991	83.18933
1060.348	77.16554
1060.704	129.29675
1061.061	55.11901
1061.418	32.07466
1061.774	29.06889
1062.131	61.15778
1062.487	48.10637
1062.843	-11.02657
1063.199	68.1617
1063.555	27.06059
1063.911	44.10599
1064.267	108.2061
1064.623	41.09673
1064.979	44.09559
1065.335	71.15973
1065.691	9.02043
1066.046	107.21973
1066.402	59.12635
1066.757	72.17384
1067.112	62.14453
1067.468	69.15746
1067.823	-4.00908
1068.178	33.07597
1068.533	47.10898
1068.888	78.17588
1069.243	53.12528
1069.598	14.03252
1069.952	74.1618
1070.307	48.11462
1070.662	73.16726
1071.016	73.15749
1071.371	88.19029
1071.725	88.19737
1072.079	46.10614
1072.434	52.12141
1072.788	6.01356
1073.142	92.21523
1073.496	25.05675
1073.85	77.16875
1074.203	27.06303
1074.557	82.21192
1074.911	74.16638
1075.265	76.1673
1075.618	74.1723
1075.971	70.1581
1076.325	19.04706
1076.678	76.16484
1077.031	7.01486
1077.385	68.14087
1077.738	67.14287
1078.091	72.15689
1078.444	19.04171
1078.796	78.18362
1079.149	47.11238
1079.502	59.13399
1079.855	77.1706
1080.207	49.1151
1080.56	30.0754
1080.912	34.07923
1081.264	61.14083
1081.617	69.16107
1081.969	33.08074
1082.321	40.09325
1082.673	93.20407
1083.025	43.09682
1083.377	288.61342
1083.728	77.16918
1084.08	47.1117
1084.432	19.04387
1084.783	-1.00221
1085.135	29.07038
1085.486	52.11413
1085.838	46.10905
1086.189	73.17048
1086.54	87.19589
1086.891	109.26739
1087.242	85.2006
1087.593	39.08943
1087.944	74.16029
1088.295	67.14386
1088.646	122.28496
1088.996	49.11376
1089.347	1.00235
1089.698	62.14146
1090.048	42.10435
1090.398	76.16568
1090.749	15.03416
1091.099	85.20674
1091.449	56.13424
1091.799	75.17913
1092.149	18.043
1092.499	42.09826
1092.849	75.18262
1093.199	50.11894
1093.548	100.23036
1093.898	23.05521
1094.248	44.10756
1094.597	30.07497
1094.947	85.21796
1095.296	53.12615
1095.645	13.03259
1095.994	112.25388
1096.343	46.11165
1096.692	44.11355
1097.041	91.24057
1097.39	61.14547
1097.739	37.09268
1098.088	37.09508
1098.437	58.14906
1098.785	15.03892
1099.134	10.02531
1099.482	47.12562
1099.83	25.06361
1100.179	93.2368
1100.527	-8.02045
1100.875	47.12094
1101.223	54.13931
1101.571	27.07219
1101.919	78.20032
1102.267	56.15422
1102.615	0
1102.962	-4.01284
1103.31	8.02568
1103.658	1.00321
