Data from N3 R2 sample 12_Subt2__4__10-20-32-376.txt Node

Date: Thu Sep 18 10:20:32 PDT 2025
User: uwsun
Spectrometer: HDX01956
Trigger mode: 0
Integration Time (sec): 5.000000E-1
Scans to average: 1
Nonlinearity correction enabled: true
Boxcar width: 0
Storing dark spectrum: false
XAxis mode: Wavelengths
Number of Pixels in Spectrum: 2068
>>>>>Begin Spectral Data<<<<<
194.03	74.21251
194.578	88.2832
195.127	92.29171
195.676	83.26442
196.225	127.33201
196.773	85.23442
197.321	159.43418
197.87	240.60294
198.418	275.69172
198.966	285.73224
199.513	265.65915
200.061	239.59686
200.609	274.70607
201.156	243.52129
201.704	209.51969
202.251	241.62955
202.798	254.6452
203.345	318.76277
203.892	240.59621
204.438	274.63367
204.985	238.55566
205.532	249.64244
206.078	260.62106
206.624	348.842
207.17	312.70891
207.716	253.60885
208.262	296.56763
208.808	324.78867
209.354	304.73086
209.899	283.69416
210.445	273.66765
210.99	279.66478
211.535	310.70836
212.08	259.58814
212.625	250.61221
213.17	288.71543
213.715	317.70083
214.259	243.55718
214.804	245.58893
215.348	291.65437
215.892	277.65647
216.436	251.56026
216.98	302.64073
217.524	298.69217
218.068	292.71716
218.612	316.77895
219.155	275.63358
219.698	287.66333
220.242	256.61688
220.785	263.60303
221.328	224.54366
221.871	273.6783
222.414	277.66558
222.956	194.45775
223.499	273.58994
224.041	199.4475
224.583	243.49855
225.126	290.61366
225.668	271.63953
226.21	287.70501
226.751	239.52023
227.293	217.48077
227.835	283.6725
228.376	238.52762
228.918	265.6411
229.459	290.70064
230	293.68069
230.541	254.56801
231.082	294.69231
231.622	193.42938
232.163	282.65812
232.704	273.66418
233.244	240.58161
233.784	262.61649
234.324	304.65932
234.864	226.49893
235.404	253.57894
235.944	215.49595
236.484	273.66145
237.023	263.60158
237.563	221.50349
238.102	264.60618
238.641	223.54863
239.18	230.52812
239.719	264.64241
240.258	279.60575
240.797	257.59731
241.335	290.68104
241.874	327.60725
242.412	279.65764
242.95	262.61625
243.488	244.53303
244.026	280.63105
244.564	275.54686
245.102	273.60004
245.64	261.60492
246.177	204.44471
246.715	299.69326
247.252	261.57439
247.789	248.44551
248.326	297.69162
248.863	270.57609
249.4	266.58478
249.936	286.57868
250.473	310.70636
251.009	306.67383
251.546	290.626
252.082	262.5481
252.618	257.55893
253.154	309.71672
253.69	295.63748
254.226	292.67609
254.761	295.6383
255.297	252.53488
255.832	288.66286
256.367	255.58305
256.903	320.68306
257.438	252.57492
257.972	296.63512
258.507	258.57505
259.042	265.55916
259.576	323.68632
260.111	281.62385
260.645	275.57466
261.179	316.71218
261.713	295.63748
262.247	239.53216
262.781	342.68723
263.315	243.57479
263.849	297.71931
264.382	319.70319
264.915	289.66211
265.449	251.59739
265.982	288.63207
266.515	339.79748
267.048	293.59869
267.58	313.6471
268.113	270.56583
268.646	270.64124
269.178	288.62142
269.71	321.68178
270.243	323.71946
270.775	313.77596
271.307	257.594
271.838	305.69371
272.37	271.64473
272.902	285.62378
273.433	294.62974
273.965	296.69485
274.496	300.71796
275.027	300.72234
275.558	311.73248
276.089	297.7185
276.62	230.56742
277.15	278.66278
277.681	311.6421
278.211	244.58062
278.741	286.61472
279.272	300.66284
279.802	281.67775
280.332	302.68869
280.861	297.68562
281.391	306.67016
281.921	297.68535
282.45	281.67545
282.98	324.81391
283.509	361.78342
284.038	303.66933
284.567	338.75458
285.096	327.76326
285.625	319.68904
286.153	347.79496
286.682	321.70968
287.21	269.62198
287.739	301.68683
288.267	315.74017
288.795	285.72251
289.323	322.72807
289.851	370.8301
290.378	267.57797
290.906	319.75307
291.433	308.74188
291.961	349.76319
292.488	287.69013
293.015	332.75373
293.542	354.8742
294.069	329.78569
294.596	327.76836
295.122	355.81557
295.649	310.65282
296.175	340.78471
296.702	342.80375
297.228	339.78287
297.754	369.79054
298.28	348.76759
298.806	305.7108
299.332	361.77174
299.857	343.74753
300.383	342.82624
300.908	334.79107
301.433	374.87619
301.958	323.71261
302.483	331.78956
303.008	390.92473
303.533	361.8923
304.058	368.81781
304.582	333.75708
305.107	289.73083
305.631	385.82909
306.155	387.85771
306.679	366.82315
307.203	379.83858
307.727	404.90823
308.251	379.89294
308.775	437.0026
309.298	373.85965
309.822	362.87125
310.345	443.99812
310.868	426.97217
311.391	366.86315
311.914	346.83401
312.437	421.90933
312.96	426.94864
313.482	312.70862
314.005	359.85895
314.527	403.99752
315.049	438.0467
315.571	439.93074
316.093	449.04662
316.615	393.89743
317.137	433.88835
317.659	458.041
318.18	411.92831
318.702	470.03074
319.223	414.79508
319.744	483.01274
320.265	478.09049
320.786	484.13299
321.307	441.02713
321.828	452.95809
322.348	446.98946
322.869	459.02747
323.389	845.39772
323.909	465.99574
324.43	510.13176
324.95	501.06582
325.47	529.21841
325.989	519.14293
326.509	518.07455
327.029	587.22471
327.548	498.04954
328.067	577.2873
328.587	548.27351
329.106	480.00888
329.625	529.28158
330.144	581.23792
330.662	572.23427
331.181	602.29743
331.7	551.17949
332.218	588.16188
332.736	593.26954
333.255	621.3307
333.773	605.30307
334.291	626.42977
334.808	619.26642
335.326	585.20054
335.844	630.3474
336.361	645.51595
336.879	691.45986
337.396	679.49265
337.913	692.43228
338.43	694.39798
338.947	662.42995
339.464	703.34701
339.981	674.43975
340.497	684.51591
341.014	717.56438
341.53	679.37306
342.046	781.72995
342.562	719.60641
343.078	754.57189
343.594	700.49212
344.11	810.70144
344.626	768.72475
345.141	854.68765
345.657	818.61038
346.172	802.70161
346.687	823.64263
347.202	879.72617
347.717	811.69494
348.232	859.8649
348.747	873.73772
349.261	884.65903
349.776	899.83841
350.29	870.89799
350.805	843.82008
351.319	858.72483
351.833	914.7971
352.347	888.80649
352.861	933.86588
353.374	878.71409
353.888	878.86216
354.401	939.80956
354.915	953.81903
355.428	956.03475
355.941	930.84402
356.454	985.82857
356.967	877.76186
357.48	946.81131
357.993	976.03523
358.505	900.88481
359.018	1029.11329
359.53	1059.15262
360.042	1027.90481
360.554	1045.13756
361.066	961.98742
361.578	1058.91824
362.09	1035.05143
362.602	1072.95745
363.113	1141.1813
363.625	1085.01523
364.136	1113.97387
364.647	1134.19026
365.158	1115.1151
365.669	1153.23287
366.18	1116.14312
366.691	1142.00281
367.201	1231.35042
367.712	1175.15601
368.222	1128.10827
368.733	1216.07552
369.243	1247.18493
369.753	1238.25219
370.263	1307.47557
370.773	1194.34037
371.282	1299.43185
371.792	1386.44795
372.301	1357.5358
372.811	1363.81751
373.32	1384.24852
373.829	1427.54344
374.338	1461.39896
374.847	1494.55153
375.356	1548.67519
375.865	1609.4247
376.373	1625.62951
376.882	1721.12382
377.39	1736.94436
377.898	1759.03745
378.407	1871.82023
378.915	1990.75161
379.423	2013.007
379.93	2176.10015
380.438	2154.23605
380.946	2223.12526
381.453	2425.36332
381.96	2502.36525
382.468	2743.33691
382.975	2799.58018
383.482	2789.07603
383.989	2872.88811
384.495	3042.30624
385.002	3187.69903
385.509	3344.4064
386.015	3636.41334
386.521	3806.95811
387.028	3934.88787
387.534	4033.46388
388.04	4134.19383
388.546	4296.51996
389.051	4626.3158
389.557	4907.48132
390.063	5093.20095
390.568	5147.60246
391.073	5451.89199
391.578	5862.3352
392.084	5928.82215
392.589	6305.4092
393.093	6865.90741
393.598	7447.79408
394.103	8026.28262
394.607	8892.33645
395.112	9324.14073
395.616	9870.39453
396.12	10647.99016
396.624	11925.66039
397.128	12835.89153
397.632	14316.40345
398.136	15346.3381
398.639	16685.29291
399.143	19203.62606
399.646	21403.81862
400.15	23402.34906
400.653	26233.44767
401.156	29805.19493
401.659	34840.30005
402.162	43814.25674
402.664	59754.85925
403.167	63586.40931
403.67	63769.22307
404.172	63919.58413
404.674	63858.43483
405.176	63738.15102
405.678	63977.72923
406.18	64011.81569
406.682	63863.44694
407.184	63926.60148
407.686	63841.39382
408.187	64025.8516
408.688	63892.51763
409.19	63833.37461
409.691	63977.72923
410.192	55081.94975
410.693	49067.19256
411.194	45697.59128
411.694	42895.20859
412.195	39288.86145
412.696	36247.11407
413.196	34652.7232
413.696	35131.94653
414.196	35001.95454
414.696	33676.29712
415.196	31118.41112
415.696	26349.40757
416.196	20280.08706
416.695	16792.50988
417.195	15438.50065
417.694	14751.13579
418.194	13837.82854
418.693	13105.26097
419.192	12849.1918
419.691	12594.67824
420.19	12251.31745
420.688	11943.4767
421.187	11138.5734
421.685	10286.67373
422.184	9177.80649
422.682	7797.78529
423.18	6861.66899
423.678	6331.69209
424.176	5814.85536
424.674	5479.84454
425.172	5198.3556
425.669	4825.87615
426.167	4391.71543
426.664	4083.72113
427.161	3852.91179
427.659	3524.38483
428.156	3349.64106
428.652	3227.7031
429.149	3088.46085
429.646	2916.97404
430.143	2769.37041
430.639	2618.28102
431.135	2492.54215
431.632	2324.01793
432.128	2154.17361
432.624	2180.54747
433.12	2119.92239
433.616	2055.72491
434.111	1955.99737
434.607	1870.96758
435.103	1880.45877
435.598	1764.37138
436.093	1639.66416
436.588	1654.55754
437.083	1444.35193
437.578	1457.46749
438.073	1394.65036
438.568	1369.56205
439.062	1345.11979
439.557	1257.26333
440.051	1257.15443
440.546	1149.05136
441.04	1237.31318
441.534	1178.36623
442.028	1178.24195
442.522	1123.15505
443.015	1079.82662
443.509	1095.14745
444.002	1090.15515
444.496	1008.76177
444.989	1064.09386
445.482	1026.0859
445.975	1035.9387
446.468	1053.81514
446.961	987.73717
447.454	932.72528
447.947	991.94641
448.439	910.87895
448.931	996.86597
449.424	988.09115
449.916	923.88753
450.408	917.74176
450.9	860.77326
451.392	875.89241
451.884	888.70663
452.375	861.813
452.867	836.58497
453.358	769.51414
453.849	835.49585
454.341	846.60864
454.832	832.50843
455.323	837.78401
455.814	805.5673
456.304	763.51991
456.795	763.49738
457.285	744.40683
457.776	811.56927
458.266	711.4733
458.756	700.44563
459.247	711.48576
459.737	691.46942
460.226	737.45172
460.716	672.41502
461.206	688.44431
461.695	649.42365
462.185	681.41986
462.674	657.32062
463.163	643.27046
463.653	682.25984
464.142	637.3709
464.63	626.34922
465.119	635.30624
465.608	643.33163
466.096	560.08627
466.585	560.14786
467.073	554.17698
467.561	575.23837
468.05	556.14992
468.538	543.20036
469.026	505.08972
469.513	513.97693
470.001	591.21014
470.489	497.07747
470.976	542.14294
471.463	514.16615
471.951	467.06685
472.438	497.0628
472.925	443.96298
473.412	455.01558
473.899	481.00632
474.385	441.99889
474.872	416.89987
475.359	460.04091
475.845	442.83863
476.331	459.89278
476.817	382.87003
477.303	416.8968
477.789	383.85238
478.275	379.88148
478.761	345.77132
479.247	409.84518
479.732	359.8432
480.218	385.94741
480.703	370.85529
481.188	377.76088
481.673	390.83571
482.158	366.73953
482.643	392.9377
483.128	378.82468
483.612	440.96925
484.097	308.70492
484.581	342.7452
485.066	364.83808
485.55	374.77268
486.034	350.71175
486.518	385.86215
487.002	280.64985
487.486	279.64664
487.969	273.63424
488.453	246.58852
488.936	290.62117
489.42	287.60425
489.903	249.59536
490.386	194.38912
490.869	323.66837
491.352	213.49564
491.835	316.60921
492.318	260.55933
492.8	264.52217
493.283	259.63483
493.765	213.5054
494.247	222.49891
494.73	278.58672
495.212	233.5319
495.694	294.65989
496.175	283.64941
496.657	251.57067
497.139	236.38702
497.62	234.54268
498.102	222.53436
498.583	190.45335
499.064	227.48802
499.545	290.62896
500.026	248.53902
500.507	232.51454
500.988	236.56891
501.469	198.47894
501.949	242.5752
502.43	233.54175
502.91	289.58301
503.39	167.40419
503.87	197.45244
504.35	236.53146
504.83	172.36684
505.31	173.40669
505.79	149.34508
506.269	163.3655
506.749	173.38553
507.228	207.47236
507.707	199.43096
508.187	189.43945
508.666	182.43958
509.145	161.36828
509.623	168.38422
510.102	190.44709
510.581	190.44605
511.059	195.47745
511.538	168.42329
512.016	206.47888
512.494	179.41932
512.972	183.42701
513.45	170.38738
513.928	207.48832
514.406	159.38193
514.884	174.4384
515.361	180.4201
515.839	219.48803
516.316	193.45653
516.793	125.31094
517.27	153.36066
517.747	127.32119
518.224	132.29934
518.701	142.30824
519.178	158.38751
519.654	162.37541
520.131	160.38819
520.607	122.29389
521.083	105.23545
521.56	130.30174
522.036	162.34491
522.512	159.38468
522.987	175.41188
523.463	138.3217
523.939	211.50836
524.414	135.30396
524.89	145.33994
525.365	97.21733
525.84	136.32177
526.315	143.34049
526.79	152.33627
527.265	188.4232
527.74	125.29912
528.215	146.33431
528.689	108.23424
529.164	126.26628
529.638	107.2682
530.112	108.25127
530.587	135.28436
531.061	170.40237
531.534	147.34786
532.008	167.39748
532.482	158.35582
532.956	98.24772
533.429	196.46695
533.903	131.28273
534.376	165.35672
534.849	111.25238
535.322	172.39653
535.795	83.19922
536.268	189.44586
536.741	109.25595
537.213	138.31205
537.686	97.23539
538.158	150.33504
538.631	116.27764
539.103	119.26563
539.575	93.1902
540.047	121.26048
540.519	164.38366
540.991	160.38236
541.463	113.26875
541.934	136.30251
542.406	130.30805
542.877	151.33455
543.348	183.43137
543.82	113.27175
544.291	148.33957
544.762	146.34182
545.233	163.40517
545.703	144.31525
546.174	139.31745
546.645	157.37296
547.115	169.39961
547.585	166.37399
548.056	189.45398
548.526	195.45143
548.996	104.24663
549.466	177.4208
549.935	189.44101
550.405	153.33049
550.875	185.4293
551.344	161.37671
551.814	155.34913
552.283	212.4494
552.752	201.45922
553.221	192.41394
553.69	263.57198
554.159	213.51609
554.628	189.41891
555.096	196.48692
555.565	174.3769
556.033	237.54735
556.502	177.4182
556.97	169.36896
557.438	151.34888
557.906	192.44228
558.374	156.35591
558.842	141.33315
559.31	175.38384
559.777	163.39139
560.245	118.26813
560.712	155.34899
561.18	179.38781
561.647	135.29561
562.114	186.41664
562.581	140.33967
563.048	142.3207
563.514	207.50608
563.981	165.3709
564.448	202.44465
564.914	197.44591
565.381	251.55308
565.847	174.39682
566.313	202.4562
566.779	243.52782
567.245	192.43362
567.711	256.5904
568.176	203.44338
568.642	240.58467
569.108	238.56591
569.573	235.52564
570.038	257.51607
570.504	260.5651
570.969	278.661
571.434	319.67251
571.899	311.7022
572.363	344.74574
572.828	396.85113
573.293	394.84428
573.757	416.89949
574.222	362.76332
574.686	427.91241
575.15	436.97572
575.614	512.1032
576.078	437.95155
576.542	474.99243
577.006	477.98921
577.469	512.15127
577.933	559.1471
578.396	464.01328
578.86	499.07353
579.323	557.21495
579.786	490.9701
580.249	595.25681
580.712	480.07303
581.175	490.10937
581.637	466.97827
582.1	509.00574
582.563	472.91698
583.025	544.20183
583.487	521.96759
583.95	437.86416
584.412	533.00697
584.874	478.07294
585.336	429.94641
585.797	498.98687
586.259	452.97773
586.721	464.00216
587.182	458.97377
587.643	471.98375
588.105	405.89385
588.566	441.84633
589.027	456.0331
589.488	401.85983
589.949	459.02958
590.41	464.83877
590.87	430.91385
591.331	426.86313
591.791	424.91326
592.252	435.94077
592.712	426.95021
593.172	499.03576
593.632	473.96559
594.092	470.96186
594.552	427.85665
595.011	417.88873
595.471	491.0173
595.931	471.97764
596.39	405.90954
596.849	451.97119
597.308	416.82128
597.768	488.1615
598.227	468.03582
598.685	516.06849
599.144	457.99593
599.603	536.13571
600.062	483.92829
600.52	563.14336
600.978	549.17318
601.437	588.19503
601.895	712.31668
602.353	597.16563
602.811	690.35869
603.269	704.46495
603.727	674.4267
604.184	786.53061
604.642	793.67995
605.099	867.70418
605.557	882.8089
606.014	940.64949
606.471	905.91653
606.928	1068.88455
607.385	1036.12626
607.842	1100.99862
608.299	1138.09468
608.755	1212.29017
609.212	1302.1675
609.668	1334.2344
610.125	1372.47562
610.581	1364.37911
611.037	1446.32521
611.493	1440.447
611.949	1577.74204
612.405	1625.17768
612.861	1615.56531
613.316	1672.76868
613.772	1729.64636
614.227	1811.9028
614.683	1860.44491
615.138	1852.82979
615.593	1785.73796
616.048	1903.76327
616.503	1952.04832
616.958	1953.19345
617.412	2037.00584
617.867	2022.74053
618.321	1951.38852
618.776	1998.66036
619.23	1996.91756
619.684	1988.70545
620.138	2050.84368
620.592	2015.08482
621.046	2005.96187
621.5	1983.02625
621.954	1943.64197
622.407	1931.63539
622.861	1907.01014
623.314	2012.77395
623.768	1968.93315
624.221	1930.20526
624.674	1878.77856
625.127	1867.7959
625.58	1849.64277
626.033	1895.56701
626.485	1816.87438
626.938	1872.89907
627.39	1882.82955
627.843	1836.7382
628.295	1863.75684
628.747	1882.91142
629.199	1879.71621
629.651	1906.76182
630.103	1845.72325
630.555	1905.43047
631.006	1903.81533
631.458	1925.88076
631.909	1998.71417
632.361	2021.85285
632.812	2076.89871
633.263	2049.61067
633.714	2147.54376
634.165	2194.12069
634.616	2254.07917
635.067	2342.77018
635.518	2332.12475
635.968	2494.28615
636.419	2601.77568
636.869	2661.20708
637.319	2763.10641
637.769	2790.93304
638.219	2944.2047
638.669	3087.24438
639.119	3101.28295
639.569	3295.27647
640.019	3481.98781
640.468	3632.74507
640.918	3859.02876
641.367	3849.64532
641.816	4052.50359
642.265	4212.75641
642.714	4456.50179
643.163	4586.49021
643.612	4695.87286
644.061	4893.79905
644.51	4972.21418
644.958	5158.85617
645.406	5468.24171
645.855	5447.37094
646.303	5674.89564
646.751	5880.81951
647.199	5953.65098
647.647	6146.74412
648.095	6234.59833
648.543	6393.94476
648.99	6508.87652
649.438	6587.61565
649.885	6563.12726
650.333	6685.78025
650.78	6862.87291
651.227	6827.95693
651.674	6801.53162
652.121	6882.97164
652.568	6910.96077
653.015	6780.0302
653.461	6937.76968
653.908	6812.56157
654.354	6779.77809
654.801	6689.69116
655.247	6712.24795
655.693	6745.40779
656.139	6577.81223
656.585	6499.83132
657.031	6438.74277
657.477	6466.308
657.922	6333.54914
658.368	6367.06203
658.813	6215.57779
659.259	6317.98293
659.704	6169.87374
660.149	6130.69359
660.594	6114.89513
661.039	5967.67507
661.484	5939.9448
661.929	5964.84091
662.373	5855.42177
662.818	5860.3007
663.262	5843.13948
663.707	5864.53197
664.151	5796.219
664.595	5774.17112
665.039	5751.3791
665.483	5831.54484
665.927	5917.8843
666.371	5895.91829
666.814	5949.95748
667.258	5997.04808
667.701	6003.25737
668.145	6127.23381
668.588	6139.19755
669.031	6111.82811
669.474	6250.91859
669.917	6189.35923
670.36	6261.20771
670.803	6438.91834
671.245	6341.97424
671.688	6407.97166
672.13	6440.4968
672.573	6379.25449
673.015	6575.87442
673.457	6539.26753
673.899	6640.88225
674.341	6660.85137
674.783	6643.82051
675.225	6684.99523
675.666	6673.9603
676.108	6722.2292
676.549	6666.63467
676.991	6618.30436
677.432	6724.85576
677.873	6659.5159
678.314	6606.77484
678.755	6646.0118
679.196	6641.5241
679.637	6503.82534
680.078	6443.6804
680.518	6326.59352
680.959	6146.88413
681.399	6242.13482
681.839	6131.02776
682.28	6109.21773
682.72	6063.64159
683.16	5873.34788
683.6	5908.6625
684.039	5761.1434
684.479	5806.2964
684.919	5771.95224
685.358	5664.42236
685.798	5623.82741
686.237	5566.13893
686.676	5464.81596
687.115	5609.03146
687.554	5475.21464
687.993	5395.70499
688.432	5366.92431
688.871	5249.02352
689.309	5167.39654
689.748	5288.38173
690.186	5282.13731
690.625	5264.18466
691.063	5225.31705
691.501	5152.64211
691.939	5208.76362
692.377	5205.44965
692.815	5241.50446
693.253	5105.36042
693.69	5043.81414
694.128	5059.54379
694.565	5101.32742
695.003	5029.98625
695.44	4985.39581
695.877	4830.43397
696.314	4783.70983
696.751	4700.23133
697.188	4828.32466
697.625	4757.10869
698.061	4641.66394
698.498	4587.59126
698.934	4536.70428
699.371	4474.62726
699.807	4490.63595
700.243	4372.8654
700.679	4316.32755
701.115	4299.64888
701.551	4241.64771
701.987	4189.25859
702.422	4182.88021
702.858	4137.8963
703.294	4175.59692
703.729	3965.11186
704.164	3833.02804
704.599	3913.54601
705.035	3697.66691
705.47	3701.1986
705.904	3736.85473
706.339	3722.80093
706.774	3603.97851
707.209	3516.96939
707.643	3525.14746
708.078	3425.28477
708.512	3345.5198
708.946	3378.11189
709.38	3351.14394
709.814	3261.85151
710.248	3327.34636
710.682	3270.23434
711.116	3182.34082
711.549	3097.6574
711.983	3007.01511
712.416	3076.17877
712.85	2957.44576
713.283	2940.14759
713.716	2923.44656
714.149	2759.02694
714.582	2846.86634
715.015	2680.3492
715.448	2750.53393
715.881	2601.62338
716.313	2512.0424
716.746	2526.11975
717.178	2413.17196
717.61	2474.51148
718.043	2408.30887
718.475	2331.18865
718.907	2341.3406
719.339	2293.8367
719.77	2268.09691
720.202	2180.27399
720.634	2147.16024
721.065	2122.94233
721.497	2085.1056
721.928	2067.08373
722.359	1948.99598
722.79	1978.93609
723.221	1925.0578
723.652	1930.17179
724.083	1851.58875
724.514	1854.67699
724.945	1769.69105
725.375	1717.6492
725.806	1711.84691
726.236	1721.01018
726.666	1604.57864
727.096	1615.72672
727.526	1671.00079
727.956	1624.48887
728.386	1546.6647
728.816	1548.83967
729.246	1580.73226
729.675	1376.45904
730.105	1451.5521
730.534	1430.36774
730.964	1371.52573
731.393	1340.42744
731.822	1346.58103
732.251	1346.55641
732.68	1313.21869
733.109	1253.34434
733.537	1288.36585
733.966	1345.50347
734.395	1223.11704
734.823	1092.84324
735.251	1151.12976
735.68	1190.25285
736.108	1072.12343
736.536	1120.01836
736.964	1092.95802
737.392	1155.24417
737.82	1126.07562
738.247	1032.94303
738.675	1055.93941
739.102	986.98878
739.53	1040.15741
739.957	1046.18332
740.384	956.85513
740.811	910.85799
741.238	992.96071
741.665	997.8683
742.092	855.60491
742.519	896.83682
742.945	1005.95914
743.372	919.87596
743.798	878.87104
744.225	787.55544
744.651	829.73565
745.077	852.76853
745.503	751.53202
745.929	896.78231
746.355	780.59449
746.781	756.57258
747.207	788.56942
747.632	813.69913
748.058	805.71428
748.483	772.48052
748.908	765.61847
749.334	764.59769
749.759	773.55056
750.184	715.47302
750.609	704.47664
751.033	711.40437
751.458	752.39426
751.883	718.50802
752.307	704.41035
752.732	693.53746
753.156	625.34101
753.58	678.36571
754.005	691.49297
754.429	726.46253
754.853	622.35606
755.277	674.37507
755.7	663.42509
756.124	614.3369
756.548	663.34433
756.971	672.41254
757.394	678.50136
757.818	627.42085
758.241	652.44493
758.664	604.34067
759.087	618.20357
759.51	620.33227
759.933	623.31316
760.356	611.39072
760.778	586.26506
761.201	631.32014
761.623	584.2117
762.046	565.15265
762.468	614.27518
762.89	582.24354
763.312	622.3274
763.734	588.24173
764.156	618.33196
764.578	572.13232
765	599.27577
765.421	566.28274
765.843	562.30814
766.264	575.18742
766.686	538.18162
767.107	507.09358
767.528	528.2149
767.949	508.15298
768.37	519.14819
768.791	510.08336
769.212	480.09022
769.632	502.04547
770.053	443.05161
770.473	511.09185
770.894	478.05096
771.314	470.98927
771.734	405.85491
772.154	415.96556
772.575	427.88435
772.994	436.8842
773.414	449.95734
773.834	368.8412
774.254	433.95484
774.673	477.04678
775.093	405.92147
775.512	449.00051
775.931	453.03855
776.351	457.02845
776.77	434.96645
777.189	400.86305
777.607	383.8978
778.026	430.97181
778.445	339.7981
778.864	323.75778
779.282	363.78977
779.701	346.80014
780.119	343.80437
780.537	326.75001
780.955	355.82502
781.373	341.77557
781.791	395.81295
782.209	366.74767
782.627	304.748
783.045	265.55892
783.462	306.727
783.88	299.72334
784.297	275.64695
784.715	291.70187
785.132	275.61535
785.549	305.70689
785.966	270.63531
786.383	288.66339
786.8	299.64004
787.217	347.76202
787.633	265.6261
788.05	255.55081
788.466	273.58792
788.883	273.65821
789.299	190.42595
789.715	288.65306
790.131	266.61785
790.547	218.51177
790.963	254.58835
791.379	238.56613
791.795	180.38257
792.21	244.52762
792.626	201.44458
793.041	182.4246
793.457	188.43635
793.872	190.41683
794.287	205.4693
794.702	146.33673
795.117	185.43812
795.532	227.54027
795.947	207.46053
796.362	163.36008
796.776	171.36985
797.191	185.42947
797.605	207.46339
798.02	169.38923
798.434	226.46797
798.848	184.43567
799.262	148.35016
799.676	206.47263
800.09	156.36452
800.504	138.31726
800.918	158.34254
801.331	89.21962
801.745	145.31362
802.158	128.30285
802.572	186.42538
802.985	170.38425
803.398	178.39889
803.811	126.30295
804.224	92.217
804.637	134.30548
805.05	107.23469
805.462	152.35224
805.875	138.34359
806.288	142.32841
806.7	94.22455
807.112	104.22797
807.525	70.1637
807.937	152.35823
808.349	104.24787
808.761	164.38396
809.173	122.28362
809.584	165.3835
809.996	144.33463
810.408	157.39082
810.819	128.28696
811.231	145.37167
811.642	226.52744
812.053	204.46861
812.464	100.22659
812.875	151.36959
813.286	151.37411
813.697	156.33445
814.108	116.26892
814.519	149.31647
814.929	95.23192
815.34	87.20013
815.75	124.30424
816.16	107.25154
816.571	89.22172
816.981	83.18527
817.391	59.13589
817.801	79.18977
818.211	84.19134
818.62	113.26119
819.03	87.20389
819.44	67.16588
819.849	65.15614
820.259	34.08348
820.668	77.18306
821.077	116.27817
821.486	91.20674
821.895	106.24613
822.304	69.17631
822.713	123.2749
823.122	84.20082
823.531	59.13241
823.939	80.18811
824.348	110.25319
824.756	85.20309
825.164	118.28167
825.573	27.06584
825.981	71.16821
826.389	105.25165
826.797	119.28997
827.205	113.24859
827.612	104.24359
828.02	32.07221
828.428	71.17391
828.835	77.19703
829.243	91.20548
829.65	71.17139
830.057	64.14849
830.464	93.21983
830.871	81.18663
831.278	70.1626
831.685	72.15269
832.092	49.11443
832.499	65.13679
832.905	35.08519
833.312	81.17257
833.718	123.29411
834.124	117.25414
834.531	60.14415
834.937	100.24681
835.343	98.22341
835.749	14.03115
836.155	59.14933
836.561	61.14463
836.966	50.11729
837.372	32.07849
837.777	73.17549
838.183	108.22584
838.588	110.26247
838.993	102.23703
839.399	52.12318
839.804	26.06154
840.209	70.17385
840.613	70.14832
841.018	72.17423
841.423	64.15842
841.828	28.06906
842.232	50.11711
842.637	117.26516
843.041	20.0501
843.445	47.11286
843.849	63.15076
844.253	66.14979
844.657	82.19963
845.061	126.27538
845.465	69.16
845.869	53.11821
846.272	48.11335
846.676	25.05735
847.079	50.1239
847.483	76.18128
847.886	82.18882
848.289	80.20868
848.692	35.08513
849.095	80.18282
849.498	90.21483
849.901	74.16043
850.304	75.17122
850.707	57.13952
851.109	93.22374
851.512	100.23523
851.914	35.08608
852.316	73.17961
852.718	112.28422
853.121	83.19482
853.523	27.06042
853.925	67.17048
854.326	59.14312
854.728	32.08008
855.13	40.101
855.531	51.11756
855.933	33.07558
856.334	65.15726
856.736	106.22735
857.137	106.23637
857.538	33.08095
857.939	81.19479
858.34	31.07211
858.741	61.15323
859.142	50.11477
859.542	75.19211
859.943	80.19031
860.343	22.0532
860.744	79.18434
861.144	67.15837
861.544	16.03783
861.945	38.09351
862.345	79.18384
862.745	73.17549
863.145	46.10351
863.544	79.19222
863.944	115.25734
864.344	-18.043
864.743	104.2454
865.143	78.19435
865.542	22.04853
865.941	56.13393
866.34	49.11119
866.74	63.16358
867.139	75.17446
867.537	19.0464
867.936	94.21671
868.335	8.01973
868.734	28.06949
869.132	35.07716
869.531	78.17789
869.929	49.1077
870.327	36.08316
870.726	25.05962
871.124	57.12645
871.522	44.1078
871.92	68.16089
872.318	36.08419
872.715	47.11019
873.113	21.04918
873.511	55.13131
873.908	54.13377
874.306	86.20654
874.703	30.07178
875.1	53.12862
875.497	32.07363
875.894	66.15833
876.291	72.16969
876.688	57.14195
877.085	50.11431
877.482	55.13237
877.878	87.20285
878.275	57.13988
878.671	11.02281
879.068	61.14105
879.464	63.14585
879.86	51.11572
880.256	14.03288
880.652	26.06401
881.048	76.17815
881.444	54.12126
881.84	53.12953
882.236	72.17338
882.631	97.2283
883.027	78.17954
883.422	21.05169
883.817	52.12697
884.213	38.0943
884.608	111.26511
885.003	34.07826
885.398	7.01703
885.793	72.17246
886.188	4.00964
886.582	54.13205
886.977	14.03186
887.371	39.09447
887.766	32.07741
888.16	21.04977
888.554	103.24044
888.949	75.1803
889.343	79.18326
889.737	38.09919
890.131	52.1256
890.525	93.22924
890.918	61.14736
891.312	35.07968
891.706	42.10628
892.099	80.19432
892.492	104.20976
892.886	45.10563
893.279	28.06883
893.672	83.20399
894.065	62.1493
894.458	56.13393
894.851	66.15368
895.244	69.16914
895.637	84.19374
896.029	113.2642
896.422	66.15234
896.814	26.06223
897.206	76.17549
897.599	83.19581
897.991	56.13085
898.383	107.24033
898.775	88.19103
899.167	80.18075
899.559	43.10392
899.951	81.17999
900.342	37.08989
900.734	63.15403
901.125	44.11071
901.517	51.1206
901.908	35.07942
902.299	51.12027
902.69	64.1459
903.082	91.20992
903.473	57.13317
903.863	13.03197
904.254	62.1394
904.645	6.01427
905.036	109.25625
905.426	53.11404
905.817	-3.00709
906.207	47.10617
906.597	83.18696
906.987	35.08691
907.378	73.17815
907.768	44.11292
908.158	37.08664
908.547	91.22859
908.937	-19.04694
909.327	75.17356
909.717	40.09621
910.106	37.08505
910.495	44.10443
910.885	80.19461
911.274	57.13661
911.663	44.10656
912.052	56.13091
912.441	65.16016
912.83	44.09596
913.219	45.11324
913.608	81.19035
913.997	16.03927
914.385	86.19566
914.774	50.11661
915.162	91.209
915.55	71.16274
915.939	54.1323
916.327	17.0407
916.715	85.21091
917.103	40.09295
917.491	87.20453
917.878	45.10608
918.266	44.10963
918.654	86.21218
919.041	82.20838
919.429	53.11977
919.816	29.07093
920.203	64.15025
920.591	102.24133
920.978	77.1801
921.365	31.07913
921.752	30.06767
922.139	82.16858
922.525	61.14094
922.912	57.13269
923.299	40.09596
923.685	38.09489
924.072	33.07107
924.458	52.12446
924.844	56.13316
925.231	-12.0268
925.617	28.06972
926.003	48.11777
926.389	41.09965
926.774	40.09734
927.16	84.19874
927.546	65.16228
927.931	78.18476
928.317	63.13725
928.702	93.20777
929.088	78.18026
929.473	77.18945
929.858	41.09729
930.243	62.14413
930.628	84.19728
931.013	39.09329
931.398	59.12701
931.783	20.05048
932.167	95.22377
932.552	52.12479
932.937	47.1114
933.321	83.20104
933.705	27.06496
934.09	30.07156
934.474	25.05654
934.858	36.09051
935.242	32.07097
935.626	54.13387
936.009	79.20427
936.393	85.21013
936.777	44.10943
937.16	78.19653
937.544	54.11952
937.927	37.0912
938.311	73.16887
938.694	91.23146
939.077	46.10567
939.46	48.11044
939.843	67.1287
940.226	-9.02235
940.609	100.22031
940.991	-3.00737
941.374	77.18109
941.757	93.21752
942.139	75.16083
942.522	73.16322
942.904	64.1472
943.286	79.19135
943.668	73.1837
944.05	43.10199
944.432	48.11331
944.814	14.03297
945.196	59.13914
945.578	70.16196
945.959	72.15889
946.341	45.10389
946.722	46.10275
947.104	59.13502
947.485	60.13341
947.866	52.12721
948.247	70.17118
948.628	5.01155
949.009	68.16721
949.39	59.13984
949.771	13.02838
950.152	77.18081
950.532	86.20819
950.913	61.14049
951.293	59.15545
951.674	34.07914
952.054	121.29032
952.434	36.0863
952.814	29.06551
953.194	16.04004
953.574	71.16626
953.954	20.04523
954.334	105.25155
954.714	39.09197
955.093	79.18529
955.473	83.20081
955.853	57.14215
956.232	25.06647
956.611	80.18002
956.99	80.19323
957.37	15.03676
957.749	53.11889
958.128	42.10267
958.506	62.1551
958.885	32.07761
959.264	74.1759
959.643	151.3238
960.021	67.16033
960.4	45.09733
960.778	55.12774
961.156	-1.00242
961.535	4.0089
961.913	70.15713
962.291	47.11789
962.669	27.0665
963.047	70.17245
963.424	74.18378
963.802	52.12308
964.18	82.19469
964.557	86.18668
964.935	57.12892
965.312	55.1389
965.69	9.02159
966.067	15.03482
966.444	13.03032
966.821	92.22706
967.198	85.19366
967.575	23.05411
967.952	46.10342
968.329	77.1801
968.705	90.18344
969.082	87.21681
969.458	81.18812
969.835	39.09122
970.211	81.20149
970.587	96.22819
970.963	88.21367
971.339	18.04584
971.715	45.10834
972.091	57.13437
972.467	38.08977
972.843	77.1851
973.219	57.12939
973.594	13.03303
973.97	6.01339
974.345	42.09698
974.721	33.07555
975.096	83.19314
975.471	65.14641
975.846	5.01152
976.221	41.10054
976.596	90.20906
976.971	94.22275
977.346	37.08177
977.72	28.06852
978.095	30.07489
978.469	46.10465
978.844	72.172
979.218	71.16529
979.593	47.1073
979.967	31.07117
980.341	56.12374
980.715	73.17662
981.089	51.12251
981.463	31.06828
981.837	80.18906
982.21	25.05421
982.584	26.0608
982.957	35.08484
983.331	53.11777
983.704	45.10773
984.078	10.02379
984.451	45.10558
984.824	55.12935
985.197	2.00462
985.57	35.08308
985.943	43.09994
986.316	22.05116
986.688	70.16067
987.061	85.18997
987.434	79.2003
987.806	42.09617
988.179	50.11233
988.551	38.09241
988.923	32.07536
989.295	61.14514
989.667	74.17149
990.039	89.21354
990.411	35.07583
990.783	14.03053
991.155	23.05354
991.527	44.10176
991.898	62.1489
992.27	84.20043
992.641	30.07202
993.012	19.04178
993.384	24.05476
993.755	41.1014
994.126	75.1737
994.497	13.03085
994.868	-24.05274
995.239	32.0743
995.61	-1.00244
995.98	56.12998
996.351	71.16951
996.722	71.15881
997.092	91.20582
997.462	65.14683
997.833	69.15421
998.203	20.04594
998.573	3.00727
998.943	61.13735
999.313	81.18603
999.683	57.13139
1000.053	-4.00866
1000.423	21.04875
1000.792	1.00249
1001.162	23.05416
1001.531	75.17694
1001.901	42.10006
1002.27	22.04604
1002.639	21.05144
1003.009	47.10669
1003.378	67.16466
1003.747	43.09654
1004.116	46.10521
1004.485	46.10521
1004.853	19.04581
1005.222	-10.02401
1005.591	74.16652
1005.959	76.16329
1006.328	25.05419
1006.696	17.03933
1007.064	29.06958
1007.433	63.14938
1007.801	4.00931
1008.169	10.02415
1008.537	88.18361
1008.905	72.16089
1009.273	27.06367
1009.64	104.23843
1010.008	45.10244
1010.375	46.10487
1010.743	57.12101
1011.11	108.2469
1011.478	81.19272
1011.845	55.12262
1012.212	74.16105
1012.579	72.1691
1012.946	20.04519
1013.313	81.18126
1013.68	24.05132
1014.047	59.1342
1014.414	-11.02509
1014.78	72.1718
1015.147	43.09828
1015.513	49.11304
1015.88	70.16997
1016.246	39.09115
1016.612	68.14635
1016.978	70.16498
1017.344	47.11174
1017.71	48.11124
1018.076	66.14638
1018.442	64.15854
1018.808	43.10443
1019.174	43.10298
1019.539	-7.01482
1019.905	46.10444
1020.27	22.05221
1020.636	75.16845
1021.001	48.1104
1021.366	36.08343
1021.731	98.244
1022.096	38.09331
1022.461	56.12694
1022.826	48.11013
1023.191	54.1365
1023.556	62.13751
1023.92	77.17848
1024.285	52.11998
1024.649	31.07251
1025.014	59.138
1025.378	62.15043
1025.742	-14.03342
1026.107	30.06462
1026.471	94.20588
1026.835	50.11885
1027.199	65.14971
1027.562	38.08347
1027.926	78.18033
1028.29	67.16253
1028.654	71.15422
1029.017	82.19259
1029.381	59.13513
1029.744	52.12754
1030.107	92.20609
1030.471	66.15161
1030.834	-3.00646
1031.197	116.26327
1031.56	11.02483
1031.923	52.12961
1032.286	51.11427
1032.648	53.11914
1033.011	56.12446
1033.374	29.06452
1033.736	3.00768
1034.099	19.04467
1034.461	32.07863
1034.823	65.15566
1035.185	32.07677
1035.548	70.16338
1035.91	58.13228
1036.272	41.08966
1036.634	68.15858
1036.995	28.06254
1037.357	51.11952
1037.719	45.10509
1038.08	99.22455
1038.442	27.06139
1038.803	-33.07564
1039.165	-19.04637
1039.526	62.14317
1039.887	59.13453
1040.248	73.17495
1040.609	40.09372
1040.97	17.03989
1041.331	84.20457
1041.692	74.16754
1042.053	79.16897
1042.413	58.12773
1042.774	68.15815
1043.134	72.16055
1043.495	43.1038
1043.855	76.17773
1044.215	24.057
1044.576	15.03482
1044.936	101.21667
1045.296	49.11721
1045.656	31.07222
1046.016	40.09189
1046.375	40.09303
1046.735	93.20321
1047.095	57.12724
1047.454	39.07737
1047.814	50.11509
1048.173	8.01811
1048.533	38.08316
1048.892	25.05799
1049.251	34.08141
1049.61	75.17632
1049.969	23.05185
1050.328	127.25667
1050.687	59.1361
1051.046	4.00936
1051.405	17.04035
1051.763	61.13515
1052.122	26.06235
1052.48	47.11084
1052.839	84.19095
1053.197	44.09885
1053.555	37.07852
1053.914	79.18318
1054.272	13.02955
1054.63	99.23029
1054.988	50.11477
1055.345	42.08448
1055.703	92.21041
1056.061	95.23606
1056.419	63.15934
1056.776	-1.0023
1057.134	26.05651
1057.491	67.16051
1057.848	22.05241
1058.206	21.04657
1058.563	34.07119
1058.92	54.11782
1059.277	49.11578
1059.634	28.06213
1059.991	96.21841
1060.348	50.10812
1060.704	71.16522
1061.061	60.12969
1061.418	24.05608
1061.774	0
1062.131	52.13471
1062.487	7.01564
1062.843	68.16182
1063.199	47.11221
1063.555	67.14913
1063.911	0
1064.267	95.18187
1064.623	66.15495
1064.979	0
1065.335	113.25203
1065.691	25.05657
1066.046	67.13883
1066.402	43.09241
1066.757	43.10439
1067.112	58.13531
1067.468	37.08498
1067.823	9.02037
1068.178	40.09196
1068.533	52.12046
1068.888	45.10215
1069.243	30.07123
1069.598	28.06486
1069.952	55.12074
1070.307	6.01444
1070.662	101.23011
1071.016	108.23124
1071.371	78.16903
1071.725	42.09509
1072.079	52.11984
1072.434	44.1029
1072.788	25.05627
1073.142	82.19221
1073.496	36.08154
1073.85	39.08616
1074.203	104.2391
1074.557	75.19406
1074.911	45.10178
1075.265	84.1846
1075.618	57.13317
1075.971	77.17366
1076.325	72.17659
1076.678	14.03077
1077.031	1.00212
1077.385	87.17946
1077.738	76.16174
1078.091	46.10079
1078.444	72.15629
1078.796	30.07128
1079.149	43.1029
1079.502	76.172
1079.855	20.04484
1080.207	58.13601
1080.56	78.19435
1080.912	54.12534
1081.264	80.18399
1081.617	-9.02133
1081.969	66.1605
1082.321	58.13473
1082.673	50.11071
1083.025	30.06773
1083.377	315.66699
1083.728	88.1929
1084.08	42.09991
1084.432	75.17122
1084.783	36.07885
1085.135	43.10408
1085.486	50.10979
1085.838	60.14185
1086.189	89.20719
1086.54	60.13584
1086.891	79.19487
1087.242	109.25605
1087.593	79.1797
1087.944	108.23224
1088.295	72.15443
1088.646	89.20923
1088.996	38.08841
1089.347	49.1143
1089.698	61.1392
1090.048	14.03496
1090.398	38.08351
1090.749	50.11306
1091.099	114.27576
1091.449	67.16027
1091.799	59.14135
1092.149	85.20045
1092.499	56.13065
1092.849	21.05165
1093.199	48.11423
1093.548	124.28428
1093.898	25.05998
1094.248	8.01969
1094.597	42.10473
1094.947	32.08281
1095.296	79.1871
1095.645	31.07745
1095.994	72.16454
1096.343	63.15243
1096.692	54.13912
1097.041	55.14628
1097.39	52.12422
1097.739	60.14966
1098.088	38.09763
1098.437	19.04916
1098.785	5.013
1099.134	17.04298
1099.482	39.10438
1099.83	52.13168
1100.179	68.17391
1100.527	13.0331
1100.875	23.05943
1101.223	50.12908
1101.571	-2.00537
1101.919	87.22308
1102.267	33.09121
1102.615	8.02568
1102.962	2.00642
1103.31	8.02568
1103.658	-5.01604
