Data from N3 R2 sample 3_Subt2__2__10-13-21-388.txt Node

Date: Thu Sep 18 10:13:21 PDT 2025
User: uwsun
Spectrometer: HDX01956
Trigger mode: 0
Integration Time (sec): 5.000000E-1
Scans to average: 1
Nonlinearity correction enabled: true
Boxcar width: 0
Storing dark spectrum: false
XAxis mode: Wavelengths
Number of Pixels in Spectrum: 2068
>>>>>Begin Spectral Data<<<<<
194.03	150.42589
194.578	128.40997
195.127	134.4227
195.676	154.48637
196.225	203.52377
196.773	159.43335
197.321	248.66749
197.87	348.85718
198.418	386.95144
198.966	403.01157
199.513	408.98823
200.061	332.81507
200.609	393.99159
201.156	362.75661
201.704	332.80693
202.251	383.97601
202.798	353.88083
203.345	411.9683
203.892	361.87689
204.438	353.80351
204.985	357.81393
205.532	359.90843
206.078	403.93617
206.624	422.00455
207.17	458.00775
207.716	439.01684
208.262	397.74277
208.808	429.02144
209.354	455.06021
209.899	415.99289
210.445	440.04026
210.99	384.89645
211.535	465.02724
212.08	400.88227
212.625	404.96087
213.17	435.0492
213.715	412.89275
214.259	449.9868
214.804	361.84856
215.348	383.84496
215.892	363.84594
216.436	344.75305
216.98	379.79056
217.524	397.904
218.068	388.93592
218.612	453.08611
219.155	385.86747
219.698	374.84941
220.242	338.80178
220.785	399.88982
221.328	342.81157
221.871	419.01092
222.414	369.87107
222.956	327.75156
223.499	332.70836
224.041	297.65443
224.583	306.61887
225.126	346.72317
225.668	354.82189
226.21	364.88136
226.751	386.81392
227.293	375.8034
227.835	397.9226
228.376	355.76778
228.918	339.80864
229.459	347.8293
230	382.87179
230.541	338.74273
231.082	362.84112
231.622	329.71125
232.163	289.67352
232.704	426.00438
233.244	361.85483
233.784	323.75097
234.324	364.77933
234.864	330.71265
235.404	345.77482
235.944	345.77514
236.484	399.94369
237.023	342.76982
237.563	359.795
238.102	383.85838
238.641	359.86092
239.18	366.81742
239.719	373.88903
240.258	381.8092
240.797	382.86581
241.335	345.80147
241.874	402.73261
242.412	406.93326
242.95	372.85615
243.488	340.72763
244.026	381.8409
244.564	398.76878
245.102	394.84391
245.64	403.90765
246.177	343.72564
246.715	410.92964
247.252	402.85844
247.789	429.73495
248.326	353.81292
248.863	442.90783
249.4	391.83694
249.936	458.8902
250.473	422.93973
251.009	359.78174
251.546	421.88323
252.082	364.74426
252.618	434.90829
253.154	417.94646
253.69	388.82173
254.226	390.88538
254.761	385.81698
255.297	411.84207
255.832	391.88135
256.367	397.8817
256.903	457.94647
257.438	437.95962
257.972	380.80056
258.507	377.81953
259.042	377.77591
259.576	467.96113
260.111	365.79615
260.645	423.8549
261.179	405.8961
261.713	473.98311
262.247	398.8569
262.781	416.82167
263.315	399.91516
263.849	374.89261
264.382	386.83892
264.915	424.94497
265.449	393.9097
265.982	419.89416
266.515	455.04397
267.048	456.8973
267.58	426.85839
268.113	392.79933
268.646	396.91755
269.178	369.78235
269.71	510.03672
270.243	476.02462
270.775	435.05197
271.307	420.93915
271.838	419.93093
272.37	393.91295
272.902	453.95622
273.433	489.0014
273.965	404.92829
274.496	365.86263
275.027	416.97951
275.558	463.056
276.089	437.02698
276.62	383.9181
277.15	443.02045
277.681	440.88212
278.211	462.05096
278.741	459.94976
279.272	443.94946
279.802	407.95814
280.332	443.98138
280.861	457.01921
281.391	409.87623
281.921	426.95767
282.45	430.00205
282.98	412.0162
283.509	504.05849
284.038	444.95181
284.567	423.92771
285.096	460.04345
285.625	412.87217
286.153	494.0962
286.682	495.05258
287.21	421.94391
287.739	472.03774
288.267	489.10778
288.795	461.12957
289.323	464.0167
289.851	514.11699
290.378	453.94154
290.906	487.10994
291.433	465.08441
291.961	493.04331
292.488	466.08014
293.015	517.12757
293.542	513.22739
294.069	497.14643
294.596	447.02354
295.122	547.2062
295.649	480.97298
296.175	471.05655
296.702	559.25582
297.228	491.09743
297.754	508.05377
298.28	528.11873
298.806	490.09812
299.332	499.03299
299.857	531.10917
300.383	499.16747
300.908	543.23179
301.433	543.22781
301.958	546.14635
302.483	444.03393
303.008	575.31239
303.533	501.20411
304.058	527.13047
304.582	529.15281
305.107	461.12749
305.631	539.12043
306.155	531.13955
306.679	557.2016
307.203	553.17715
307.727	503.10579
308.251	576.30279
308.775	548.22982
309.298	550.22067
309.822	540.25342
310.345	600.30638
310.868	631.37832
311.391	623.39348
311.914	567.30709
312.437	611.26414
312.96	621.32498
313.482	570.2247
314.005	566.2983
314.527	573.37164
315.049	628.44699
315.571	595.2167
316.093	610.37753
316.615	645.39587
317.137	606.19303
317.659	648.41698
318.18	567.23783
318.702	699.46001
319.223	627.14099
319.744	654.32032
320.265	666.46251
320.786	669.50997
321.307	644.44079
321.828	700.40168
322.348	696.46177
322.869	715.51721
323.389	707.21349
323.909	717.45001
324.43	700.49277
324.95	721.46143
325.47	742.63704
325.989	759.58827
326.509	725.43541
327.029	794.58138
327.548	784.54986
328.067	794.69267
328.587	870.89399
329.106	799.56297
329.625	844.92405
330.144	860.72251
330.662	844.71612
331.181	902.82003
331.7	853.70809
332.218	845.57054
332.736	843.70825
333.255	873.76991
333.773	851.73703
334.291	916.97058
334.808	862.66771
335.326	925.75443
335.844	945.88468
336.361	1013.20869
336.879	953.8989
337.396	1004.05587
337.913	1001.93014
338.43	973.83578
338.947	952.92979
339.464	1045.83955
339.981	960.9248
340.497	1025.10977
341.014	1054.13517
341.53	1045.93826
342.046	1091.25984
342.562	1107.27473
343.078	1060.05968
343.594	1094.13293
344.11	1143.225
344.626	1142.36717
345.141	1186.16269
345.657	1204.15709
346.172	1165.27647
346.687	1175.15494
347.202	1275.27258
347.717	1183.26939
348.232	1188.39833
348.747	1208.21842
349.261	1221.10355
349.776	1292.40866
350.29	1283.55454
350.805	1228.43304
351.319	1243.27894
351.833	1275.29586
352.347	1300.39866
352.861	1333.4214
353.374	1316.30578
353.888	1350.5702
354.401	1358.35748
354.915	1399.38645
355.428	1369.65591
355.941	1337.40185
356.454	1327.25694
356.967	1369.44211
357.48	1360.34736
357.993	1380.62367
358.505	1401.61188
359.018	1546.81208
359.53	1505.75432
360.042	1546.50547
360.554	1495.75229
361.066	1510.74358
361.578	1528.44717
362.09	1499.65603
362.602	1562.50772
363.113	1551.67829
363.625	1607.6088
364.136	1667.54438
364.647	1601.75503
365.158	1619.7043
365.669	1641.8169
366.18	1613.73644
366.691	1593.47433
367.201	1610.79904
367.712	1708.72757
368.222	1727.7652
368.733	1742.56974
369.243	1769.69105
369.753	1691.73428
370.263	1812.02133
370.773	1769.00863
371.282	1886.03628
371.792	1960.96609
372.301	1949.1277
372.811	1967.52879
373.32	2045.73964
373.829	2059.09698
374.338	2146.89079
374.847	2127.04633
375.356	2235.19511
375.865	2341.81135
376.373	2488.11897
376.882	2491.68859
377.39	2565.44343
377.898	2616.5605
378.407	2714.15169
378.915	2822.96723
379.423	2881.28923
379.93	3158.28021
380.438	3143.47853
380.946	3299.26285
381.453	3408.43993
381.96	3801.29794
382.468	4025.10033
382.975	4129.34934
383.482	4138.71671
383.989	4260.66308
384.495	4469.82592
385.002	4826.93817
385.509	5116.61997
386.015	5368.49889
386.521	5545.04597
387.028	5713.94767
387.534	5938.48648
388.04	6128.16451
388.546	6296.55747
389.051	6915.49133
389.557	7317.80816
390.063	7538.77586
390.568	7798.18621
391.073	8067.09163
391.578	8396.73266
392.084	8613.80252
392.589	9356.15055
393.093	10283.61331
393.598	10908.00682
394.103	11887.4295
394.607	12943.68753
395.112	13601.14416
395.616	14347.33605
396.12	15726.53792
396.624	17195.4088
397.128	18854.8898
397.632	20423.07544
398.136	22435.68346
398.639	24785.84159
399.143	28756.32132
399.646	31351.45267
400.15	34570.73261
400.653	39264.01782
401.156	44532.6308
401.659	51840.28807
402.162	62048.90597
402.664	62261.51677
403.167	63977.72923
403.67	63769.22307
404.172	63919.58413
404.674	63858.43483
405.176	63738.15102
405.678	63977.72923
406.18	64011.81569
406.682	63863.44694
407.184	63926.60148
407.686	63841.39382
408.187	64025.8516
408.688	63892.51763
409.19	63833.37461
409.691	63977.72923
410.192	63945.6488
410.693	63713.09355
411.194	63517.20852
411.694	60387.86455
412.195	55003.54516
412.696	51639.14876
413.196	50646.22389
413.696	51453.50519
414.196	50571.49108
414.696	48191.57984
415.196	44084.43439
415.696	35903.97981
416.196	27611.71522
416.695	23670.92438
417.195	22543.03014
417.694	21404.33547
418.194	19706.81917
418.693	18737.63981
419.192	18460.23019
419.691	18203.25273
420.19	17605.9148
420.688	16957.68598
421.187	15990.48014
421.685	14651.6812
422.184	12835.14934
422.682	10924.31203
423.18	9661.87865
423.678	8776.04758
424.176	8240.33021
424.674	7966.98284
425.172	7174.80254
425.669	6714.04618
426.167	6211.80384
426.664	5813.80623
427.161	5377.10379
427.659	5012.69715
428.156	4754.96241
428.652	4507.28868
429.149	4402.0487
429.646	4148.58824
430.143	3867.20272
430.639	3732.17411
431.135	3507.61538
431.632	3321.06296
432.128	3146.39476
432.624	3079.87064
433.12	3034.0946
433.616	2912.8858
434.111	2848.32501
434.607	2768.36104
435.103	2654.65868
435.598	2533.62368
436.093	2385.1195
436.588	2322.93625
437.083	2149.84942
437.578	2121.98064
438.073	2046.29552
438.568	1981.16738
439.062	1889.53401
439.557	1784.79446
440.051	1688.57155
440.546	1779.67958
441.04	1696.82251
441.534	1626.9361
442.028	1630.77064
442.522	1626.75204
443.015	1579.32272
443.509	1590.76262
444.002	1525.71479
444.496	1552.33576
444.989	1510.6667
445.482	1477.70019
445.975	1594.58393
446.468	1456.24716
446.961	1471.26986
447.454	1374.2682
447.947	1436.52885
448.439	1410.58818
448.931	1447.41506
449.424	1428.73604
449.916	1400.55699
450.408	1329.27485
450.9	1280.39208
451.392	1310.57059
451.884	1265.21314
452.375	1245.40117
452.867	1263.14868
453.358	1213.1417
453.849	1156.90332
454.341	1203.09104
454.832	1186.96048
455.323	1216.37912
455.814	1171.0833
456.304	1226.1821
456.795	1126.022
457.285	1102.90443
457.776	1183.08744
458.266	1118.10696
458.756	959.8667
459.247	1060.04409
459.737	1062.07626
460.226	1074.95028
460.716	971.91155
461.206	984.93219
461.695	933.92519
462.185	979.90749
462.674	909.72236
463.163	993.80331
463.653	994.69541
464.142	940.89245
464.63	859.75971
465.119	914.76341
465.608	934.8098
466.096	859.5492
466.585	853.63415
467.073	825.65043
467.561	813.66239
468.05	868.67134
468.538	830.72589
469.026	805.62671
469.513	762.36234
470.001	824.5994
470.489	748.5359
470.976	800.59261
471.463	759.63723
471.951	727.57484
472.438	719.46468
472.925	628.30951
473.412	612.32239
473.899	675.35249
474.385	669.44293
474.872	659.3496
475.359	663.43914
475.845	637.14984
476.331	615.1503
476.817	606.31556
477.303	621.27798
477.789	598.2695
478.275	597.32649
478.761	573.21873
479.247	561.11803
479.732	591.32292
480.218	600.4153
480.703	495.11366
481.188	596.14083
481.673	553.14141
482.158	524.01873
482.643	545.26329
483.128	531.11897
483.612	491.06806
484.097	452.00242
484.581	514.07716
485.066	499.1158
485.55	481.96989
486.034	450.89424
486.518	488.06759
487.002	389.88329
487.486	411.92755
487.969	411.92869
488.453	397.92224
488.936	417.86866
489.42	388.79873
489.903	398.92438
490.386	341.66072
490.869	428.8648
491.352	395.886
491.835	366.69713
492.318	386.80784
492.8	354.68542
493.283	393.9392
493.765	338.78258
494.247	357.78002
494.73	408.83649
495.212	311.69876
495.694	370.81748
496.175	370.83419
496.657	328.73408
497.139	363.57429
497.62	371.83696
498.102	333.78459
498.583	290.67865
499.064	338.70927
499.545	345.73945
500.026	320.68484
500.507	256.56492
500.988	328.77686
501.469	265.63288
501.949	320.74913
502.43	318.72693
502.91	376.74336
503.39	263.62498
503.87	321.71886
504.35	295.65629
504.83	277.57729
505.31	271.62486
505.79	265.59957
506.269	199.44291
506.749	305.66106
507.228	295.66118
507.707	323.68094
508.187	276.63068
508.666	292.69054
509.145	253.56799
509.623	275.61535
510.102	298.68642
510.581	327.74705
511.059	261.63119
511.538	325.79568
512.016	280.64136
512.494	269.61902
512.972	267.6127
513.45	240.53914
513.928	290.67306
514.406	270.63482
514.884	263.65203
515.361	232.53591
515.839	297.65114
516.316	304.70359
516.793	277.66987
517.27	228.5296
517.747	285.70036
518.224	296.64881
518.701	252.53418
519.178	278.66659
519.654	244.55622
520.131	241.57579
520.607	186.44262
521.083	219.47954
521.56	204.46654
522.036	271.56328
522.512	277.6552
522.987	213.49759
523.463	222.50893
523.939	239.57276
524.414	250.54961
524.89	250.57403
525.365	256.55475
525.84	238.55195
526.315	253.58964
526.79	274.59071
527.265	301.66185
527.74	186.43989
528.215	220.49625
528.689	219.46373
529.164	225.46517
529.638	223.54721
530.112	200.45685
530.587	225.46454
531.061	207.48643
531.534	240.55769
532.008	246.57659
532.482	290.63539
532.956	190.47236
533.429	281.65849
533.903	269.56336
534.376	224.47815
534.849	232.51454
535.322	238.54145
535.795	237.55213
536.268	282.6532
536.741	237.54255
537.213	224.49762
537.686	257.60485
538.158	272.59218
538.631	296.68399
539.103	241.52436
539.575	219.43509
540.047	241.5054
540.519	263.60328
540.991	251.58935
541.463	243.56343
541.934	247.53673
542.406	244.56542
542.877	272.5874
543.348	259.60148
543.82	239.56096
544.291	284.63378
544.762	304.68962
545.233	333.80193
545.703	287.6093
546.174	319.70202
546.645	373.84902
547.115	338.77295
547.585	379.81652
548.056	349.81268
548.526	376.83906
548.996	353.79669
549.466	402.91409
549.935	416.92714
550.405	373.76768
550.875	426.94117
551.344	380.85078
551.814	406.86736
552.283	500.99314
552.752	429.93493
553.221	495.99766
553.69	529.08348
554.159	483.10833
554.628	578.1752
555.096	482.13226
555.565	475.96263
556.033	587.25884
556.502	468.04099
556.97	512.03464
557.438	493.05923
557.906	565.20221
558.374	523.10257
558.842	527.14942
559.31	538.08777
559.777	544.20883
560.245	499.04405
560.712	564.16128
561.18	571.13166
561.647	626.22669
562.114	632.28343
562.581	637.39789
563.048	606.23671
563.514	707.564
563.981	652.31688
564.448	673.33293
564.914	724.4605
565.381	766.50363
565.847	724.46518
566.313	738.48197
566.779	780.49876
567.245	761.51663
567.711	754.56354
568.176	798.52163
568.642	805.74984
569.108	794.68243
569.573	805.58661
570.038	844.46515
570.504	952.76325
570.969	856.80523
571.434	918.67989
571.899	945.85508
572.363	918.74493
572.828	1013.88717
573.293	993.85166
573.757	1086.00962
574.222	983.78962
574.686	1019.89743
575.15	1008.98773
575.614	1086.05347
576.078	1078.02544
576.542	1040.90462
577.006	1093.95532
577.469	1056.11012
577.933	1072.9486
578.396	1129.12102
578.86	1102.0656
579.323	1096.11872
579.786	1087.85311
580.249	1143.12643
580.712	1112.16299
581.175	1089.16567
581.637	1120.01118
582.1	1104.8827
582.563	1177.90654
583.025	1103.15304
583.487	1205.86282
583.95	1201.95433
584.412	1282.98901
584.874	1322.4563
585.336	1249.28084
585.797	1306.10443
586.259	1310.31432
586.721	1382.40564
587.182	1463.43533
587.643	1492.4186
588.105	1552.60769
588.566	1652.27172
589.027	1610.8005
589.488	1695.63454
589.949	1786.93032
590.41	1886.23175
590.87	1968.81703
591.331	2070.67832
591.791	2140.96048
592.252	2308.06175
592.712	2342.21327
593.172	2429.98344
593.632	2675.90854
594.092	2735.92057
594.552	2891.7699
595.011	2969.06795
595.471	3270.96974
595.931	3294.93916
596.39	3426.30047
596.849	3632.03625
597.308	3823.39594
597.768	4090.63743
598.227	4386.92579
598.685	4547.45725
599.144	4811.55354
599.603	5107.32112
600.062	5470.45546
600.52	5797.73931
600.978	6070.9274
601.437	6469.57308
601.895	6841.25195
602.353	7095.40995
602.811	7565.71461
603.269	7990.2118
603.727	8490.74407
604.184	8851.15103
604.642	9323.12778
605.099	9814.27615
605.557	10243.47631
606.014	10940.5062
606.471	11200.89027
606.928	11844.78139
607.385	12418.05849
607.842	12918.15727
608.299	13114.31575
608.755	13761.70351
609.212	14270.15779
609.668	14749.33615
610.125	15235.83789
610.581	15621.26203
611.037	16007.28808
611.493	16470.57705
611.949	16769.99431
612.405	17213.4025
612.861	17375.61167
613.316	17630.72905
613.772	17931.66098
614.227	18134.99759
614.683	18342.96442
615.138	18322.08994
615.593	18405.45757
616.048	18374.42903
616.503	18435.64298
616.958	18377.00805
617.412	18366.33545
617.867	18187.56182
618.321	18040.67036
618.776	17940.79057
619.23	17569.57278
619.684	17327.78533
620.138	17198.61292
620.592	16804.54846
621.046	16548.20613
621.5	16365.75323
621.954	15934.8275
622.407	15380.97383
622.861	15237.76083
623.314	15070.43296
623.768	14563.91124
624.221	14173.26448
624.674	13895.49939
625.127	13603.07162
625.58	13368.73214
626.033	13194.75695
626.485	12620.78061
626.938	12587.61375
627.39	12229.5986
627.843	11914.92565
628.295	11604.27992
628.747	11251.3831
629.199	11124.06066
629.651	10902.06724
630.103	10548.67688
630.555	10313.10303
631.006	10059.99687
631.458	9856.3896
631.909	9588.71825
632.361	9482.44024
632.812	9312.05262
633.263	9086.55197
633.714	8785.95022
634.165	8682.97799
634.616	8383.55233
635.067	8341.31469
635.518	8189.35383
635.968	8101.79948
636.419	8016.92476
636.869	7721.98542
637.319	7646.85288
637.769	7521.64915
638.219	7499.85463
638.669	7236.80867
639.119	7256.84799
639.569	7243.86042
640.019	7180.6445
640.468	7161.49072
640.918	7020.75883
641.367	7004.4478
641.816	6923.39991
642.265	6946.66356
642.714	6906.56128
643.163	6812.60546
643.612	6790.9725
644.061	6833.20594
644.51	6718.56015
644.958	6798.35795
645.406	6581.82697
645.855	6623.92363
646.303	6630.60874
646.751	6542.63124
647.199	6615.49762
647.647	6564.64802
648.095	6533.53939
648.543	6522.94187
648.99	6408.89894
649.438	6305.66751
649.885	6308.19763
650.333	6335.7584
650.78	6262.98043
651.227	6214.08812
651.674	6139.63312
652.121	6022.18055
652.568	6027.16701
653.015	5909.28726
653.461	5988.95864
653.908	5784.7994
654.354	5608.13819
654.801	5551.05726
655.247	5589.5087
655.693	5483.92554
656.139	5377.27238
656.585	5330.30365
657.031	5135.29666
657.477	5112.80937
657.922	5141.04831
658.368	5064.6737
658.813	4876.19686
659.259	4815.71221
659.704	4910.48847
660.149	4658.42096
660.594	4586.67383
661.039	4530.41236
661.484	4458.72614
661.929	4337.69199
662.373	4228.2926
662.818	4197.18829
663.262	4238.99772
663.707	4168.43348
664.151	4015.15931
664.595	4028.09614
665.039	3878.34951
665.483	3834.56069
665.927	3828.95756
666.371	3818.98646
666.814	3727.08208
667.258	3663.21116
667.701	3747.37823
668.145	3530.47604
668.588	3523.44766
669.031	3485.09227
669.474	3505.21984
669.917	3335.69005
670.36	3438.51738
670.803	3518.2674
671.245	3343.30471
671.688	3264.36401
672.13	3260.90166
672.573	3224.62502
673.015	3216.3114
673.457	3117.70454
673.899	3154.33602
674.341	3116.31168
674.783	3155.2755
675.225	2985.45637
675.666	3080.42113
676.108	3006.68431
676.549	2960.10887
676.991	3027.76318
677.432	2940.26679
677.873	2874.9942
678.314	2946.23816
678.755	2939.46436
679.196	2962.99715
679.637	2790.26197
680.078	2885.12456
680.518	2780.02108
680.959	2806.23096
681.399	2799.46754
681.839	2785.34468
682.28	2758.48904
682.72	2675.99203
683.16	2780.51604
683.6	2731.96721
684.039	2713.47537
684.479	2711.43902
684.919	2801.16372
685.358	2729.48602
685.798	2763.7844
686.237	2675.22044
686.676	2607.9218
687.115	2752.16231
687.554	2818.25968
687.993	2689.81303
688.432	2694.97597
688.871	2686.00397
689.309	2735.26278
689.748	2809.49753
690.186	2732.11074
690.625	2714.13821
691.063	2729.22569
691.501	2750.44604
691.939	2793.56975
692.377	2805.32829
692.815	2851.39121
693.253	2841.2169
693.69	2844.74841
694.128	2869.34296
694.565	2828.18833
695.003	2937.68338
695.44	2917.19295
695.877	2911.15274
696.314	2933.53024
696.751	2925.92681
697.188	2969.06081
697.625	2883.85535
698.061	3025.25067
698.498	2933.16911
698.934	2958.23806
699.371	2979.14629
699.807	3016.15881
700.243	3050.29605
700.679	3060.81267
701.115	3091.07675
701.551	3164.03971
701.987	3080.69032
702.422	3208.21088
702.858	3195.20766
703.294	3292.93962
703.729	3245.32288
704.164	3278.19194
704.599	3222.79363
705.035	3328.79213
705.47	3331.29606
705.904	3385.97028
706.339	3517.87459
706.774	3410.03644
707.209	3499.97458
707.643	3484.15879
708.078	3490.26926
708.512	3601.46653
708.946	3606.04758
709.38	3577.08372
709.814	3740.69458
710.248	3728.2421
710.682	3818.07846
711.116	3834.17588
711.549	3810.53408
711.983	3810.80038
712.416	3894.95807
712.85	3934.24758
713.283	3938.89449
713.716	3988.2284
714.149	4013.71828
714.582	4021.51885
715.015	4002.13902
715.448	4089.31953
715.881	4085.18706
716.313	4081.74735
716.746	4205.78564
717.178	4186.90994
717.61	4181.35594
718.043	4232.08322
718.475	4274.9331
718.907	4302.13485
719.339	4330.41468
719.77	4351.79749
720.202	4317.1513
720.634	4400.95994
721.065	4414.63084
721.497	4488.88386
721.928	4467.87726
722.359	4508.83751
722.79	4484.71501
723.221	4515.97096
723.652	4617.11087
724.083	4514.24333
724.514	4665.30802
724.945	4531.51502
725.375	4610.46813
725.806	4637.84171
726.236	4621.15477
726.666	4710.46114
727.096	4701.7463
727.526	4742.17257
727.956	4871.15696
728.386	4823.69268
728.816	4839.05974
729.246	4902.7172
729.675	4761.68577
730.105	4798.68283
730.534	4910.25502
730.964	4891.78709
731.393	4819.67995
731.822	4873.01275
732.251	4858.9588
732.68	4948.1761
733.109	4944.67524
733.537	4968.60142
733.966	5071.70929
734.395	4993.15358
734.823	5030.81581
735.251	4894.48575
735.68	5024.6087
736.108	4888.79792
736.536	4879.29569
736.964	4981.16606
737.392	4965.75425
737.82	4930.40646
738.247	4941.38556
738.675	4985.25298
739.102	4896.77818
739.53	4909.05157
739.957	4867.12824
740.384	4796.54136
740.811	4907.73857
741.238	4944.62706
741.665	4874.34487
742.092	4662.27272
742.519	4800.8051
742.945	4845.61443
743.372	4766.83024
743.798	4707.09883
744.225	4604.51779
744.651	4721.89172
745.077	4602.93306
745.503	4624.65571
745.929	4702.66239
746.355	4539.75857
746.781	4481.86979
747.207	4417.66967
747.632	4511.97009
748.058	4488.10026
748.483	4567.33478
748.908	4460.00959
749.334	4377.97184
749.759	4416.69339
750.184	4331.82534
750.609	4321.93275
751.033	4236.60501
751.458	4248.28981
751.883	4202.02157
752.307	4084.75715
752.732	4166.38056
753.156	4080.08735
753.58	4047.772
754.005	3968.27703
754.429	3987.86707
754.853	3930.25491
755.277	3886.91691
755.7	3868.24203
756.124	3777.29232
756.548	3694.94103
756.971	3698.17204
757.394	3632.53892
757.818	3702.60705
758.241	3612.51355
758.664	3576.4675
759.087	3483.7276
759.51	3474.30535
759.933	3324.22461
760.356	3393.68137
760.778	3287.32695
761.201	3347.18628
761.623	3272.09352
762.046	3219.98516
762.468	3207.14792
762.89	3167.27671
763.312	3090.32598
763.734	3022.22888
764.156	2992.38071
764.578	2996.86876
765	2951.29094
765.421	2797.5916
765.843	2730.72915
766.264	2689.08632
766.686	2695.36553
767.107	2650.22745
767.528	2658.60409
767.949	2573.48099
768.37	2547.34876
768.791	2479.11663
769.212	2452.41363
769.632	2307.96482
770.053	2387.5827
770.473	2363.1099
770.894	2278.17803
771.314	2204.93312
771.734	2198.88133
772.154	2158.31441
772.575	2149.80125
772.994	2038.6762
773.414	2101.92072
773.834	2042.11512
774.254	1976.97497
774.673	2008.02155
775.093	1885.0153
775.512	1893.98175
775.931	1836.05515
776.351	1785.94068
776.77	1797.88333
777.189	1791.73134
777.607	1664.92061
778.026	1668.82215
778.445	1629.86842
778.864	1586.79876
779.282	1564.54192
779.701	1582.75867
780.119	1537.75861
780.537	1485.623
780.955	1510.70512
781.373	1435.53948
781.791	1470.30327
782.209	1374.17265
782.627	1374.70144
783.045	1374.19867
783.462	1295.4836
783.88	1299.54124
784.297	1250.37591
784.715	1217.41288
785.132	1195.1644
785.549	1141.2012
785.966	1172.26706
786.383	1143.17884
786.8	1136.99245
787.217	1088.01433
787.633	1104.17781
788.05	1017.83767
788.466	1061.89792
788.883	1030.12055
789.299	968.82054
789.715	1036.98963
790.131	988.96371
790.547	909.84213
790.963	911.83191
791.379	910.88063
791.795	827.50886
792.21	857.60867
792.626	834.59885
793.041	810.65289
793.457	809.64376
793.872	788.50907
794.287	779.57483
794.702	769.55033
795.117	740.5611
795.532	758.61657
795.947	737.45717
796.362	695.36245
796.776	697.33614
797.191	682.42478
797.605	669.35281
798.02	628.31125
798.434	663.2372
798.848	608.31878
799.262	572.23954
799.676	632.3237
800.09	599.27522
800.504	546.15038
800.918	568.12177
801.331	493.12318
801.745	513.0203
802.158	490.07558
802.572	522.11082
802.985	515.07997
803.398	448.94795
803.811	484.08198
804.224	418.92312
804.637	480.01553
805.05	447.91003
805.462	440.96113
805.875	405.95899
806.288	425.92739
806.7	417.93418
807.112	402.82568
807.525	351.77534
807.937	330.75071
808.349	355.80512
808.761	420.93373
809.173	363.80352
809.584	344.77115
809.996	347.77387
810.408	405.96232
810.819	353.75463
811.231	453.09557
811.642	358.81374
812.053	388.85831
812.464	308.66827
812.875	288.68688
813.286	334.79961
813.697	305.63282
814.108	292.65325
814.519	320.6543
814.929	294.69097
815.34	206.46258
815.75	256.61268
816.16	258.5886
816.571	233.56518
816.981	233.50394
817.391	224.49886
817.801	246.57208
818.211	247.54404
818.62	221.49982
819.03	227.51737
819.44	213.51318
819.849	165.3888
820.259	180.42998
820.668	243.55919
821.077	234.54847
821.486	164.36706
821.895	235.5317
822.304	171.42907
822.713	194.42722
823.122	156.3678
823.531	180.39389
823.939	181.41719
824.348	165.37561
824.756	176.41318
825.164	195.45859
825.573	176.41721
825.981	170.39504
826.389	208.48868
826.797	215.51447
827.205	160.3485
827.612	140.32559
828.02	108.23993
828.428	168.40408
828.835	149.37643
829.243	146.32597
829.65	134.31961
830.057	109.25064
830.464	197.45624
830.871	216.48424
831.278	148.33848
831.685	163.33881
832.092	101.23345
832.499	167.34356
832.905	129.30846
833.312	102.21632
833.718	179.42342
834.124	167.35888
834.531	100.23843
834.937	146.35728
835.343	118.26792
835.749	100.21856
836.155	105.26357
836.561	83.19596
836.966	101.23457
837.372	73.17768
837.777	86.20623
838.183	134.27859
838.588	129.30669
838.993	142.32737
839.399	115.26909
839.804	107.24929
840.209	109.26877
840.613	83.17537
841.018	68.16468
841.423	86.21202
841.828	110.26719
842.232	97.2251
842.637	152.34203
843.041	98.24205
843.445	58.13898
843.849	91.2166
844.253	81.18327
844.657	67.16357
845.061	127.27751
845.465	67.15542
845.869	98.21654
846.272	106.24749
846.676	82.18595
847.079	120.29355
847.483	94.22344
847.886	92.21142
848.289	136.35134
848.692	18.04392
849.095	42.09671
849.498	77.18426
849.901	86.18597
850.304	119.26925
850.707	98.23804
851.109	124.29656
851.512	99.23292
851.914	80.19512
852.316	109.2664
852.718	102.2593
853.121	115.26824
853.523	54.12017
853.925	85.21559
854.326	69.16707
854.728	71.17643
855.13	109.27183
855.531	72.16526
855.933	72.16361
856.334	63.15248
856.736	80.17255
857.137	98.21889
857.538	94.22798
857.939	112.26776
858.34	109.24964
858.741	109.27144
859.142	49.11249
859.542	91.23244
859.943	134.31545
860.343	42.10118
860.744	103.23921
861.144	102.23946
861.544	85.19827
861.945	23.05676
862.345	74.17237
862.745	96.22977
863.145	92.20507
863.544	88.21375
863.944	62.14026
864.344	51.12022
864.743	114.26847
865.143	88.21887
865.542	12.02653
865.941	93.22085
866.34	48.10894
866.74	84.21731
867.139	123.2834
867.537	41.09972
867.936	95.21897
868.335	92.22338
868.734	53.13093
869.132	72.15749
869.531	108.24481
869.929	83.18113
870.327	66.15155
870.726	64.15148
871.124	77.1701
871.522	43.10537
871.92	99.23283
872.318	64.14884
872.715	46.10787
873.113	69.16006
873.511	40.09577
873.908	88.21663
874.306	51.1233
874.703	34.08128
875.1	58.14062
875.497	70.15984
875.894	78.18669
876.291	70.16504
876.688	23.05763
877.085	79.17955
877.482	94.22455
877.878	90.20972
878.275	127.30761
878.671	50.10279
879.068	89.20465
879.464	82.18912
879.86	76.17158
880.256	81.18775
880.652	85.20697
881.048	72.1689
881.444	22.04973
881.84	30.07363
882.236	53.12809
882.631	114.26743
883.027	94.21567
883.422	49.11998
883.817	65.15833
884.213	77.18973
884.608	116.27679
885.003	36.08283
885.398	67.16119
885.793	23.05561
886.188	18.04325
886.582	73.17788
886.977	79.17744
887.371	43.10408
887.766	54.13008
888.16	34.08038
888.554	67.15751
888.949	120.286
889.343	112.25811
889.737	30.07842
890.131	49.11842
890.525	65.16105
890.918	56.13541
891.312	47.10673
891.706	53.13385
892.099	120.28929
892.492	101.20385
892.886	75.17501
893.279	51.12483
893.672	72.17731
894.065	92.22028
894.458	22.05296
894.851	107.24712
895.244	4.00992
895.637	105.24115
896.029	74.17434
896.422	18.04194
896.814	44.10495
897.206	113.25901
897.599	126.29477
897.991	108.24978
898.383	76.17179
898.775	134.28803
899.167	82.1852
899.559	40.09672
899.951	79.17562
900.342	79.19042
900.734	68.1661
901.125	60.15053
901.517	96.22502
901.908	46.10415
902.299	45.10624
902.69	97.21966
903.082	102.23478
903.473	92.21345
903.863	24.05891
904.254	118.26226
904.645	64.15049
905.036	67.1588
905.426	56.12042
905.817	33.07749
906.207	11.02503
906.597	101.22666
906.987	81.19944
907.378	55.13467
907.768	82.20905
908.158	52.12141
908.547	80.20136
908.937	11.02702
909.327	70.16215
909.717	45.10814
910.106	55.12597
910.495	45.10678
910.885	63.15374
911.274	78.18619
911.663	39.09454
912.052	43.10077
912.441	42.10393
912.83	63.13685
913.219	68.17042
913.608	58.13691
913.997	57.13884
914.385	108.24461
914.774	82.19003
915.162	93.21351
915.55	56.12875
915.939	55.13472
916.327	58.13776
916.715	33.08266
917.103	48.11137
917.491	86.20222
917.878	41.09673
918.266	31.07742
918.654	33.08221
919.041	83.21089
919.429	45.10186
919.816	96.23187
920.203	104.24225
920.591	79.18775
920.978	57.13384
921.365	68.17244
921.752	17.03845
922.139	59.12192
922.525	45.1043
922.912	84.19451
923.299	27.06493
923.685	-11.02771
924.072	-13.02827
924.458	62.14811
924.844	41.09778
925.231	45.09933
925.617	38.09444
926.003	64.15656
926.389	52.12612
926.774	35.08525
927.16	67.15904
927.546	131.32314
927.931	41.09781
928.317	85.18432
928.702	60.13496
929.088	134.30622
929.473	87.21366
929.858	61.14419
930.243	51.11882
930.628	99.23183
931.013	62.14766
931.398	32.06929
931.783	6.01518
932.167	113.26523
932.552	53.12717
932.937	69.16284
933.321	90.21771
933.705	12.02895
934.09	31.07393
934.474	16.03625
934.858	64.1601
935.242	64.141
935.626	28.06974
936.009	76.19661
936.393	93.22957
936.777	43.10697
937.16	79.19902
937.544	40.08879
937.927	44.10832
938.311	64.14831
938.694	86.21894
939.077	7.01621
939.46	45.1036
939.843	71.13625
940.226	26.06415
940.609	89.19653
940.991	52.1265
941.374	62.14624
941.757	55.1296
942.139	96.20493
942.522	35.07887
942.904	27.06256
943.286	50.12177
943.668	78.19611
944.05	63.14886
944.432	65.15293
944.814	43.10069
945.196	35.08292
945.578	55.12763
945.959	24.0535
946.341	47.10846
946.722	78.17307
947.104	68.15533
947.485	62.1378
947.866	70.17067
948.247	91.22166
948.628	12.02769
949.009	43.10623
949.39	121.28335
949.771	-1.00219
950.152	69.16228
950.532	84.20342
950.913	70.16093
951.293	55.14501
951.674	59.13665
952.054	107.25742
952.434	72.17141
952.814	41.09239
953.194	57.14159
953.574	81.18931
953.954	32.07218
954.334	94.22567
954.714	55.1293
955.093	85.19912
955.473	113.27185
955.853	24.06021
956.232	46.12187
956.611	48.10872
956.99	39.09493
957.37	60.1458
957.749	4.00906
958.128	52.12688
958.506	51.12784
958.885	46.11127
959.264	53.12649
959.643	98.21255
960.021	63.15087
960.4	82.17595
960.778	50.11624
961.156	23.05546
961.535	16.0355
961.913	100.22308
962.291	62.1551
962.669	42.10316
963.047	81.19914
963.424	52.12966
963.802	60.1418
964.18	12.02887
964.557	53.11586
964.935	52.11773
965.312	60.1514
965.69	56.13316
966.067	61.14032
966.444	28.06512
966.821	66.16367
967.198	39.08968
967.575	44.1031
967.952	47.10565
968.329	78.1824
968.705	96.1954
969.082	119.29483
969.458	35.08203
969.835	77.17876
970.211	64.1597
970.587	69.16486
970.963	46.11257
971.339	34.08634
971.715	84.20074
972.091	57.13437
972.467	25.05921
972.843	96.22994
973.219	114.25579
973.594	33.08355
973.97	48.10619
974.345	60.13805
974.721	50.11408
975.096	67.1564
975.471	50.11297
975.846	44.10055
976.221	63.15386
976.596	80.1862
976.971	130.30591
977.346	63.13848
977.72	44.10736
978.095	51.12682
978.469	40.09111
978.844	28.06745
979.218	111.25636
979.593	91.2059
979.967	23.05289
980.341	96.21035
980.715	84.20281
981.089	46.1106
981.463	77.16797
981.837	80.18906
982.21	60.12913
982.584	77.17826
982.957	43.10408
983.331	32.07142
983.704	77.1832
984.078	95.22229
984.451	62.14499
984.824	51.12004
985.197	62.14151
985.57	35.08308
985.943	34.07917
986.316	46.10647
986.688	72.1652
987.061	78.17458
987.434	91.23023
987.806	15.03453
988.179	49.1101
988.551	65.15726
988.923	17.04015
989.295	81.19198
989.667	64.14861
990.039	113.26989
990.411	38.08228
990.783	44.09535
991.155	42.09741
991.527	88.20175
991.898	43.10364
992.27	98.23321
992.641	62.14794
993.012	38.08323
993.384	77.1738
993.755	51.1259
994.126	93.21462
994.497	46.10846
994.868	43.09316
995.239	67.1545
995.61	18.04385
995.98	15.0351
996.351	66.15773
996.722	65.14557
997.092	68.15452
997.462	48.10881
997.833	69.15421
998.203	65.14797
998.573	38.09151
998.943	77.1728
999.313	99.22655
999.683	82.18807
1000.053	44.09425
1000.423	51.1177
1000.792	18.04462
1001.162	51.11943
1001.531	70.1653
1001.901	41.0977
1002.27	48.09988
1002.639	24.05876
1003.009	46.10444
1003.378	71.17436
1003.747	78.17386
1004.116	62.14134
1004.485	87.19733
1004.853	-2.00484
1005.222	-13.03123
1005.591	99.22163
1005.959	50.10803
1006.328	96.20493
1006.696	54.124
1007.064	32.07674
1007.433	18.04305
1007.801	36.08329
1008.169	4.00967
1008.537	88.18361
1008.905	80.17847
1009.273	55.129
1009.64	91.20917
1010.008	56.1272
1010.375	60.1364
1010.743	40.08524
1011.11	88.20199
1011.478	89.21143
1011.845	46.10275
1012.212	119.2565
1012.579	75.17604
1012.946	73.16315
1013.313	73.16363
1013.68	38.08101
1014.047	31.07091
1014.414	45.10149
1014.78	99.235
1015.147	40.09148
1015.513	46.10618
1015.88	94.22721
1016.246	32.07489
1016.612	72.15483
1016.978	65.15334
1017.344	58.1376
1017.71	91.20908
1018.076	61.13543
1018.442	56.13892
1018.808	80.19294
1019.174	0
1019.539	28.05884
1019.905	75.16928
1020.27	52.1227
1020.636	41.09273
1021.001	47.10812
1021.366	59.1361
1021.731	93.23176
1022.096	55.13462
1022.461	82.18489
1022.826	92.20922
1023.191	66.16648
1023.556	55.12216
1023.92	42.09803
1024.285	72.16546
1024.649	56.13034
1025.014	53.12411
1025.378	59.14323
1025.742	59.13887
1026.107	37.07958
1026.471	83.18221
1026.835	51.1212
1027.199	49.11322
1027.562	19.0419
1027.926	75.1735
1028.29	50.12168
1028.654	37.08095
1029.017	94.22025
1029.381	17.03926
1029.744	75.18317
1030.107	53.11968
1030.471	69.15841
1030.834	6.01289
1031.197	101.22992
1031.56	59.13186
1031.923	50.12467
1032.286	114.2521
1032.648	49.11024
1033.011	76.16821
1033.374	83.18259
1033.736	34.08653
1034.099	42.0983
1034.461	45.11031
1034.823	49.1177
1035.185	15.0361
1035.548	65.15185
1035.91	73.16598
1036.272	101.21808
1036.634	89.2067
1036.995	27.06032
1037.357	68.15883
1037.719	43.10046
1038.08	87.19781
1038.442	13.02964
1038.803	24.05438
1039.165	29.07014
1039.526	105.24038
1039.887	51.11648
1040.248	56.13465
1040.609	6.01415
1040.97	60.1396
1041.331	100.24281
1041.692	75.16977
1042.053	22.04763
1042.413	59.1299
1042.774	99.22883
1043.134	69.15396
1043.495	54.13008
1043.855	83.19383
1044.215	-16.0383
1044.576	34.07864
1044.936	68.14692
1045.296	49.11721
1045.656	68.15727
1046.016	59.13502
1046.375	78.18004
1046.735	92.20107
1047.095	52.1162
1047.454	91.17834
1047.814	61.1401
1048.173	20.04517
1048.533	29.06358
1048.892	7.0163
1049.251	37.08854
1049.61	61.1438
1049.969	68.15188
1050.328	111.22516
1050.687	-29.06807
1051.046	56.12972
1051.405	30.07104
1051.763	87.19171
1052.122	45.10752
1052.48	74.17359
1052.839	78.17753
1053.197	28.06311
1053.555	60.12669
1053.914	24.05626
1054.272	-13.0297
1054.63	35.08244
1054.988	40.092
1055.345	17.03439
1055.703	48.11075
1056.061	92.22873
1056.419	84.21165
1056.776	7.01606
1057.134	-10.0219
1057.491	69.16524
1057.848	71.16756
1058.206	16.03552
1058.563	49.10226
1058.92	87.18849
1059.277	77.18095
1059.634	47.10387
1059.991	121.27389
1060.348	49.10598
1060.704	74.1721
1061.061	80.17218
1061.418	38.08855
1061.774	32.07598
1062.131	44.11415
1062.487	0
1062.843	49.11703
1063.199	29.06948
1063.555	44.0984
1063.911	57.13697
1064.267	84.16124
1064.623	58.13638
1064.979	38.08266
1065.335	47.10626
1065.691	40.09023
1066.046	31.06475
1066.402	65.13902
1066.757	50.12122
1067.112	53.12377
1067.468	39.08954
1067.823	9.02037
1068.178	50.11472
1068.533	89.20465
1068.888	74.16699
1069.243	66.15561
1069.598	39.09015
1069.952	33.07278
1070.307	55.13116
1070.662	104.2368
1071.016	64.13834
1071.371	76.16477
1071.725	82.18414
1072.079	66.15167
1072.434	65.15138
1072.788	45.10087
1073.142	70.16447
1073.496	24.05449
1073.85	-4.00892
1074.203	70.16203
1074.557	75.19406
1074.911	71.15973
1075.265	71.15645
1075.618	120.27687
1075.971	69.15587
1076.325	47.11581
1076.678	18.03952
1077.031	-12.02557
1077.385	100.20568
1077.738	64.13656
1078.091	46.10079
1078.444	2.00441
1078.796	105.24588
1079.149	74.17603
1079.502	70.15861
1079.855	67.14875
1080.207	58.13601
1080.56	75.18698
1080.912	56.12993
1081.264	117.2671
1081.617	56.13106
1081.969	76.18447
1082.321	57.13243
1082.673	39.08655
1083.025	29.06548
1083.377	365.7644
1083.728	48.1061
1084.08	34.081
1084.432	49.11245
1084.783	39.08536
1085.135	62.14953
1085.486	87.18954
1085.838	73.17215
1086.189	70.16357
1086.54	67.15147
1086.891	79.19487
1087.242	123.28814
1087.593	30.06892
1087.944	77.16668
1088.295	105.2236
1088.646	88.20692
1088.996	37.0861
1089.347	26.06092
1089.698	59.13469
1090.048	39.09695
1090.398	48.10526
1090.749	37.08389
1091.099	76.18516
1091.449	66.15791
1091.799	68.16263
1092.149	60.14218
1092.499	81.18804
1092.849	31.0761
1093.199	58.13776
1093.548	72.16679
1093.898	30.07191
1094.248	52.12692
1094.597	54.13435
1094.947	51.13155
1095.296	70.16607
1095.645	51.12696
1095.994	94.21386
1096.343	70.16914
1096.692	60.15442
1097.041	58.15418
1097.39	40.09577
1097.739	63.15706
1098.088	61.15609
1098.437	34.08775
1098.785	52.13406
1099.134	13.03289
1099.482	23.06172
1099.83	44.11158
1100.179	90.22928
1100.527	39.09885
1100.875	32.08256
1101.223	94.24082
1101.571	-21.05659
1101.919	53.13671
1102.267	55.15149
1102.615	7.02247
1102.962	0
1103.31	15.04811
1103.658	-3.00962
