Data from N3 R2 sample 7_Subt2__1__10-16-06-383.txt Node

Date: Thu Sep 18 10:16:06 PDT 2025
User: uwsun
Spectrometer: HDX01956
Trigger mode: 0
Integration Time (sec): 5.000000E-1
Scans to average: 1
Nonlinearity correction enabled: true
Boxcar width: 0
Storing dark spectrum: false
XAxis mode: Wavelengths
Number of Pixels in Spectrum: 2068
>>>>>Begin Spectral Data<<<<<
194.03	41.11832
194.578	60.19372
195.127	64.20362
195.676	63.20119
196.225	91.23936
196.773	64.17709
197.321	140.38347
197.87	208.52556
198.418	208.52949
198.966	234.60657
199.513	221.55412
200.061	189.47628
200.609	230.59723
201.156	216.46607
201.704	183.45719
202.251	207.54388
202.798	204.52279
203.345	250.60744
203.892	224.55809
204.438	205.4806
204.985	198.46591
205.532	221.57298
206.078	179.43421
206.624	272.66756
207.17	299.68117
207.716	263.63171
208.262	286.54978
208.808	243.60047
209.354	288.6945
209.899	246.60755
210.445	209.51723
210.99	219.52783
211.535	273.62847
212.08	222.50791
212.625	222.54647
213.17	250.62535
213.715	314.69464
214.259	235.5397
214.804	202.48953
215.348	240.54533
215.892	297.70114
216.436	174.39458
216.98	246.5283
217.524	238.55937
218.068	256.63294
218.612	239.59751
219.155	217.50574
219.698	261.60636
220.242	203.49408
220.785	250.57472
221.328	211.51336
221.871	232.58075
222.414	187.45702
222.956	134.31986
223.499	218.47664
224.041	217.48618
224.583	194.40243
225.126	193.41707
225.668	194.46466
226.21	198.4944
226.751	230.5016
227.293	167.37385
227.835	219.52684
228.376	205.45759
228.918	166.40909
229.459	196.48195
230	215.50719
230.541	201.45441
231.082	180.43327
231.622	173.38649
232.163	197.46744
232.704	253.61783
233.244	189.46242
233.784	212.5037
234.324	285.62062
234.864	200.44394
235.404	217.50016
235.944	201.46495
236.484	256.62224
237.023	207.47883
237.563	200.45758
238.102	231.53392
238.641	240.5886
239.18	181.41969
239.719	226.55386
240.258	228.5004
240.797	246.57299
241.335	217.51687
241.874	293.54871
242.412	254.60162
242.95	219.51943
243.488	151.33636
244.026	238.54101
244.564	250.50005
245.102	270.59382
245.64	249.57849
246.177	185.40492
246.715	265.61857
247.252	228.50524
247.789	198.36026
248.326	201.47693
248.863	236.50726
249.4	257.56606
249.936	268.5445
250.473	302.68925
251.009	195.43941
251.546	260.56486
252.082	203.43022
252.618	245.5342
253.154	217.51251
253.69	181.40068
254.226	250.58368
254.761	267.58118
255.297	223.47633
255.832	260.60177
256.367	249.57002
256.903	279.60084
257.438	286.648
257.972	252.54585
258.507	230.51562
259.042	261.55121
259.576	290.62064
260.111	239.53524
260.645	273.57073
261.179	239.54713
261.713	267.58043
262.247	211.47254
262.781	260.53234
263.315	209.49763
263.849	265.64568
264.382	264.58867
264.915	238.55086
265.449	207.49684
265.982	220.48975
266.515	270.64371
267.048	222.46092
267.58	256.53602
268.113	264.55399
268.646	205.49297
269.178	214.46908
269.71	297.63411
270.243	308.68819
270.775	303.75254
271.307	204.47648
271.838	281.64223
272.37	243.58124
272.902	252.5554
273.433	265.57118
273.965	243.57635
274.496	238.57633
275.027	264.64
275.558	255.60714
276.089	268.65189
276.62	190.47219
277.15	249.59695
277.681	267.5567
278.211	220.52593
278.741	247.53536
279.272	291.64417
279.802	253.61346
280.332	258.59359
280.861	246.57366
281.391	288.63314
281.921	236.55121
282.45	257.62058
282.98	245.62421
283.509	285.62852
284.038	305.67346
284.567	239.54449
285.096	278.65515
285.625	191.42388
286.153	357.81623
286.682	227.51172
287.21	218.50917
287.739	246.56756
288.267	230.54941
288.795	256.65235
289.323	238.54736
289.851	291.66348
290.378	216.47267
290.906	329.77517
291.433	273.66194
291.961	281.62333
292.488	266.64219
293.015	246.56824
293.542	328.81387
294.069	325.77674
294.596	261.62118
295.122	305.70773
295.649	251.53543
296.175	311.72193
296.702	294.69743
297.228	297.69162
297.754	303.65841
298.28	304.67673
298.806	287.67123
299.332	307.66398
299.857	277.61216
300.383	246.6051
300.908	243.58567
301.433	279.6658
301.958	337.74131
302.483	284.68356
303.008	354.84522
303.533	254.64016
304.058	281.63577
304.582	271.62387
305.107	272.68993
305.631	315.68856
306.155	315.70862
306.679	331.74979
307.203	313.7021
307.727	295.67802
308.251	305.72895
308.775	398.92219
309.298	305.71248
309.822	310.75347
310.345	328.75642
310.868	358.82821
311.391	344.81475
311.914	359.86321
312.437	354.77559
312.96	359.81056
313.482	333.75309
314.005	295.71447
314.527	282.71351
315.049	385.93132
315.571	353.76247
316.093	368.87325
316.615	336.7761
317.137	361.75268
317.659	348.81019
318.18	302.6973
318.702	385.86109
319.223	345.67359
319.744	401.85761
320.265	381.88788
320.786	434.02566
321.307	326.77808
321.828	435.92548
322.348	362.81716
322.869	436.98255
323.389	732.24812
323.909	340.74775
324.43	415.94078
324.95	401.87318
325.47	460.07378
325.989	436.97854
326.509	419.88989
327.029	485.03441
327.548	455.96971
328.067	474.07961
328.587	490.15153
329.106	409.87471
329.625	469.14878
330.144	480.04475
330.662	515.12462
331.181	511.12246
331.7	413.91189
332.218	524.0507
332.736	501.09354
333.255	505.1088
333.773	489.07901
334.291	537.24816
334.808	546.13526
335.326	569.17186
335.844	558.21173
336.361	565.34836
336.879	581.25666
337.396	593.32685
337.913	584.23758
338.43	557.15688
338.947	568.25126
339.464	589.15923
339.981	536.1787
340.497	584.3209
341.014	616.37243
341.53	579.1973
342.046	673.52395
342.562	612.39721
343.078	628.34543
343.594	633.3687
344.11	691.48916
344.626	673.54059
345.141	658.3594
345.657	660.34708
346.172	704.5253
346.687	687.414
347.202	724.4732
347.717	687.47483
348.232	708.58604
348.747	720.48366
349.261	681.34126
349.776	715.52248
350.29	739.65655
350.805	754.65868
351.319	738.5242
351.833	713.46758
352.347	719.51841
352.861	737.54015
353.374	749.50651
353.888	808.73964
354.401	762.53023
354.915	810.59909
355.428	799.75956
355.941	824.67389
356.454	767.50028
356.967	731.51748
357.48	745.49501
357.993	892.89597
358.505	774.66569
359.018	923.94193
359.53	901.89811
360.042	858.65759
360.554	928.94946
361.066	809.72951
361.578	888.67882
362.09	844.74802
362.602	870.66878
363.113	967.92682
363.625	962.84199
364.136	855.61672
364.647	889.81795
365.158	934.85024
365.669	925.88907
366.18	908.83131
366.691	968.77515
367.201	984.99108
367.712	992.90409
368.222	982.90204
368.733	889.65002
369.243	1016.88763
369.753	1018.95501
370.263	1043.10087
370.773	946.96291
371.282	1071.11603
371.792	1092.07387
372.301	1139.24124
372.811	1081.37385
373.32	1171.01382
373.829	1188.24579
374.338	1203.11409
374.847	1233.25039
375.356	1219.28724
375.865	1382.22029
376.373	1420.42699
376.882	1420.77127
377.39	1381.56187
377.898	1478.73906
378.407	1558.56158
378.915	1651.52262
379.423	1654.72969
379.93	1766.82752
380.438	1721.91019
380.946	1821.87345
381.453	1938.08822
381.96	2131.19612
382.468	2213.16866
382.975	2306.41495
383.482	2305.98187
383.989	2342.68518
384.495	2591.2663
385.002	2715.75453
385.509	2832.42471
386.015	3069.59339
386.521	3190.13293
387.028	3250.10781
387.534	3260.76236
388.04	3402.4384
388.546	3488.87337
389.051	3702.77662
389.557	4057.93398
390.063	4197.69569
390.568	4320.05761
391.073	4510.41208
391.578	4678.97629
392.084	4894.34805
392.589	5067.92258
393.093	5601.29955
393.598	6095.81197
394.103	6610.89455
394.607	7152.95369
395.112	7625.19411
395.616	8047.38779
396.12	8710.9576
396.624	9567.64217
397.128	10438.09023
397.632	11467.31874
398.136	12416.61187
398.639	13543.0938
399.143	15686.37946
399.646	17178.88603
400.15	19127.27619
400.653	21772.17148
401.156	24406.50676
401.659	28273.90646
402.162	36116.22788
402.664	52795.02808
403.167	62482.47042
403.67	63769.22307
404.172	63919.58413
404.674	63858.43483
405.176	63738.15102
405.678	63977.72923
406.18	64011.81569
406.682	63863.44694
407.184	63926.60148
407.686	63841.39382
408.187	64025.8516
408.688	63892.51763
409.19	61651.83721
409.691	51419.12515
410.192	43910.53064
410.693	39338.27811
411.194	36861.37849
411.694	34686.30222
412.195	31483.70997
412.696	29305.82458
413.196	28286.30099
413.696	28810.7534
414.196	28579.77574
414.696	27283.21008
415.196	25238.37464
415.696	20957.86026
416.196	15964.38288
416.695	13393.96735
417.195	12578.2329
417.694	12103.5299
418.194	11106.19927
418.693	10570.68379
419.192	10414.056
419.691	10314.75684
420.19	9887.44199
420.688	9516.54463
421.187	8969.30322
421.685	8393.57375
422.184	7418.91686
422.682	6256.44434
423.18	5495.06549
423.678	5065.25137
424.176	4704.44129
424.674	4505.38076
425.172	4128.93789
425.669	3818.36275
426.167	3583.0711
426.664	3269.01557
427.161	3118.1178
427.659	2954.44807
428.156	2773.7406
428.652	2555.60709
429.149	2448.35937
429.646	2364.91315
430.143	2209.19171
430.639	2136.0997
431.135	1990.2538
431.632	1964.84572
432.128	1776.90738
432.624	1778.20776
433.12	1758.69523
433.616	1709.51659
434.111	1594.69606
434.607	1534.66197
435.103	1484.1913
435.598	1457.15035
436.093	1393.41665
436.588	1348.26655
437.083	1278.17607
437.578	1277.26568
438.073	1199.38593
438.568	1174.30109
439.062	1081.83199
439.557	1033.96628
440.051	978.80072
440.546	1023.8861
441.04	994.97015
441.534	961.02554
442.028	1011.00097
442.522	904.82657
443.015	925.63031
443.509	876.80708
444.002	896.8525
444.496	798.4709
444.989	812.69292
445.482	828.75986
445.975	821.61818
446.468	828.51183
446.961	828.51716
447.454	779.49648
447.947	776.60062
448.439	767.63401
448.931	808.58321
449.424	814.78924
449.916	830.73277
450.408	752.48513
450.9	735.55765
451.392	701.57196
451.884	710.42239
452.375	693.51261
452.867	664.31109
453.358	655.32385
453.849	701.29856
454.341	694.36786
454.832	682.2831
455.323	646.4334
455.814	679.36114
456.304	641.31268
456.795	622.26079
457.285	583.14525
457.776	668.33628
458.266	582.24032
458.756	564.19982
459.247	594.27305
459.737	598.29707
460.226	644.29593
460.716	584.2532
461.206	559.20644
461.695	536.20334
462.185	597.26765
462.674	509.05749
463.163	516.04941
463.653	519.99893
464.142	560.22485
464.63	491.0884
465.119	517.09133
465.608	516.0985
466.096	493.97307
466.585	504.04592
467.073	445.96938
467.561	466.02667
468.05	492.03188
468.538	476.06669
469.026	409.9023
469.513	403.78796
470.001	449.95027
470.489	470.02468
470.976	482.02955
471.463	430.99394
471.951	421.97256
472.438	385.84475
472.925	411.8995
473.412	400.90476
473.899	428.90762
474.385	391.89466
474.872	388.84434
475.359	379.87348
475.845	372.71786
476.331	378.74941
476.817	379.86372
477.303	407.87909
477.789	343.7697
478.275	285.67517
478.761	317.71282
479.247	387.80366
479.732	362.84975
480.218	371.91532
480.703	302.70755
481.188	337.6864
481.673	346.74847
482.158	314.64203
482.643	340.82141
483.128	321.70879
483.612	344.77305
484.097	288.6618
484.581	316.69235
485.066	290.67758
485.55	339.70587
486.034	243.50621
486.518	276.63195
487.002	228.53462
487.486	229.53602
487.969	228.53441
488.453	236.56568
488.936	218.47422
489.42	273.57655
489.903	233.55881
490.386	175.35255
490.869	271.5673
491.352	207.48225
491.835	196.38876
492.318	244.52671
492.8	232.46232
493.283	265.64881
493.765	229.54168
494.247	242.54163
494.73	218.46615
495.212	190.4375
495.694	213.48605
496.175	178.41706
496.657	277.62646
497.139	193.3203
497.62	227.52717
498.102	171.41558
498.583	131.31611
499.064	177.38463
499.545	210.46323
500.026	193.42439
500.507	179.40138
500.988	254.61021
501.469	173.42044
501.949	177.42597
502.43	224.52175
502.91	289.58301
503.39	156.37835
503.87	228.52038
504.35	167.38139
504.83	140.30066
505.31	169.3976
505.79	130.30221
506.269	126.28469
506.749	137.30758
507.228	180.41299
507.707	214.46196
508.187	191.44393
508.666	167.40449
509.145	148.33943
509.623	199.45227
510.102	150.35572
510.581	263.60859
511.059	132.32698
511.538	135.34216
512.016	200.46548
512.494	182.4261
512.972	214.4963
513.45	142.32541
513.928	175.4154
514.406	194.46289
514.884	188.47249
515.361	165.38622
515.839	176.3957
516.316	201.47472
516.793	181.44564
517.27	119.28237
517.747	143.36063
518.224	105.23942
518.701	103.22544
519.178	159.38989
519.654	137.31905
520.131	159.38584
520.607	33.08083
521.083	86.1936
521.56	150.34678
522.036	127.27245
522.512	151.36588
522.987	159.37539
523.463	125.29214
523.939	206.49679
524.414	135.30396
524.89	152.35587
525.365	135.3001
525.84	148.34935
526.315	197.46419
526.79	153.33842
527.265	188.4232
527.74	103.24751
528.215	139.31873
528.689	145.31201
529.164	118.24981
529.638	69.17414
530.112	110.25582
530.587	110.23298
531.061	126.30076
531.534	107.25517
532.008	185.4388
532.482	140.31645
532.956	104.26261
533.429	169.40471
533.903	88.19168
534.376	146.31693
534.849	129.29224
535.322	145.33608
535.795	115.27435
536.268	121.28922
536.741	102.23984
537.213	135.30545
537.686	138.33231
538.158	131.29375
538.631	111.26592
539.103	137.30467
539.575	110.2241
540.047	128.27513
540.519	163.38139
540.991	127.30541
541.463	112.26643
541.934	96.21531
542.406	145.3426
542.877	127.28279
543.348	127.30263
543.82	113.27175
544.291	131.30159
544.762	135.31675
545.233	172.42684
545.703	106.23392
546.174	155.35285
546.645	139.33135
547.115	148.35138
547.585	170.38268
548.056	151.36533
548.526	198.4581
548.996	105.24896
549.466	121.29076
549.935	186.43427
550.405	152.3284
550.875	131.30724
551.344	114.2692
551.814	164.36873
552.283	177.37807
552.752	189.43285
553.221	148.32209
553.69	212.46607
554.159	159.38917
554.628	193.42742
555.096	134.33666
555.565	135.29486
556.033	160.37518
556.502	130.30996
556.97	154.33728
557.438	103.24025
557.906	145.33715
558.374	120.27577
558.842	131.31012
559.31	133.2943
559.777	105.2549
560.245	85.19444
560.712	109.24773
561.18	131.28673
561.647	89.19678
562.114	124.28131
562.581	129.31363
563.048	117.26559
563.514	158.38981
563.981	93.21214
564.448	119.26651
564.914	93.21496
565.381	140.31567
565.847	87.20189
566.313	68.15777
566.779	104.23258
567.245	86.19843
567.711	99.23546
568.176	49.11051
568.642	94.23523
569.108	94.22969
569.573	69.15962
570.038	93.19382
570.504	146.32502
570.969	82.20231
571.434	161.3512
571.899	97.22857
572.363	124.28142
572.828	137.31086
573.293	91.20774
573.757	170.38691
574.222	159.35022
574.686	146.33095
575.15	139.33008
575.614	219.50236
576.078	132.30601
576.542	138.3104
577.006	117.26214
577.469	129.31328
577.933	168.3757
578.396	76.17989
578.86	156.36093
579.323	156.36966
579.786	202.42689
580.249	222.50791
580.712	161.38423
581.175	153.37072
581.637	147.3303
582.1	172.36731
582.563	209.43151
583.025	189.44915
583.487	230.45812
583.95	198.41348
584.412	244.49438
584.874	233.55029
585.336	214.49335
585.797	262.54786
586.259	244.55128
586.721	241.54639
587.182	298.65567
587.643	281.61165
588.105	244.55667
588.566	296.58794
589.027	347.80516
589.488	356.77076
589.949	374.85526
590.41	385.70998
590.87	383.8223
591.331	495.98711
591.791	379.82423
592.252	487.03958
592.712	453.00277
593.172	540.11079
593.632	590.17075
594.092	567.13315
594.552	677.27836
595.011	603.23141
595.471	698.38027
595.931	702.38041
596.39	767.5923
596.849	799.59025
597.308	772.39588
597.768	881.93938
598.227	971.92586
598.685	958.79024
599.144	1084.0457
599.603	1072.00725
600.062	1190.90238
600.52	1264.16246
600.978	1298.32855
601.437	1429.35767
601.895	1529.26736
602.353	1523.33725
602.811	1730.59786
603.269	1767.82676
603.727	1814.90361
604.184	1948.78442
604.642	2152.24624
605.099	2219.03476
605.557	2305.26979
606.014	2420.71728
606.471	2530.53683
606.928	2696.90547
607.385	2781.59575
607.842	2899.07526
608.299	3042.17898
608.755	3180.39184
609.212	3307.85791
609.668	3457.88548
610.125	3574.27916
610.581	3695.04972
611.037	3694.75307
611.493	3865.95071
611.949	3890.25348
612.405	4155.96441
612.861	4156.71343
613.316	4188.99292
613.772	4194.6689
614.227	4336.94566
614.683	4359.07655
615.138	4348.75261
615.593	4477.60825
616.048	4577.45201
616.503	4413.97396
616.958	4503.17746
617.412	4501.76155
617.867	4521.33221
618.321	4524.81927
618.776	4452.26118
619.23	4393.71436
619.684	4405.36827
620.138	4314.58686
620.592	4282.02929
621.046	4215.8697
621.5	4121.04542
621.954	4101.46533
622.407	3996.51739
622.861	3990.1671
623.314	3932.69785
623.768	3946.98637
624.221	3797.939
624.674	3811.88738
625.127	3730.96019
625.58	3670.75177
626.033	3715.56718
626.485	3572.20649
626.938	3552.18262
627.39	3663.02291
627.843	3513.97558
628.295	3449.99439
628.747	3371.23596
629.199	3428.91985
629.651	3402.97094
630.103	3388.97723
630.555	3351.48459
631.006	3331.07357
631.458	3271.1625
631.909	3292.84907
632.361	3351.01761
632.812	3392.03069
633.263	3461.61508
633.714	3401.49013
634.165	3464.24104
634.616	3417.15741
635.067	3489.68709
635.518	3591.1278
635.968	3603.00489
636.419	3754.5374
636.869	3666.09525
637.319	3786.91389
637.769	3843.68041
638.219	3887.98334
638.669	3977.99832
639.119	3980.04282
639.569	4327.89745
640.019	4305.63717
640.468	4507.32026
640.918	4548.69183
641.367	4692.20474
641.816	4820.08416
642.265	4948.35236
642.714	5088.14617
643.163	5226.13031
643.612	5367.49506
644.061	5523.47286
644.51	5612.87452
644.958	5685.59619
645.406	5932.02104
645.855	5930.13577
646.303	6073.73356
646.751	6121.7309
647.199	6343.537
647.647	6306.69829
648.095	6458.55022
648.543	6527.94195
648.99	6557.86719
649.438	6679.60722
649.885	6704.1006
650.333	6780.79933
650.78	6800.87577
651.227	6853.95539
651.674	6873.53444
652.121	6807.97617
652.568	6753.97099
653.015	6819.02648
653.461	6737.77337
653.908	6626.56813
654.354	6721.78205
654.801	6613.6988
655.247	6545.24922
655.693	6432.48906
656.139	6468.83244
656.585	6406.85166
657.031	6217.79935
657.477	6240.3451
657.922	6170.59028
658.368	6220.10854
658.813	6144.59788
659.259	5977.10451
659.704	6053.91435
660.149	6015.73246
660.594	5879.98657
661.039	5871.71174
661.484	5709.04629
661.929	5748.93172
662.373	5662.51687
662.818	5612.4219
663.262	5611.25033
663.707	5563.68507
664.151	5545.34313
664.595	5483.31626
665.039	5491.51254
665.483	5536.69646
665.927	5456.09987
666.371	5478.11443
666.814	5509.16211
667.258	5502.27975
667.701	5522.4394
668.145	5482.53858
668.588	5521.48447
669.031	5549.06972
669.474	5461.26005
669.917	5525.60155
670.36	5645.47717
670.803	5686.20149
671.245	5568.18084
671.688	5466.36381
672.13	5577.78591
672.573	5652.56459
673.015	5628.21254
673.457	5696.48351
673.899	5599.24758
674.341	5652.189
674.783	5749.10486
675.225	5740.31321
675.666	5818.23504
676.108	5811.39409
676.549	5887.83586
676.991	6058.39943
677.432	5957.89452
677.873	5798.73617
678.314	5877.99024
678.755	5996.20866
679.196	6009.66266
679.637	5988.98098
680.078	5972.8187
680.518	5975.6988
680.959	5986.94272
681.399	6107.18401
681.839	6033.06483
682.28	6150.20199
682.72	6050.64593
683.16	6151.23036
683.6	6084.60078
684.039	6250.01807
684.479	6263.11089
684.919	6269.76832
685.358	6388.12521
685.798	6389.48271
686.237	6462.80244
686.676	6484.46853
687.115	6598.70314
687.554	6693.79209
687.993	6703.33255
688.432	6722.49953
688.871	6764.52904
689.309	6876.79479
689.748	6936.07414
690.186	6936.64009
690.625	7169.70135
691.063	7331.82271
691.501	7367.03735
691.939	7390.15566
692.377	7423.93733
692.815	7692.09987
693.253	7622.92369
693.69	7609.56914
694.128	7802.12195
694.565	7761.98147
695.003	8000.50594
695.44	7993.15078
695.877	8006.13566
696.314	8045.84075
696.751	8234.23527
697.188	8244.31468
697.625	8393.39832
698.061	8490.69811
698.498	8460.62114
698.934	8693.96684
699.371	8703.94787
699.807	8839.16486
700.243	8869.25697
700.679	8911.21391
701.115	9023.46887
701.551	9100.61176
701.987	9225.85571
702.422	9296.03071
702.858	9477.42909
703.294	9506.50231
703.729	9707.98366
704.164	9694.95722
704.599	9707.04736
705.035	9879.53451
705.47	10118.11691
705.904	10149.30354
706.339	10460.38791
706.774	10498.4602
707.209	10644.01894
707.643	10584.7042
708.078	10720.15107
708.512	10807.37071
708.946	11022.47612
709.38	11163.06626
709.814	11252.75437
710.248	11318.60453
710.682	11464.38994
711.116	11660.25706
711.549	11703.16493
711.983	11750.11101
712.416	11958.02023
712.85	11888.32294
713.283	12073.71996
713.716	12087.3949
714.149	12302.24589
714.582	12472.59179
715.015	12387.21874
715.448	12565.02625
715.881	12726.78277
716.313	12803.36568
716.746	12980.41803
717.178	13163.51862
717.61	13258.4909
718.043	13446.24998
718.475	13441.43555
718.907	13693.9778
719.339	13685.25826
719.77	13715.71934
720.202	13928.78408
720.634	14397.0027
721.065	14241.34472
721.497	14445.49079
721.928	14526.24442
722.359	14692.7867
722.79	14842.48918
723.221	15053.83919
723.652	15051.36643
724.083	15236.50634
724.514	15389.63947
724.945	15587.3039
725.375	15915.78226
725.806	15726.70066
726.236	15907.79312
726.666	16215.91149
727.096	16467.88705
727.526	16607.16312
727.956	17071.4902
728.386	17060.6884
728.816	17126.31282
729.246	17291.22433
729.675	17263.24393
730.105	17447.42221
730.534	17820.31874
730.964	17916.72935
731.393	18191.73677
731.822	18534.93283
732.251	18817.8672
732.68	18868.24312
733.109	18993.04441
733.537	19175.73195
733.966	19650.61098
734.395	19736.13654
734.823	19871.36328
735.251	19872.93924
735.68	19949.24022
736.108	20203.37483
736.536	20352.49556
736.964	20391.34592
737.392	20642.59347
737.82	20720.16262
738.247	20773.99305
738.675	21056.49747
739.102	21064.69181
739.53	21067.65333
739.957	21226.73713
740.384	21607.71277
740.811	21647.23242
741.238	21670.93836
741.665	21549.50182
742.092	21339.27507
742.519	21540.66514
742.945	21605.2649
743.372	21492.95075
743.798	21723.36136
744.225	21606.23906
744.651	21539.47949
745.077	21685.69328
745.503	21561.97712
745.929	21497.84226
746.355	21251.25399
746.781	21131.1988
747.207	21139.27896
747.632	20879.1132
748.058	20813.71546
748.483	21142.39243
748.908	21213.87402
749.334	20757.64907
749.759	20687.69839
750.184	20389.08923
750.609	20276.07735
751.033	20237.04898
751.458	20286.07303
751.883	19778.99465
752.307	19693.09438
752.732	19603.24698
753.156	19288.20488
753.58	19203.35694
754.005	18891.31001
754.429	18718.55041
754.853	18527.64285
755.277	18319.267
755.7	17906.79737
756.124	17993.83638
756.548	17555.74407
756.971	17329.11837
757.394	17217.58098
757.818	17026.0345
758.241	16709.76424
758.664	16564.29307
759.087	16422.27425
759.51	16256.46577
759.933	16051.59669
760.356	15739.88026
760.778	15482.33771
761.201	15341.30301
761.623	14895.26436
762.046	14830.99216
762.468	14700.31895
762.89	14490.08512
763.312	14253.91563
763.734	13962.71683
764.156	13727.47829
764.578	13289.25346
765	13229.92754
765.421	12973.55829
765.843	12661.30717
766.264	12447.02536
766.686	12199.0968
767.107	12107.76728
767.528	11861.95191
767.949	11628.89977
768.37	11468.26345
768.791	11281.62042
769.212	10927.84435
769.632	10737.3932
770.053	10606.55921
770.473	10410.10109
770.894	10124.13565
771.314	9941.65992
771.734	9725.06354
772.154	9528.57257
772.575	9394.23621
772.994	9212.82526
773.414	9177.77202
773.834	8865.29051
774.254	8787.12131
774.673	8581.84412
775.093	8297.57555
775.512	8222.46671
775.931	8023.41705
776.351	7898.25175
776.77	7624.01775
777.189	7410.74626
777.607	7330.13812
778.026	7218.96109
778.445	6970.07994
778.864	6873.04049
779.282	6732.6401
779.701	6651.00044
780.119	6559.10906
780.537	6285.02588
780.955	6167.17848
781.373	6063.0447
781.791	5969.51959
782.209	5731.52917
782.627	5697.76332
783.045	5568.65669
783.462	5490.58909
783.88	5295.83246
784.297	5202.62305
784.715	4992.96671
785.132	4930.40353
785.549	4879.73628
785.966	4831.82708
786.383	4707.7609
786.8	4590.32755
787.217	4496.62106
787.633	4367.10241
788.05	4320.47338
788.466	4207.53851
788.883	4071.40975
789.299	3917.82863
789.715	3994.01115
790.131	3749.24604
790.547	3804.23487
790.963	3664.23834
791.379	3594.42422
791.795	3499.64524
792.21	3389.86405
792.626	3209.98706
793.041	3199.29572
793.457	3149.27612
793.872	3154.93514
794.287	2994.22276
794.702	2962.19721
795.117	2852.40075
795.532	2788.47295
795.947	2673.0513
796.362	2618.95979
796.776	2741.86735
797.191	2614.24933
797.605	2488.05171
798.02	2423.14007
798.434	2330.66736
798.848	2313.25736
799.262	2192.15986
799.676	2217.07808
800.09	2092.05281
800.504	2053.94036
800.918	2029.69303
801.331	1900.11513
801.745	1878.59188
802.158	1811.89146
802.572	1791.78398
802.985	1812.74046
803.398	1721.6447
803.811	1614.77682
804.224	1637.70066
804.637	1560.53537
805.05	1532.36149
805.462	1510.55577
805.875	1438.71849
806.288	1447.47669
806.7	1309.39199
807.112	1358.19372
807.525	1304.30605
807.937	1239.29652
808.349	1288.36467
808.761	1262.31331
809.173	1202.19307
809.584	1138.13119
809.996	1119.09397
810.408	1069.2093
810.819	1112.98685
811.231	1097.32964
811.642	1065.0699
812.053	980.89816
812.464	976.81497
812.875	945.96562
813.286	943.99096
813.697	917.64226
814.108	889.74174
814.519	935.64541
814.929	848.77428
815.34	728.45716
815.75	807.72449
816.16	733.50947
816.571	764.66454
816.981	702.36421
817.391	696.39623
817.801	655.39761
818.211	716.41988
818.62	676.38477
819.03	659.36846
819.44	556.24984
819.849	584.26128
820.259	597.30946
820.668	589.25933
821.077	594.29166
821.486	579.18286
821.895	495.05852
822.304	508.19436
822.713	534.09004
823.122	502.10151
823.531	510.03624
823.939	453.98722
824.348	480.02085
824.756	461.01966
825.164	450.00336
825.573	384.87353
825.981	400.88707
826.389	466.03739
826.797	428.98224
827.205	424.87165
827.612	407.89639
828.02	346.73054
828.428	357.8277
828.835	328.80198
829.243	367.78184
829.65	363.8276
830.057	320.70466
830.464	400.88891
830.871	315.69176
831.278	301.66713
831.685	330.66037
832.092	301.66797
832.499	302.60237
832.905	284.65888
833.312	249.51109
833.718	289.66901
834.124	320.66498
834.531	262.6052
834.937	248.59534
835.343	285.62509
835.749	257.543
836.155	246.60175
836.561	260.59269
836.966	237.53557
837.372	226.53428
837.777	237.55192
838.183	227.46215
838.588	238.55392
838.993	254.57246
839.399	212.48659
839.804	164.37779
840.209	210.50815
840.613	206.4235
841.018	212.49944
841.423	204.49196
841.828	202.48216
842.232	206.46771
842.637	265.58246
843.041	164.40014
843.445	153.35996
843.849	146.34383
844.253	206.45421
844.657	169.40471
845.061	219.4692
845.465	183.41473
845.869	173.37626
846.272	162.37407
846.676	145.3246
847.079	162.39319
847.483	220.51021
847.886	189.42589
848.289	139.35891
848.692	149.35464
849.095	142.32044
849.498	90.21483
849.901	160.3405
850.304	118.26705
850.707	85.20697
851.109	187.44183
851.512	141.32901
851.914	117.28339
852.316	170.41075
852.718	160.40256
853.121	115.26824
853.523	118.25909
853.925	137.34426
854.326	100.24071
854.728	114.28105
855.13	118.2938
855.531	78.17882
855.933	148.33112
856.334	134.31998
856.736	112.23991
857.137	120.26681
857.538	141.33895
857.939	129.30739
858.34	96.22044
858.741	115.28607
859.142	89.20269
859.542	95.24249
859.943	105.24857
860.343	87.20779
860.744	122.28227
861.144	136.31716
861.544	97.22572
861.945	127.30738
862.345	76.17696
862.745	90.21566
863.145	64.14348
863.544	90.21853
863.944	151.33539
864.344	72.16903
864.743	121.28457
865.143	113.27976
865.542	33.07263
865.941	92.21851
866.34	133.29664
866.74	50.13011
867.139	129.29687
867.537	73.17649
867.936	123.28193
868.335	87.21144
868.734	65.16022
869.132	37.08153
869.531	73.16665
869.929	79.17255
870.327	78.17868
870.726	57.1351
871.124	103.2263
871.522	80.19469
871.92	77.18187
872.318	90.20823
872.715	79.18405
873.113	58.13484
873.511	43.1029
873.908	63.1558
874.306	108.25829
874.703	75.1779
875.1	59.14302
875.497	97.22028
875.894	100.23834
876.291	98.2298
876.688	69.17146
877.085	78.17731
877.482	75.17982
877.878	109.25305
878.275	87.21231
878.671	26.05374
879.068	73.1684
879.464	68.15727
879.86	53.12021
880.256	16.03756
880.652	61.1492
881.048	82.19198
881.444	69.15447
881.84	31.07608
882.236	83.19945
882.631	101.23753
883.027	85.19538
883.422	61.14903
883.817	67.16314
884.213	69.17027
884.608	87.20875
885.003	62.14191
885.398	53.12784
885.793	96.22889
886.188	42.10045
886.582	95.23054
886.977	51.11521
887.371	43.10408
887.766	72.17285
888.16	84.19667
888.554	69.16215
888.949	61.14703
889.343	84.19466
889.737	50.13025
890.131	83.1993
890.525	103.25342
890.918	65.15691
891.312	63.14261
891.706	72.18122
892.099	57.13905
892.492	97.19595
892.886	68.15889
893.279	74.18035
893.672	68.16758
894.065	118.28113
894.458	51.12209
894.851	102.23581
895.244	15.03714
895.637	92.21185
896.029	82.19289
896.422	46.1066
896.814	68.16145
897.206	78.18004
897.599	85.20045
897.991	96.22256
898.383	84.18956
898.775	140.30053
899.167	98.22061
899.559	66.15881
899.951	74.16467
900.342	65.15709
900.734	128.30916
901.125	86.21475
901.517	87.20429
901.908	97.21733
902.299	41.09688
902.69	69.15714
903.082	87.20085
903.473	87.20205
903.863	47.11487
904.254	106.23617
904.645	38.0898
905.036	65.15412
905.426	71.15218
905.817	70.16318
906.207	6.01367
906.597	62.14026
906.987	82.20186
907.378	107.25946
907.768	49.12565
908.158	113.26067
908.547	89.22365
908.937	54.13161
909.327	87.20085
909.717	63.15087
910.106	79.18006
910.495	48.11383
910.885	81.19701
911.274	42.10095
911.663	51.12335
912.052	72.16778
912.441	106.25921
912.83	62.1347
913.219	76.19019
913.608	104.2433
913.997	54.13161
914.385	66.15076
914.774	104.23996
915.162	148.33603
915.55	59.13556
915.939	69.16858
916.327	72.17055
916.715	86.21335
917.103	48.11137
917.491	71.16743
917.878	77.18038
918.266	36.08983
918.654	105.25815
919.041	59.15055
919.429	77.17316
919.816	83.20097
920.203	119.27637
920.591	84.19944
920.978	65.15239
921.365	90.22734
921.752	1.00227
922.139	104.21275
922.525	84.19319
922.912	56.13039
923.299	71.16932
923.685	-5.01258
924.072	76.16216
924.458	41.09834
924.844	71.16834
925.231	14.0311
925.617	64.15831
926.003	39.09585
926.389	41.09965
926.774	48.11664
927.16	100.23587
927.546	105.26024
927.931	56.13321
928.317	87.18857
928.702	96.21434
929.088	107.24585
929.473	78.19187
929.858	112.26212
930.243	103.23751
930.628	88.20652
931.013	57.13588
931.398	86.18406
931.783	28.07058
932.167	130.30412
932.552	64.15324
932.937	50.11844
933.321	55.13392
933.705	-21.05098
934.09	52.12351
934.474	80.17891
934.858	102.25341
935.242	34.07538
935.626	78.19251
936.009	51.13251
936.393	93.22957
936.777	49.12176
937.16	58.14666
937.544	38.08439
937.927	42.10343
938.311	101.23234
938.694	86.21894
939.077	53.12158
939.46	40.09218
939.843	57.10975
940.226	33.08131
940.609	106.23324
940.991	44.1072
941.374	76.17877
941.757	98.22899
942.139	70.15027
942.522	87.19396
942.904	88.20142
943.286	74.17941
943.668	109.27252
944.05	38.09022
944.432	47.11097
944.814	56.1308
945.196	50.11812
945.578	72.16652
945.959	43.09547
946.341	38.08785
946.722	47.10496
947.104	64.14631
947.485	82.18149
947.866	88.21383
948.247	83.20248
948.628	19.04378
949.009	18.04467
949.39	44.10459
949.771	40.08683
950.152	77.18081
950.532	65.15797
950.913	84.19258
951.293	68.17889
951.674	72.16632
952.054	143.34167
952.434	87.20652
952.814	58.13024
953.194	25.06246
953.574	88.20539
953.954	53.11904
954.334	93.22331
954.714	53.12465
955.093	95.22211
955.473	91.21984
955.853	43.10751
956.232	52.13763
956.611	30.0682
956.99	79.19085
957.37	78.18889
957.749	34.07657
958.128	92.2228
958.506	46.11541
958.885	45.10888
959.264	70.16652
959.643	102.22104
960.021	76.18155
960.4	61.13148
960.778	57.13233
961.156	34.08181
961.535	78.17083
961.913	120.26659
962.291	61.15263
962.669	48.11777
963.047	54.13342
963.424	133.32674
963.802	77.18137
964.18	62.14777
964.557	92.19945
964.935	124.27662
965.312	80.20114
965.69	28.06694
966.067	15.03482
966.444	-15.03518
966.821	66.16367
967.198	58.13286
967.575	77.17925
967.952	95.21145
968.329	72.16857
968.705	167.33442
969.082	110.27298
969.458	98.22683
969.835	49.11439
970.211	79.19659
970.587	72.17193
970.963	25.06142
971.339	64.16166
971.715	66.15827
972.091	72.16923
972.467	47.11084
972.843	92.22053
973.219	72.16294
973.594	34.08607
973.97	55.1215
974.345	83.19009
974.721	35.0801
975.096	94.21827
975.471	67.15086
975.846	80.18149
976.221	78.18996
976.596	80.1862
976.971	117.27602
977.346	64.14064
977.72	63.15317
978.095	46.11449
978.469	31.07074
978.844	65.15548
979.218	90.20873
979.593	12.02759
979.967	16.03684
980.341	100.21892
980.715	95.22889
981.089	57.13676
981.463	53.1162
981.837	77.18208
982.21	27.05852
982.584	75.1737
982.957	86.20646
983.331	65.14407
983.704	121.28545
984.078	93.21769
984.451	56.13111
984.824	64.15025
985.197	17.03915
985.57	43.10192
985.943	27.06295
986.316	71.16352
986.688	91.208
987.061	100.22281
987.434	147.36819
987.806	25.05744
988.179	51.11455
988.551	74.17874
988.923	72.16824
989.295	96.22687
989.667	51.11873
990.039	86.20646
990.411	40.08657
990.783	44.09535
991.155	52.12036
991.527	51.11779
991.898	62.1489
992.27	61.1462
992.641	82.19491
993.012	26.05709
993.384	22.05021
993.755	88.21575
994.126	132.30225
994.497	31.0733
994.868	64.13804
995.239	48.1111
995.61	59.14264
995.98	51.11849
996.351	64.15301
996.722	54.12121
997.092	69.15676
997.462	69.15574
997.833	43.09662
998.203	45.10286
998.573	46.1106
998.943	110.24519
999.313	117.26678
999.683	71.1632
1000.053	39.08363
1000.423	85.19483
1000.792	24.05943
1001.162	-4.00947
1001.531	47.11148
1001.901	40.09534
1002.27	49.10194
1002.639	16.03923
1003.009	51.11568
1003.378	78.19131
1003.747	61.13645
1004.116	50.11426
1004.485	21.04827
1004.853	26.06261
1005.222	-10.02401
1005.591	69.15542
1005.959	63.13574
1006.328	80.17136
1006.696	73.16699
1007.064	21.05046
1007.433	57.13531
1007.801	27.06258
1008.169	36.08653
1008.537	133.27472
1008.905	93.20691
1009.273	41.09642
1009.64	103.23618
1010.008	51.11596
1010.375	30.06861
1010.743	24.05132
1011.11	130.29588
1011.478	128.30179
1011.845	84.18615
1012.212	132.28373
1012.579	50.11793
1012.946	53.11894
1013.313	65.14593
1013.68	69.14611
1014.047	24.05498
1014.414	43.09702
1014.78	55.13166
1015.147	106.2392
1015.513	82.18792
1015.88	98.2367
1016.246	66.15343
1016.612	95.20328
1016.978	43.10188
1017.344	77.18201
1017.71	59.13643
1018.076	13.02915
1018.442	138.33721
1018.808	76.18343
1019.174	40.09585
1019.539	20.0421
1019.905	8.0183
1020.27	40.0946
1020.636	88.19712
1021.001	109.24763
1021.366	54.12469
1021.731	93.23176
1022.096	47.11521
1022.461	70.15822
1022.826	71.16215
1023.191	60.1515
1023.556	42.09354
1023.92	10.02349
1024.285	37.08563
1024.649	-3.00706
1025.014	75.17487
1025.378	77.1863
1025.742	8.01902
1026.107	60.12841
1026.471	49.10834
1026.835	82.19371
1027.199	55.12693
1027.562	63.13766
1027.926	39.09086
1028.29	76.18405
1028.654	93.20106
1029.017	110.25693
1029.381	109.24713
1029.744	56.13725
1030.107	80.17965
1030.471	100.22815
1030.834	17.03642
1031.197	97.221
1031.56	86.19114
1031.923	72.17881
1032.286	64.14301
1032.648	69.1546
1033.011	143.31207
1033.374	81.17827
1033.736	30.0764
1034.099	71.16522
1034.461	35.08595
1034.823	67.16039
1035.185	28.06722
1035.548	56.13106
1035.91	102.23055
1036.272	45.09833
1036.634	84.19528
1036.995	63.1397
1037.357	48.11256
1037.719	65.1512
1038.08	102.23121
1038.442	43.09745
1038.803	38.08586
1039.165	63.15139
1039.526	76.175
1039.887	71.1615
1040.248	71.17023
1040.609	33.07743
1040.97	70.16254
1041.331	73.17815
1041.692	108.24282
1042.053	81.17317
1042.413	64.14076
1042.774	82.19018
1043.134	22.04957
1043.495	81.19413
1043.855	116.26914
1044.215	54.12752
1044.576	74.16979
1044.936	66.14266
1045.296	95.22525
1045.656	59.1367
1046.016	75.17108
1046.375	36.08379
1046.735	69.15154
1047.095	74.1646
1047.454	89.17451
1047.814	45.10368
1048.173	47.10556
1048.533	49.10698
1048.892	7.0163
1049.251	62.14766
1049.61	47.1111
1049.969	51.11431
1050.328	72.14735
1050.687	77.17699
1051.046	38.08834
1051.405	54.12727
1051.763	85.18738
1052.122	5.01204
1052.48	83.19436
1052.839	89.20211
1053.197	84.18716
1053.555	56.11835
1053.914	88.20369
1054.272	13.02955
1054.63	-5.01187
1054.988	87.19821
1055.345	26.05249
1055.703	67.154
1056.061	98.24338
1056.419	76.19177
1056.776	48.10925
1057.134	-8.01751
1057.491	42.1011
1057.848	45.10674
1058.206	32.0708
1058.563	26.05454
1058.92	72.15649
1059.277	85.19944
1059.634	32.07094
1059.991	127.28712
1060.348	87.18664
1060.704	114.26303
1061.061	43.09328
1061.418	61.1415
1061.774	41.09718
1062.131	48.12444
1062.487	27.0601
1062.843	75.17824
1063.199	58.13818
1063.555	81.17976
1063.911	27.06525
1064.267	116.22094
1064.623	28.06622
1064.979	6.01314
1065.335	68.15308
1065.691	19.04304
1066.046	56.11632
1066.402	45.09666
1066.757	41.09957
1067.112	39.09133
1067.468	60.13717
1067.823	-6.01362
1068.178	35.08055
1068.533	98.22494
1068.888	107.23983
1069.243	17.04046
1069.598	54.12445
1069.952	96.20892
1070.307	52.12408
1070.662	94.21446
1071.016	65.14047
1071.371	45.0982
1071.725	55.12419
1072.079	57.13123
1072.434	26.06102
1072.788	-3.00679
1073.142	80.18759
1073.496	42.09501
1073.85	60.13197
1074.203	82.18935
1074.557	66.17104
1074.911	78.17523
1075.265	12.02677
1075.618	74.1723
1075.971	65.14695
1076.325	55.13532
1076.678	5.01101
1077.031	2.00425
1077.385	54.11222
1077.738	6.01296
1078.091	57.1246
1078.444	72.15629
1078.796	85.19983
1079.149	52.12422
1079.502	46.10474
1079.855	63.13999
1080.207	45.10579
1080.56	34.08539
1080.912	98.22548
1081.264	92.21109
1081.617	78.18176
1081.969	38.09289
1082.321	10.02345
1082.673	74.16303
1083.025	37.08341
1083.377	375.78361
1083.728	110.24
1084.08	27.06441
1084.432	45.10335
1084.783	56.12213
1085.135	65.15667
1085.486	58.12714
1085.838	117.27355
1086.189	75.17508
1086.54	20.04565
1086.891	75.18514
1087.242	101.23762
1087.593	37.08488
1087.944	131.2803
1088.295	96.20484
1088.646	109.25525
1088.996	60.13899
1089.347	79.18318
1089.698	71.16169
1090.048	9.02249
1090.398	44.09657
1090.749	24.05456
1091.099	85.20674
1091.449	93.22136
1091.799	58.13898
1092.149	52.12341
1092.499	53.12372
1092.849	47.11504
1093.199	53.12601
1093.548	85.19639
1093.898	39.09333
1094.248	50.12209
1094.597	70.17366
1094.947	45.1162
1095.296	75.17776
1095.645	-4.01006
1095.994	95.21609
1096.343	99.2379
1096.692	74.18998
1097.041	37.0987
1097.39	42.10053
1097.739	29.07274
1098.088	17.04384
1098.437	60.15415
1098.785	36.09307
1099.134	36.09071
1099.482	84.22314
1099.83	77.19412
1100.179	70.17896
1100.527	15.03818
1100.875	36.09281
1101.223	68.17501
1101.571	17.04553
1101.919	53.13671
1102.267	57.15695
1102.615	4.01285
1102.962	11.03525
1103.31	14.04491
1103.658	-1.00321
