Data from N3 R2 sample 8_Subt2__4__10-17-04-883.txt Node

Date: Thu Sep 18 10:17:04 PDT 2025
User: uwsun
Spectrometer: HDX01956
Trigger mode: 0
Integration Time (sec): 5.000000E-1
Scans to average: 1
Nonlinearity correction enabled: true
Boxcar width: 0
Storing dark spectrum: false
XAxis mode: Wavelengths
Number of Pixels in Spectrum: 2068
>>>>>Begin Spectral Data<<<<<
194.03	50.1441
194.578	53.17126
195.127	48.15301
195.676	50.15992
196.225	59.15603
196.773	68.18804
197.321	127.34858
197.87	187.47427
198.418	203.51722
198.966	231.5991
199.513	187.47175
200.061	216.54168
200.609	148.38973
201.156	163.35571
201.704	134.33775
202.251	183.48278
202.798	211.54006
203.345	221.5399
203.892	196.49082
204.438	196.46031
204.985	201.4727
205.532	178.46492
206.078	183.44358
206.624	231.57124
207.17	282.64465
207.716	219.53043
208.262	221.43148
208.808	216.53641
209.354	230.56073
209.899	201.50052
210.445	178.44301
210.99	218.52552
211.535	190.44465
212.08	231.52754
212.625	179.44413
213.17	218.54846
213.715	233.52417
214.259	174.4045
214.804	168.40974
215.348	249.56475
215.892	239.57058
216.436	194.43814
216.98	205.44414
217.524	208.49173
218.068	226.56185
218.612	207.52051
219.155	227.52801
219.698	225.52645
220.242	150.36871
220.785	189.4398
221.328	221.53668
221.871	219.5495
222.414	192.4688
222.956	167.39611
223.499	169.37334
224.041	156.3539
224.583	167.34851
225.126	160.34821
225.668	188.45081
226.21	234.58046
226.751	228.49745
227.293	157.35219
227.835	170.41276
228.376	169.38004
228.918	132.32734
229.459	159.39364
230	201.47546
230.541	202.45658
231.082	210.5026
231.622	134.30177
232.163	197.46744
232.704	231.56642
233.244	157.38641
233.784	191.45565
234.324	207.45823
234.864	165.36892
235.404	209.48249
235.944	157.36635
236.484	235.57345
237.023	166.38712
237.563	212.48386
238.102	200.46512
238.641	194.47984
239.18	187.43308
239.719	157.38969
240.258	210.46264
240.797	195.45877
241.335	187.44798
241.874	190.36488
242.412	239.56774
242.95	190.45318
243.488	155.34499
244.026	243.55181
244.564	211.42586
245.102	251.55424
245.64	187.43977
246.177	182.39861
246.715	254.59418
247.252	176.39424
247.789	250.44887
248.326	196.46551
248.863	204.4415
249.4	202.45006
249.936	282.57111
250.473	212.49263
251.009	219.49106
251.546	258.56075
252.082	217.45849
252.618	250.54452
253.154	210.49665
253.69	158.35145
254.226	238.55697
254.761	200.44154
255.297	166.35896
255.832	209.48863
256.367	232.53292
256.903	240.52119
257.438	217.49857
257.972	224.4881
258.507	211.47488
259.042	254.53725
259.576	271.58236
260.111	200.4515
260.645	186.39635
261.179	198.45701
261.713	253.55164
262.247	201.45107
262.781	235.48388
263.315	162.38921
263.849	198.48848
264.382	198.44754
264.915	227.52655
265.449	190.45751
265.982	185.41483
266.515	267.63693
267.048	191.39931
267.58	180.38323
268.113	266.55794
268.646	180.43491
269.178	174.38462
269.71	267.57377
270.243	269.60589
270.775	238.59813
271.307	181.42467
271.838	225.52005
272.37	229.54922
272.902	238.52608
273.433	273.58742
273.965	239.5673
274.496	212.51589
275.027	238.5798
275.558	300.70809
276.089	267.64958
276.62	191.47459
277.15	220.53034
277.681	218.45949
278.211	215.51447
278.741	222.48374
279.272	265.5898
279.802	198.48507
280.332	237.54756
280.861	219.51342
281.391	254.56239
281.921	218.51097
282.45	273.65722
282.98	203.52105
283.509	264.58477
284.038	264.58794
284.567	263.59626
285.096	263.62161
285.625	218.48107
286.153	291.67418
286.682	245.55026
287.21	200.46879
287.739	262.60255
288.267	248.59036
288.795	234.59861
289.323	274.62561
289.851	273.6247
290.378	210.46012
290.906	258.61628
291.433	244.59486
291.961	265.5898
292.488	230.55906
293.015	236.54623
293.542	346.8557
294.069	304.72947
294.596	241.57579
295.122	291.67712
295.649	240.51319
296.175	248.58287
296.702	298.70637
297.228	276.64538
297.754	291.63395
298.28	281.62851
298.806	282.66019
299.332	274.59679
299.857	266.5892
300.383	264.64721
300.908	271.64968
301.433	293.69733
301.958	296.65674
302.483	210.51255
303.008	297.71688
303.533	249.62813
304.058	267.60582
304.582	286.65642
305.107	273.69234
305.631	255.56448
306.155	289.6536
306.679	276.6322
307.203	247.56158
307.727	285.65635
308.251	285.68376
308.775	338.7925
309.298	292.68386
309.822	287.70058
310.345	353.81
310.868	322.75027
311.391	290.69403
311.914	300.72944
312.437	347.76138
312.96	327.74314
313.482	294.67018
314.005	247.60363
314.527	270.68461
315.049	320.78359
315.571	334.72437
316.093	357.84895
316.615	308.71539
317.137	329.69084
317.659	331.77321
318.18	300.69296
318.702	362.81349
319.223	310.61028
319.744	379.81442
320.265	332.78117
320.786	431.01914
321.307	353.83815
321.828	371.80032
322.348	362.81716
322.869	386.87879
323.389	592.04693
323.909	381.83069
324.43	376.85914
324.95	367.80492
325.47	385.91376
325.989	413.93131
326.509	390.83354
327.029	414.89823
327.548	395.85281
328.067	389.90295
328.587	427.0155
329.106	373.80394
329.625	375.93639
330.144	419.92552
330.662	470.03593
331.181	465.0311
331.7	381.84687
332.218	448.91559
332.736	457.00659
333.255	490.07919
333.773	474.04913
334.291	484.13653
334.808	489.02941
335.326	434.92235
335.844	490.07919
336.361	548.31199
336.879	505.10973
337.396	520.18074
337.913	510.09794
338.43	543.13127
338.947	536.18856
339.464	506.015
339.981	514.13545
340.497	513.17681
341.014	536.21368
341.53	547.13911
342.046	651.48066
342.562	583.33868
343.078	566.22861
343.594	607.31969
344.11	591.30064
344.626	610.41385
345.141	634.31677
345.657	608.2554
346.172	634.39392
346.687	626.30591
347.202	644.334
347.717	654.41386
348.232	640.45356
348.747	677.40839
349.261	656.29952
349.776	685.46801
350.29	664.51116
350.805	725.60451
351.319	678.41892
351.833	684.41697
352.347	644.38213
352.861	676.43156
353.374	693.41164
353.888	739.61445
354.401	716.45294
354.915	742.48796
355.428	759.68538
355.941	681.42803
356.454	694.38068
356.967	722.50178
357.48	759.51824
357.993	720.58715
358.505	767.65308
359.018	822.76753
359.53	812.74378
360.042	794.5572
360.554	815.75435
361.066	744.61272
361.578	825.58347
362.09	847.75307
362.602	884.68997
363.113	839.72103
363.625	870.70246
364.136	884.65985
364.647	846.74671
365.158	829.68215
365.669	888.82858
366.18	901.82009
366.691	869.63283
367.201	899.85415
367.712	854.69316
368.222	915.80033
368.733	947.73264
369.243	968.81965
369.753	948.85094
370.263	1002.03703
370.773	915.91161
371.282	1040.06948
371.792	1000.94248
372.301	1071.14064
372.811	1041.30503
373.32	1092.91803
373.829	1069.07868
374.338	1128.02044
374.847	1144.13407
375.356	1195.25522
375.865	1295.13054
376.373	1306.29889
376.882	1324.64175
377.39	1297.45539
377.898	1374.61098
378.407	1442.44519
378.915	1510.40043
379.423	1505.58338
379.93	1641.71766
380.438	1618.8101
380.946	1680.75483
381.453	1790.96909
381.96	1860.00722
382.468	2051.07749
382.975	2198.35571
383.482	2165.92554
383.989	2154.56391
384.495	2373.20095
385.002	2448.73219
385.509	2632.39059
386.015	2805.63025
386.521	2860.15463
387.028	3002.13791
387.534	3069.8017
388.04	3205.46622
388.546	3348.91331
389.051	3554.83089
389.557	3771.05483
390.063	3947.8153
390.568	4045.18678
391.073	4188.58469
391.578	4408.12054
392.084	4548.54315
392.589	4890.02209
393.093	5233.4969
393.598	5640.00224
394.103	6083.0399
394.607	6836.94375
395.112	7157.07741
395.616	7571.11385
396.12	8178.29051
396.624	9066.60252
397.128	9820.2644
397.632	10868.71697
398.136	11724.71358
398.639	12905.53404
399.143	14816.98119
399.646	16345.28255
400.15	17832.32815
400.653	20346.67715
401.156	23112.9358
401.659	26508.43046
402.162	33866.82518
402.664	48953.91588
403.167	62051.22113
403.67	63769.22307
404.172	63919.58413
404.674	63858.43483
405.176	63738.15102
405.678	63977.72923
406.18	64011.81569
406.682	63863.44694
407.184	63926.60148
407.686	63841.39382
408.187	64025.8516
408.688	63892.51763
409.19	58242.95335
409.691	48436.64983
410.192	41524.78855
410.693	36884.11778
411.194	34586.10081
411.694	32375.12949
412.195	29426.80504
412.696	27508.27277
413.196	26521.23188
413.696	26656.88853
414.196	26830.12989
414.696	25891.78004
415.196	23782.7743
415.696	19516.49628
416.196	15152.09427
416.695	12596.51782
417.195	11756.60746
417.694	11261.98735
418.194	10467.54214
418.693	9963.69645
419.192	9632.79806
419.691	9454.37812
420.19	9252.98022
420.688	9111.74949
421.187	8521.49567
421.685	7723.99379
422.184	6873.83353
422.682	5930.54109
423.18	5221.21109
423.678	4735.43828
424.176	4359.63152
424.674	4139.57605
425.172	3942.02234
425.669	3635.42119
426.167	3368.12978
426.664	3161.03522
427.161	2891.1316
427.659	2725.42332
428.156	2558.73397
428.652	2367.52715
429.149	2281.28842
429.646	2249.8761
430.143	2113.13885
430.639	1975.0016
431.135	1891.1739
431.632	1826.75383
432.128	1664.80632
432.624	1640.06015
433.12	1633.59271
433.616	1613.4423
434.111	1470.56765
434.607	1494.6193
435.103	1391.11041
435.598	1305.01281
436.093	1265.26739
436.588	1287.19908
437.083	1154.02921
437.578	1143.09711
438.073	1073.19689
438.568	1068.14493
439.062	980.70552
439.557	999.91709
440.051	939.7456
440.546	934.75992
441.04	931.87217
441.534	929.97336
442.028	948.90508
442.522	848.73521
443.015	794.4467
443.509	817.70749
444.002	773.64182
444.496	810.48858
444.989	822.70999
445.482	763.64446
445.975	852.66719
446.468	784.44721
446.961	828.51716
447.454	697.36509
447.947	707.48065
448.439	776.64998
448.931	732.45977
449.424	721.61551
449.916	736.56825
450.408	724.43911
450.9	634.37291
451.392	706.58156
451.884	666.34765
452.375	635.40284
452.867	680.33771
453.358	613.25073
453.849	637.19858
454.341	638.27382
454.832	647.22758
455.323	658.45642
455.814	603.22974
456.304	597.23458
456.795	599.22046
457.285	547.08351
457.776	591.20305
458.266	586.24777
458.756	535.14519
459.247	560.20886
459.737	554.21273
460.226	641.29078
460.716	567.22112
461.206	506.10424
461.695	534.19934
462.185	532.14538
462.674	498.03713
463.163	572.14871
463.653	549.0474
464.142	475.05724
464.63	468.04228
465.119	471.00406
465.608	526.1174
466.096	465.92384
466.585	457.96001
467.073	432.94366
467.561	482.05844
468.05	403.86337
468.538	462.03824
469.026	417.91841
469.513	419.81614
470.001	415.88485
470.489	438.96323
470.976	459.98714
471.463	407.94509
471.951	406.94072
472.438	402.87888
472.925	353.78204
473.412	383.86931
473.899	371.79654
474.385	403.91989
474.872	343.75356
475.359	390.89685
475.845	357.6914
476.331	340.68006
476.817	335.77025
477.303	348.76116
477.789	294.66639
478.275	315.7419
478.761	266.60441
479.247	294.62321
479.732	279.66555
480.218	309.77108
480.703	270.63655
481.188	321.6562
481.673	290.63485
482.158	313.64013
482.643	274.67022
483.128	328.72318
483.612	331.74582
484.097	239.5546
484.581	299.65745
485.066	304.70834
485.55	262.5549
486.034	244.50818
486.518	313.71133
487.002	225.52789
487.486	256.59604
487.969	232.54336
488.453	191.46175
488.936	237.51347
489.42	257.54466
489.903	195.47106
490.386	169.34093
490.869	293.61037
491.352	201.46883
491.835	212.41893
492.318	216.46907
492.8	237.47173
493.283	239.58799
493.765	159.3812
494.247	204.46016
494.73	195.41905
495.212	142.33011
495.694	230.52304
496.175	212.49341
496.657	214.4902
497.139	211.34844
497.62	187.43772
498.102	193.46711
498.583	140.33725
499.064	188.40757
499.545	171.38028
500.026	201.44124
500.507	178.39922
500.988	236.56891
501.469	131.32088
501.949	204.48843
502.43	183.4297
502.91	234.47803
503.39	167.40419
503.87	211.48323
504.35	152.34819
504.83	158.338
505.31	173.40669
505.79	90.21088
506.269	145.32634
506.749	109.24613
507.228	148.34175
507.707	198.42889
508.187	209.48403
508.666	180.43491
509.145	138.31713
509.623	139.31975
510.102	199.46745
510.581	213.49779
511.059	192.47037
511.538	162.40861
512.016	139.32741
512.494	148.34881
512.972	138.32486
513.45	117.26947
513.928	165.39242
514.406	117.28329
514.884	179.4506
515.361	153.35898
515.839	163.36745
516.316	181.42915
516.793	126.31337
517.27	155.36523
517.747	202.50402
518.224	127.28829
518.701	110.24041
519.178	139.34211
519.654	140.32585
520.131	125.30527
520.607	85.20619
521.083	90.20244
521.56	94.21973
522.036	107.23054
522.512	204.48936
522.987	152.35935
523.463	121.28301
523.939	175.42451
524.414	146.32799
524.89	148.34677
525.365	120.26759
525.84	101.24058
526.315	152.3613
526.79	147.32555
527.265	189.42537
527.74	105.25222
528.215	114.26272
528.689	90.19595
529.164	111.23535
529.638	94.23617
530.112	94.2193
530.587	131.27618
531.061	157.37253
531.534	147.34786
532.008	149.35587
532.482	135.30545
532.956	98.24772
533.429	172.41166
533.903	149.32034
534.376	137.29796
534.849	91.20774
535.322	116.27041
535.795	97.23221
536.268	121.28922
536.741	118.27659
537.213	140.31645
537.686	152.36504
538.158	173.38457
538.631	160.37972
539.103	120.26781
539.575	130.26364
540.047	111.23946
540.519	109.25774
540.991	127.30541
541.463	148.34962
541.934	77.17337
542.406	130.30805
542.877	149.33026
543.348	173.4086
543.82	119.28585
544.291	155.35513
544.762	120.28238
545.233	162.40276
545.703	164.35752
546.174	117.26839
546.645	146.34757
547.115	179.42244
547.585	192.43026
548.056	198.47479
548.526	197.45588
548.996	132.31134
549.466	172.4093
549.935	185.43202
550.405	173.37209
550.875	188.436
551.344	164.38351
551.814	205.45702
552.283	242.50962
552.752	209.47673
553.221	228.48775
553.69	274.59451
554.159	249.59922
554.628	249.54499
555.096	219.54177
555.565	189.40808
556.033	213.49427
556.502	170.40221
556.97	199.4317
557.438	200.45758
557.906	195.44892
558.374	226.50832
558.842	213.49623
559.31	221.48003
559.777	184.44004
560.245	176.39522
560.712	173.38808
561.18	218.46837
561.647	158.34429
562.114	209.46594
562.581	211.50509
563.048	234.51854
563.514	272.65692
563.981	264.58136
564.448	289.62451
564.914	232.52139
565.381	292.63788
565.847	256.57414
566.313	239.53568
566.779	268.57901
567.245	275.61053
567.711	229.53098
568.176	188.41192
568.642	275.66554
569.108	261.61784
569.573	287.63505
570.038	331.65331
570.504	348.74218
570.969	304.7192
571.434	338.70958
571.899	352.78811
572.363	354.76578
572.828	385.82945
573.293	304.66409
573.757	378.82398
574.222	367.77301
574.686	403.86561
575.15	429.96145
575.614	480.04121
576.078	443.96338
576.542	406.86285
577.006	400.84381
577.469	478.08216
577.933	442.93239
578.396	383.85238
578.86	465.00754
579.323	465.03366
579.786	487.96484
580.249	522.11997
580.712	466.04467
581.175	479.08684
581.637	509.05655
582.1	503.99701
582.563	509.98015
583.025	530.17426
583.487	591.07698
583.95	544.04714
584.412	612.13423
584.874	590.29436
585.336	600.2743
585.797	666.26647
586.259	674.38689
586.721	676.39476
587.182	716.43509
587.643	794.53816
588.105	744.52356
588.566	834.44851
589.027	871.8084
589.488	886.69952
589.949	910.8538
590.41	1015.57955
590.87	1055.93651
591.331	1104.89176
591.791	1178.12542
592.252	1246.22694
592.712	1242.30039
593.172	1396.3275
593.632	1459.32065
594.092	1491.35589
594.552	1559.32626
595.011	1621.5633
595.471	1790.66224
595.931	1892.71452
596.39	1959.01507
596.849	2057.94081
597.308	2173.60706
597.768	2289.58914
598.227	2450.26754
598.685	2648.03081
599.144	2741.22938
599.603	2898.18812
600.062	3129.58515
600.52	3267.94775
600.978	3396.19644
601.437	3688.85702
601.895	3916.3918
602.353	4115.44176
602.811	4359.49193
603.269	4633.71275
603.727	4883.6437
604.184	5037.18045
604.642	5435.51846
605.099	5761.97645
605.557	5974.16883
606.014	6138.3303
606.471	6482.23022
606.928	6670.42727
607.385	7102.14449
607.842	7433.7207
608.299	7624.89689
608.755	7917.23596
609.212	8162.152
609.668	8425.49363
610.125	8699.02591
610.581	8940.34517
611.037	9106.60774
611.493	9333.1035
611.949	9665.87888
612.405	9764.34325
612.861	9916.58279
613.316	10174.28856
613.772	10164.34456
614.227	10359.8735
614.683	10320.09376
615.138	10411.10886
615.593	10456.29614
616.048	10656.08015
616.503	10409.01614
616.958	10533.3609
617.412	10363.91712
617.867	10449.38462
618.321	10338.25638
618.776	10286.85741
619.23	10078.03443
619.684	9899.58168
620.138	9773.18726
620.592	9692.94491
621.046	9494.46873
621.5	9332.12084
621.954	9096.57927
622.407	8921.23587
622.861	8824.22188
623.314	8635.78679
623.768	8501.70073
624.221	8319.1109
624.674	8170.25441
625.127	7915.04782
625.58	7826.84776
626.033	7740.68903
626.485	7617.98578
626.938	7492.90911
627.39	7332.75886
627.843	7336.6877
628.295	7018.61265
628.747	6920.79998
629.199	6807.52718
629.651	6750.56629
630.103	6648.57353
630.555	6450.1287
631.006	6407.6877
631.458	6424.76124
631.909	6339.47092
632.361	6128.71008
632.812	6123.73556
633.263	6164.33111
633.714	6073.21382
634.165	6008.01551
634.616	5901.95765
635.067	5971.46747
635.518	5910.97351
635.968	5875.88424
636.419	5884.45167
636.869	5939.95317
637.319	5896.83221
637.769	5914.61777
638.219	6009.89781
638.669	6066.92887
639.119	5980.00701
639.569	6111.97613
640.019	6171.70196
640.468	6101.53352
640.918	6365.81682
641.367	6290.47382
641.816	6353.41938
642.265	6610.67193
642.714	6576.56822
643.163	6695.60861
643.612	6773.97408
644.061	6887.21383
644.51	6816.55935
644.958	6905.3681
645.406	7078.813
645.855	7159.91523
646.303	7081.62436
646.751	7276.68047
647.199	7323.59337
647.647	7312.70779
648.095	7244.59428
648.543	7469.25026
648.99	7420.91961
649.438	7342.69374
649.885	7432.13468
650.333	7439.10905
650.78	7436.95633
651.227	7481.04082
651.674	7405.65783
652.121	7365.02132
652.568	7458.03956
653.015	7196.03423
653.461	7221.80535
653.908	7131.59784
654.354	7071.78705
654.801	7025.69573
655.247	6893.26515
655.693	6854.38982
656.139	6821.78851
656.585	6737.79811
657.031	6650.70951
657.477	6548.30088
657.922	6533.51522
658.368	6461.03682
658.813	6411.53364
659.259	6467.94356
659.704	6412.80556
660.149	6231.66364
660.594	6339.82611
661.039	6162.61067
661.484	6063.89691
661.929	6009.82381
662.373	5956.37544
662.818	5881.29109
663.262	5922.10481
663.707	5893.5182
664.151	5895.17404
664.595	5847.13768
665.039	5861.32679
665.483	5760.57985
665.927	5835.91855
666.371	5785.96567
666.814	5773.03376
667.258	5734.16387
667.701	5748.34433
668.145	5716.41726
668.588	5712.38635
669.031	5789.95545
669.474	5769.10706
669.917	5685.53005
670.36	5734.43232
670.803	5771.16093
671.245	5522.20017
671.688	5754.21836
672.13	5626.76299
672.573	5693.54357
673.015	5791.13432
673.457	5745.46345
673.899	5711.1923
674.341	5789.12372
674.783	5742.10813
675.225	5746.3103
675.666	5823.23273
676.108	5788.4028
676.549	5859.8474
676.991	5927.44158
677.432	5953.89551
677.873	5916.68882
678.314	6033.92737
678.755	6012.20199
679.196	6020.65882
679.637	6030.96459
680.078	6027.79817
680.518	6049.67265
680.959	6072.91013
681.399	6158.16469
681.839	6101.03877
682.28	6281.15559
682.72	6130.62025
683.16	6236.19929
683.6	6245.55469
684.039	6190.02775
684.479	6327.09052
684.919	6387.73839
685.358	6374.1293
685.798	6510.44469
686.237	6621.77534
686.676	6554.46038
687.115	6725.69103
687.554	6844.78308
687.993	6903.3469
688.432	6886.50417
688.871	6952.53891
689.309	7047.8028
689.748	7062.11071
690.186	7058.65335
690.625	7263.72408
691.063	7335.82389
691.501	7452.06134
691.939	7548.20132
692.377	7572.99445
692.815	7816.16892
693.253	7759.0006
693.69	7856.75848
694.128	7988.24971
694.565	7978.13698
695.003	8198.6526
695.44	8275.4177
695.877	8351.48136
696.314	8433.34823
696.751	8553.64786
697.188	8606.7737
697.625	8746.92778
698.061	8866.23722
698.498	8936.33062
698.934	9195.82749
699.371	9266.96038
699.807	9335.10728
700.243	9531.55673
700.679	9551.63416
701.115	9815.29485
701.551	9786.21954
701.987	9804.36106
702.422	10107.10943
702.858	10230.49636
703.294	10424.25672
703.729	10539.48975
704.164	10575.67765
704.599	10574.91012
705.035	10859.03658
705.47	11192.07899
705.904	11268.68696
706.339	11303.90497
706.774	11508.76889
707.209	11597.24973
707.643	11827.24979
708.078	12051.33806
708.512	12131.52583
708.946	12504.26175
709.38	12482.08421
709.814	12619.46942
710.248	12770.62042
710.682	13089.98882
711.116	13152.25549
711.549	13080.20852
711.983	13283.88977
712.416	13798.49087
712.85	13665.85547
713.283	13990.15105
713.716	14035.79439
714.149	14242.61747
714.582	14327.83504
715.015	14470.6743
715.448	14465.15223
715.881	14726.3061
716.313	14896.43388
716.746	15217.29017
717.178	15252.33539
717.61	15592.59533
718.043	15783.20903
718.475	15752.23899
718.907	16049.79221
719.339	16233.9087
719.77	16298.4063
720.202	16424.81924
720.634	16731.73557
721.065	16608.3209
721.497	16837.04481
721.928	16688.38274
722.359	17104.30112
722.79	17342.61502
723.221	17350.81851
723.652	17672.11957
724.083	17528.5058
724.514	17628.20834
724.945	17959.9275
725.375	18044.01465
725.806	18196.59012
726.236	18043.61045
726.666	18257.59285
727.096	18427.79586
727.526	18680.54217
727.956	18631.31556
728.386	18842.21171
728.816	18789.1758
729.246	18992.97745
729.675	18997.44584
730.105	18895.00494
730.534	19161.99715
730.964	19195.4763
731.393	19439.35025
731.822	19703.64064
732.251	19596.38899
732.68	19675.30049
733.109	19704.75841
733.537	19862.17534
733.966	19688.12919
734.395	19791.91533
734.823	19953.52001
735.251	19842.51447
735.68	19796.10603
736.108	19860.57783
736.536	19584.71707
736.964	19547.49071
737.392	19742.94468
737.82	19742.35057
738.247	19716.04252
738.675	19728.64737
739.102	19552.37074
739.53	19433.72527
739.957	19312.89474
740.384	19455.14673
740.811	19511.9394
741.238	19565.01007
741.665	19418.2333
742.092	19084.42902
742.519	18974.62121
742.945	19021.86328
743.372	18703.99545
743.798	18761.93358
744.225	18519.02612
744.651	18423.18423
745.077	18260.15763
745.503	18184.11118
745.929	18256.87173
746.355	18073.49122
746.781	17528.37551
747.207	17590.94899
747.632	17360.95079
748.058	17434.46491
748.483	17472.36797
748.908	17249.57001
749.334	17177.97037
749.759	16851.9439
750.184	16767.68221
750.609	16598.41751
751.033	16417.52632
751.458	16197.04444
751.883	16184.71328
752.307	15910.69378
752.732	15790.57315
753.156	15608.58454
753.58	15459.97708
754.005	15176.91371
754.429	15093.13161
754.853	14768.15354
755.277	14623.68332
755.7	14550.27036
756.124	14362.58498
756.548	14168.77595
756.971	13894.98454
757.394	13836.83044
757.818	13713.71487
758.241	13424.76378
758.664	13386.58139
759.087	13287.30244
759.51	12896.46896
759.933	12818.12982
760.356	12646.33015
760.778	12411.40366
761.201	12316.01131
761.623	11948.03811
762.046	11777.25589
762.468	11820.29249
762.89	11455.32036
763.312	11358.82926
763.734	11209.23829
764.156	10967.09059
764.578	10625.07976
765	10526.46734
765.421	10343.74055
765.843	10216.32412
766.264	9818.30184
766.686	9583.68193
767.107	9647.83683
767.528	9371.25835
767.949	9308.10964
768.37	9098.68184
768.791	8846.17922
769.212	8786.21644
769.632	8577.72951
770.053	8399.87854
770.473	8264.41251
770.894	8020.26153
771.314	7858.96099
771.734	7725.82494
772.154	7562.19539
772.575	7501.63871
772.994	7404.51712
773.414	7274.69416
773.834	7078.93656
774.254	6917.79753
774.673	6840.83429
775.093	6613.97767
775.512	6471.94265
775.931	6442.14618
776.351	6239.08524
776.77	6274.95756
777.189	5991.80333
777.607	5885.40177
778.026	5692.29238
778.445	5573.52362
778.864	5475.52414
779.282	5358.09947
779.701	5276.55737
780.119	5197.70524
780.537	5017.63377
780.955	4893.82557
781.373	4782.70383
781.791	4805.08986
782.209	4689.06911
782.627	4604.36837
783.045	4465.25395
783.462	4392.19494
783.88	4228.40656
784.297	4231.15152
784.715	4058.44471
785.132	3995.89999
785.549	3869.24165
785.966	3897.29076
786.383	3787.20459
786.8	3720.76149
787.217	3654.01251
787.633	3531.42938
788.05	3414.86463
788.466	3425.86657
788.883	3371.61459
789.299	3151.06397
789.715	3144.25658
790.131	3053.38476
790.547	2977.39277
790.963	2889.35128
791.379	2934.49798
791.795	2836.78504
792.21	2774.94859
792.626	2677.01417
793.041	2589.26803
793.457	2589.24617
793.872	2444.92341
794.287	2547.18025
794.702	2451.13191
795.117	2363.28076
795.532	2296.31961
795.947	2202.92848
796.362	2277.88207
796.776	2234.77899
797.191	2205.10888
797.605	2123.92067
798.02	2051.97522
798.434	2047.5764
798.848	1912.01899
799.262	1843.93327
799.676	1864.86827
800.09	1777.83498
800.504	1751.73512
800.918	1643.45022
801.331	1643.88131
801.745	1652.43959
802.158	1534.63695
802.572	1651.66752
802.985	1538.51041
803.398	1505.45545
803.811	1462.61476
804.224	1360.41173
804.637	1376.34887
805.05	1364.20348
805.462	1337.3665
805.875	1208.40996
806.288	1291.30004
806.7	1187.23464
807.112	1149.96444
807.525	1161.12811
807.937	1113.12662
808.349	1085.09192
808.761	1101.09858
809.173	1070.01626
809.584	982.91018
809.996	1033.97483
810.408	983.07017
810.819	984.8154
811.231	998.16453
811.642	1004.98075
812.053	943.84247
812.464	820.58331
812.875	897.88555
813.286	865.85726
813.697	799.47385
814.108	796.59345
814.519	806.46564
814.929	785.66516
815.34	717.43875
815.75	711.55062
816.16	650.36325
816.571	694.53426
816.981	614.21789
817.391	632.28635
817.801	638.3663
818.211	586.19691
818.62	615.27697
819.03	582.22904
819.44	519.17537
819.849	536.16932
820.259	526.17071
820.668	541.16853
821.077	535.17773
821.486	473.99099
821.895	497.06234
822.304	486.14744
822.713	466.96748
823.122	480.05801
823.531	443.91543
823.939	470.01861
824.348	422.91051
824.756	419.93673
825.164	447.9993
825.573	445.99975
825.981	377.84007
826.389	389.8815
826.797	404.93163
827.205	417.85861
827.612	384.84982
828.02	352.74223
828.428	335.78009
828.835	344.83859
829.243	325.69869
829.65	330.75739
830.057	315.69438
830.464	320.72296
830.871	319.69995
831.278	299.66298
831.685	334.66775
832.092	277.61778
832.499	283.56697
832.905	295.6829
833.312	238.48973
833.718	322.74051
834.124	289.60471
834.531	264.60957
834.937	312.73983
835.343	230.51031
835.749	200.42785
836.155	234.57367
836.561	224.51434
836.966	258.58053
837.372	210.49799
837.777	208.48715
838.183	224.45635
838.588	216.5049
838.993	248.55963
839.399	201.46236
839.804	185.42437
840.209	197.47787
840.613	150.31227
841.018	180.42669
841.423	213.51279
841.828	222.52787
842.232	163.37331
842.637	232.51347
843.041	179.43551
843.445	115.27256
843.849	168.39394
844.253	198.43731
844.657	152.36518
845.061	211.45285
845.465	152.34665
845.869	218.46958
846.272	145.33595
846.676	108.24362
847.079	161.39084
847.483	171.40043
847.886	205.46043
848.289	171.43907
848.692	111.26613
849.095	135.30508
849.498	144.34017
849.901	162.34461
850.304	141.3176
850.707	96.23327
851.109	139.33148
851.512	117.2743
851.914	131.31647
852.316	167.40373
852.718	116.29416
853.121	133.30913
853.523	86.1901
853.925	143.35895
854.326	127.30414
854.728	114.28105
855.13	116.28892
855.531	98.22377
855.933	94.21265
856.334	82.19776
856.736	135.28774
857.137	121.26898
857.538	117.28254
857.939	104.24901
858.34	135.30757
858.741	85.2126
859.142	112.25388
859.542	151.38162
859.943	103.24393
860.343	109.25924
860.744	130.3003
861.144	133.31035
861.544	77.17989
861.945	105.25519
862.345	105.24308
862.745	125.29752
863.145	104.23124
863.544	94.22807
863.944	146.32462
864.344	65.15281
864.743	160.37342
865.143	125.30879
865.542	35.077
865.941	127.29961
866.34	99.22236
866.74	97.25038
867.139	98.22692
867.537	72.1741
867.936	108.24829
868.335	89.21622
868.734	108.2641
869.132	83.18113
869.531	79.18013
869.929	132.28507
870.327	76.17417
870.726	86.20269
871.124	121.26484
871.522	48.11751
871.92	108.25355
872.318	87.20141
872.715	84.19551
873.113	78.18061
873.511	71.16899
873.908	85.20936
874.306	100.23953
874.703	94.22215
875.1	74.17887
875.497	69.15758
875.894	129.30574
876.291	84.19751
876.688	57.14195
877.085	84.19072
877.482	68.16325
877.878	154.35433
878.275	77.18826
878.671	92.18735
879.068	104.23843
879.464	79.18231
879.86	60.1359
880.256	83.19231
880.652	92.22372
881.048	102.23787
881.444	61.13678
881.84	79.19214
882.236	84.20182
882.631	87.20517
883.027	100.22917
883.422	59.1442
883.817	97.23486
884.213	78.19216
884.608	94.22524
885.003	48.11018
885.398	73.17542
885.793	49.11788
886.188	47.1123
886.582	86.20905
886.977	71.15973
887.371	67.16143
887.766	70.16812
888.16	64.15043
888.554	100.23358
888.949	106.25332
889.343	99.22874
889.737	57.1483
890.131	58.13993
890.525	71.17572
890.918	60.14498
891.312	83.18711
891.706	76.19115
892.099	52.12697
892.492	144.28776
892.886	71.16581
893.279	82.19955
893.672	60.14809
894.065	140.33213
894.458	57.1363
894.851	88.20401
895.244	22.0544
895.637	124.28371
896.029	125.29157
896.422	54.12494
896.814	76.18016
897.206	96.22079
897.599	92.21666
897.991	85.19749
898.383	89.20064
898.775	110.23766
899.167	74.1674
899.559	55.13262
899.951	36.08074
900.342	82.19753
900.734	81.19738
901.125	46.1157
901.517	72.16956
901.908	92.20634
902.299	38.08984
902.69	102.23074
903.082	65.15072
903.473	78.18147
903.863	57.13905
904.254	119.26442
904.645	83.19444
905.036	103.24242
905.426	75.16062
905.817	56.13091
906.207	33.07476
906.597	94.21126
906.987	77.18973
907.378	88.21415
907.768	124.31377
908.158	53.12372
908.547	87.2187
908.937	43.10502
909.327	67.1553
909.717	37.08905
910.106	42.09644
910.495	70.1653
910.885	67.16338
911.274	77.18384
911.663	95.22785
912.052	53.12397
912.441	95.23279
912.83	44.09596
913.219	54.13567
913.608	51.12055
913.997	34.08317
914.385	96.21797
914.774	74.17176
915.162	83.19093
915.55	90.2055
915.939	55.13472
916.327	49.11658
916.715	77.19133
917.103	65.1503
917.491	68.16045
917.878	59.1387
918.266	41.10221
918.654	109.26778
919.041	78.19836
919.429	58.13094
919.816	94.22713
920.203	85.19873
920.591	71.16899
920.978	58.13617
921.365	56.14231
921.752	11.02491
922.139	86.17664
922.525	42.09741
922.912	58.135
923.299	42.10072
923.685	27.06756
924.072	60.12847
924.458	58.13866
924.844	58.13787
925.231	18.03996
925.617	61.15097
926.003	83.20233
926.389	47.1141
926.774	23.05615
927.16	80.18943
927.546	76.18937
927.931	82.19409
928.317	75.16298
928.702	90.20119
929.088	127.29063
929.473	47.11628
929.858	76.17912
930.243	76.17619
930.628	62.14624
931.013	72.17114
931.398	80.17144
931.783	25.06305
932.167	54.12821
932.552	65.1556
932.937	65.15352
933.321	55.13392
933.705	32.07691
934.09	23.05493
934.474	63.14139
934.858	100.24853
935.242	61.13448
935.626	62.15347
936.009	74.19151
936.393	83.20527
936.777	58.14389
937.16	73.1841
937.544	50.11076
937.927	83.20285
938.311	77.17798
938.694	61.15598
939.077	58.13292
939.46	35.08074
939.843	66.12681
940.226	70.1713
940.609	104.22893
940.991	26.06356
941.374	43.1018
941.757	100.23358
942.139	78.16715
942.522	59.1323
942.904	68.15627
943.286	63.15306
943.668	94.23566
944.05	25.05951
944.432	69.16221
944.814	46.10766
945.196	75.17632
945.578	80.18473
945.959	24.0535
946.341	37.08556
946.722	71.15777
947.104	115.2602
947.485	78.17278
947.866	54.13205
948.247	80.19527
948.628	18.04148
949.009	30.07429
949.39	42.09987
949.771	44.09543
950.152	30.07109
950.532	87.21057
950.913	63.14504
951.293	54.1424
951.674	30.06988
952.054	116.27859
952.434	84.19951
952.814	59.13246
953.194	56.13913
953.574	65.15239
953.954	-6.01364
954.334	54.13063
954.714	58.13627
955.093	86.20143
955.473	75.18173
955.853	62.15448
956.232	9.02399
956.611	43.09749
956.99	53.12867
957.37	70.16978
957.749	24.05416
958.128	76.1846
958.506	45.11292
958.885	69.16619
959.264	55.13121
959.643	106.22951
960.021	86.20505
960.4	101.21583
960.778	55.12774
961.156	41.09852
961.535	59.12974
961.913	114.25358
962.291	58.1452
962.669	66.1614
963.047	102.2498
963.424	96.23746
963.802	88.20684
964.18	47.11234
964.557	74.16105
964.935	102.22858
965.312	46.11636
965.69	22.05266
966.067	8.0186
966.444	26.06049
966.821	54.13421
967.198	77.17571
967.575	95.22037
967.952	54.12121
968.329	81.18931
968.705	103.20932
969.082	91.22662
969.458	68.15833
969.835	68.15815
970.211	82.20394
970.587	73.17429
970.963	27.06631
971.339	67.16915
971.715	92.21952
972.091	48.11335
972.467	60.14114
972.843	62.14947
973.219	81.18298
973.594	47.1187
973.97	48.10619
974.345	65.14941
974.721	58.13212
975.096	120.2772
975.471	68.15308
975.846	42.09602
976.221	58.14178
976.596	106.24545
976.971	90.21343
977.346	77.16875
977.72	59.14355
978.095	89.21978
978.469	50.11366
978.844	96.22828
979.218	63.14689
979.593	69.15682
979.967	13.02995
980.341	98.21464
980.715	34.08287
981.089	67.16045
981.463	58.12703
981.837	91.2146
982.21	78.16722
982.584	71.16457
982.957	74.17806
983.331	76.16807
983.704	117.27623
984.078	33.07815
984.451	34.07995
984.824	48.11304
985.197	14.03226
985.57	12.02861
985.943	44.10225
986.316	57.13165
986.688	97.22144
987.061	159.34992
987.434	100.2526
987.806	17.03912
988.179	19.04296
988.551	107.25683
988.923	37.08705
989.295	67.15923
989.667	82.18973
990.039	110.26287
990.411	40.08657
990.783	81.17414
991.155	62.14322
991.527	57.13149
991.898	78.18676
992.27	54.12959
992.641	64.15265
993.012	51.11139
993.384	44.09998
993.755	78.19159
994.126	83.19192
994.497	49.11546
994.868	14.03052
995.239	73.16813
995.61	9.02196
995.98	23.05373
996.351	52.1246
996.722	87.19396
997.092	84.19026
997.462	72.16241
997.833	72.16082
998.203	26.05966
998.573	41.09867
998.943	62.13957
999.313	72.16566
999.683	86.19708
1000.053	34.07299
1000.423	61.14049
1000.792	18.04462
1001.162	37.08688
1001.531	74.17461
1001.901	48.11423
1002.27	13.02726
1002.639	57.13869
1003.009	80.18039
1003.378	75.18405
1003.747	93.20665
1004.116	24.05513
1004.485	58.13233
1004.853	-6.01454
1005.222	30.07147
1005.591	97.21724
1005.959	58.1251
1006.328	85.18188
1006.696	41.09439
1007.064	77.18306
1007.433	61.14469
1007.801	39.09018
1008.169	71.16951
1008.537	115.2385
1008.905	101.22433
1009.273	58.13595
1009.64	136.30978
1010.008	75.1697
1010.375	57.12965
1010.743	56.11892
1011.11	127.28923
1011.478	88.20909
1011.845	102.22519
1012.212	70.15247
1012.579	79.18529
1012.946	64.1433
1013.313	99.22071
1013.68	69.14611
1014.047	25.05726
1014.414	58.13046
1014.78	86.20466
1015.147	80.18149
1015.513	46.10618
1015.88	80.19388
1016.246	70.1626
1016.612	94.20118
1016.978	69.16265
1017.344	59.13995
1017.71	72.16606
1018.076	79.17474
1018.442	98.24125
1018.808	100.24026
1019.174	9.02169
1019.539	33.06927
1019.905	81.1826
1020.27	39.09226
1020.636	53.11958
1021.001	90.20525
1021.366	85.19506
1021.731	87.21705
1022.096	79.1925
1022.461	41.09322
1022.826	83.1891
1023.191	35.08877
1023.556	44.09795
1023.92	33.07716
1024.285	46.10626
1024.649	64.14873
1025.014	54.12643
1025.378	95.22907
1025.742	16.03797
1026.107	76.16209
1026.471	97.21231
1026.835	67.15874
1027.199	24.05573
1027.562	69.15058
1027.926	61.1415
1028.29	79.19121
1028.654	53.11557
1029.017	114.26607
1029.381	46.10563
1029.744	27.06653
1030.107	97.21706
1030.471	43.09923
1030.834	87.18358
1031.197	70.16035
1031.56	86.19114
1031.923	68.169
1032.286	90.20003
1032.648	47.10578
1033.011	115.25245
1033.374	97.21276
1033.736	49.12437
1034.099	72.16751
1034.461	53.12973
1034.823	69.16512
1035.185	51.1219
1035.548	83.19322
1035.91	53.12099
1036.272	91.19691
1036.634	44.1031
1036.995	65.14407
1037.357	61.14268
1037.719	91.21059
1038.08	117.26441
1038.442	43.09745
1038.803	52.11715
1039.165	45.10851
1039.526	81.18633
1039.887	25.0574
1040.248	67.16076
1040.609	63.14695
1040.97	75.17398
1041.331	51.12497
1041.692	102.22961
1042.053	101.21499
1042.413	86.18828
1042.774	97.2243
1043.134	57.1275
1043.495	66.15863
1043.855	108.25097
1044.215	32.07589
1044.576	65.14941
1044.936	49.1063
1045.296	108.25543
1045.656	12.02806
1046.016	62.1418
1046.375	48.11146
1046.735	111.24162
1047.095	39.08738
1047.454	91.17834
1047.814	62.14237
1048.173	25.05641
1048.533	45.09833
1048.892	51.1177
1049.251	67.15941
1049.61	48.11344
1049.969	35.07871
1050.328	81.16543
1050.687	36.08343
1051.046	46.10677
1051.405	14.03325
1051.763	60.13296
1052.122	33.07903
1052.48	41.0968
1052.839	92.2088
1053.197	94.209
1053.555	41.08693
1053.914	49.1143
1054.272	29.0657
1054.63	25.059
1054.988	68.15552
1055.345	50.10038
1055.703	64.1472
1056.061	61.15252
1056.419	103.25864
1056.776	50.11375
1057.134	-7.01532
1057.491	85.20294
1057.848	76.17919
1058.206	-5.01115
1058.563	45.09399
1058.92	90.19487
1059.277	87.20405
1059.634	26.05771
1059.991	114.25841
1060.348	94.20135
1060.704	106.24496
1061.061	24.05228
1061.418	36.08392
1061.774	48.11361
1062.131	94.24175
1062.487	94.20631
1062.843	28.06714
1063.199	57.13583
1063.555	102.22538
1063.911	34.08206
1064.267	71.13671
1064.623	101.23549
1064.979	33.07186
1065.335	64.14419
1065.691	23.05206
1066.046	60.12452
1066.402	39.08388
1066.757	48.11642
1067.112	58.13531
1067.468	53.12134
1067.823	7.01585
1068.178	48.11018
1068.533	89.20465
1068.888	72.16255
1069.243	33.07831
1069.598	34.07867
1069.952	81.17684
1070.307	59.14059
1070.662	100.22788
1071.016	60.1298
1071.371	124.26607
1071.725	70.15758
1072.079	58.1335
1072.434	64.14908
1072.788	35.07861
1073.142	127.29507
1073.496	88.19721
1073.85	72.15796
1074.203	62.14374
1074.557	101.26016
1074.911	99.22145
1075.265	62.13688
1075.618	102.23619
1075.971	66.14918
1076.325	66.16206
1076.678	50.10905
1077.031	15.03178
1077.385	111.22774
1077.738	61.13024
1078.091	71.15475
1078.444	65.14131
1078.796	50.11835
1079.149	66.15724
1079.502	70.15861
1079.855	81.17931
1080.207	66.15452
1080.56	27.0679
1080.912	81.187
1081.264	100.22907
1081.617	38.08925
1081.969	84.20358
1082.321	19.04448
1082.673	111.24265
1083.025	52.11687
1083.377	70.15616
1083.728	38.08418
1084.08	14.03348
1084.432	19.04387
1084.783	56.12213
1085.135	55.13282
1085.486	52.11413
1085.838	77.18144
1086.189	72.16818
1086.54	80.18039
1086.891	93.22881
1087.242	121.28357
1087.593	22.05062
1087.944	60.13036
1088.295	94.20066
1088.646	95.22307
1088.996	92.21176
1089.347	32.07489
1089.698	91.2064
1090.048	38.09448
1090.398	54.11827
1090.749	-8.0183
1091.099	40.09811
1091.449	73.17442
1091.799	22.05308
1092.149	37.08807
1092.499	54.12603
1092.849	54.132
1093.199	84.19851
1093.548	106.24389
1093.898	23.05521
1094.248	37.09056
1094.597	62.15403
1094.947	67.17234
1095.296	53.12615
1095.645	82.20298
1095.994	81.18477
1096.343	93.22374
1096.692	68.17476
1097.041	80.21188
1097.39	71.16899
1097.739	79.19638
1098.088	49.12565
1098.437	47.12102
1098.785	57.14682
1099.134	46.1157
1099.482	32.08574
1099.83	41.10403
1100.179	86.21925
1100.527	23.05846
1100.875	58.14896
1101.223	95.24334
1101.571	-27.07283
1101.919	52.13415
1102.267	34.09396
1102.615	3.00964
1102.962	5.01603
1103.31	2.00642
1103.658	1.00321
