Data from N3 R2 sample 2_Subt2__5__10-11-59-385.txt Node

Date: Thu Sep 18 10:11:59 PDT 2025
User: uwsun
Spectrometer: HDX01956
Trigger mode: 0
Integration Time (sec): 5.000000E-1
Scans to average: 1
Nonlinearity correction enabled: true
Boxcar width: 0
Storing dark spectrum: false
XAxis mode: Wavelengths
Number of Pixels in Spectrum: 2068
>>>>>Begin Spectral Data<<<<<
194.03	165.46742
194.578	163.51988
195.127	174.54614
195.676	165.5204
196.225	188.48634
196.773	230.61966
197.321	290.77513
197.87	408.9938
198.418	445.08265
198.966	471.16815
199.513	470.12287
200.061	429.03197
200.609	441.10079
201.156	455.93137
201.704	414.99069
202.251	436.09828
202.798	460.12316
203.345	525.20727
203.892	448.06819
204.438	426.95531
204.985	476.05706
205.532	439.09262
206.078	451.03561
206.624	556.29009
207.17	474.03953
207.716	447.03377
208.262	500.91172
208.808	516.20848
209.354	487.12778
209.899	497.16823
210.445	461.08559
210.99	503.14462
211.535	496.08878
212.08	469.01752
212.625	441.03921
213.17	481.15029
213.715	472.00772
214.259	509.10259
214.804	413.96091
215.348	478.03158
215.892	488.10707
216.436	401.86725
216.98	441.90721
217.524	429.97053
218.068	480.13544
218.612	509.20762
219.155	513.12356
219.698	434.97365
220.242	367.86568
220.785	474.03865
221.328	452.04763
221.871	416.00423
222.414	392.92122
222.956	415.93696
223.499	405.85041
224.041	410.88197
224.583	405.8005
225.126	448.91518
225.668	428.9791
226.21	414.99295
226.751	441.91865
227.293	366.78564
227.835	447.0264
228.376	404.86458
228.918	405.9538
229.459	410.96801
230	431.97387
230.541	423.91286
231.082	473.07277
231.622	421.89219
232.163	376.86121
232.704	470.09888
233.244	422.98745
233.784	430.97853
234.324	482.00374
234.864	391.83333
235.404	386.85959
235.944	408.9048
236.484	444.0388
237.023	424.93832
237.563	460.99716
238.102	445.98458
238.641	441.03881
239.18	443.97361
239.719	435.02227
240.258	478.99372
240.797	429.96303
241.335	407.93388
241.874	504.89483
242.412	515.15589
242.95	470.0584
243.488	417.87754
244.026	476.02769
244.564	528.98816
245.102	454.9598
245.64	456.01383
246.177	421.87543
246.715	468.04658
247.252	428.90881
247.789	535.89063
248.326	452.01821
248.863	465.95012
249.4	458.96614
249.936	484.93491
250.473	487.06786
251.009	422.90661
251.546	535.09233
252.082	448.89857
252.618	485.00171
253.154	460.03289
253.69	423.88899
254.226	513.13347
254.761	496.02516
255.297	441.89741
255.832	467.03425
256.367	467.02006
256.903	537.09046
257.438	466.01508
257.972	426.88839
258.507	446.95527
259.042	494.98992
259.576	534.08066
260.111	492.04233
260.645	494.98214
261.179	537.15344
261.713	474.98497
262.247	453.96377
262.781	526.01048
263.315	448.01535
263.849	517.19783
264.382	518.09225
264.915	526.14553
265.449	463.05472
265.982	514.07241
266.515	463.06067
267.048	465.91307
267.58	438.88014
268.113	482.96275
268.646	448.02522
269.178	433.90519
269.71	552.11154
270.243	548.16169
270.775	526.25064
271.307	469.0361
271.838	518.12522
272.37	484.10198
272.902	522.08334
273.433	500.02143
273.965	473.06973
274.496	496.14026
275.027	524.20568
275.558	535.20282
276.089	482.12302
276.62	464.09287
277.15	517.17368
277.681	502.992
278.211	546.22131
278.741	485.99772
279.272	533.11827
279.802	460.06957
280.332	502.09642
280.861	464.03336
281.391	504.0557
281.921	506.11682
282.45	497.14324
282.98	532.28379
283.509	569.17817
284.038	557.16305
284.567	570.20945
285.096	543.21135
285.625	491.01957
286.153	555.2162
286.682	565.18344
287.21	447.99683
287.739	559.20695
288.267	520.17072
288.795	524.26921
289.323	572.22531
289.851	559.20335
290.378	508.04109
290.906	584.30535
291.433	573.30834
291.961	573.19175
292.488	503.15753
293.015	512.11783
293.542	601.4141
294.069	623.40149
294.596	548.22982
295.122	559.22961
295.649	563.11786
296.175	570.25305
296.702	599.33479
297.228	590.29219
297.754	587.19652
298.28	623.29303
298.806	580.27613
299.332	608.22844
299.857	607.24688
300.383	629.43461
300.908	599.3436
301.433	645.42851
301.958	611.2647
302.483	559.27275
303.008	653.46724
303.533	558.32681
304.058	597.26159
304.582	593.275
305.107	581.38975
305.631	637.29566
306.155	681.41483
306.679	700.46436
307.203	672.39394
307.727	644.37441
308.251	650.44826
308.775	724.56667
309.298	681.47072
309.822	645.46641
310.345	705.50117
310.868	711.52706
311.391	664.47277
311.914	673.51901
312.437	669.3664
312.96	694.45756
313.482	671.41075
314.005	648.46224
314.527	680.59484
315.049	683.55662
315.571	771.51452
316.093	759.66236
316.615	764.61177
317.137	753.43187
317.659	755.61399
318.18	718.51795
318.702	797.62891
319.223	762.33994
319.744	757.49257
320.265	784.67928
320.786	787.73385
321.307	811.75245
321.828	834.61884
322.348	781.60986
322.869	869.78262
323.389	810.3526
323.909	860.68286
324.43	835.72898
324.95	849.6711
325.47	913.94272
325.989	877.78773
326.509	971.81324
327.029	989.88149
327.548	852.65776
328.067	940.94094
328.587	959.04687
329.106	916.74281
329.625	944.10697
330.144	1002.94176
330.662	1033.00947
331.181	1034.02235
331.7	1012.95278
332.218	1052.85624
332.736	1028.99599
333.255	1045.03479
333.773	1001.97437
334.291	1134.32455
334.808	1111.02192
335.326	1123.02738
335.844	1168.20895
336.361	1149.43383
336.879	1169.21245
337.396	1173.3115
337.913	1229.24082
338.43	1201.14017
338.947	1219.32074
339.464	1245.0783
339.981	1226.30771
340.497	1242.4335
341.014	1280.46121
341.53	1253.20463
342.046	1304.57432
342.562	1363.64175
343.078	1256.3287
343.594	1327.44682
344.11	1384.54281
344.626	1355.67703
345.141	1417.43663
345.657	1367.34895
346.172	1441.63544
346.687	1410.43669
347.202	1500.52245
347.717	1401.54924
348.232	1456.76191
348.747	1440.49405
349.261	1484.3828
349.776	1503.65905
350.29	1544.89134
350.805	1539.8322
351.319	1465.53958
351.833	1547.59714
352.347	1484.61515
352.861	1567.68197
353.374	1535.5394
353.888	1606.87212
354.401	1557.56484
354.915	1635.61793
355.428	1730.07372
355.941	1726.8015
356.454	1687.60086
356.967	1623.71103
357.48	1723.69704
357.993	1797.07931
358.505	1696.93725
359.018	1845.1092
359.53	1803.05884
360.042	1742.67349
360.554	1784.05283
361.066	1714.9578
361.578	1901.73687
362.09	1830.97372
362.602	1826.72144
363.113	1888.97967
363.625	1919.85466
364.136	1847.67567
364.647	1952.05699
365.158	2009.01333
365.669	1975.09968
366.18	1961.02689
366.691	1945.72631
367.201	1996.13047
367.712	2055.97392
368.222	2071.00789
368.733	2086.77346
369.243	2130.91297
369.753	2206.07868
370.263	2194.29545
370.773	2139.29319
371.282	2301.29597
371.792	2312.15486
372.301	2332.36085
372.811	2306.79448
373.32	2467.88301
373.829	2533.31017
374.338	2602.02677
374.847	2705.23836
375.356	2785.3609
375.865	2864.86556
376.373	2993.1697
376.882	2976.82102
377.39	3105.5131
377.898	3212.62582
378.407	3312.11871
378.915	3480.85768
379.423	3563.19831
379.93	3801.1184
380.438	3848.32063
380.946	4087.00064
381.453	4251.14191
381.96	4597.92674
382.468	4901.64248
382.975	5027.87861
383.482	5092.19285
383.989	5101.22426
384.495	5586.21023
385.002	5787.45718
385.509	6025.15921
386.015	6579.15363
386.521	6863.6737
387.028	7061.67581
387.534	7254.44531
388.04	7368.04205
388.546	7852.901
389.051	8347.38568
389.557	8838.18342
390.063	9139.69206
390.568	9386.24699
391.073	9948.70232
391.578	10305.64446
392.084	10802.61241
392.589	11393.50058
393.093	12389.21646
393.598	13345.04745
394.103	14657.41772
394.607	15957.03249
395.112	16883.89202
395.616	17758.68888
396.12	19250.71996
396.624	21232.75832
397.128	23084.95434
397.632	25288.93811
398.136	27585.83755
398.639	30951.58311
399.143	35385.52602
399.646	38930.68545
400.15	42997.9078
400.653	48670.5137
401.156	55362.19626
401.659	62326.94664
402.162	63258.61471
402.664	62441.93235
403.167	63977.72923
403.67	63769.22307
404.172	63919.58413
404.674	63858.43483
405.176	63738.15102
405.678	63977.72923
406.18	64011.81569
406.682	63863.44694
407.184	63926.60148
407.686	63841.39382
408.187	64025.8516
408.688	63892.51763
409.19	63833.37461
409.691	63977.72923
410.192	63945.6488
410.693	63713.09355
411.194	63812.32447
411.694	63919.58413
412.195	64038.8851
412.696	62575.61687
413.196	61588.54919
413.696	62258.4515
414.196	61038.93956
414.696	58939.25085
415.196	53196.19877
415.696	42729.63806
416.196	33153.54109
416.695	28540.95959
417.195	27465.30111
417.694	25867.82322
418.194	23847.45135
418.693	22726.20065
419.192	22435.12759
419.691	21822.63651
420.19	21327.52468
420.688	20609.67796
421.187	19372.20993
421.685	17801.23301
422.184	15386.48817
422.682	13323.53358
423.18	11890.6987
423.678	10735.34669
424.176	10082.0718
424.674	9571.66792
425.172	8889.27641
425.669	8196.52913
426.167	7546.85821
426.664	6949.58497
427.161	6542.67099
427.659	6098.14743
428.156	5861.41392
428.652	5548.71167
429.149	5303.54843
429.646	5058.08579
430.143	4706.79144
430.639	4487.82809
431.135	4233.36516
431.632	3949.84779
432.128	3771.25513
432.624	3716.80326
433.12	3590.97484
433.616	3562.74182
434.111	3485.26249
434.607	3329.34601
435.103	3228.58215
435.598	3110.57759
436.093	2847.20552
436.588	2802.01719
437.083	2675.98542
437.578	2597.14531
438.073	2466.53178
438.568	2325.3758
439.062	2315.70272
439.557	2233.06994
440.051	2108.83455
440.546	2087.8699
441.04	2069.10683
441.534	1984.2669
442.028	2048.10634
442.522	1971.03732
443.015	1926.5488
443.509	1884.02797
444.002	1869.04116
444.496	1818.52817
444.989	1807.95296
445.482	1850.0737
445.975	1807.7609
446.468	1751.47877
446.961	1783.51073
447.454	1702.56435
447.947	1653.75111
448.439	1743.93984
448.931	1669.62204
449.424	1694.04157
449.916	1591.76941
450.408	1556.5064
450.9	1533.69013
451.392	1517.8344
451.884	1514.48049
452.375	1504.72442
452.867	1471.36639
453.358	1522.47723
453.849	1431.18064
454.341	1435.34559
454.832	1370.15148
455.323	1457.69138
455.814	1346.28882
456.304	1355.33314
456.795	1325.26075
457.285	1305.13527
457.776	1340.27005
458.266	1264.2985
458.756	1191.19092
459.247	1235.28343
459.737	1258.34739
460.226	1252.17147
460.716	1159.18072
461.206	1146.16408
461.695	1150.25712
462.185	1149.14816
462.674	1110.00027
463.163	1122.97192
463.653	1162.89425
464.142	1070.08898
464.63	1061.07381
465.119	1041.94804
465.608	1059.99152
466.096	1015.75872
466.585	1041.90502
467.073	933.82032
467.561	927.84704
468.05	995.85814
468.538	933.89597
469.026	935.83371
469.513	924.58411
470.001	888.69763
470.489	942.85049
470.976	900.75046
471.463	842.78421
471.951	829.75703
472.438	814.62277
472.925	804.61171
473.412	821.69542
473.899	820.5886
474.385	805.6861
474.872	787.56561
475.359	764.62304
475.845	727.28259
476.331	685.25939
476.817	704.49676
477.303	752.50248
477.789	665.39137
478.275	663.45317
478.761	653.36503
479.247	700.35062
479.732	626.39128
480.218	663.54497
480.703	620.35969
481.188	667.25514
481.673	645.30421
482.158	628.19118
482.643	649.47372
483.128	677.38151
483.612	633.33602
484.097	561.21645
484.581	581.19983
485.066	594.3026
485.55	595.16667
486.034	571.10106
486.518	609.29878
487.002	440.98873
487.486	474.05392
487.969	482.0713
488.453	472.07808
488.936	491.00415
489.42	487.98018
489.903	471.076
490.386	372.71545
490.869	478.95476
491.352	409.91475
491.835	434.81301
492.318	417.86673
492.8	450.85131
493.283	456.07442
493.765	428.97319
494.247	401.86799
494.73	442.89924
495.212	361.80276
495.694	435.948
496.175	368.83002
496.657	473.02491
497.139	398.62334
497.62	433.96442
498.102	373.87197
498.583	308.71822
499.064	391.81088
499.545	399.84521
500.026	375.79298
500.507	356.76912
500.988	393.91907
501.469	319.75394
501.949	338.78847
502.43	398.89511
502.91	385.75954
503.39	358.83511
503.87	356.79148
504.35	372.81434
504.83	386.78495
505.31	297.68125
505.79	330.73673
506.269	322.69835
506.749	325.7014
507.228	359.79401
507.707	354.7412
508.187	364.81698
508.666	291.68831
509.145	285.63562
509.623	279.62378
510.102	276.63854
510.581	383.86508
511.059	284.68382
511.538	333.81405
512.016	320.72708
512.494	243.56209
512.972	297.67743
513.45	327.72143
513.928	326.75121
514.406	306.7144
514.884	337.82413
515.361	345.77895
515.839	290.63673
516.316	320.73827
516.793	309.74274
517.27	245.56717
517.747	310.75826
518.224	293.64264
518.701	315.65853
519.178	307.73204
519.654	307.69091
520.131	287.67964
520.607	260.60988
521.083	294.63355
521.56	250.56644
522.036	285.59053
522.512	309.72636
522.987	339.77227
523.463	276.62585
523.939	337.79247
524.414	274.59932
524.89	296.67338
525.365	281.60567
525.84	251.5806
526.315	294.67964
526.79	282.60691
527.265	312.68445
527.74	221.51912
528.215	252.5647
528.689	251.52776
529.164	254.52171
529.638	208.51183
530.112	257.58029
530.587	306.62028
531.061	252.58696
531.534	251.58198
532.008	300.69571
532.482	280.61478
532.956	223.55106
533.429	349.80692
533.903	226.47782
534.376	322.67271
534.849	266.58576
535.322	289.65067
535.795	268.62053
536.268	289.66848
536.741	260.59245
537.213	264.5816
537.686	257.60485
538.158	346.74143
538.631	282.65346
539.103	282.60822
539.575	280.54837
540.047	291.6035
540.519	310.70437
540.991	314.72817
541.463	304.69633
541.934	278.6001
542.406	328.74737
542.877	280.60364
543.348	321.73629
543.82	349.80147
544.291	374.81906
544.762	364.81564
545.233	383.91356
545.703	310.65483
546.174	321.70612
546.645	390.88466
547.115	428.96098
547.585	434.92395
548.056	453.03107
548.526	438.96485
548.996	441.97736
549.466	456.02347
549.935	472.03774
550.405	468.94259
550.875	527.13776
551.344	500.08974
551.814	504.05197
552.283	573.1171
552.752	572.20684
553.221	573.13245
553.69	564.14617
554.159	609.36269
554.628	606.22439
555.096	607.39162
555.565	572.1318
556.033	597.27756
556.502	553.20876
556.97	560.1194
557.438	594.24894
557.906	584.23758
558.374	628.29385
558.842	556.20534
559.31	595.18756
559.777	642.39794
560.245	566.16698
560.712	629.27645
561.18	691.33163
561.647	652.2699
562.114	664.33869
562.581	681.48075
563.048	693.38669
563.514	758.65913
563.981	689.37994
564.448	735.43489
564.914	746.49737
565.381	831.6065
565.847	842.65847
566.313	803.58859
566.779	816.55451
567.245	822.61523
567.711	877.76913
568.176	862.61847
568.642	855.83892
569.108	827.73984
569.573	883.70881
570.038	946.5986
570.504	932.73471
570.969	916.90653
571.434	920.68271
571.899	982.91108
572.363	982.83789
572.828	998.86605
573.293	1005.86854
573.757	995.88377
574.222	991.80058
574.686	1014.89043
575.15	1013.99527
575.614	1096.0674
576.078	972.87459
576.542	1038.9019
577.006	1019.85719
577.469	1036.0796
577.933	1014.86994
578.396	991.92543
578.86	991.90901
579.323	1017.00259
579.786	1011.75824
580.249	1054.00345
580.712	972.95425
581.175	987.00875
581.637	945.77329
582.1	995.74582
582.563	1002.70178
583.025	1012.01738
583.487	1064.71159
583.95	957.66231
584.412	1116.81385
584.874	1101.15621
585.336	1084.06062
585.797	1089.8615
586.259	1136.09619
586.721	1111.06978
587.182	1179.11267
587.643	1188.08708
588.105	1209.2175
588.566	1247.93491
589.027	1263.39432
589.488	1342.2954
589.949	1407.54609
590.41	1439.9724
590.87	1519.47025
591.331	1601.38968
591.791	1566.55367
592.252	1607.61314
592.712	1709.80819
593.172	1765.65664
593.632	1899.65887
594.092	1903.66792
594.552	1975.59729
595.011	2047.86175
595.471	2210.89566
595.931	2228.88364
596.39	2368.23579
596.849	2397.0887
597.308	2564.68423
597.768	2692.76714
598.227	2864.34972
598.685	2966.03961
599.144	3068.23593
599.603	3143.17429
600.062	3390.51121
600.52	3615.8465
600.978	3760.08656
601.437	3911.76502
601.895	4101.29934
602.353	4198.39881
602.811	4548.38807
603.269	4686.68322
603.727	4969.59486
604.184	5158.11309
604.642	5365.55665
605.099	5670.01916
605.557	5972.16968
606.014	6094.34195
606.471	6401.25343
606.928	6658.42767
607.385	6947.14436
607.842	7128.62675
608.299	7246.75109
608.755	7551.03768
609.212	7676.73422
609.668	7941.97523
610.125	8254.49494
610.581	8335.48626
611.037	8407.45159
611.493	8530.71152
611.949	8708.06897
612.405	8891.14059
612.861	8967.36445
613.316	9057.5857
613.772	9110.6311
614.227	9185.82887
614.683	9193.78645
615.138	9173.77671
615.593	9099.6215
616.048	9271.96272
616.503	9013.53026
616.958	8928.46342
617.412	8850.21684
617.867	8819.06794
618.321	8864.08861
618.776	8722.88372
619.23	8539.72969
619.684	8366.38412
620.138	8204.26155
620.592	8143.40938
621.046	7925.12603
621.5	7674.04825
621.954	7548.6063
622.407	7405.5317
622.861	7337.96595
623.314	7177.5532
623.768	7034.75561
624.221	6800.86526
624.674	6631.62319
625.127	6533.67234
625.58	6479.46921
626.033	6302.34688
626.485	6089.97859
626.938	6085.94954
627.39	5951.87346
627.843	5662.89843
628.295	5610.92302
628.747	5433.25721
629.199	5340.97169
629.651	5243.07233
630.103	5076.16723
630.555	5059.62131
631.006	4867.37793
631.458	4667.5788
631.909	4660.23135
632.361	4579.48257
632.812	4437.58672
633.263	4340.20695
633.714	4259.09391
634.165	4103.00761
634.616	3986.95759
635.067	3837.54859
635.518	3799.05523
635.968	3789.91559
636.419	3573.61067
636.869	3586.12126
637.319	3443.03026
637.769	3402.84247
638.219	3285.17016
638.669	3090.24414
639.119	3048.28631
639.569	3009.30489
640.019	2994.07835
640.468	2945.90899
640.918	2860.23181
641.367	2817.90578
641.816	2820.86716
642.265	2789.13774
642.714	2685.03042
643.163	2699.07846
643.612	2612.39685
644.061	2565.66967
644.51	2499.00383
644.958	2533.82121
645.406	2415.19536
645.855	2421.28045
646.303	2279.97637
646.751	2416.03094
647.199	2285.88672
647.647	2270.99834
648.095	2198.88133
648.543	2209.38523
648.99	2235.15036
649.438	2083.89146
649.885	2096.25826
650.333	2104.19765
650.78	2064.08553
651.227	2111.17483
651.674	1996.78974
652.121	1993.11065
652.568	1957.07798
653.015	1902.07764
653.461	1913.91165
653.908	1849.72107
654.354	1837.86132
654.801	1856.81292
655.247	1807.46905
655.693	1835.25077
656.139	1713.76867
656.585	1809.85105
657.031	1782.76744
657.477	1751.46952
657.922	1754.61259
658.368	1668.84323
658.813	1642.52557
659.259	1656.78077
659.704	1672.71003
660.149	1618.55633
660.594	1589.63517
661.039	1664.55385
661.484	1592.62941
661.929	1592.58066
662.373	1539.7902
662.818	1519.71234
663.262	1568.68298
663.707	1496.79299
664.151	1487.6252
664.595	1502.61431
665.039	1529.73584
665.483	1447.73225
665.927	1462.46607
666.371	1468.48424
666.814	1494.5407
667.258	1508.60839
667.701	1512.2062
668.145	1500.71305
668.588	1455.64656
669.031	1400.40787
669.474	1410.48284
669.917	1441.22703
670.36	1465.68351
670.803	1477.58196
671.245	1404.99781
671.688	1414.53368
672.13	1428.31408
672.573	1366.60074
673.015	1386.47193
673.457	1436.20184
673.899	1409.50736
674.341	1406.48984
674.783	1359.41924
675.225	1442.60509
675.666	1484.63404
676.108	1471.21062
676.549	1429.40294
676.991	1448.23599
677.432	1451.95072
677.873	1455.36407
678.314	1466.51272
678.755	1492.6673
679.196	1509.41987
679.637	1436.49752
680.078	1475.45811
680.518	1486.41014
680.959	1480.52613
681.399	1454.63348
681.839	1510.62557
682.28	1520.7245
682.72	1526.43433
683.16	1608.83342
683.6	1603.48428
684.039	1599.16188
684.479	1623.80782
684.919	1567.57296
685.358	1548.75664
685.798	1628.02436
686.237	1579.62843
686.676	1593.45295
687.115	1663.66171
687.554	1723.77417
687.993	1692.45297
688.432	1647.5282
688.871	1716.60252
689.309	1742.79805
689.748	1756.27935
690.186	1772.71697
690.625	1747.71788
691.063	1749.77887
691.501	1806.97804
691.939	1920.15517
692.377	1851.92632
692.815	1850.96686
693.253	1886.87078
693.69	1877.52737
694.128	1888.96116
694.565	1847.82287
695.003	1993.28101
695.44	2020.93911
695.877	1983.88686
696.314	1922.39895
696.751	2035.7471
697.188	2124.89533
697.625	2000.6735
698.061	2086.02191
698.498	2064.94651
698.934	2088.01206
699.371	2135.96732
699.807	2110.96573
700.243	2207.12138
700.679	2182.73432
701.115	2213.95597
701.551	2233.9431
701.987	2158.63328
702.422	2321.11651
702.858	2296.10262
703.294	2432.94727
703.729	2356.22292
704.164	2287.09698
704.599	2417.81149
705.035	2451.83875
705.47	2368.21742
705.904	2434.99089
706.339	2553.96986
706.774	2488.0622
707.209	2570.04956
707.643	2575.19737
708.078	2592.29281
708.512	2557.46507
708.946	2618.14473
709.38	2637.16993
709.814	2667.90359
710.248	2706.35161
710.682	2803.25618
711.116	2783.33981
711.549	2673.60135
711.983	2795.02157
712.416	2843.18437
712.85	2853.43869
713.283	2884.148
713.716	2842.43993
714.149	2839.02917
714.582	2923.86178
715.015	2846.37191
715.448	2876.55311
715.881	2975.5989
716.313	2925.07934
716.746	2934.16197
717.178	2953.2573
717.61	2932.62179
718.043	3043.41964
718.475	3067.30997
718.907	3123.48969
719.339	2983.90321
719.77	3112.22487
720.202	3033.51138
720.634	3086.38595
721.065	3164.10428
721.497	3087.36099
721.928	3072.34685
722.359	3043.33326
722.79	3140.21202
723.221	3153.44236
723.652	3179.60442
724.083	3227.80234
724.514	3088.95764
724.945	3189.05557
725.375	3217.04825
725.806	3230.38134
726.236	3158.64386
726.666	3235.08777
727.096	3284.32225
727.526	3305.70516
727.956	3308.88536
728.386	3304.33199
728.816	3189.66334
729.246	3307.39142
729.675	3250.3042
730.105	3303.31138
730.534	3299.9937
730.964	3291.44859
731.393	3239.32884
731.822	3338.62703
732.251	3325.57557
732.68	3412.91405
733.109	3391.36083
733.537	3330.31972
733.966	3417.44889
734.395	3385.92403
734.823	3333.65328
735.251	3315.185
735.68	3328.35403
736.108	3330.45077
736.536	3296.01489
736.964	3263.95867
737.392	3343.44872
737.82	3326.13122
738.247	3301.12352
738.675	3358.01592
739.102	3233.45053
739.53	3287.68296
739.957	3307.72625
740.384	3274.19265
740.811	3140.43058
741.238	3240.3441
741.665	3187.07585
742.092	3124.92061
742.519	3153.43475
742.945	3174.29359
743.372	3075.44375
743.798	3132.63681
744.225	3002.11384
744.651	3029.47418
745.077	2972.45358
745.503	2998.23715
745.929	3053.27622
746.355	2951.28373
746.781	2940.34851
747.207	2839.15632
747.632	2841.4351
748.058	2945.53757
748.483	2878.95242
748.908	2800.43962
749.334	2833.38013
749.759	2766.17036
750.184	2714.23282
750.609	2723.31344
751.033	2701.02079
751.458	2740.77655
751.883	2639.3209
752.307	2548.05831
752.732	2641.58123
753.156	2511.29521
753.58	2535.05358
754.005	2487.39232
754.429	2532.10405
754.853	2430.3443
755.277	2373.06468
755.7	2390.30188
756.124	2314.28191
756.548	2242.97947
756.971	2379.20114
757.394	2197.36286
757.818	2268.46476
758.241	2214.35141
758.664	2198.30352
759.087	2200.75579
759.51	2079.10381
759.933	2093.03319
760.356	2129.38488
760.778	2059.08064
761.201	2096.01101
761.623	1933.84
762.046	1931.7588
762.468	2061.94665
762.89	1862.90161
763.312	1953.99599
763.734	1825.83426
764.156	1817.92878
764.578	1812.58179
765	1746.8108
765.421	1723.99601
765.843	1730.10345
766.264	1635.59152
766.686	1562.70094
767.107	1585.64136
767.528	1664.96583
767.949	1563.79414
768.37	1589.74
768.791	1543.55274
769.212	1441.63939
769.632	1454.39855
770.053	1420.73624
770.473	1449.47619
770.894	1333.40923
771.314	1348.29224
771.734	1359.27221
772.154	1355.56301
772.575	1339.21187
772.994	1244.06024
773.414	1338.30433
773.834	1205.28629
774.254	1173.18349
774.673	1315.38138
775.093	1151.21948
775.512	1133.16909
775.931	1155.27597
776.351	1137.2039
776.77	1086.08837
777.189	1027.91708
777.607	1040.11919
778.026	1071.10029
778.445	1016.07114
778.864	985.00648
779.282	966.83099
779.701	965.95394
780.119	948.95659
780.537	884.80405
780.955	862.79963
781.373	883.78532
781.791	988.76203
782.209	858.55646
782.627	838.85432
783.045	825.52494
783.462	809.73249
783.88	777.70681
784.297	818.7175
784.715	763.67253
785.132	793.58268
785.549	716.52164
785.966	683.47504
786.383	751.56736
786.8	716.39278
787.217	743.49374
787.633	718.54442
788.05	681.33497
788.466	667.31302
788.883	645.44274
789.299	622.26826
789.715	671.40084
790.131	640.37412
790.547	616.33105
790.963	604.29952
791.379	554.23516
791.795	585.13189
792.21	558.12364
792.626	528.08606
793.041	513.11647
793.457	500.08652
793.872	466.96274
794.287	499.07261
794.702	461.99613
795.117	512.13338
795.532	514.15341
795.947	471.99029
796.362	411.86073
796.776	471.95321
797.191	462.01146
797.605	421.90076
798.02	388.85437
798.434	479.93568
798.848	468.04486
799.262	394.88756
799.676	466.01122
800.09	407.9039
800.504	391.85321
800.918	309.64828
801.331	312.73812
801.745	315.65649
802.158	328.74586
802.572	355.78418
802.985	344.74987
803.398	376.80815
803.811	302.70174
804.224	298.67464
804.637	295.65057
805.05	290.61151
805.462	307.68949
805.875	264.64217
806.288	311.69503
806.7	261.60349
807.112	273.57705
807.525	245.5532
807.937	284.65209
808.349	227.52821
808.761	260.59723
809.173	298.66859
809.584	258.5886
809.996	238.54276
810.408	262.63969
810.819	298.64465
811.231	302.75266
811.642	371.84106
812.053	274.62056
812.464	226.49893
812.875	186.45229
813.286	189.46499
813.697	168.35924
814.108	226.51249
814.519	236.49174
814.929	186.44635
815.34	152.34511
815.75	200.48378
816.16	149.34741
816.571	143.35274
816.981	161.35358
817.391	143.32382
817.801	174.4104
818.211	170.38049
818.62	178.4061
819.03	185.42522
819.44	100.24608
819.849	125.29683
820.259	112.27103
820.668	146.34249
821.077	187.44234
821.486	143.32145
821.895	133.30717
822.304	149.37535
822.713	161.357
823.122	123.29186
823.531	122.27024
823.939	179.41275
824.348	151.34472
824.756	132.31255
825.164	136.32351
825.573	111.26643
825.981	94.22172
826.389	115.27509
826.797	172.41496
827.205	152.33164
827.612	137.3188
828.02	82.18316
828.428	94.22927
828.835	127.32211
829.243	128.28684
829.65	144.34281
830.057	150.34209
830.464	158.36875
830.871	153.34745
831.278	100.23091
831.685	150.31269
832.092	102.23572
832.499	147.30378
832.905	70.16927
833.312	92.19554
833.718	142.33831
834.124	119.25837
834.531	93.22204
834.937	112.27581
835.343	111.25238
835.749	86.18851
836.155	103.25864
836.561	97.22839
836.966	97.22546
837.372	71.17288
837.777	110.26257
838.183	122.25432
838.588	131.31132
838.993	102.23703
839.399	108.25305
839.804	49.11546
840.209	135.33129
840.613	88.18573
841.018	111.26663
841.423	127.31073
841.828	118.28619
842.232	44.10318
842.637	87.19837
843.041	80.19825
843.445	42.10095
843.849	78.18612
844.253	92.2077
844.657	60.14667
845.061	152.33037
845.465	22.05149
845.869	87.19268
846.272	56.13204
846.676	69.15689
847.079	108.26479
847.483	83.19771
847.886	105.24067
848.289	93.24205
848.692	23.05607
849.095	72.1648
849.498	92.21952
849.901	101.2177
850.304	57.1306
850.707	52.1274
851.109	86.20717
851.512	73.17262
851.914	15.03703
852.316	88.21591
852.718	136.34365
853.121	73.17168
853.523	87.19227
853.925	53.13519
854.326	53.12871
854.728	100.24717
855.13	74.18572
855.531	43.09927
855.933	41.09375
856.334	80.19301
856.736	84.18102
857.137	98.21889
857.538	63.15369
857.939	83.19953
858.34	70.16158
858.741	63.1582
859.142	66.15101
859.542	73.18706
859.943	54.1291
860.343	84.20074
860.744	116.26871
861.144	82.19326
861.544	54.12673
861.945	60.14705
862.345	72.16778
862.745	104.24854
863.145	59.13241
863.544	70.1706
863.944	93.20905
864.344	82.19213
864.743	69.16392
865.143	97.24085
865.542	45.09879
865.941	81.1928
866.34	34.07738
866.74	79.20455
867.139	96.22238
867.537	53.12862
867.936	98.22575
868.335	73.17788
868.734	73.17967
869.132	66.14455
869.531	50.11468
869.929	85.18542
870.327	46.10605
870.726	68.16083
871.124	84.18529
871.522	50.12236
871.92	117.27419
872.318	14.03288
872.715	48.11251
873.113	33.0771
873.511	53.12659
873.908	65.16069
874.306	96.23012
874.703	30.07178
875.1	12.02934
875.497	76.17333
875.894	83.19847
876.291	105.24588
876.688	76.18861
877.085	69.15714
877.482	57.13713
877.878	74.17298
878.275	91.22191
878.671	2.00416
879.068	89.20465
879.464	47.10916
879.86	62.14037
880.256	74.17176
880.652	44.10796
881.048	44.10378
881.444	49.11015
881.84	57.13921
882.236	60.14481
882.631	110.25824
883.027	62.14317
883.422	25.06149
883.817	60.14629
884.213	49.12136
884.608	111.26511
885.003	24.05535
885.398	51.12307
885.793	40.0964
886.188	10.02406
886.582	93.22577
886.977	51.11521
887.371	84.20174
887.766	52.12531
888.16	26.06156
888.554	24.05689
888.949	66.15893
889.343	85.19694
889.737	22.05758
890.131	36.08722
890.525	113.27751
890.918	75.18071
891.312	74.16713
891.706	89.22333
892.099	93.22535
892.492	78.15826
892.886	55.12885
893.279	24.05904
893.672	46.11383
894.065	76.18253
894.458	50.11972
894.851	88.20401
895.244	39.09613
895.637	106.2434
896.029	93.21829
896.422	47.1089
896.814	66.15676
897.206	91.2095
897.599	102.23974
897.991	64.14931
898.383	77.17401
898.775	153.32752
899.167	80.18075
899.559	63.15168
899.951	58.1295
900.342	52.12598
900.734	69.16851
901.125	36.09071
901.517	110.25713
901.908	86.19312
902.299	68.15983
902.69	97.21966
903.082	64.14843
903.473	105.24299
903.863	30.07355
904.254	73.16376
904.645	53.12489
905.036	90.21236
905.426	101.21508
905.817	35.08215
906.207	19.04317
906.597	90.20244
906.987	36.08937
907.378	58.14194
907.768	75.19144
908.158	48.11216
908.547	122.30475
908.937	20.04905
909.327	103.23703
909.717	51.12242
910.106	45.10327
910.495	45.10678
910.885	108.26135
911.274	82.19559
911.663	51.12335
912.052	76.17696
912.441	50.12354
912.83	58.12612
913.219	81.20252
913.608	81.19035
913.997	92.22263
914.385	105.23796
914.774	99.22865
915.162	77.17734
915.55	68.15596
915.939	83.20225
916.327	41.0977
916.715	115.28378
917.103	55.12743
917.491	104.24368
917.878	73.17115
918.266	55.13677
918.654	76.18785
919.041	53.13538
919.429	67.15098
919.816	17.04167
920.203	93.2171
920.591	79.18775
920.978	115.26697
921.365	97.24471
921.752	47.10565
922.139	104.21275
922.525	54.12494
922.912	63.14649
923.299	58.13866
923.685	46.1147
924.072	21.04534
924.458	64.15283
924.844	37.0883
925.231	65.14287
925.617	47.11662
926.003	72.17587
926.389	66.15965
926.774	41.09976
927.16	72.17075
927.546	55.13756
927.931	78.18476
928.317	115.24777
928.702	83.18581
929.088	114.26156
929.473	109.26659
929.858	77.18144
930.243	46.10728
930.628	120.27985
931.013	42.10041
931.398	136.28792
931.783	62.15532
932.167	102.23993
932.552	58.13903
932.937	102.23918
933.321	45.10978
933.705	23.05537
934.09	31.07393
934.474	81.18111
934.858	68.16999
935.242	18.04004
935.626	90.22164
936.009	52.13508
936.393	98.24169
936.777	72.17816
937.16	80.2015
937.544	75.16527
937.927	78.19081
938.311	70.16203
938.694	100.25395
939.077	65.14875
939.46	49.11272
939.843	52.10025
940.226	53.13011
940.609	102.22462
940.991	44.1072
941.374	63.14857
941.757	100.23358
942.139	57.1227
942.522	107.23756
942.904	79.18115
943.286	73.17702
943.668	73.1837
944.05	60.14185
944.432	46.10863
944.814	66.15386
945.196	68.16008
945.578	35.08154
945.959	39.08666
946.341	59.13583
946.722	68.15119
947.104	92.20914
947.485	78.17278
947.866	83.20187
948.247	58.14215
948.628	-17.03945
949.009	20.04962
949.39	55.13046
949.771	59.12756
950.152	60.14136
950.532	115.27687
950.913	69.15866
951.293	54.1424
951.674	35.08145
952.054	112.26919
952.434	54.129
952.814	41.09239
953.194	18.04503
953.574	61.14313
953.954	43.09678
954.334	149.35396
954.714	39.09197
955.093	83.19452
955.473	48.1169
955.853	50.12485
956.232	29.07705
956.611	31.07046
956.99	50.12145
957.37	31.07574
957.749	11.02489
958.128	68.16542
958.506	46.11541
958.885	-14.03425
959.264	78.18526
959.643	83.18059
960.021	49.11766
960.4	63.13574
960.778	9.02109
961.156	5.0121
961.535	68.14925
961.913	106.23617
962.291	45.11292
962.669	58.14204
963.047	80.19672
963.424	90.22286
963.802	53.12542
964.18	49.11708
964.557	48.10504
964.935	77.17344
965.312	73.18377
965.69	67.15898
966.067	56.12895
966.444	-8.01874
966.821	60.14896
967.198	42.09652
967.575	70.16318
967.952	106.23539
968.329	41.09657
968.705	161.32285
969.082	75.18732
969.458	30.07038
969.835	82.19018
970.211	61.15229
970.587	30.07221
970.963	46.11257
971.339	38.09643
971.715	76.1819
972.091	62.14601
972.467	12.02849
972.843	94.22524
973.219	111.24921
973.594	20.05075
973.97	37.08205
974.345	68.15621
974.721	62.14111
975.096	76.1771
975.471	72.16195
975.846	42.09602
976.221	47.11513
976.596	118.27258
976.971	114.2691
977.346	97.21168
977.72	48.11703
978.095	15.03754
978.469	88.1985
978.844	65.15548
979.218	96.22238
979.593	80.18142
979.967	15.03455
980.341	70.15422
980.715	82.19806
981.089	68.16282
981.463	68.14862
981.837	80.18906
982.21	52.11211
982.584	63.14626
982.957	54.13043
983.331	68.15063
983.704	81.19257
984.078	51.12036
984.451	56.13111
984.824	52.12237
985.197	60.137
985.57	15.03574
985.943	57.13212
986.316	68.15671
986.688	67.15388
987.061	94.2097
987.434	76.1928
987.806	27.06201
988.179	28.06319
988.551	42.10206
988.923	70.16363
989.295	82.19431
989.667	45.10488
990.039	105.25117
990.411	7.01526
990.783	48.10393
991.155	77.17734
991.527	45.10406
991.898	50.12036
992.27	70.16748
992.641	71.16912
993.012	1.00221
993.384	40.09097
993.755	65.16004
994.126	69.16
994.497	22.05211
994.868	77.16562
995.239	62.14311
995.61	47.11389
995.98	58.13457
996.351	76.18128
996.722	94.20926
997.092	32.07325
997.462	61.13791
997.833	72.16082
998.203	18.04137
998.573	59.14151
998.943	90.20144
999.313	103.23552
999.683	85.19483
1000.053	27.05805
1000.423	67.15413
1000.792	-8.01993
1001.162	59.13795
1001.531	86.20245
1001.901	50.11894
1002.27	10.02099
1002.639	28.0685
1003.009	34.07738
1003.378	56.13791
1003.747	49.10988
1004.116	24.05513
1004.485	60.13684
1004.853	21.05062
1005.222	-11.02641
1005.591	79.17758
1005.959	46.09947
1006.328	49.10566
1006.696	-4.00929
1007.064	37.08864
1007.433	68.16108
1007.801	15.03485
1008.169	40.09607
1008.537	51.10728
1008.905	80.17847
1009.273	12.02838
1009.64	90.20691
1010.008	55.12495
1010.375	38.08677
1010.743	28.05982
1011.11	121.2759
1011.478	55.13151
1011.845	83.18397
1012.212	75.16319
1012.579	86.20143
1012.946	68.15214
1013.313	74.16583
1013.68	72.15236
1014.047	23.0527
1014.414	15.03404
1014.78	61.14586
1015.147	38.08694
1015.513	65.14947
1015.88	84.20342
1016.246	39.09115
1016.612	21.04565
1016.978	100.23431
1017.344	34.08104
1017.71	79.18195
1018.076	31.06926
1018.442	94.23157
1018.808	77.18581
1019.174	26.06247
1019.539	51.10662
1019.905	73.16484
1020.27	25.0593
1020.636	32.07251
1021.001	98.22314
1021.366	70.16112
1021.731	102.25378
1022.096	54.1322
1022.461	74.16713
1022.826	80.18238
1023.191	26.06605
1023.556	11.02466
1023.92	68.1579
1024.285	41.09481
1024.649	60.13954
1025.014	35.08225
1025.378	70.16958
1025.742	29.06865
1026.107	44.0945
1026.471	54.11927
1026.835	16.03828
1027.199	22.0511
1027.562	19.0419
1027.926	48.11163
1028.29	78.18882
1028.654	102.22009
1029.017	107.25007
1029.381	92.20931
1029.744	79.19279
1030.107	68.15308
1030.471	84.19227
1030.834	38.08105
1031.197	85.19413
1031.56	52.11639
1031.923	44.10983
1032.286	81.18036
1032.648	36.08121
1033.011	124.2717
1033.374	86.18907
1033.736	9.02301
1034.099	19.04467
1034.461	82.19963
1034.823	45.10818
1035.185	29.06961
1035.548	62.14493
1035.91	60.13678
1036.272	115.24756
1036.634	62.14476
1036.995	51.11337
1037.357	38.08928
1037.719	72.16725
1038.08	91.20674
1038.442	19.04327
1038.803	31.07014
1039.165	26.06292
1039.526	75.17274
1039.887	33.07564
1040.248	114.27108
1040.609	29.0681
1040.97	50.11656
1041.331	88.21415
1041.692	92.20753
1042.053	77.16476
1042.413	75.16458
1042.774	86.1993
1043.134	7.01582
1043.495	87.20827
1043.855	117.2714
1044.215	64.15084
1044.576	62.1426
1044.936	93.19986
1045.296	74.17617
1045.656	23.05367
1046.016	78.17782
1046.375	78.18004
1046.735	138.29867
1047.095	105.23205
1047.454	66.13011
1047.814	77.17628
1048.173	67.14987
1048.533	64.13928
1048.892	10.02327
1049.251	56.13352
1049.61	62.14613
1049.969	36.08094
1050.328	76.1554
1050.687	5.01166
1051.046	60.13888
1051.405	26.06161
1051.763	99.21761
1052.122	32.07665
1052.48	71.16665
1052.839	122.2752
1053.197	32.07207
1053.555	85.17849
1053.914	71.16489
1054.272	22.04991
1054.63	58.13601
1054.988	67.15326
1055.345	25.05048
1055.703	63.14493
1056.061	66.16487
1056.419	117.29305
1056.776	25.05717
1057.134	-6.01313
1057.491	94.22404
1057.848	48.11379
1058.206	55.1211
1058.563	23.04828
1058.92	67.14578
1059.277	91.21326
1059.634	42.09292
1059.991	87.19829
1060.348	69.1486
1060.704	100.23137
1061.061	30.06526
1061.418	36.08392
1061.774	67.158
1062.131	62.16034
1062.487	4.00895
1062.843	63.15007
1063.199	49.11694
1063.555	70.15571
1063.911	87.20787
1064.267	92.17625
1064.623	59.1387
1064.979	2.00438
1065.335	78.17523
1065.691	45.1014
1066.046	81.16731
1066.402	38.08175
1066.757	95.22837
1067.112	82.1904
1067.468	59.13491
1067.823	39.08774
1068.178	57.1306
1068.533	94.21593
1068.888	55.1246
1069.243	66.15561
1069.598	19.04409
1069.952	125.27036
1070.307	55.13116
1070.662	78.17853
1071.016	105.22496
1071.371	39.08522
1071.725	45.10182
1072.079	48.11071
1072.434	46.10753
1072.788	45.10087
1073.142	125.29053
1073.496	41.09277
1073.85	55.1211
1074.203	58.13457
1074.557	37.09637
1074.911	81.18186
1075.265	54.11942
1075.618	92.21345
1075.971	52.11787
1076.325	64.1572
1076.678	31.06788
1077.031	49.10303
1077.385	76.15716
1077.738	57.12181
1078.091	46.10079
1078.444	48.10473
1078.796	61.14408
1079.149	73.17369
1079.502	55.125
1079.855	46.10258
1080.207	60.14064
1080.56	35.08789
1080.912	84.19381
1081.264	69.15904
1081.617	84.19551
1081.969	28.06857
1082.321	38.08862
1082.673	131.28515
1083.025	20.04524
1083.377	360.75477
1083.728	69.15186
1084.08	13.0311
1084.432	32.07369
1084.783	16.03519
1085.135	51.12325
1085.486	58.12714
1085.838	68.16052
1086.189	43.10101
1086.54	71.16039
1086.891	68.16808
1087.242	119.27899
1087.593	34.07804
1087.944	122.26156
1088.295	91.19438
1088.646	129.3009
1088.996	60.13899
1089.347	48.11198
1089.698	63.14371
1090.048	34.08459
1090.398	67.14634
1090.749	37.08389
1091.099	64.15627
1091.449	63.15082
1091.799	47.11286
1092.149	35.08334
1092.499	52.12141
1092.849	14.03448
1093.199	34.08113
1093.548	87.20093
1093.898	-11.02657
1094.248	50.12209
1094.597	52.12943
1094.947	13.03375
1095.296	55.13086
1095.645	78.19322
1095.994	54.12385
1096.343	55.13327
1096.692	40.1033
1097.041	57.15155
1097.39	50.11949
1097.739	56.13979
1098.088	54.13835
1098.437	40.10312
1098.785	40.10334
1099.134	28.07065
1099.482	64.17058
1099.83	51.12917
1100.179	123.31152
1100.527	32.08121
1100.875	37.09537
1101.223	76.19532
1101.571	1.00269
1101.919	46.1188
1102.267	47.12962
1102.615	20.06411
1102.962	10.03205
1103.31	24.07689
1103.658	5.01602
