Data from N3 R2 sample 4_Subt2__1__10-12-52-389.txt Node

Date: Thu Sep 18 10:12:52 PDT 2025
User: uwsun
Spectrometer: HDX01956
Trigger mode: 0
Integration Time (sec): 5.000000E-1
Scans to average: 1
Nonlinearity correction enabled: true
Boxcar width: 0
Storing dark spectrum: false
XAxis mode: Wavelengths
Number of Pixels in Spectrum: 2068
>>>>>Begin Spectral Data<<<<<
194.03	71.20399
194.578	58.18731
195.127	63.20047
195.676	63.20119
196.225	111.29097
196.773	65.17983
197.321	140.38347
197.87	201.50851
198.418	230.58321
198.966	261.67339
199.513	233.58294
200.061	228.57053
200.609	232.60222
201.156	208.44958
201.704	199.49572
202.251	226.59188
202.798	233.59406
203.345	243.5912
203.892	271.6694
204.438	239.55657
204.985	222.51994
205.532	249.64244
206.078	215.518
206.624	268.65823
207.17	295.6726
207.716	217.52578
208.262	234.45546
208.808	248.61226
209.354	277.66937
209.899	227.56259
210.445	278.67925
210.99	246.58987
211.535	323.73613
212.08	228.52101
212.625	276.67261
213.17	271.67529
213.715	268.59858
214.259	264.60278
214.804	209.50583
215.348	243.55181
215.892	305.71891
216.436	209.47057
216.98	261.5587
217.524	244.5728
218.068	288.70786
218.612	267.66412
219.155	258.59643
219.698	254.59092
220.242	178.43526
220.785	236.54406
221.328	214.52037
221.871	285.70656
222.414	212.5157
222.956	189.44638
223.499	202.44315
224.041	234.52243
224.583	222.45763
225.126	219.47062
225.668	225.53572
226.21	243.60179
226.751	270.58383
227.293	195.43401
227.835	240.57505
228.376	227.50439
228.918	194.47562
229.459	215.5268
230	238.55894
230.541	228.51261
231.082	229.54608
231.622	214.47403
232.163	185.43998
232.704	257.62713
233.244	237.57467
233.784	210.49915
234.324	262.57332
234.864	207.45881
235.404	190.44029
235.944	241.55304
236.484	262.63611
237.023	204.47217
237.563	252.57051
238.102	286.65379
238.641	180.44636
239.18	222.51057
239.719	207.50908
240.258	243.53163
240.797	242.56411
241.335	227.53965
241.874	311.57983
242.412	298.69982
242.95	252.59389
243.488	197.43464
244.026	274.61829
244.564	275.54686
245.102	267.58759
245.64	210.49165
246.177	238.51508
246.715	250.58528
247.252	200.44579
247.789	266.47563
248.326	250.58757
248.863	234.50318
249.4	259.57023
249.936	322.64615
250.473	276.63322
251.009	221.49534
251.546	292.63005
252.082	194.41196
252.618	259.56304
253.154	232.54634
253.69	251.54751
254.226	235.55028
254.761	241.52748
255.297	224.47836
255.832	249.57757
256.367	232.53292
256.903	313.66913
257.438	203.46771
257.972	235.51087
258.507	212.47703
259.042	269.5671
259.576	314.66851
260.111	262.58397
260.645	286.59618
261.179	298.67409
261.713	298.64355
262.247	210.4704
262.781	272.5554
263.315	245.5793
263.849	211.5193
264.382	231.51861
264.915	284.65131
265.449	239.57014
265.982	314.68536
266.515	297.7044
267.048	284.58148
267.58	243.51027
268.113	220.46615
268.646	249.59377
269.178	289.62345
269.71	307.65403
270.243	335.74433
270.775	284.70781
271.307	244.56542
271.838	276.63144
272.37	267.63571
272.902	277.60729
273.433	316.67364
273.965	297.69706
274.496	297.71119
275.027	289.69731
275.558	293.69251
276.089	280.67955
276.62	253.62151
277.15	261.62428
277.681	266.55474
278.211	240.57154
278.741	303.64888
279.272	301.66491
279.802	290.69827
280.332	295.67368
280.861	275.63762
281.391	276.60829
281.921	255.59336
282.45	266.64122
282.98	289.73057
283.509	301.66157
284.038	254.56684
284.567	321.71915
285.096	324.75671
285.625	246.53968
286.153	306.70682
286.682	328.72409
287.21	283.65253
287.739	269.61778
288.267	277.65571
288.795	256.65235
289.323	309.70053
289.851	327.74013
290.378	275.59426
290.906	316.74642
291.433	289.69862
291.961	285.63167
292.488	306.73315
293.015	300.68551
293.542	353.87189
294.069	337.80356
294.596	328.77056
295.122	337.77701
295.649	270.57359
296.175	303.70448
296.702	332.78178
297.228	288.67185
297.754	346.74495
298.28	329.72858
298.806	287.67123
299.332	318.68615
299.857	336.73337
300.383	324.78542
300.908	366.86148
301.433	351.82602
301.958	347.7617
302.483	301.72214
303.008	384.91156
303.533	304.75929
304.058	301.67824
304.582	351.79508
305.107	333.83546
305.631	335.72917
306.155	357.79617
306.679	369.82939
307.203	362.80381
307.727	353.80189
308.251	340.80714
308.775	403.93284
309.298	368.84898
309.822	345.83302
310.345	401.91127
310.868	397.9113
311.391	401.93924
311.914	384.91892
312.437	354.77559
312.96	389.8729
313.482	307.69797
314.005	390.92758
314.527	372.92604
315.049	376.91109
315.571	406.86698
316.093	405.95417
316.615	390.89112
317.137	367.76417
317.659	402.92592
318.18	384.87211
318.702	426.94471
319.223	379.73401
319.744	458.96741
320.265	413.95636
320.786	457.07532
321.307	380.89755
321.828	461.97524
322.348	444.98544
322.869	469.04775
323.389	575.02129
323.909	443.95315
324.43	470.0515
324.95	454.97744
325.47	529.21841
325.989	496.09745
326.509	524.08557
327.029	535.1289
327.548	483.02122
328.067	561.25568
328.587	540.25687
329.106	474.99945
329.625	548.32294
330.144	550.17963
330.662	565.22097
331.181	561.21955
331.7	468.01945
332.218	537.07359
332.736	608.29749
333.255	581.25559
333.773	544.1868
334.291	605.38758
334.808	606.24343
335.326	599.22544
335.844	619.32698
336.361	639.50358
336.879	659.4019
337.396	668.47182
337.913	661.3775
338.43	613.25753
338.947	622.35492
339.464	639.24306
339.981	653.40116
340.497	661.47188
341.014	655.44767
341.53	695.40032
342.046	757.6851
342.562	743.65188
343.078	684.44789
343.594	731.54782
344.11	736.57097
344.626	714.6211
345.141	759.53295
345.657	769.53117
346.172	723.56018
346.687	760.53883
347.202	778.56383
347.717	782.64474
348.232	774.71053
348.747	840.68474
349.261	820.5629
349.776	865.78238
350.29	861.88191
350.805	840.81476
351.319	812.64949
351.833	888.75656
352.347	820.69374
352.861	876.77479
353.374	835.64659
353.888	899.89803
354.401	865.69625
354.915	911.75636
355.428	905.94899
355.941	840.70023
356.454	902.70866
356.967	794.62534
357.48	833.63803
357.993	942.98062
358.505	894.87471
359.018	991.05244
359.53	942.96675
360.042	997.8628
360.554	1018.09488
361.066	996.04221
361.578	1030.88059
362.09	953.92611
362.602	1020.88665
363.113	1063.06991
363.625	1040.95429
364.136	1059.90404
364.647	1064.08898
365.158	1095.08712
365.669	1047.07815
366.18	1078.08879
366.691	1086.93331
367.201	1089.14967
367.712	1145.11652
368.222	1183.18157
368.733	1139.98471
369.243	1182.10565
369.753	1136.1191
370.263	1202.33403
370.773	1178.31759
371.282	1224.33309
371.792	1270.30945
372.301	1233.37345
372.811	1261.6654
373.32	1351.2147
373.829	1304.39653
374.338	1405.34197
374.847	1409.45992
375.356	1443.56158
375.865	1535.36272
376.373	1612.61771
376.882	1625.0195
377.39	1674.88528
377.898	1664.94472
378.407	1738.72001
378.915	1907.70376
379.423	1869.9085
379.93	2056.03352
380.438	2070.1842
380.946	2224.12574
381.453	2330.32345
381.96	2453.34853
382.468	2598.30958
382.975	2693.55849
383.482	2736.0728
383.989	2877.88912
384.495	2999.30754
385.002	3095.7184
385.509	3323.40984
386.015	3522.4589
386.521	3665.01138
387.028	3838.92862
387.534	3940.50901
388.04	4057.22803
388.546	4198.57115
389.051	4531.36912
389.557	4811.53581
390.063	4978.26561
390.568	5075.64319
391.073	5314.96281
391.578	5635.44614
392.084	5872.84477
392.589	6211.43024
393.093	6920.90633
393.598	7255.73027
394.103	7889.18168
394.607	8534.83571
395.112	9135.78666
395.616	9572.66146
396.12	10583.75033
396.624	11702.49361
397.128	12686.93007
397.632	13912.01999
398.136	15027.2079
398.639	16639.77207
399.143	19260.3931
399.646	21221.18302
400.15	23567.7374
400.653	26561.7998
401.156	30419.77756
401.659	35254.68375
402.162	45801.54419
402.664	60046.1347
403.167	63977.72923
403.67	63769.22307
404.172	63919.58413
404.674	63858.43483
405.176	63738.15102
405.678	63977.72923
406.18	64011.81569
406.682	63863.44694
407.184	63926.60148
407.686	63841.39382
408.187	64025.8516
408.688	63892.51763
409.19	63833.37461
409.691	59104.59912
410.192	50735.22102
410.693	45535.50927
411.194	42610.0148
411.694	39855.47544
412.195	36313.78654
412.696	34140.9792
413.196	33224.69609
413.696	33312.60665
414.196	32713.47836
414.696	31130.46233
415.196	28518.88693
415.696	23266.3394
416.196	17993.21906
416.695	15345.9169
417.195	14601.57264
417.694	13971.08829
418.194	12858.32819
418.693	12423.7461
419.192	12046.30074
419.691	11797.05884
420.19	11363.74449
420.688	11125.61782
421.187	10387.38293
421.685	9597.71398
422.184	8418.64252
422.682	7219.47098
423.18	6341.73111
423.678	5881.84107
424.176	5577.96432
424.674	5226.97596
425.172	4807.57652
425.669	4438.08708
426.167	4152.83756
426.664	3806.84565
427.161	3538.02639
427.659	3338.42318
428.156	3191.68354
428.652	2949.69691
429.149	2850.4526
429.646	2697.97176
430.143	2555.3271
430.639	2454.23738
431.135	2290.44884
431.632	2155.94901
432.128	2074.12636
432.624	2005.41573
433.12	1995.85558
433.616	1928.65898
434.111	1875.93967
434.607	1746.86564
435.103	1750.38434
435.598	1655.30138
436.093	1598.62644
436.588	1520.43972
437.083	1479.38603
437.578	1431.44006
438.073	1370.61964
438.568	1331.51384
439.062	1225.99692
439.557	1177.16185
440.051	1163.04245
440.546	1126.022
441.04	1116.14825
441.534	1046.16411
442.028	1144.19493
442.522	1013.9962
443.015	1034.77142
443.509	1010.01989
444.002	1017.04467
444.496	959.69743
444.989	980.96764
445.482	978.00974
445.975	988.87185
446.468	968.70586
446.961	929.65953
447.454	894.67043
447.947	922.84004
448.439	934.91822
448.931	814.59273
449.424	903.94801
449.916	840.74979
450.408	863.6605
450.9	846.74983
451.392	832.81583
451.884	829.61562
452.375	784.67856
452.867	744.44184
453.358	799.56223
453.849	818.47171
454.341	839.59801
454.832	808.47375
455.323	798.71516
455.814	734.45292
456.304	744.48854
456.795	693.38221
457.285	705.34564
457.776	761.48994
458.266	680.41871
458.756	654.3644
459.247	705.47516
459.737	695.47665
460.226	704.39735
460.716	646.36796
461.206	648.3722
461.695	597.32374
462.185	607.28611
462.674	611.241
463.163	658.29558
463.653	648.20707
464.142	599.29951
464.63	565.23346
465.119	617.27429
465.608	561.18282
466.096	554.07615
466.585	571.16754
467.073	480.0359
467.561	538.16774
468.05	558.15355
468.538	536.18659
469.026	535.14716
469.513	540.01997
470.001	556.14735
470.489	522.12574
470.976	538.13549
471.463	459.05275
471.951	432.99578
472.438	473.01662
472.925	442.96101
473.412	436.97894
473.899	435.92105
474.385	416.94706
474.872	414.89593
475.359	442.00376
475.845	430.81825
476.331	388.76744
476.817	440.99035
477.303	408.88106
477.789	391.86873
478.275	393.91151
478.761	341.76301
479.247	352.73669
479.732	321.75955
480.218	402.98612
480.703	355.82307
481.188	330.67322
481.673	362.7804
482.158	322.6572
482.643	343.82819
483.128	340.74775
483.612	388.86404
484.097	364.82369
484.581	367.79542
485.066	352.8124
485.55	273.5768
486.034	341.69487
486.518	294.67072
487.002	332.76259
487.486	282.6532
487.969	241.56344
488.453	261.62262
488.936	290.62117
489.42	294.61803
489.903	258.61581
490.386	216.43104
490.869	320.66261
491.352	238.55108
491.835	244.47854
492.318	256.55119
492.8	252.49984
493.283	236.58093
493.765	222.52584
494.247	229.51391
494.73	260.5509
495.212	195.44856
495.694	219.49913
496.175	234.54225
496.657	269.60936
497.139	246.4023
497.62	253.58453
498.102	232.55736
498.583	181.43262
499.064	210.45313
499.545	260.5675
500.026	223.48726
500.507	177.39705
500.988	255.61249
501.469	177.42984
501.949	180.43294
502.43	197.4613
502.91	244.49732
503.39	179.43225
503.87	200.45905
504.35	173.39462
504.83	159.34007
505.31	156.36795
505.79	156.36079
506.269	139.31322
506.749	183.40697
507.228	176.40413
507.707	256.54764
508.187	185.43049
508.666	198.47677
509.145	160.36607
509.623	176.40187
510.102	185.43575
510.581	225.52459
511.059	201.49159
511.538	188.47198
512.016	222.51444
512.494	175.41027
512.972	163.38184
513.45	170.38738
513.928	176.41769
514.406	165.39589
514.884	180.45303
515.361	166.38849
515.839	196.43886
516.316	201.47472
516.793	186.45753
517.27	194.45366
517.747	147.37045
518.224	164.36948
518.701	136.2956
519.178	144.35409
519.654	162.37541
520.131	152.36934
520.607	120.28918
521.083	156.34613
521.56	117.27226
522.036	133.28495
522.512	212.50777
522.987	179.42096
523.463	138.3217
523.939	187.45259
524.414	162.36273
524.89	149.34905
525.365	131.29145
525.84	161.37908
526.315	177.41869
526.79	155.3427
527.265	177.39934
527.74	138.32941
528.215	125.28743
528.689	108.23424
529.164	132.27859
529.638	114.28539
530.112	90.21014
530.587	181.37739
531.061	140.33329
531.534	173.40733
532.008	150.35819
532.482	115.26126
532.956	127.31936
533.429	156.37451
533.903	177.37824
534.376	164.35463
534.849	106.24126
535.322	156.36079
535.795	116.27668
536.268	174.41167
536.741	102.23984
537.213	142.32083
537.686	132.31822
538.158	174.38671
538.631	110.26358
539.103	158.34984
539.575	99.2022
540.047	170.3621
540.519	155.36324
540.991	157.3754
541.463	125.29661
541.934	91.20431
542.406	159.37466
542.877	116.25888
543.348	170.40174
543.82	164.39057
544.291	186.4235
544.762	142.33272
545.233	196.48426
545.703	191.41399
546.174	161.36606
546.645	153.36374
547.115	209.49036
547.585	214.47738
548.056	190.4563
548.526	208.48028
548.996	154.36168
549.466	223.52545
549.935	202.47014
550.405	241.51076
550.875	178.41363
551.344	168.39255
551.814	198.44206
552.283	221.46755
552.752	268.60401
553.221	257.54633
553.69	242.52866
554.159	228.55087
554.628	299.6475
555.096	177.44125
555.565	210.45138
556.033	272.62379
556.502	206.48398
556.97	203.44
557.438	167.38462
557.906	191.44007
558.374	263.58704
558.842	190.44465
559.31	282.60456
559.777	245.57908
560.245	192.42973
560.712	215.47813
561.18	200.43137
561.647	207.44637
562.114	281.6171
562.581	239.56905
563.048	216.48045
563.514	280.67521
563.981	212.47194
564.448	248.54062
564.914	196.44374
565.381	278.6091
565.847	270.60379
566.313	281.62437
566.779	279.60136
567.245	250.55791
567.711	302.69008
568.176	234.50773
568.642	261.63333
569.108	276.65145
569.573	265.58906
570.038	258.51796
570.504	310.66659
570.969	230.55193
571.434	346.7251
571.899	306.69162
572.363	357.77177
572.828	371.80169
573.293	321.6987
573.757	365.79784
574.222	356.75166
574.686	380.82026
575.15	382.86441
575.614	436.95642
576.078	358.79262
576.542	327.70692
577.006	386.81678
577.469	429.98276
577.933	418.88641
578.396	340.76344
578.86	420.92055
579.323	386.87381
579.786	383.77725
580.249	461.00183
580.712	361.82836
581.175	395.91324
581.637	425.90027
582.1	374.76367
582.563	401.79222
583.025	408.92848
583.487	511.95138
583.95	411.81769
584.412	512.97384
584.874	491.09924
585.336	497.07884
585.797	535.04931
586.259	549.16102
586.721	565.19439
587.182	576.19135
587.643	565.15369
588.105	650.35905
588.566	641.16948
589.027	711.52837
589.488	641.30144
589.949	723.53487
590.41	781.29726
590.87	793.55048
591.331	883.60151
591.791	839.64442
592.252	986.87985
592.712	971.9196
593.172	1000.84682
593.632	1149.98751
594.092	1157.00019
594.552	1192.97261
595.011	1194.11511
595.471	1290.20248
595.931	1440.34927
596.39	1374.47048
596.849	1476.48316
597.308	1587.29237
597.768	1668.07023
598.227	1722.83052
598.685	1880.74172
599.144	1955.93332
599.603	2120.99123
600.062	2271.59187
600.52	2337.92313
600.978	2519.19694
601.437	2698.02275
601.895	2769.72078
602.353	2938.83493
602.811	3050.9746
603.269	3294.25856
603.727	3409.29889
604.184	3614.90001
604.642	3780.36177
605.099	4065.87913
605.557	4236.08717
606.014	4328.20531
606.471	4565.17237
606.928	4857.11389
607.385	5042.89486
607.842	5191.1351
608.299	5328.19354
608.755	5547.34209
609.212	5684.70133
609.668	5869.6964
610.125	6089.0545
610.581	6236.81234
611.037	6293.51297
611.493	6442.7291
611.949	6620.98436
612.405	6757.0113
612.861	6889.60309
613.316	6923.84558
613.772	6974.58973
614.227	7082.87581
614.683	7164.26842
615.138	7155.74185
615.593	7111.6772
616.048	7216.6267
616.503	7178.941
616.958	7139.13429
617.412	7162.81151
617.867	7109.49166
618.321	6950.09237
618.776	6898.37354
619.23	6933.70411
619.684	6777.42729
620.138	6724.56463
620.592	6637.93705
621.046	6574.77699
621.5	6440.92053
621.954	6320.41351
622.407	6202.43992
622.861	6095.08891
623.314	5996.64344
623.768	5911.96469
624.221	5797.93212
624.674	5615.94029
625.127	5531.02444
625.58	5429.83348
626.033	5398.67636
626.485	5223.39499
626.938	5121.41937
627.39	5066.31488
627.843	4903.30231
628.295	4737.39655
628.747	4719.65582
629.199	4669.34577
629.651	4497.4907
630.103	4547.46586
630.555	4285.0555
631.006	4265.70939
631.458	4247.80467
631.909	4027.5707
632.361	4010.77817
632.812	3886.85871
633.263	3978.39643
633.714	3852.30368
634.165	3842.11944
634.616	3713.0679
635.067	3657.625
635.518	3612.12119
635.968	3555.02643
636.419	3545.62107
636.869	3458.15768
637.319	3419.03669
637.769	3378.84927
638.219	3357.15559
638.669	3268.22186
639.119	3271.26243
639.569	3230.28656
640.019	3287.03714
640.468	3355.83527
640.918	3229.21029
641.367	3236.85472
641.816	3187.82337
642.265	3253.10727
642.714	3151.01454
643.163	3272.04531
643.612	3270.43056
644.061	3202.60584
644.51	3155.01638
644.958	3242.77664
645.406	3269.25761
645.855	3229.36605
646.303	3248.045
646.751	3213.064
647.199	3226.93141
647.647	3290.06957
648.095	3186.97388
648.543	3234.31232
648.99	3258.29531
649.438	3147.06455
649.885	3180.55549
650.333	3169.11898
650.78	3175.34409
651.227	3144.43031
651.674	3087.99663
652.121	3107.45007
652.568	3136.43843
653.015	2993.50073
653.461	3000.2492
653.908	2899.04249
654.354	2874.25589
654.801	2825.16502
655.247	2809.72575
655.693	2741.79507
656.139	2783.2613
656.585	2739.26101
657.031	2704.16849
657.477	2680.77787
657.922	2645.9737
658.368	2594.39885
658.813	2535.95833
659.259	2531.30745
659.704	2513.18046
660.149	2427.00729
660.594	2380.14227
661.039	2435.9521
661.484	2352.12013
661.929	2335.04573
662.373	2291.39922
662.818	2214.27951
663.262	2297.2063
663.707	2262.45939
664.151	2303.24888
664.595	2249.18432
665.039	2201.28976
665.483	2153.39124
665.927	2222.01879
666.371	2193.02291
666.814	2105.01963
667.258	2154.11887
667.701	2124.55419
668.145	2099.24165
668.588	2158.25737
669.031	2086.96402
669.474	2114.07078
669.917	2073.64574
670.36	2074.24002
670.803	2083.0879
671.245	2030.35632
671.688	2058.10361
672.13	2009.75134
672.573	1943.19774
673.015	2047.05513
673.457	1992.58148
673.899	2058.07458
674.341	1977.00294
674.783	1942.95734
675.225	1970.09785
675.666	1972.07476
676.108	2056.58015
676.549	2008.87017
676.991	1976.60463
677.432	2004.23554
677.873	1962.75665
678.314	2026.97652
678.755	2077.17772
679.196	1950.75482
679.637	2002.98472
680.078	2015.8848
680.518	2021.81046
680.959	1958.93183
681.399	1969.11639
681.839	2012.05434
682.28	2003.16207
682.72	2001.78202
683.16	1967.15346
683.6	1994.75553
684.039	2015.37668
684.479	2077.17955
684.919	2017.91782
685.358	2045.19309
685.798	2027.40645
686.237	2037.98493
686.676	2045.75384
687.115	2160.99638
687.554	2125.05269
687.993	2168.71061
688.432	2126.82999
688.871	2190.88183
689.309	2168.08469
689.748	2195.45713
690.186	2208.97674
690.625	2276.02964
691.063	2214.07668
691.501	2247.27741
691.939	2279.39297
692.377	2292.19216
692.815	2348.2664
693.253	2337.11258
693.69	2322.70445
694.128	2419.25063
694.565	2428.11887
695.003	2432.54708
695.44	2464.13142
695.877	2458.09427
696.314	2468.54672
696.751	2586.91709
697.188	2593.04268
697.625	2528.84146
698.061	2641.22585
698.498	2550.13151
698.934	2622.2091
699.371	2640.12856
699.807	2698.14983
700.243	2676.27431
700.679	2757.83639
701.115	2804.08811
701.551	2737.05937
701.987	2778.7249
702.422	2882.23025
702.858	2917.22618
703.294	3002.98681
703.729	2947.34144
704.164	2942.22383
704.599	3097.8186
705.035	2998.85673
705.47	3119.32394
705.904	3182.01444
706.339	3200.95642
706.774	3219.07801
707.209	3156.05332
707.643	3323.19634
708.078	3360.29842
708.512	3386.5133
708.946	3381.11118
709.38	3486.11051
709.814	3542.76967
710.248	3625.27518
710.682	3632.14463
711.116	3652.2394
711.549	3594.59599
711.983	3644.86531
712.416	3748.01668
712.85	3672.34086
713.283	3754.97019
713.716	3884.27005
714.149	3792.81599
714.582	3951.55253
715.015	3919.17362
715.448	3976.36654
715.881	3961.25047
716.313	4004.78375
716.746	4042.86438
717.178	4097.95251
717.61	4172.35998
718.043	4232.08322
718.475	4174.98225
718.907	4244.16305
719.339	4297.43241
719.77	4391.77648
720.202	4347.13639
720.634	4491.91201
721.065	4455.60866
721.497	4533.85966
721.928	4417.9037
722.359	4610.78189
722.79	4594.65471
723.221	4651.89717
723.652	4817.00086
724.083	4748.111
724.514	4695.29104
724.945	4816.35462
725.375	4853.33071
725.806	4655.83177
726.236	4790.06226
726.666	4791.41527
727.096	4984.58634
727.526	5068.98912
727.956	5030.06735
728.386	5041.56899
728.816	5114.90367
729.246	5036.64111
729.675	4937.58609
730.105	5075.52575
730.534	5143.12424
730.964	5138.64698
731.393	5196.46663
731.822	5221.81506
732.251	5228.74926
732.68	5261.00289
733.109	5264.49467
733.537	5345.39025
733.966	5322.56822
734.395	5438.91257
734.823	5436.60383
735.251	5411.19869
735.68	5361.4203
736.108	5350.53762
736.536	5416.00054
736.964	5423.92583
737.392	5322.55306
737.82	5480.10476
738.247	5459.10119
738.675	5466.99139
739.102	5449.46865
739.53	5396.77608
739.957	5277.89571
740.384	5376.21729
740.811	5497.41002
741.238	5397.37395
741.665	5446.03057
742.092	5406.8618
742.519	5358.49095
742.945	5341.33604
743.372	5304.52672
743.798	5340.74207
744.225	5332.11043
744.651	5355.53487
745.077	5218.58675
745.503	5305.27315
745.929	5388.27824
746.355	5130.42618
746.781	5229.45121
747.207	5201.23083
747.632	5178.5971
748.058	5153.7301
748.483	5167.9967
748.908	5127.63801
749.334	5171.53162
749.759	5084.31939
750.184	5056.42343
750.609	4994.56269
751.033	5008.17664
751.458	4970.88485
751.883	4950.61765
752.307	4923.30255
752.732	4932.98203
753.156	4741.74486
753.58	4798.37064
754.005	4714.90775
754.429	4719.48518
754.853	4626.91693
755.277	4647.53153
755.7	4630.87559
756.124	4541.94202
756.548	4452.58433
756.971	4522.79441
757.394	4448.20891
757.818	4363.34575
758.241	4462.16831
758.664	4226.22502
759.087	4257.38142
759.51	4315.97693
759.933	4218.89999
760.356	4149.45377
760.778	4095.06609
761.201	4082.92808
761.623	3876.90172
762.046	3929.7487
762.468	3924.92852
762.89	3868.08953
763.312	3825.15403
763.734	3815.04347
764.156	3657.27085
764.578	3610.71387
765	3608.18482
765.421	3463.58032
765.843	3434.7624
766.264	3401.0258
766.686	3286.37118
767.107	3332.21268
767.528	3338.65102
767.949	3190.5497
768.37	3219.40059
768.791	3129.15855
769.212	2976.52219
769.632	3008.05096
770.053	2945.75056
770.473	2926.20482
770.894	2762.31421
771.314	2772.06382
771.734	2736.00321
772.154	2729.5459
772.575	2652.92639
772.994	2620.83278
773.414	2657.09573
773.834	2550.34961
774.254	2499.21711
774.673	2483.24428
775.093	2405.31601
775.512	2306.22622
775.931	2289.36216
776.351	2317.28729
776.77	2239.16783
777.189	2216.98018
777.607	2054.25201
778.026	2212.22032
778.445	2085.25287
778.864	2045.1949
779.282	1927.82763
779.701	1940.0759
780.119	1851.06294
780.537	1842.96211
780.955	1840.02558
781.373	1760.8604
781.791	1813.57127
782.209	1749.48052
782.627	1675.06419
783.045	1660.44861
783.462	1632.88186
783.88	1641.95661
784.297	1667.85581
784.715	1554.84365
785.132	1472.48305
785.549	1427.56813
785.966	1471.64632
786.383	1451.56397
786.8	1456.34404
787.217	1380.37329
787.633	1366.53208
788.05	1282.16195
788.466	1371.26011
788.883	1308.52715
789.299	1232.16808
789.715	1250.27752
790.131	1206.27549
790.547	1163.22027
790.963	1152.18812
791.379	1130.21987
791.795	1178.96219
792.21	1050.87867
792.626	1016.86337
793.041	1024.98916
793.457	995.93687
793.872	983.79504
794.287	1007.93061
794.702	932.80935
795.117	936.89043
795.532	923.89859
795.947	885.68985
796.362	833.58042
796.776	914.66164
797.191	815.65296
797.605	778.5344
798.02	792.5942
798.434	815.46443
798.848	804.67178
799.262	684.44726
799.676	770.56408
800.09	691.44201
800.504	712.44613
800.918	630.22639
801.331	595.32805
801.745	661.27006
802.158	628.33906
802.572	667.37524
802.985	582.20271
803.398	579.18821
803.811	526.16587
804.224	573.22243
804.637	534.11668
805.05	527.05161
805.462	564.19774
805.875	517.19547
806.288	504.07942
806.7	475.04938
807.112	453.91972
807.525	456.98512
807.937	421.94003
808.349	455.00888
808.761	452.99818
809.173	496.06546
809.584	471.02621
809.996	419.92049
810.408	430.01462
810.819	413.87142
811.231	442.07113
811.642	411.92415
812.053	380.84202
812.464	325.7026
812.875	339.80058
813.286	355.84647
813.697	369.75466
814.108	358.78998
814.519	394.79209
814.929	297.69761
815.34	272.60249
815.75	286.68054
816.16	304.6871
816.571	277.66634
816.981	266.57125
817.391	269.59348
817.801	295.67938
818.211	284.62067
818.62	273.61087
819.03	242.54988
819.44	244.58441
819.849	221.51507
820.259	196.46677
820.668	217.50196
821.077	212.49905
821.486	216.47826
821.895	230.52092
822.304	219.54475
822.713	222.486
823.122	200.4675
823.531	158.34736
823.939	193.44379
824.348	207.46721
824.756	206.48077
825.164	220.51485
825.573	188.44462
825.981	198.45756
826.389	189.44569
826.797	225.53737
827.205	215.46282
827.612	158.36614
828.02	126.27887
828.428	185.44353
828.835	194.48616
829.243	150.33462
829.65	144.34281
830.057	174.3949
830.464	231.53137
830.871	217.48638
831.278	123.28272
831.685	146.30462
832.092	137.31439
832.499	185.37904
832.905	99.23808
833.312	119.25143
833.718	167.39595
834.124	190.40628
834.531	100.23843
834.937	132.32387
835.343	149.33617
835.749	140.30339
836.155	137.34191
836.561	126.295
836.966	135.31142
837.372	125.30129
837.777	120.28589
838.183	161.33271
838.588	119.28346
838.993	122.28238
839.399	124.28963
839.804	50.1178
840.209	138.33846
840.613	108.22694
841.018	102.24543
841.423	108.26518
841.828	107.26005
842.232	104.24101
842.637	149.33548
843.041	58.14431
843.445	59.14135
843.849	81.19317
844.253	109.24522
844.657	106.25689
845.061	174.37642
845.465	111.25524
845.869	140.30662
846.272	87.20389
846.676	88.19932
847.079	61.15086
847.483	94.22344
847.886	112.25636
848.289	79.2061
848.692	27.06577
849.095	96.21867
849.498	93.22187
849.901	90.19445
850.304	105.23825
850.707	59.14436
851.109	120.28721
851.512	112.26284
851.914	57.13962
852.316	142.34491
852.718	131.33131
853.121	87.20405
853.523	79.17489
853.925	88.22308
854.326	77.18616
854.728	100.24717
855.13	90.22522
855.531	78.17882
855.933	114.25684
856.334	81.19538
856.736	104.22316
857.137	154.33999
857.538	60.14645
857.939	99.23727
858.34	56.12962
858.741	80.20027
859.142	87.19821
859.542	86.21986
859.943	58.13856
860.343	29.07003
860.744	107.2483
861.144	120.28073
861.544	86.20056
861.945	56.13735
862.345	61.14245
862.745	73.17549
863.145	48.10797
863.544	96.23283
863.944	108.24202
864.344	44.10386
864.743	64.15219
865.143	106.26277
865.542	14.03093
865.941	76.18107
866.34	45.10219
866.74	62.16101
867.139	103.23827
867.537	64.15499
867.936	76.17584
868.335	54.13205
868.734	58.14315
869.132	54.11857
869.531	53.12148
869.929	76.1661
870.327	88.20118
870.726	95.22351
871.124	59.13083
871.522	80.19469
871.92	85.20045
872.318	73.16947
872.715	73.17028
873.113	81.18745
873.511	47.11238
873.908	90.22147
874.306	87.2089
874.703	42.10026
875.1	39.09489
875.497	46.10554
875.894	99.236
876.291	96.2252
876.688	65.16163
877.085	48.10978
877.482	20.04845
877.878	92.2143
878.275	96.23388
878.671	28.05785
879.068	76.17521
879.464	79.18231
879.86	60.1359
880.256	50.11661
880.652	42.10309
881.048	54.12712
881.444	50.11237
881.84	61.14886
882.236	26.06315
882.631	109.25595
883.027	73.1682
883.422	41.10054
883.817	35.08573
884.213	82.20186
884.608	80.19221
885.003	58.13286
885.398	8.01946
885.793	49.11788
886.188	40.0957
886.582	73.17788
886.977	74.16638
887.371	54.13043
887.766	82.19649
888.16	13.03086
888.554	52.1226
888.949	134.31851
889.343	48.11203
889.737	46.11991
890.131	55.13277
890.525	93.22924
890.918	68.16406
891.312	52.11797
891.706	50.12634
892.099	62.15111
892.492	92.18607
892.886	43.10097
893.279	52.12726
893.672	93.22814
894.065	107.25546
894.458	17.04096
894.851	65.15138
895.244	57.14004
895.637	106.2434
896.029	110.25734
896.422	74.17054
896.814	45.10731
897.206	86.19819
897.599	111.26044
897.991	87.20205
898.383	62.14054
898.775	105.2271
899.167	114.25579
899.559	59.14216
899.951	104.22999
900.342	35.08506
900.734	91.22133
901.125	61.15301
901.517	64.15096
901.908	62.13991
902.299	48.11326
902.69	139.31207
903.082	98.22575
903.473	63.14701
903.863	49.11971
904.254	85.19021
904.645	83.19444
905.036	66.15646
905.426	71.15218
905.817	86.19985
906.207	9.02049
906.597	73.16477
906.987	37.09184
907.378	75.18296
907.768	56.14342
908.158	94.21766
908.547	67.16903
908.937	57.13884
909.327	70.16215
909.717	56.13429
910.106	46.10554
910.495	33.07849
910.885	88.21375
911.274	60.14372
911.663	69.16631
912.052	81.18842
912.441	97.2376
912.83	41.08948
913.219	92.22956
913.608	79.18572
913.997	22.05394
914.385	76.17326
914.774	42.0981
915.162	88.20223
915.55	64.1469
915.939	46.11286
916.327	29.06926
916.715	105.25958
917.103	53.12285
917.491	96.22529
917.878	89.208
918.266	37.09231
918.654	71.17565
919.041	69.17575
919.429	67.15098
919.816	70.1699
920.203	84.19644
920.591	51.12186
920.978	74.17319
921.365	58.14734
921.752	-8.01819
922.139	127.25844
922.525	49.11349
922.912	69.16025
923.299	32.07688
923.685	9.02259
924.072	34.07321
924.458	57.1363
924.844	36.08593
925.231	29.06423
925.617	70.17296
926.003	63.15415
926.389	50.12131
926.774	24.05858
927.16	55.13086
927.546	80.19919
927.931	43.10255
928.317	35.07671
928.702	67.15049
929.088	105.24135
929.473	88.21607
929.858	49.11609
930.243	61.14184
930.628	59.13924
931.013	44.10515
931.398	84.17985
931.783	39.09811
932.167	112.26294
932.552	71.16977
932.937	75.1768
933.321	40.09767
933.705	6.01449
934.09	62.14698
934.474	45.10136
934.858	65.16258
935.242	65.14317
935.626	84.20709
936.009	86.2221
936.393	88.21743
936.777	55.13652
937.16	60.15167
937.544	38.08439
937.927	77.1884
938.311	56.12998
938.694	104.26392
939.077	42.09656
939.46	53.12182
939.843	70.13436
940.226	33.08131
940.609	84.18568
940.991	9.02207
941.374	111.25932
941.757	52.1226
942.139	122.25896
942.522	85.18958
942.904	114.25957
943.286	54.13141
943.668	63.15882
944.05	47.1114
944.432	34.08048
944.814	71.16535
945.196	63.14845
945.578	76.17563
945.959	14.03127
946.341	36.08326
946.722	103.22735
947.104	72.16434
947.485	83.18366
947.866	61.14898
948.247	72.176
948.628	34.0781
949.009	34.08413
949.39	85.20045
949.771	-6.01315
950.152	88.20619
950.532	68.16517
950.913	75.17225
951.293	47.12408
951.674	58.13436
952.054	92.22196
952.434	53.12664
952.814	53.11914
953.194	34.08481
953.574	119.27604
953.954	64.14342
954.334	109.26093
954.714	10.02372
955.093	88.20603
955.473	47.11449
955.853	80.19868
956.232	43.11398
956.611	52.11768
956.99	49.11904
957.37	63.153
957.749	30.06762
958.128	86.2085
958.506	58.1452
958.885	19.04619
959.264	89.21094
959.643	81.17632
960.021	37.08905
960.4	89.19068
960.778	78.18033
961.156	39.09375
961.535	61.13408
961.913	91.20338
962.291	41.10296
962.669	40.09829
963.047	43.10646
963.424	61.15185
963.802	45.10666
964.18	29.06956
964.557	63.13743
964.935	75.16901
965.312	104.26035
965.69	69.16367
966.067	14.03251
966.444	8.01868
966.821	46.11449
967.198	65.14869
967.575	67.15628
967.952	52.11677
968.329	79.18471
968.705	99.20137
969.082	85.21191
969.458	72.16751
969.835	64.14896
970.211	68.16956
970.587	80.19074
970.963	37.0907
971.339	75.18908
971.715	79.18897
972.091	66.15531
972.467	21.04977
972.843	47.11363
973.219	100.22502
973.594	17.04316
973.97	26.05779
974.345	96.21929
974.721	1.0023
975.096	48.11247
975.471	60.13529
975.846	45.10281
976.221	39.09567
976.596	139.31975
976.971	107.25292
977.346	43.09491
977.72	47.11461
978.095	67.16612
978.469	31.07074
978.844	67.16021
979.218	52.12151
979.593	40.09145
979.967	51.11662
980.341	56.12374
980.715	38.09255
981.089	38.09151
981.463	44.09665
981.837	70.16575
982.21	38.08217
982.584	67.15542
982.957	58.13998
983.331	37.08249
983.704	117.27623
984.078	39.09226
984.451	25.05889
984.824	61.14329
985.197	25.05749
985.57	-4.00957
985.943	34.07917
986.316	49.11335
986.688	58.13345
987.061	118.26193
987.434	91.23023
987.806	-6.01387
988.179	28.06319
988.551	45.10929
988.923	34.08004
989.295	74.17563
989.667	41.09564
990.039	78.18754
990.411	-4.00874
990.783	98.20992
991.155	38.0882
991.527	30.06958
991.898	81.19383
992.27	95.2262
992.641	45.10773
993.012	-14.031
993.384	5.01145
993.755	65.16004
994.126	103.23722
994.497	66.15501
994.868	60.12952
995.239	55.12713
995.61	26.06325
995.98	75.17343
996.351	71.16951
996.722	81.18081
997.092	34.07779
997.462	75.16908
997.833	52.11663
998.203	65.14797
998.573	37.08912
998.943	86.19264
999.313	34.07882
999.683	52.11998
1000.053	-25.05435
1000.423	66.15186
1000.792	-1.00249
1001.162	9.02125
1001.531	49.11618
1001.901	34.08113
1002.27	41.08545
1002.639	17.04167
1003.009	78.17595
1003.378	74.18163
1003.747	50.1121
1004.116	53.12104
1004.485	83.18841
1004.853	12.02897
1005.222	35.08331
1005.591	59.13317
1005.959	67.14423
1006.328	63.13545
1006.696	31.07151
1007.064	24.05764
1007.433	54.12826
1007.801	33.0764
1008.169	-23.0559
1008.537	92.19178
1008.905	74.16529
1009.273	47.11041
1009.64	60.13877
1010.008	91.20523
1010.375	80.18112
1010.743	57.12101
1011.11	131.29809
1011.478	86.20442
1011.845	51.1138
1012.212	109.23545
1012.579	79.18529
1012.946	75.16755
1013.313	53.11929
1013.68	75.1586
1014.047	36.08227
1014.414	57.12824
1014.78	59.14113
1015.147	97.2193
1015.513	75.17212
1015.88	56.13633
1016.246	48.11198
1016.612	42.0909
1016.978	73.17195
1017.344	65.154
1017.71	72.16606
1018.076	54.12007
1018.442	106.26056
1018.808	73.17629
1019.174	44.10535
1019.539	19.04
1019.905	69.15593
1020.27	38.08991
1020.636	66.14851
1021.001	82.18731
1021.366	49.11326
1021.731	86.21459
1022.096	53.12977
1022.461	93.20923
1022.826	81.18462
1023.191	70.17644
1023.556	65.14407
1023.92	36.08412
1024.285	29.06722
1024.649	36.08412
1025.014	59.138
1025.378	34.08293
1025.742	21.04979
1026.107	101.21424
1026.471	55.12145
1026.835	51.1212
1027.199	16.03721
1027.562	42.09218
1027.926	77.17805
1028.29	22.05382
1028.654	10.022
1029.017	78.18333
1029.381	54.1238
1029.744	54.1324
1030.107	93.20828
1030.471	120.27268
1030.834	43.09161
1031.197	93.21205
1031.56	94.20857
1031.923	50.12467
1032.286	108.23913
1032.648	58.13024
1033.011	100.22022
1033.374	32.07115
1033.736	44.11178
1034.099	41.09597
1034.461	57.13941
1034.823	84.20043
1035.185	42.10056
1035.548	69.16107
1035.91	43.09836
1036.272	82.17777
1036.634	70.16318
1036.995	1.00225
1037.357	71.16574
1037.719	39.09118
1038.08	85.19334
1038.442	54.12211
1038.803	30.06789
1039.165	39.09415
1039.526	76.175
1039.887	52.11874
1040.248	106.25244
1040.609	29.0681
1040.97	57.13269
1041.331	68.1661
1041.692	105.23622
1042.053	99.21083
1042.413	74.16242
1042.774	58.13516
1043.134	52.11644
1043.495	64.15388
1043.855	117.2714
1044.215	48.11348
1044.576	37.08552
1044.936	58.12558
1045.296	81.19257
1045.656	37.0861
1046.016	95.21583
1046.375	56.12983
1046.735	67.14721
1047.095	40.0896
1047.454	26.05174
1047.814	58.13329
1048.173	43.09666
1048.533	63.13714
1048.892	30.06952
1049.251	23.05519
1049.61	27.06407
1049.969	57.1276
1050.328	59.1211
1050.687	22.05112
1051.046	43.09987
1051.405	19.04508
1051.763	67.14826
1052.122	32.07665
1052.48	81.18975
1052.839	82.18648
1053.197	112.24809
1053.555	35.07431
1053.914	84.19458
1054.272	8.0182
1054.63	6.01421
1054.988	43.09884
1055.345	6.01217
1055.703	101.23057
1056.061	74.18458
1056.419	66.16683
1056.776	26.05944
1057.134	-14.03069
1057.491	51.12256
1057.848	72.16989
1058.206	7.01557
1058.563	97.20027
1058.92	79.17145
1059.277	54.12747
1059.634	34.07535
1059.991	95.21618
1060.348	80.17188
1060.704	117.26979
1061.061	60.12969
1061.418	2.00469
1061.774	47.11127
1062.131	75.19352
1062.487	27.0601
1062.843	42.10045
1063.199	64.1523
1063.555	92.20371
1063.911	49.11793
1064.267	85.16312
1064.623	63.14799
1064.979	34.07403
1065.335	98.21925
1065.691	31.07006
1066.046	67.13883
1066.402	44.09454
1066.757	46.11161
1067.112	62.14453
1067.468	67.15296
1067.823	-6.01362
1068.178	28.06453
1068.533	72.16613
1068.888	44.0999
1069.243	37.08773
1069.598	56.129
1069.952	119.25771
1070.307	66.15706
1070.662	51.11737
1071.016	69.14898
1071.371	73.15836
1071.725	73.16423
1072.079	65.14941
1072.434	59.13757
1072.788	58.12966
1073.142	72.1691
1073.496	43.09725
1073.85	73.16012
1074.203	79.18253
1074.557	67.1736
1074.911	97.21706
1075.265	65.14341
1075.618	79.18376
1075.971	81.18253
1076.325	54.13289
1076.678	25.05481
1077.031	35.07382
1077.385	101.20769
1077.738	50.10701
1078.091	52.11379
1078.444	54.11767
1078.796	52.12303
1079.149	101.23901
1079.502	35.07987
1079.855	78.17278
1080.207	83.19368
1080.56	61.15246
1080.912	70.16196
1081.264	102.23356
1081.617	79.18405
1081.969	48.11712
1082.321	54.12554
1082.673	102.2234
1083.025	26.05875
1083.377	289.61542
1083.728	54.11922
1084.08	40.09519
1084.432	68.15546
1084.783	56.12213
1085.135	52.12565
1085.486	45.09891
1085.838	51.12078
1086.189	84.19574
1086.54	79.17817
1086.891	75.18514
1087.242	91.21451
1087.593	18.04145
1087.944	76.16456
1088.295	100.21319
1088.646	97.22768
1088.996	55.12753
1089.347	29.06791
1089.698	60.13695
1090.048	18.04492
1090.398	38.08351
1090.749	1.00228
1091.099	64.15627
1091.449	69.16499
1091.799	31.07466
1092.149	18.043
1092.499	71.16516
1092.849	57.13926
1093.199	77.18222
1093.548	73.16907
1093.898	58.13829
1094.248	12.02951
1094.597	38.09482
1094.947	36.0931
1095.296	72.17075
1095.645	43.1072
1095.994	50.11477
1096.343	73.17629
1096.692	69.1773
1097.041	51.13573
1097.39	66.15724
1097.739	56.13979
1098.088	51.13073
1098.437	15.03884
1098.785	12.03115
1099.134	42.10571
1099.482	84.22314
1099.83	51.12917
1100.179	91.23179
1100.527	5.01275
1100.875	55.14133
1101.223	73.18771
1101.571	33.08815
1101.919	79.20285
1102.267	22.06091
1102.615	6.01926
1102.962	11.03525
1103.31	7.02247
1103.658	-1.00321
