Data from N3 R2 sample 1_Subt2__1__10-11-33-390.txt Node

Date: Thu Sep 18 10:11:33 PDT 2025
User: uwsun
Spectrometer: HDX01956
Trigger mode: 0
Integration Time (sec): 5.000000E-1
Scans to average: 1
Nonlinearity correction enabled: true
Boxcar width: 0
Storing dark spectrum: false
XAxis mode: Wavelengths
Number of Pixels in Spectrum: 2068
>>>>>Begin Spectral Data<<<<<
194.03	81.23237
194.578	89.28638
195.127	72.22885
195.676	77.24549
196.225	77.20301
196.773	86.23714
197.321	155.42353
197.87	247.61974
198.418	277.6965
198.966	292.7493
199.513	305.75309
200.061	289.71517
200.609	265.68395
201.156	279.59387
201.704	233.57682
202.251	257.6695
202.798	238.60627
203.345	267.64667
203.892	243.60333
204.438	229.53434
204.985	268.62201
205.532	232.60035
206.078	250.59832
206.624	296.72322
207.17	358.80583
207.716	326.77362
208.262	278.53543
208.808	321.7818
209.354	287.69222
209.899	273.67088
210.445	252.61871
210.99	244.5853
211.535	328.74677
212.08	291.65651
212.625	248.60754
213.17	272.67766
213.715	290.64476
214.259	300.67999
214.804	246.59122
215.348	287.6459
215.892	295.69669
216.436	262.58348
216.98	242.52016
217.524	265.61954
218.068	309.75652
218.612	315.77663
219.155	294.67478
219.698	284.65679
220.242	214.51978
220.785	256.58781
221.328	221.53668
221.871	268.66649
222.414	258.62217
222.956	210.49396
223.499	252.54701
224.041	259.57525
224.583	216.44586
225.126	245.52354
225.668	246.58335
226.21	235.58284
226.751	269.5818
227.293	217.48077
227.835	233.55902
228.376	255.56331
228.918	214.5227
229.459	281.68006
230	288.66974
230.541	234.52545
231.082	293.69009
231.622	168.3757
232.163	237.558
232.704	326.78522
233.244	205.50007
233.784	244.57615
234.324	300.6512
234.864	227.50104
235.404	234.53752
235.944	284.64608
236.484	276.66834
237.023	234.53838
237.563	284.63876
238.102	246.56689
238.641	229.56277
239.18	244.55869
239.719	294.71138
240.258	272.59143
240.797	233.5441
241.335	272.64101
241.874	309.57639
242.412	313.73289
242.95	295.6894
243.488	238.52059
244.026	309.69227
244.564	307.60594
245.102	330.71661
245.64	221.51628
246.177	234.50686
246.715	290.67359
247.252	212.47136
247.789	311.54965
248.326	234.55169
248.863	302.63989
249.4	246.54308
249.936	327.65542
250.473	349.78895
251.009	279.61786
251.546	313.67232
252.082	246.51645
252.618	265.57535
253.154	291.67738
253.69	230.50394
254.226	287.66518
254.761	267.58118
255.297	317.6633
255.832	281.64766
256.367	287.65198
256.903	327.69694
257.438	300.67778
257.972	243.52737
258.507	184.4164
259.042	334.69407
259.576	308.65659
260.111	265.59029
260.645	292.60788
261.179	306.69105
261.713	324.69579
262.247	249.55327
262.781	295.59922
263.315	257.60626
263.849	291.70558
264.382	259.57812
264.915	331.75192
265.449	287.67833
265.982	285.62588
266.515	323.76221
267.048	329.66675
267.58	275.57338
268.113	299.62259
268.646	270.64124
269.178	245.53352
269.71	344.72696
270.243	372.82018
270.775	287.71489
271.307	235.54553
271.838	284.6487
272.37	248.59263
272.902	295.6443
273.433	336.71316
273.965	290.68157
274.496	251.60632
275.027	317.7608
275.558	299.70586
276.089	289.7002
276.62	268.65652
277.15	321.75896
277.681	270.56258
278.211	331.77442
278.741	309.66087
279.272	359.7834
279.802	295.70963
280.332	304.69297
280.861	315.72456
281.391	280.61659
281.921	329.75434
282.45	287.68908
282.98	287.72577
283.509	346.75327
284.038	324.71257
284.567	328.73377
285.096	362.83913
285.625	287.62417
286.153	339.77789
286.682	315.69729
287.21	281.64817
287.739	329.74647
288.267	329.77095
288.795	312.78715
289.323	300.68137
289.851	336.7591
290.378	280.60442
290.906	343.80594
291.433	324.77804
291.961	375.81553
292.488	306.73315
293.015	380.85428
293.542	336.8325
294.069	387.9139
294.596	301.71086
295.122	370.84747
295.649	366.76124
296.175	331.76531
296.702	337.79278
297.228	346.79792
297.754	388.82783
298.28	375.82246
298.806	349.80628
299.332	386.82071
299.857	427.91399
300.383	373.89584
300.908	394.92231
301.433	356.83697
301.958	400.86823
302.483	319.76269
303.008	394.93349
303.533	334.82966
304.058	313.70354
304.582	337.76555
305.107	321.8071
305.631	371.80135
306.155	381.84547
306.679	403.89948
307.203	316.70839
307.727	385.86889
308.251	398.93422
308.775	419.96679
309.298	399.91479
309.822	359.86452
310.345	456.02263
310.868	426.97217
311.391	405.94787
311.914	407.96967
312.437	426.91914
312.96	434.96485
313.482	372.83459
314.005	405.96047
314.527	425.04545
315.049	460.09476
315.571	491.02728
316.093	481.11431
316.615	385.88058
317.137	473.96164
317.659	483.09239
318.18	388.88048
318.702	508.10534
319.223	473.89549
319.744	469.98826
320.265	500.13572
320.786	491.14783
321.307	453.05265
321.828	497.04124
322.348	504.10265
322.869	484.07798
323.389	781.31439
323.909	518.09464
324.43	481.07372
324.95	502.06772
325.47	552.26565
325.989	570.24203
326.509	516.07087
327.029	594.23742
327.548	531.11113
328.067	579.29124
328.587	576.33128
329.106	535.11111
329.625	590.41318
330.144	609.28979
330.662	600.28703
331.181	664.41224
331.7	594.2599
332.218	653.27094
332.736	632.34177
333.255	679.43698
333.773	606.30495
334.291	643.46363
334.808	675.36371
335.326	644.30426
335.844	716.50316
336.361	740.70724
336.879	719.50979
337.396	775.66962
337.913	718.47755
338.43	661.34149
338.947	720.53612
339.464	723.37873
339.981	689.46706
340.497	725.59318
341.014	731.59024
341.53	774.5315
342.046	840.83792
342.562	800.75772
343.078	776.60993
343.594	808.68234
344.11	811.70316
344.626	855.88606
345.141	831.65095
345.657	840.64522
346.172	822.73651
346.687	840.67002
347.202	913.77873
347.717	937.9041
348.232	871.88616
348.747	901.78189
349.261	856.61743
349.776	959.93472
350.29	968.06654
350.805	939.98597
351.319	970.9002
351.833	943.8416
352.347	941.89143
352.861	961.90954
353.374	923.78293
353.888	1014.0857
354.401	982.87312
354.915	984.86426
355.428	1034.16394
355.941	993.94029
356.454	974.81303
356.967	957.88748
357.48	953.82166
357.993	1041.13988
358.505	1018.07523
359.018	1123.25816
359.53	1146.28397
360.042	1057.94601
360.554	1152.30018
361.066	1053.13169
361.578	1104.97859
362.09	1073.10816
362.602	1125.02586
363.113	1248.32524
363.625	1149.10078
364.136	1180.05573
364.647	1156.22119
365.158	1188.21422
365.669	1230.33892
366.18	1219.28389
366.691	1225.10267
367.201	1218.33279
367.712	1245.24505
368.222	1291.31772
368.733	1291.16021
369.243	1282.22609
369.753	1267.28835
370.263	1347.52691
370.773	1272.44812
371.282	1396.5522
371.792	1474.54524
372.301	1357.5358
372.811	1451.94121
373.32	1500.36013
373.829	1515.6405
374.338	1568.50052
374.847	1634.68905
375.356	1622.74962
375.865	1752.53199
376.373	1766.74859
376.882	1809.21256
377.39	1853.04635
377.898	1881.14682
378.407	2089.95468
378.915	2149.82902
379.423	2078.04655
379.93	2325.16814
380.438	2340.33202
380.946	2420.20533
381.453	2575.41345
381.96	2750.42528
382.468	2954.35363
382.975	3041.60365
383.482	3003.07293
383.989	3133.91985
384.495	3301.27803
385.002	3491.60976
385.509	3757.29924
386.015	3966.26118
386.521	4053.85079
387.028	4328.69672
387.534	4408.26609
388.04	4509.00773
388.546	4650.32505
389.051	5091.05323
389.557	5413.20054
390.063	5546.95977
390.568	5714.29929
391.073	6103.61821
391.578	6224.18641
392.084	6504.6569
392.589	6950.38695
393.093	7477.99976
393.598	8275.39843
394.103	8838.22631
394.607	9634.80388
395.112	10217.36593
395.616	10767.25056
396.12	11784.13309
396.624	13038.50177
397.128	13989.36929
397.632	15387.39073
398.136	16816.29382
398.639	18544.24542
399.143	21332.48518
399.646	23730.5676
400.15	26133.65977
400.653	29638.15893
401.156	33748.20747
401.659	38944.38667
402.162	51313.12317
402.664	60685.20791
403.167	63977.72923
403.67	63769.22307
404.172	63919.58413
404.674	63858.43483
405.176	63738.15102
405.678	63977.72923
406.18	64011.81569
406.682	63863.44694
407.184	63926.60148
407.686	63841.39382
408.187	64025.8516
408.688	63892.51763
409.19	63833.37461
409.691	63977.72923
410.192	56275.73064
410.693	50649.09243
411.194	47667.96611
411.694	44532.31561
412.195	40582.21699
412.696	38152.34896
413.196	37512.61765
413.696	37795.23833
414.196	37007.97899
414.696	35230.30635
415.196	31957.62536
415.696	25551.65346
416.196	19761.82508
416.695	17362.26744
417.195	16639.34596
417.694	15684.56899
418.194	14473.38266
418.693	13853.95593
419.192	13500.81515
419.691	13108.1164
420.19	12802.70309
420.688	12239.09515
421.187	11555.67163
421.685	10605.77999
422.184	9441.35257
422.682	7999.95936
423.18	7169.7035
423.678	6457.66509
424.176	6172.72275
424.674	5819.68965
425.172	5413.2385
425.669	5004.77482
426.167	4620.59043
426.664	4292.61551
427.161	4019.83841
427.659	3786.30607
428.156	3445.61039
428.652	3277.69968
429.149	3212.4527
429.646	3024.96551
430.143	2807.37509
430.639	2708.29754
431.135	2543.5611
431.632	2429.05104
432.128	2340.26506
432.624	2314.63214
433.12	2201.96037
433.616	2203.78698
434.111	2097.08695
434.607	2036.08422
435.103	1907.47264
435.598	1816.40158
436.093	1733.74542
436.588	1738.62395
437.083	1615.50886
437.578	1559.56956
438.073	1489.76698
438.568	1408.61019
439.062	1436.20571
439.557	1258.26456
440.051	1270.16931
440.546	1249.17364
441.04	1302.39641
441.534	1207.40852
442.028	1265.35759
442.522	1186.242
443.015	1137.89516
443.509	1194.28781
444.002	1117.19479
444.496	1094.86958
444.989	1151.21948
445.482	1039.10617
445.975	1058.97069
446.468	990.73476
446.961	1055.82439
447.454	1004.82564
447.947	1004.96597
448.439	1018.04996
448.931	973.83309
449.424	991.09614
449.916	993.9988
450.408	937.77119
450.9	900.83922
451.392	922.97417
451.884	940.78422
452.375	907.89071
452.867	850.60607
453.358	875.6804
453.849	865.5378
454.341	837.59497
454.832	813.48102
455.323	895.88381
455.814	775.51953
456.304	833.63265
456.795	841.62043
457.285	797.48777
457.776	839.61271
458.266	770.57473
458.756	703.45086
459.247	764.57796
459.737	775.61821
460.226	784.52744
460.716	726.51078
461.206	734.52541
461.695	657.4388
462.185	666.39316
462.674	722.4298
463.163	716.3908
463.653	699.28583
464.142	657.40794
464.63	654.4012
465.119	650.33264
465.608	657.35642
466.096	613.17428
466.585	611.23818
467.073	566.19938
467.561	579.24593
468.05	648.31297
468.538	582.27625
469.026	556.18688
469.513	560.05266
470.001	608.24023
470.489	559.19613
470.976	576.20572
471.463	576.29062
471.951	465.0627
472.438	535.13482
472.925	511.09279
473.412	523.15127
473.899	513.06582
474.385	478.0725
474.872	451.96827
475.359	474.0696
475.845	447.84709
476.331	422.82804
476.817	485.07954
477.303	414.89287
477.789	446.97959
478.275	400.92645
478.761	374.83114
479.247	426.87695
479.732	425.98531
480.218	444.0784
480.703	365.84457
481.188	376.75904
481.673	382.81998
482.158	435.86504
482.643	394.94213
483.128	406.8805
483.612	420.92908
484.097	310.70922
484.581	356.7734
485.066	392.89749
485.55	341.70972
486.034	357.72482
486.518	336.76003
487.002	318.73248
487.486	281.65101
487.969	290.67146
488.453	291.69018
488.936	316.67306
489.42	348.72284
489.903	286.67897
490.386	211.42155
490.869	315.65298
491.352	274.62989
491.835	269.52445
492.318	224.48562
492.8	306.59929
493.283	318.77088
493.765	260.61131
494.247	317.69849
494.73	268.56686
495.212	229.52319
495.694	271.61115
496.175	299.68392
496.657	267.60508
497.139	277.44907
497.62	237.54931
498.102	266.63491
498.583	186.44415
499.064	190.41173
499.545	288.62488
500.026	240.52252
500.507	236.52297
500.988	266.63758
501.469	180.43688
501.949	244.57973
502.43	223.51952
502.91	245.49925
503.39	201.48336
503.87	205.47006
504.35	213.48193
504.83	199.42193
505.31	213.49681
505.79	179.41209
506.269	169.37849
506.749	190.42192
507.228	211.4811
507.707	223.48046
508.187	216.49955
508.666	235.56189
509.145	199.45172
509.623	217.49138
510.102	206.48323
510.581	222.51791
511.059	203.4963
511.538	225.56109
512.016	235.54316
512.494	147.34652
512.972	169.39543
513.45	212.47898
513.928	211.49737
514.406	207.49268
514.884	212.5305
515.361	198.46047
515.839	235.52195
516.316	215.5064
516.793	207.50721
517.27	159.37437
517.747	174.43636
518.224	135.30595
518.701	184.39584
519.178	188.45852
519.654	183.42231
520.131	177.42807
520.607	144.34544
521.083	142.31599
521.56	136.31529
522.036	181.38377
522.512	208.49857
522.987	178.41869
523.463	173.4005
523.939	244.58418
524.414	202.44857
524.89	205.47496
525.365	160.35383
525.84	177.41545
526.315	185.43694
526.79	213.46522
527.265	193.43401
527.74	164.38952
528.215	159.36312
528.689	144.30992
529.164	133.28064
529.638	143.3561
530.112	113.26264
530.587	194.40333
531.061	147.34948
531.534	172.40505
532.008	197.46618
532.482	214.4764
532.956	164.40966
533.429	213.50579
533.903	170.36383
534.376	124.27043
534.849	161.36235
535.322	142.32933
535.795	178.41951
536.268	198.46628
536.741	139.32448
537.213	156.35146
537.686	165.39528
538.158	212.46744
538.631	161.38202
539.103	197.43264
539.575	174.34932
540.047	187.39684
540.519	187.43549
540.991	216.51064
541.463	165.38849
541.934	150.33268
542.406	190.445
542.877	222.48456
543.348	169.39946
543.82	223.52504
544.291	230.51901
544.762	245.56244
545.233	261.63713
545.703	246.52693
546.174	242.54118
546.645	221.51851
547.115	270.6259
547.585	247.54723
548.056	308.72302
548.526	315.71181
548.996	266.61101
549.466	306.70934
549.935	286.65458
550.405	320.66646
550.875	342.76887
551.344	302.68703
551.814	363.78273
552.283	362.74219
552.752	385.84688
553.221	409.84063
553.69	421.88479
554.159	406.94779
554.628	411.86872
555.096	373.89652
555.565	366.76022
556.033	424.94262
556.502	384.8707
556.97	379.79056
557.438	384.84592
557.906	405.89311
558.374	447.95969
558.842	430.95873
559.31	418.86977
559.777	430.97972
560.245	451.95534
560.712	438.92882
561.18	463.94217
561.647	447.91417
562.114	484.01552
562.581	511.15066
563.048	481.00899
563.514	538.23153
563.981	505.05383
564.448	541.1041
564.914	522.10118
565.381	582.19142
565.847	559.17343
566.313	540.13323
566.779	523.06633
567.245	577.19849
567.711	531.15522
568.176	597.19321
568.642	612.3843
569.108	586.29744
569.573	550.14816
570.038	609.1222
570.504	632.26299
570.969	630.39381
571.434	650.269
571.899	681.41923
572.363	745.47507
572.828	665.34471
573.293	656.32436
573.757	699.41807
574.222	645.27382
574.686	669.35281
575.15	702.4828
575.614	712.46913
576.078	700.43723
576.542	701.39236
577.006	676.33795
577.469	693.50113
577.933	670.34091
578.396	642.35
578.86	657.36612
579.323	691.46496
579.786	615.18039
580.249	720.47968
580.712	649.40094
581.175	650.42435
581.637	676.35168
582.1	677.28586
582.563	647.20311
583.025	659.42134
583.487	695.23368
583.95	642.20712
584.412	796.40864
584.874	712.52232
585.336	677.41401
585.797	704.32652
586.259	724.4732
586.721	715.46246
587.182	815.59657
587.643	803.55229
588.105	808.63092
588.566	874.50215
589.027	869.80504
589.488	888.70254
589.949	893.82613
590.41	992.55391
590.87	970.81806
591.331	1014.77879
591.791	1010.9006
592.252	1052.97399
592.712	1090.09408
593.172	1147.04044
593.632	1236.08846
594.092	1292.15544
594.552	1337.12516
595.011	1422.37371
595.471	1506.42655
595.931	1539.44349
596.39	1572.68703
596.849	1655.65323
597.308	1709.37923
597.768	1866.26992
598.227	1953.01262
598.685	2074.85428
599.144	2184.06426
599.603	2238.04698
600.062	2360.61102
600.52	2561.97543
600.978	2583.21215
601.437	2784.02803
601.895	2920.70979
602.353	3058.82013
602.811	3258.93967
603.269	3401.23733
603.727	3547.26498
604.184	3711.86441
604.642	3854.33553
605.099	4116.85498
605.557	4227.09152
606.014	4438.14441
606.471	4643.1306
606.928	4940.06697
607.385	5106.85851
607.842	5174.14446
608.299	5375.16838
608.755	5521.35564
609.212	5766.66593
609.668	5985.65264
610.125	5987.09469
610.581	6226.81534
611.037	6247.52386
611.493	6355.74852
611.949	6547.99818
612.405	6609.99744
612.861	6650.60699
613.316	6696.85721
613.772	6872.58177
614.227	6911.8673
614.683	6915.20091
615.138	6882.71393
615.593	6861.65267
616.048	7010.58532
616.503	6971.92383
616.958	6782.14541
617.412	6871.78759
617.867	6759.44928
618.321	6672.04779
618.776	6516.37018
619.23	6482.73664
619.684	6475.44336
620.138	6362.61085
620.592	6286.02005
621.046	6162.87877
621.5	5974.07444
621.954	5968.5096
622.407	5823.56303
622.861	5730.2474
623.314	5677.77256
623.768	5556.12951
624.221	5432.06917
624.674	5246.13092
625.127	5206.19613
625.58	5173.96807
626.033	4994.89084
626.485	4825.6198
626.938	4750.62948
627.39	4644.55364
627.843	4495.53201
628.295	4409.5789
628.747	4371.84541
629.199	4280.55945
629.651	4210.6438
630.103	4052.72485
630.555	3943.23575
631.006	3820.91668
631.458	3760.02315
631.909	3650.73561
632.361	3566.95614
632.812	3497.00177
633.263	3492.60431
633.714	3340.51025
634.165	3235.28586
634.616	3239.19346
635.067	3114.78671
635.518	3038.23293
635.968	2942.23538
636.419	2918.77205
636.869	2794.2231
637.319	2860.11036
637.769	2747.93215
638.219	2766.19776
638.669	2632.222
639.119	2551.2394
639.569	2505.24221
640.019	2560.05418
640.468	2561.89884
640.918	2483.17243
641.367	2447.87072
641.816	2464.83918
642.265	2460.08439
642.714	2366.96792
643.163	2459.03627
643.612	2308.28921
644.061	2314.63267
644.51	2253.9316
644.958	2308.77487
645.406	2250.13006
645.855	2127.14325
646.303	2128.91201
646.751	2261.97926
647.199	2152.83588
647.647	2149.94618
648.095	2142.85745
648.543	2079.35142
648.99	2129.09585
649.438	2051.87463
649.885	2083.2497
650.333	1995.16912
650.78	2025.061
651.227	1991.09688
651.674	1985.78358
652.121	1938.07096
652.568	1917.04834
653.015	1855.03971
653.461	1805.83178
653.908	1870.73514
654.354	1825.85215
654.801	1745.72876
655.247	1749.43281
655.693	1708.12254
656.139	1694.75211
656.585	1711.77001
657.031	1659.66567
657.477	1634.38655
657.922	1564.45897
658.368	1602.77779
658.813	1524.42288
659.259	1552.67792
659.704	1511.55679
660.149	1451.39947
660.594	1445.48898
661.039	1456.36768
661.484	1454.49072
661.929	1409.39849
662.373	1277.46654
662.818	1336.49583
663.262	1302.38332
663.707	1363.62679
664.151	1295.39828
664.595	1243.30851
665.039	1260.40766
665.483	1228.44092
665.927	1251.22849
666.371	1206.18274
666.814	1256.27013
667.258	1220.26845
667.701	1283.00056
668.145	1182.30813
668.588	1194.31299
669.031	1155.11391
669.474	1123.12311
669.917	1075.83748
670.36	1135.24899
670.803	1150.18009
671.245	1071.68069
671.688	1084.10443
672.13	1088.92991
672.573	1117.25326
673.015	1124.13789
673.457	1106.85889
673.899	1100.11131
674.341	1069.05609
674.783	1080.05895
675.225	1072.11654
675.666	1126.18098
676.108	1118.85573
676.549	1018.90165
676.991	1057.81723
677.432	1060.60546
677.873	1062.91383
678.314	1011.94201
678.755	1084.13828
679.196	1023.86449
679.637	1053.01363
680.078	1089.00371
680.518	1047.90546
680.959	1049.99583
681.399	1104.17477
681.839	1085.09491
682.28	1096.17509
682.72	1031.87438
683.16	1114.2119
683.6	1092.94202
684.039	1109.73662
684.479	1132.20925
684.919	1130.0768
685.358	1093.17164
685.798	1082.2794
686.237	1164.15442
686.676	1102.93868
687.115	1152.10681
687.554	1201.21377
687.993	1141.93199
688.432	1141.00782
688.871	1195.08798
689.309	1215.23744
689.748	1223.8688
690.186	1209.15559
690.625	1222.18612
691.063	1225.23238
691.501	1260.38573
691.939	1272.45977
692.377	1228.28225
692.815	1327.43712
693.253	1254.25963
693.69	1279.05312
694.128	1316.39822
694.565	1300.30132
695.003	1309.55605
695.44	1343.3527
695.877	1322.30792
696.314	1294.96238
696.751	1412.28541
697.188	1389.33527
697.625	1438.26951
698.061	1364.40767
698.498	1349.3473
698.934	1404.44541
699.371	1410.4034
699.807	1364.3605
700.243	1378.44756
700.679	1432.25094
701.115	1471.4341
701.551	1444.39238
701.987	1391.14908
702.422	1474.51716
702.858	1505.54657
703.294	1528.43342
703.729	1516.62368
704.164	1522.56245
704.599	1555.3674
705.035	1543.37102
705.47	1518.61891
705.904	1520.45477
706.339	1587.48482
706.774	1567.53767
707.209	1570.52067
707.643	1635.6782
708.078	1633.73818
708.512	1605.83174
708.946	1618.62172
709.38	1687.69748
709.814	1632.46923
710.248	1673.79974
710.682	1716.76664
711.116	1729.83514
711.549	1664.9613
711.983	1717.61093
712.416	1777.76671
712.85	1727.89397
713.283	1745.71629
713.716	1779.94188
714.149	1748.63925
714.582	1837.58815
715.015	1782.89812
715.448	1821.05202
715.881	1869.42703
716.313	1819.72617
716.746	1895.83682
717.178	1836.86056
717.61	1897.16026
718.043	1888.01089
718.475	1941.97558
718.907	1900.06928
719.339	1947.6866
719.77	1985.94754
720.202	1907.08839
720.634	2024.0854
721.065	1983.86593
721.497	2045.08094
721.928	1964.01679
722.359	2003.03248
722.79	2019.9616
723.221	2102.17863
723.652	2088.28815
724.083	2088.71309
724.514	2132.82899
724.945	2192.94128
725.375	2221.95165
725.806	2167.17703
726.236	2123.33946
726.666	2148.9513
727.096	2243.17755
727.526	2291.49359
727.956	2268.85961
728.386	2298.21271
728.816	2180.39114
729.246	2349.28105
729.675	2219.14846
730.105	2325.2083
730.534	2392.98158
730.964	2379.33658
731.393	2334.21808
731.822	2426.50226
732.251	2384.44201
732.68	2431.95112
733.109	2436.30253
733.537	2485.27669
733.966	2503.3999
734.395	2491.96676
734.823	2509.73487
735.251	2500.16858
735.68	2456.29478
736.108	2488.38412
736.536	2500.02505
736.964	2465.96531
737.392	2532.39848
737.82	2516.13016
738.247	2552.12765
738.675	2584.05415
739.102	2564.39717
739.53	2561.596
739.957	2504.61172
740.384	2498.16805
740.811	2528.36265
741.238	2591.3145
741.665	2580.07502
742.092	2492.91689
742.519	2417.32893
742.945	2534.25014
743.372	2485.3575
743.798	2451.50859
744.225	2467.06537
744.651	2441.3673
745.077	2415.34067
745.503	2431.16122
745.929	2447.20165
746.355	2352.17269
746.781	2385.24027
747.207	2321.05467
747.632	2319.29222
748.058	2464.43301
748.483	2398.90215
748.908	2318.29982
749.334	2252.21514
749.759	2314.06799
750.184	2260.10521
750.609	2211.1503
751.033	2186.89336
751.458	2243.70393
751.883	2186.15674
752.307	2135.92092
752.732	2186.37943
753.156	2091.10919
753.58	2088.89585
754.005	2025.15599
754.429	2034.9099
754.853	2003.11762
755.277	1975.87847
755.7	1947.05511
756.124	1990.09619
756.548	1891.79227
756.971	1901.94207
757.394	1871.12825
757.818	1814.1291
758.241	1846.08852
758.664	1846.0554
759.087	1795.55162
759.51	1780.88845
759.933	1775.81588
760.356	1766.08866
760.778	1714.82188
761.201	1691.72518
761.623	1650.62663
762.046	1665.56953
762.468	1710.70323
762.89	1589.66672
763.312	1676.77385
763.734	1568.61211
764.156	1523.65314
764.578	1554.3874
765	1501.5792
765.421	1468.72047
765.843	1387.70358
766.264	1415.38054
766.686	1355.46894
767.107	1355.39727
767.528	1398.65926
767.949	1376.57581
768.37	1353.4764
768.791	1316.31058
769.212	1276.43247
769.632	1290.22243
770.053	1223.46629
770.473	1231.22421
770.894	1146.16828
771.314	1146.0528
771.734	1156.03802
772.154	1118.23526
772.575	1171.02236
772.994	1106.90126
773.414	1103.01641
773.834	1031.03779
774.254	1053.0175
774.673	1055.03491
775.093	1026.03685
775.512	990.96131
775.931	1021.07431
776.351	960.93983
776.77	950.88723
777.189	956.81552
777.607	925.93507
778.026	907.8481
778.445	856.80917
778.864	845.77695
779.282	859.67021
779.701	871.80118
780.119	842.77878
780.537	793.65144
780.955	819.72601
781.373	787.62587
781.791	765.44203
782.209	812.49003
782.627	778.74294
783.045	740.39653
783.462	692.51902
783.88	670.50455
784.297	688.48554
784.715	717.58679
785.132	657.35217
785.549	617.33918
785.966	661.43418
786.383	661.40677
786.8	612.21957
787.217	632.30269
787.633	579.28219
788.05	630.24968
788.466	622.23723
788.883	597.34842
789.299	597.2241
789.715	550.17862
790.131	552.20733
790.547	575.25321
790.963	554.20457
791.379	550.22724
791.795	495.97977
792.21	502.02367
792.626	496.02745
793.041	457.00617
793.457	487.06114
793.872	417.87098
794.287	509.09179
794.702	450.97465
795.117	498.10555
795.532	454.03106
795.947	427.90649
796.362	416.87024
796.776	447.90961
797.191	409.90721
797.605	381.82224
798.02	345.76655
798.434	377.75424
798.848	393.89273
799.262	337.76803
799.676	431.94406
800.09	368.82392
800.504	375.82108
800.918	329.68719
801.331	231.55507
801.745	318.6623
802.158	312.71178
802.572	359.79235
802.985	345.75189
803.398	306.66761
803.811	314.72789
804.224	295.66825
804.637	300.6609
805.05	292.61545
805.462	286.6451
805.875	225.5513
806.288	291.65303
806.7	225.52397
807.112	242.515
807.525	215.48843
807.937	266.61297
808.349	279.64254
808.761	250.57541
809.173	237.53841
809.584	222.51016
809.996	183.42197
810.408	263.64201
810.819	220.48386
811.231	311.77381
811.642	274.63341
812.053	259.58838
812.464	166.37108
812.875	227.54773
813.286	180.44359
813.697	202.42876
814.108	152.34986
814.519	230.47988
814.929	201.48097
815.34	165.37363
815.75	215.51859
816.16	178.41265
816.571	158.38866
816.981	144.31738
817.391	157.35451
817.801	149.35314
818.211	208.46189
818.62	166.37964
819.03	140.32469
819.44	139.33959
819.849	109.25964
820.259	127.30646
820.668	165.38562
821.077	170.40346
821.486	108.24451
821.895	136.31391
822.304	121.30635
822.713	145.3226
823.122	105.25001
823.531	95.21162
823.939	158.36585
824.348	137.31364
824.756	140.33098
825.164	110.26298
825.573	123.29456
825.981	129.3022
826.389	109.26103
826.797	192.46145
827.205	163.35481
827.612	162.37511
828.02	96.2138
828.428	92.22447
828.835	94.23981
829.243	105.23642
829.65	86.20701
830.057	86.19866
830.464	119.27986
830.871	179.40435
831.278	119.27375
831.685	128.26813
832.092	106.24477
832.499	150.30977
832.905	77.18595
833.312	72.15369
833.718	136.32438
834.124	135.29211
834.531	84.2009
834.937	118.29027
835.343	121.27456
835.749	88.19282
836.155	78.19674
836.561	97.22839
836.966	104.24139
837.372	96.23266
837.777	119.28357
838.183	98.20538
838.588	108.2578
838.993	101.23475
839.399	33.07846
839.804	46.10846
840.209	134.32889
840.613	77.16291
841.018	44.10704
841.423	104.25555
841.828	106.25767
842.232	81.18856
842.637	112.25409
843.041	8.02009
843.445	74.17678
843.849	67.16021
844.253	99.22318
844.657	44.10788
845.061	146.31774
845.465	44.10253
845.869	102.22519
846.272	65.15299
846.676	45.10281
847.079	70.17283
847.483	74.17657
847.886	74.17067
848.289	80.20868
848.692	54.13087
849.095	58.13313
849.498	52.12503
849.901	73.1583
850.304	82.18693
850.707	47.11525
851.109	78.18818
851.512	85.20053
851.914	68.16623
852.316	129.3141
852.718	108.27426
853.121	88.20635
853.523	21.04705
853.925	67.17048
854.326	57.13832
854.728	56.13953
855.13	37.09348
855.531	27.06253
855.933	42.09602
856.334	71.17159
856.736	62.13424
857.137	43.09714
857.538	108.26125
857.939	94.2255
858.34	49.11358
858.741	45.11337
859.142	67.15326
859.542	62.15918
859.943	53.12673
860.343	77.18426
860.744	80.18664
861.144	98.23025
861.544	74.17298
861.945	73.17848
862.345	87.20213
862.745	60.14459
863.145	88.19631
863.544	63.15374
863.944	100.22447
864.344	59.13887
864.743	100.23614
865.143	93.23109
865.542	15.03314
865.941	66.15755
866.34	71.16039
866.74	54.14042
867.139	70.16299
867.537	31.07554
867.936	62.14385
868.335	62.15139
868.734	54.13338
869.132	66.14455
869.531	12.02773
869.929	69.15103
870.327	73.16739
870.726	17.0406
871.124	87.19179
871.522	35.08589
871.92	62.14686
872.318	60.13965
872.715	54.12643
873.113	61.14173
873.511	53.12659
873.908	60.14847
874.306	81.19472
874.703	58.13802
875.1	47.11419
875.497	44.101
875.894	90.21492
876.291	56.13239
876.688	17.04264
877.085	37.08481
877.482	33.07975
877.878	117.27119
878.275	44.10824
878.671	37.07629
879.068	46.10669
879.464	44.10225
879.86	69.156
880.256	15.03522
880.652	21.05174
881.048	20.04739
881.444	48.10792
881.84	53.12953
882.236	52.12569
882.631	89.2098
883.027	31.07202
883.422	22.05414
883.817	43.10517
884.213	43.10662
884.608	93.22289
885.003	-13.0302
885.398	81.19435
885.793	15.03632
886.188	35.08382
886.582	65.15863
886.977	69.1553
887.371	48.11607
887.766	5.01216
888.16	40.09446
888.554	68.15983
888.949	64.15417
889.343	77.17869
889.737	10.02623
890.131	49.11842
890.525	89.21954
890.918	59.14259
891.312	84.18933
891.706	23.0584
892.099	62.15111
892.492	121.24309
892.886	42.09864
893.279	27.06638
893.672	74.18217
894.065	55.13262
894.458	27.06493
894.851	80.18576
895.244	25.06178
895.637	86.19827
896.029	91.21368
896.422	47.1089
896.814	20.04792
897.206	45.10455
897.599	81.19116
897.991	48.11234
898.383	87.19621
898.775	93.20166
899.167	118.26454
899.559	66.15881
899.951	65.14491
900.342	44.10676
900.734	94.2285
901.125	49.12318
901.517	51.1206
901.908	50.11311
902.299	55.1296
902.69	66.1504
903.082	99.22801
903.473	94.21801
903.863	79.19193
904.254	126.27957
904.645	47.11088
905.036	74.17515
905.426	74.15851
905.817	50.11702
906.207	-37.08501
906.597	77.17366
906.987	68.16783
907.378	34.08358
907.768	61.15609
908.158	87.20173
908.547	74.18646
908.937	21.0515
909.327	73.169
909.717	31.07469
910.106	25.0576
910.495	39.09265
910.885	85.20658
911.274	29.06987
911.663	43.10415
912.052	17.04004
912.441	81.199
912.83	33.07214
913.219	79.19759
913.608	68.1602
913.997	46.11228
914.385	89.20236
914.774	47.10967
915.162	74.17054
915.55	36.0831
915.939	85.20705
916.327	24.05738
916.715	60.14955
917.103	42.09756
917.491	82.19296
917.878	67.15726
918.266	60.14907
918.654	64.15854
919.041	24.06162
919.429	57.12871
919.816	30.07336
920.203	65.15257
920.591	46.11001
920.978	107.2488
921.365	58.14734
921.752	28.06319
922.139	92.18871
922.525	57.1318
922.912	39.09111
923.299	96.22784
923.685	-31.07838
924.072	13.02812
924.458	38.09119
924.844	48.11432
925.231	54.11897
925.617	88.21671
926.003	78.19031
926.389	57.13812
926.774	41.09976
927.16	49.11672
927.546	87.21634
927.931	42.10018
928.317	81.17579
928.702	97.21652
929.088	108.24809
929.473	78.19187
929.858	64.15119
930.243	72.16705
930.628	65.15323
931.013	16.03844
931.398	57.12276
931.783	47.11806
932.167	58.1376
932.552	85.2027
932.937	42.09964
933.321	69.16757
933.705	16.03857
934.09	11.02633
934.474	46.10359
934.858	45.11296
935.242	27.05995
935.626	59.14613
936.009	72.1864
936.393	117.28754
936.777	34.08472
937.16	94.23617
937.544	37.08218
937.927	11.02724
938.311	68.15746
938.694	80.20388
939.077	39.08972
939.46	47.10816
939.843	58.11165
940.226	17.04201
940.609	104.22893
940.991	-15.03695
941.374	49.11587
941.757	34.08044
942.139	107.22786
942.522	85.18958
942.904	75.17212
943.286	49.11936
943.668	58.14635
944.05	22.05239
944.432	24.05692
944.814	77.17911
945.196	53.12513
945.578	72.16652
945.959	16.03572
946.341	59.13583
946.722	69.15339
947.104	53.12143
947.485	78.17278
947.866	44.1078
948.247	95.23123
948.628	-31.07214
949.009	34.08413
949.39	56.1328
949.771	39.08468
950.152	83.19467
950.532	85.20581
950.913	79.1813
951.293	44.11622
951.674	54.12519
952.054	92.22196
952.434	90.21352
952.814	92.20515
953.194	29.0724
953.574	68.15933
953.954	34.07666
954.334	73.17595
954.714	18.04262
955.093	76.17835
955.473	97.23407
955.853	90.22311
956.232	45.11924
956.611	45.10199
956.99	50.12145
957.37	44.10724
957.749	11.02489
958.128	54.13171
958.506	51.12784
958.885	45.10888
959.264	56.13357
959.643	115.24852
960.021	67.16033
960.4	65.13999
960.778	67.15524
961.156	32.07703
961.535	58.12757
961.913	142.31402
962.291	23.05794
962.669	41.10073
963.047	37.09171
963.424	76.18868
963.802	52.12308
964.18	47.11234
964.557	43.0942
964.935	50.11325
965.312	57.1439
965.69	85.20099
966.067	43.09927
966.444	10.02334
966.821	59.1465
967.198	23.05306
967.575	82.1907
967.952	83.1852
968.329	61.14313
968.705	131.26452
969.082	69.17252
969.458	91.21092
969.835	69.16044
970.211	88.21863
970.587	62.14834
970.963	37.0907
971.339	1.00255
971.715	41.09879
972.091	62.14601
972.467	-16.03819
972.843	38.09203
973.219	85.19186
973.594	39.09864
973.97	-7.01566
974.345	45.10385
974.721	47.1073
975.096	77.17939
975.471	93.20828
975.846	10.02301
976.221	29.07127
976.596	84.19536
976.971	111.26217
977.346	42.09273
977.72	48.11703
978.095	16.04004
978.469	76.17186
978.844	60.14366
979.218	101.23373
979.593	34.07782
979.967	8.01845
980.341	93.2039
980.715	82.19806
981.089	46.1106
981.463	24.05294
981.837	30.07158
982.21	35.07573
982.584	52.12098
982.957	49.11846
983.331	44.09795
983.704	60.14322
984.078	23.05458
984.451	41.09627
984.824	86.20103
985.197	10.02306
985.57	34.08072
985.943	30.06991
986.316	32.07427
986.688	67.15388
987.061	89.19875
987.434	93.23521
987.806	19.04371
988.179	4.00907
988.551	62.15009
988.923	8.01893
989.295	95.22455
989.667	51.11873
990.039	66.15905
990.411	7.01526
990.783	47.10179
991.155	-12.02813
991.527	62.14288
991.898	63.15128
992.27	55.13197
992.641	32.0768
993.012	45.09841
993.384	41.09322
993.755	43.1063
994.126	128.29333
994.497	18.04267
994.868	9.01964
995.239	61.14083
995.61	65.15697
995.98	36.08389
996.351	30.07219
996.722	63.14115
997.092	22.05046
997.462	49.11105
997.833	9.02036
998.203	37.08471
998.573	36.08672
998.943	58.13067
999.313	83.19055
999.683	42.0971
1000.053	-28.06091
1000.423	18.04181
1000.792	9.02235
1001.162	47.11015
1001.531	92.21632
1001.901	51.1213
1002.27	29.0606
1002.639	36.08794
1003.009	52.11792
1003.378	75.18405
1003.747	68.15188
1004.116	48.10973
1004.485	43.0984
1004.853	-19.04614
1005.222	-22.05294
1005.591	61.13763
1005.959	31.06725
1006.328	62.13332
1006.696	34.07839
1007.064	10.02408
1007.433	58.13765
1007.801	3.00699
1008.169	32.07697
1008.537	91.18974
1008.905	78.17408
1009.273	40.09409
1009.64	66.15246
1010.008	85.19193
1010.375	61.13864
1010.743	18.03854
1011.11	109.24914
1011.478	109.25794
1011.845	43.0961
1012.212	128.27537
1012.579	73.17141
1012.946	40.09001
1013.313	62.13928
1013.68	81.17107
1014.047	14.03213
1014.414	-2.00455
1014.78	64.15295
1015.147	32.0733
1015.513	81.18566
1015.88	50.12186
1016.246	46.10736
1016.612	20.04349
1016.978	99.23201
1017.344	60.14229
1017.71	77.17741
1018.076	48.10686
1018.442	71.17565
1018.808	80.19294
1019.174	2.00483
1019.539	24.05048
1019.905	57.12913
1020.27	62.14601
1020.636	35.07926
1021.001	80.18282
1021.366	70.16112
1021.731	92.22931
1022.096	62.15156
1022.461	55.1247
1022.826	49.1124
1023.191	38.09633
1023.556	61.13532
1023.92	33.07716
1024.285	30.06952
1024.649	15.03519
1025.014	9.02126
1025.378	97.2338
1025.742	37.08746
1026.107	67.14318
1026.471	71.15626
1026.835	66.1564
1027.199	60.13833
1027.562	47.10305
1027.926	106.24369
1028.29	41.09994
1028.654	104.22431
1029.017	51.1205
1029.381	89.20261
1029.744	39.09588
1030.107	117.26074
1030.471	68.15615
1030.834	38.08105
1031.197	89.2031
1031.56	58.12966
1031.923	61.1518
1032.286	75.16721
1032.648	28.06326
1033.011	111.24388
1033.374	51.11295
1033.736	23.05865
1034.099	39.09133
1034.461	27.06641
1034.823	33.07951
1035.185	16.0385
1035.548	96.22291
1035.91	79.1794
1036.272	115.24756
1036.634	54.12628
1036.995	39.08691
1037.357	56.13111
1037.719	63.1466
1038.08	89.20228
1038.442	46.10419
1038.803	-14.03197
1039.165	15.03637
1039.526	24.05584
1039.887	62.14128
1040.248	62.1489
1040.609	63.14695
1040.97	78.18083
1041.331	68.1661
1041.692	67.15191
1042.053	24.05194
1042.413	93.2033
1042.774	99.22883
1043.134	56.12529
1043.495	41.09901
1043.855	97.2259
1044.215	63.14851
1044.576	48.11071
1044.936	99.21248
1045.296	65.15501
1045.656	36.08379
1046.016	60.13728
1046.375	71.16411
1046.735	126.2734
1047.095	68.15145
1047.454	78.15334
1047.814	47.10825
1048.173	12.02715
1048.533	63.13714
1048.892	-8.01868
1049.251	83.19687
1049.61	52.12279
1049.969	57.1276
1050.328	14.02903
1050.687	23.05344
1051.046	44.10217
1051.405	39.09219
1051.763	70.1548
1052.122	27.06473
1052.48	50.11784
1052.839	103.23324
1053.197	71.15862
1053.555	65.1371
1053.914	56.13044
1054.272	-8.01826
1054.63	2.00474
1054.988	93.21163
1055.345	50.10038
1055.703	56.129
1056.061	73.18212
1056.419	80.20172
1056.776	9.02065
1057.134	11.02399
1057.491	30.07238
1057.848	39.09261
1058.206	-9.02008
1058.563	45.09399
1058.92	51.11135
1059.277	102.23853
1059.634	19.04224
1059.991	63.14429
1060.348	48.10384
1060.704	87.20181
1061.061	91.19539
1061.418	51.11854
1061.774	59.13935
1062.131	67.17312
1062.487	66.14571
1062.843	37.08857
1063.199	32.07662
1063.555	74.16447
1063.911	20.0484
1064.267	59.11393
1064.623	79.185
1064.979	12.02625
1065.335	29.0658
1065.691	59.13257
1066.046	69.14291
1066.402	2.00434
1066.757	43.10439
1067.112	20.04701
1067.468	115.25999
1067.823	-1.00227
1068.178	53.12153
1068.533	71.16385
1068.888	70.1581
1069.243	17.04046
1069.598	33.07637
1069.952	87.1897
1070.307	57.13588
1070.662	84.19204
1071.016	92.19767
1071.371	72.15623
1071.725	78.1753
1072.079	30.06944
1072.434	61.14217
1072.788	39.08752
1073.142	62.1459
1073.496	31.07029
1073.85	79.17306
1074.203	90.20749
1074.557	58.15052
1074.911	113.25203
1075.265	77.16946
1075.618	77.17918
1075.971	75.16921
1076.325	85.20797
1076.678	11.02419
1077.031	0
1077.385	65.13475
1077.738	30.06448
1078.091	57.1246
1078.444	50.10905
1078.796	71.16737
1079.149	21.05046
1079.502	22.05034
1079.855	54.12022
1080.207	58.13601
1080.56	17.04283
1080.912	39.09079
1081.264	63.14539
1081.617	87.20237
1081.969	62.15088
1082.321	72.16679
1082.673	50.11071
1083.025	59.13241
1083.377	64.14295
1083.728	57.12576
1084.08	60.14224
1084.432	49.11245
1084.783	11.02422
1085.135	45.10888
1085.486	34.07491
1085.838	71.1675
1086.189	89.20719
1086.54	35.07964
1086.891	107.26258
1087.242	133.31096
1087.593	50.1144
1087.944	88.19005
1088.295	105.2236
1088.646	141.32811
1088.996	0
1089.347	25.05859
1089.698	56.12792
1090.048	50.12404
1090.398	36.07915
1090.749	56.12648
1091.099	60.14661
1091.449	65.15554
1091.799	57.13661
1092.149	51.12106
1092.499	30.07035
1092.849	24.059
1093.199	19.04547
1093.548	69.15993
1093.898	51.12176
1094.248	16.03932
1094.597	49.12203
1094.947	22.05703
1095.296	58.13792
1095.645	45.11215
1095.994	78.17803
1096.343	86.20717
1096.692	60.15442
1097.041	26.06948
1097.39	45.10764
1097.739	39.09765
1098.088	71.18136
1098.437	54.13888
1098.785	25.06475
1099.134	51.12816
1099.482	81.21528
1099.83	79.19909
1100.179	74.18905
1100.527	26.06605
1100.875	53.13624
1101.223	64.16483
1101.571	-8.02151
1101.919	69.17749
1102.267	46.12688
1102.615	15.04811
1102.962	13.04164
1103.31	11.0353
1103.658	2.00641
