Data from N3 R2 sample 11_Subt2__0__10-19-39-378.txt Node

Date: Thu Sep 18 10:19:39 PDT 2025
User: uwsun
Spectrometer: HDX01956
Trigger mode: 0
Integration Time (sec): 5.000000E-1
Scans to average: 1
Nonlinearity correction enabled: true
Boxcar width: 0
Storing dark spectrum: false
XAxis mode: Wavelengths
Number of Pixels in Spectrum: 2068
>>>>>Begin Spectral Data<<<<<
194.03	30.08671
194.578	40.12945
195.127	39.12446
195.676	36.11534
196.225	50.13243
196.773	75.20717
197.321	81.22395
197.87	152.3879
198.418	151.38827
198.966	184.48108
199.513	157.39819
200.061	135.34349
200.609	157.4128
201.156	164.35782
201.704	152.38188
202.251	140.37202
202.798	107.27887
203.345	174.4288
203.892	162.40817
204.438	174.4104
204.985	164.38847
205.532	147.38599
206.078	151.36822
206.624	204.50698
207.17	207.48035
207.716	185.45095
208.262	187.36805
208.808	197.49092
209.354	184.45244
209.899	173.433
210.445	139.34841
210.99	185.44876
211.535	172.40395
212.08	157.3639
212.625	134.33521
213.17	171.43385
213.715	200.45298
214.259	193.44698
214.804	176.42861
215.348	187.42947
215.892	256.60917
216.436	167.37924
216.98	190.41296
217.524	194.45988
218.068	183.45852
218.612	201.50597
219.155	216.50351
219.698	150.35613
220.242	137.33756
220.785	202.46884
221.328	101.25079
221.871	211.53019
222.414	161.39538
222.956	101.24261
223.499	112.25037
224.041	189.42589
224.583	156.32635
225.126	175.37963
225.668	171.41137
226.21	136.3434
226.751	228.49745
227.293	130.29324
227.835	145.35372
228.376	149.33644
228.918	164.40431
229.459	144.35749
230	158.37686
230.541	167.38016
231.082	155.37486
231.622	118.26661
232.163	145.34751
232.704	161.39991
233.244	152.37445
233.784	188.44875
234.324	143.32079
234.864	135.30371
235.404	144.33674
235.944	121.28434
236.484	158.39109
237.023	146.34182
237.563	182.41791
238.102	173.40447
238.641	125.31309
239.18	167.3883
239.719	111.27783
240.258	193.42671
240.797	182.42927
241.335	161.38761
241.874	223.42484
242.412	207.49476
242.95	179.42784
243.488	143.31907
244.026	171.39399
244.564	167.34046
245.102	198.44206
245.64	147.3484
246.177	130.28784
246.715	195.46144
247.252	112.25419
247.789	224.40487
248.326	172.4104
248.863	190.41244
249.4	155.34871
249.936	234.47911
250.473	222.51485
251.009	173.39159
251.546	196.43162
252.082	121.26104
252.618	163.36159
253.154	166.39594
253.69	172.38147
254.226	201.4738
254.761	164.36479
255.297	177.38184
255.832	195.45716
256.367	175.40658
256.903	209.45687
257.438	184.42555
257.972	152.33627
258.507	176.39895
259.042	155.33496
259.576	224.48624
260.111	153.34872
260.645	218.46131
261.179	203.46808
261.713	188.41557
262.247	168.37958
262.781	204.42298
263.315	144.34715
263.849	186.45989
264.382	169.38425
264.915	202.47088
265.449	129.31422
265.982	216.48125
266.515	206.49716
267.048	251.51776
267.58	176.37504
268.113	208.44188
268.646	146.35503
269.178	171.37823
269.71	167.3666
270.243	235.533
270.775	240.60294
271.307	156.3678
271.838	190.44221
272.37	152.36989
272.902	186.41561
273.433	269.57931
273.965	201.4806
274.496	169.41456
275.027	186.45753
275.558	194.46732
276.089	182.44984
276.62	163.40709
277.15	185.44893
277.681	152.32503
278.211	154.3728
278.741	152.33613
279.272	152.34623
279.802	162.39953
280.332	153.3594
280.861	177.41837
281.391	189.42415
281.921	166.39305
282.45	183.44807
282.98	189.4863
283.509	218.48751
284.038	218.49013
284.567	247.56181
285.096	199.47618
285.625	169.37677
286.153	240.56165
286.682	186.42281
287.21	141.33431
287.739	171.40043
288.267	200.48049
288.795	204.52462
289.323	203.47014
289.851	197.45769
290.378	182.40113
290.906	209.50393
291.433	169.41778
291.961	247.55179
292.488	230.55906
293.015	208.4841
293.542	222.56153
294.069	243.58988
294.596	199.47927
295.122	247.57973
295.649	189.4086
296.175	256.60073
296.702	234.56153
297.228	186.44262
297.754	247.54312
298.28	272.60952
298.806	186.44364
299.332	155.34613
299.857	203.45556
300.383	184.45778
300.908	259.62234
301.433	247.59306
301.958	214.48291
302.483	153.3774
303.008	270.65504
303.533	197.50158
304.058	249.56704
304.582	240.55593
305.107	202.51875
305.631	225.50119
306.155	176.40721
306.679	236.54493
307.203	253.57452
307.727	229.53329
308.251	294.70414
308.775	270.64149
309.298	219.52023
309.822	218.539
310.345	276.6431
310.868	243.57502
311.391	269.64636
311.914	210.51922
312.437	280.62305
312.96	246.56824
313.482	180.41977
314.005	227.55682
314.527	231.58979
315.049	240.59643
315.571	275.60393
316.093	294.70763
316.615	228.53796
317.137	291.61618
317.659	317.74254
318.18	242.56545
318.702	288.65704
319.223	264.52535
319.744	304.66381
320.265	256.61127
320.786	302.73348
321.307	257.62152
321.828	282.61995
322.348	296.67719
322.869	305.70577
323.389	520.93812
323.909	255.57084
324.43	312.7221
324.95	270.60429
325.47	337.80725
325.989	300.69213
326.509	315.68419
327.029	369.80828
327.548	308.67738
328.067	306.72197
328.587	371.89375
329.106	315.68739
329.625	347.87088
330.144	331.7446
330.662	363.81959
331.181	354.80465
331.7	310.69923
332.218	391.80943
332.736	386.86457
333.255	343.78012
333.773	368.83409
334.291	406.9697
334.808	350.76069
335.326	342.7414
335.844	424.94849
336.361	449.09484
336.879	387.87305
337.396	448.03178
337.913	461.00268
338.43	379.81968
338.947	405.92408
339.464	399.82155
339.981	341.78185
340.497	400.94002
341.014	414.96228
341.53	415.891
342.046	434.02961
342.562	439.03649
343.078	483.06664
343.594	451.01243
344.11	507.13512
344.626	468.11468
345.141	498.06517
345.657	520.09455
346.172	497.12365
346.687	463.00021
347.202	546.15542
347.717	480.07567
348.232	521.2114
348.747	496.07278
349.261	514.05151
349.776	565.24179
350.29	513.20262
350.805	559.27941
351.319	558.19836
351.833	536.14659
352.347	511.12764
352.861	583.25938
353.374	524.10783
353.888	578.30519
354.401	499.06202
354.915	604.24936
355.428	574.32298
355.941	593.26735
356.454	563.15376
356.967	515.11988
357.48	539.13238
357.993	593.34155
358.505	553.24588
359.018	610.37082
359.53	638.42091
360.042	655.32627
360.554	651.45019
361.066	633.40424
361.578	674.34021
362.09	636.37783
362.602	659.32769
363.113	678.4408
363.625	679.3881
364.136	696.36667
364.647	697.48668
365.158	675.4173
365.669	704.50909
366.18	633.35645
366.691	705.37753
367.201	681.4726
367.712	699.4355
368.222	741.51707
368.733	748.43649
369.243	771.51879
369.753	756.54258
370.263	765.63961
370.773	699.52958
371.282	828.72935
371.792	783.59882
372.301	780.66424
372.811	790.84136
373.32	863.60565
373.829	855.74757
374.338	882.67964
374.847	839.68311
375.356	875.78042
375.865	991.76694
376.373	936.80592
376.882	1036.20332
377.39	1098.17806
377.898	1029.11707
378.407	1134.08002
378.915	1164.02986
379.423	1153.162
379.93	1288.33642
380.438	1261.39283
380.946	1363.42763
381.453	1393.5575
381.96	1523.69046
382.468	1576.69248
382.975	1725.99016
383.482	1572.52391
383.989	1695.1486
384.495	1833.89261
385.002	1901.5422
385.509	2045.13334
386.015	2202.56974
386.521	2249.02453
387.028	2403.06807
387.534	2410.79185
388.04	2506.39016
388.546	2605.96897
389.051	2759.96393
389.557	2881.22551
390.063	3011.07954
390.568	3222.42338
391.073	3302.93224
391.578	3366.49796
392.084	3516.01191
392.589	3668.65476
393.093	4134.09161
393.598	4481.63505
394.103	4820.68538
394.607	5239.53569
395.112	5481.5604
395.616	5868.28233
396.12	6286.74
396.624	7065.85551
397.128	7484.07167
397.632	8372.6086
398.136	9024.50329
398.639	9887.45087
399.143	11033.16899
399.646	12447.53163
400.15	13732.68248
400.653	15425.21625
401.156	17556.53188
401.659	20315.43011
402.162	25886.3223
402.664	37144.32918
403.167	60833.23572
403.67	63369.71814
404.172	63919.58413
404.674	63858.43483
405.176	63738.15102
405.678	63977.72923
406.18	64011.81569
406.682	63863.44694
407.184	63926.60148
407.686	63841.39382
408.187	64025.8516
408.688	61040.0866
409.19	46160.72635
409.691	38258.66954
410.192	32724.17068
410.693	28998.84712
411.194	27238.565
411.694	25518.55225
412.195	23145.40107
412.696	21602.87957
413.196	20633.94244
413.696	20759.26903
414.196	20595.13078
414.696	19741.04401
415.196	18421.8353
415.696	15561.9126
416.196	12078.48285
416.695	9887.4503
417.195	9198.88288
417.694	8839.06561
418.194	8040.95501
418.693	7753.96773
419.192	7606.01521
419.691	7363.85328
420.19	7154.98202
420.688	6961.08771
421.187	6561.11733
421.685	6066.91507
422.184	5402.31494
422.682	4660.18062
423.18	4049.84701
423.678	3652.96699
424.176	3470.01226
424.674	3320.89754
425.172	3108.25007
425.669	2878.50066
426.167	2709.17135
426.664	2461.01184
427.161	2230.99765
427.659	2097.1774
428.156	2044.60148
428.652	1851.17097
429.149	1786.95597
429.646	1703.56966
430.143	1630.76475
430.639	1552.647
431.135	1525.80912
431.632	1394.36712
432.128	1336.44944
432.624	1314.64703
433.12	1305.26206
433.616	1225.06477
434.111	1114.12496
434.607	1155.20178
435.103	1071.77789
435.598	1092.78856
436.093	1074.0179
436.588	1015.86013
437.083	920.71656
437.578	926.79172
438.073	868.86011
438.568	911.89654
439.062	780.42832
439.557	756.53491
440.051	715.40238
440.546	706.40394
441.04	709.49793
441.534	693.54701
442.028	731.54176
442.522	677.43836
443.015	601.14792
443.509	671.44725
444.002	702.51385
444.496	624.19971
444.989	596.30151
445.482	601.3398
445.975	659.34777
446.468	581.12628
446.961	643.23245
447.454	547.10878
447.947	560.21041
448.439	612.34719
448.931	585.20595
449.424	591.35923
449.916	589.2946
450.408	527.09496
450.9	502.11721
451.392	513.19418
451.884	532.10905
452.375	440.01091
452.867	519.05912
453.358	542.12342
453.849	545.04831
454.341	507.04255
454.832	490.96647
455.323	569.2825
455.814	438.92801
456.304	475.00866
456.795	443.93594
457.285	455.9221
457.776	439.92586
458.266	437.96204
458.756	402.88668
459.247	425.94543
459.737	442.992
460.226	461.96799
460.716	425.94465
461.206	416.92676
461.695	352.82144
462.185	410.90735
462.674	366.78598
463.163	441.91375
463.653	420.82762
464.142	374.85147
464.63	369.84026
465.119	392.85159
465.608	453.97927
466.096	348.71026
466.585	361.77441
467.073	319.7135
467.561	360.81232
468.05	315.68768
468.538	357.82115
469.026	322.72332
469.513	307.61391
470.001	305.66585
470.489	312.70431
470.976	392.85521
471.463	347.81534
471.951	323.76074
472.438	352.77771
472.925	314.7013
473.412	295.68155
473.899	320.6946
474.385	280.65499
474.872	269.60019
475.359	292.68466
475.845	282.55594
476.331	238.4873
476.817	269.62667
477.303	276.61288
477.789	241.55215
478.275	237.56667
478.761	219.50236
479.247	242.51881
479.732	266.63612
480.218	270.67853
480.703	225.5351
481.188	254.52713
481.673	264.58111
482.158	225.46934
482.643	240.59078
483.128	266.59411
483.612	277.63105
484.097	192.44968
484.581	215.4811
485.066	284.66435
485.55	225.48039
486.034	250.51998
486.518	276.63195
487.002	156.37094
487.486	177.41853
487.969	168.3984
488.453	189.45709
488.936	175.38417
489.42	172.3713
489.903	167.40556
490.386	134.2725
490.869	219.46373
491.352	127.30054
491.835	133.26769
492.318	133.29393
492.8	170.34366
493.283	160.39938
493.765	133.32045
494.247	219.49248
494.73	177.38184
495.212	128.29839
495.694	210.47949
496.175	141.33276
496.657	204.46823
497.139	151.25351
497.62	169.39698
498.102	165.40145
498.583	74.18049
499.064	103.22735
499.545	149.33287
500.026	167.36923
500.507	122.27677
500.988	158.38651
501.469	115.28252
501.949	142.34401
502.43	163.38423
502.91	202.41565
503.39	146.35476
503.87	156.36122
504.35	118.27215
504.83	132.28397
505.31	132.31279
505.79	80.18781
506.269	130.29348
506.749	99.224
507.228	101.2354
507.707	159.34728
508.187	168.39224
508.666	129.31469
509.145	170.38817
509.623	115.26581
510.102	170.40159
510.581	199.46635
511.059	108.26871
511.538	127.32234
512.016	143.33657
512.494	100.23788
512.972	120.28348
513.45	103.23789
513.928	99.23844
514.406	101.24528
514.884	118.30029
515.361	98.23241
515.839	168.37834
516.316	132.31593
516.793	131.32551
517.27	114.27077
517.747	148.3729
518.224	111.25279
518.701	130.28292
519.178	130.32049
519.654	127.29635
520.131	117.28616
520.607	90.21812
521.083	121.27043
521.56	103.24035
522.036	103.22211
522.512	186.44771
522.987	129.30633
523.463	95.22333
523.939	154.37504
524.414	123.27762
524.89	129.30338
525.365	93.20854
525.84	107.25458
526.315	127.30333
526.79	93.20828
527.265	172.38846
527.74	91.21917
528.215	100.2311
528.689	67.14659
529.164	59.12652
529.638	75.18908
530.112	29.06852
530.587	119.25154
531.061	101.24224
531.534	96.22942
532.008	128.30694
532.482	99.22564
532.956	83.21037
533.429	119.28769
533.903	105.22788
534.376	135.29374
534.849	113.25682
535.322	124.28861
535.795	72.17318
536.268	154.36577
536.741	70.16562
537.213	144.32522
537.686	105.25442
538.158	117.26311
538.631	111.26592
539.103	59.13333
539.575	43.08894
540.047	137.2939
540.519	142.33363
540.991	79.19171
541.463	84.2009
541.934	66.14894
542.406	108.25701
542.877	88.19753
543.348	102.24422
543.82	62.15054
544.291	140.32173
544.762	131.3076
545.233	122.30552
545.703	71.15783
546.174	134.30634
546.645	69.16669
547.115	110.26308
547.585	95.21714
548.056	138.3347
548.526	131.30712
548.996	154.36168
549.466	91.21992
549.935	136.32065
550.405	96.2099
550.875	109.25675
551.344	84.19951
551.814	121.27445
552.283	141.30353
552.752	134.31028
553.221	143.31154
553.69	143.31894
554.159	138.33909
554.628	127.28513
555.096	114.28744
555.565	96.21141
556.033	175.40915
556.502	125.29832
556.97	155.3394
557.438	108.25167
557.906	95.22307
558.374	152.34707
558.842	116.27541
559.31	125.27706
559.777	127.30703
560.245	60.13794
560.712	80.18289
561.18	96.21168
561.647	92.20328
562.114	129.29235
562.581	110.26839
563.048	152.34259
563.514	165.40655
563.981	84.19196
564.448	102.22924
564.914	90.20815
565.381	122.2761
565.847	122.28115
566.313	111.25534
566.779	98.21943
567.245	49.11389
567.711	103.24478
568.176	78.17487
568.642	127.31592
569.108	109.2656
569.573	98.22539
570.038	86.17951
570.504	118.26422
570.969	69.17064
571.434	124.27261
571.899	107.25164
572.363	174.39089
572.828	204.45658
573.293	150.33836
573.757	225.50638
574.222	152.33529
574.686	180.40519
575.15	179.42178
575.614	222.50893
576.078	186.42658
576.542	171.38202
577.006	193.42564
577.469	210.50222
577.933	220.48671
578.396	173.40177
578.86	226.51561
579.323	205.48116
579.786	255.53263
580.249	247.56226
580.712	200.47373
581.175	200.48031
581.637	204.45301
582.1	217.45889
582.563	234.48041
583.025	225.53099
583.487	262.51797
583.95	262.53936
584.412	298.59633
584.874	321.74514
585.336	254.58088
585.797	273.56946
586.259	273.61314
586.721	278.62552
587.182	294.64741
587.643	306.66252
588.105	285.64482
588.566	317.62656
589.027	383.88234
589.488	377.81256
589.949	434.98044
590.41	382.70498
590.87	463.9769
591.331	543.06904
591.791	502.06123
592.252	543.14531
592.712	572.23533
593.172	527.08717
593.632	653.27698
594.092	668.3042
594.552	720.34544
595.011	630.27878
595.471	807.55557
595.931	845.60634
596.39	841.71738
596.849	909.76338
597.308	947.63709
597.768	1047.22337
598.227	1099.11393
598.685	1133.0258
599.144	1211.21564
599.603	1234.22007
600.062	1376.0856
600.52	1444.35454
600.978	1481.53523
601.437	1622.538
601.895	1794.45644
602.353	1839.57165
602.811	1939.73812
603.269	2018.00838
603.727	2188.15013
604.184	2305.9523
604.642	2434.38356
605.099	2540.14216
605.557	2685.39305
606.014	2827.74045
606.471	3003.63202
606.928	3207.86346
607.385	3274.61563
607.842	3410.99985
608.299	3545.08283
608.755	3751.2621
609.212	3951.62062
609.668	4066.64009
610.125	4198.03517
610.581	4317.77167
611.037	4364.43279
611.493	4649.55668
611.949	4796.80432
612.405	5010.48658
612.861	4969.26781
613.316	5130.47976
613.772	5123.15542
614.227	5419.34728
614.683	5412.50125
615.138	5458.13921
615.593	5435.07628
616.048	5631.87948
616.503	5577.33254
616.958	5617.56141
617.412	5769.07552
617.867	5710.69801
618.321	5646.24107
618.776	5520.67925
619.23	5596.05496
619.684	5501.76745
620.138	5478.94574
620.592	5454.38508
621.046	5432.20217
621.5	5328.3906
621.954	5268.82235
622.407	5277.81762
622.861	5178.53972
623.314	5176.02627
623.768	5041.40828
624.221	4978.29032
624.674	4856.34929
625.127	4848.39747
625.58	4869.13822
626.033	4696.05957
626.485	4668.70811
626.938	4727.64243
627.39	4688.52894
627.843	4591.47876
628.295	4536.50937
628.747	4573.737
629.199	4517.431
629.651	4628.41768
630.103	4600.43627
630.555	4589.88425
631.006	4648.50187
631.458	4607.6123
631.909	4545.29619
632.361	4799.35848
632.812	4736.42029
633.263	4857.91514
633.714	4938.71171
634.165	4973.54175
634.616	5013.41232
635.067	5135.84926
635.518	5289.27894
635.968	5463.02932
636.419	5637.55077
636.869	5714.0525
637.319	5942.81392
637.769	6027.57774
638.219	6271.81016
638.669	6393.8284
639.119	6652.8219
639.569	6781.82723
640.019	7134.63434
640.468	7337.54958
640.918	7597.92247
641.367	7907.8965
641.816	8020.97696
642.265	8456.60295
642.714	8673.864
643.163	9041.5022
643.612	9240.95582
644.061	9384.23591
644.51	9895.53234
644.958	10036.02661
645.406	10317.75869
645.855	10477.2563
646.303	10668.10649
646.751	11151.10143
647.199	11305.93425
647.647	11644.44596
648.095	11574.21614
648.543	11779.19645
648.99	11984.99737
649.438	12029.55967
649.885	12269.28007
650.333	12303.81322
650.78	12452.65017
651.227	12459.57203
651.674	12525.6663
652.121	12410.25026
652.568	12546.09004
653.015	12484.62667
653.461	12266.6901
653.908	12362.59185
654.354	12123.85212
654.801	11950.00131
655.247	11929.53595
655.693	11753.23331
656.139	11708.59213
656.585	11589.98952
657.031	11435.33302
657.477	11358.41467
657.922	11272.76799
658.368	11019.25434
658.813	10936.26447
659.259	10782.36801
659.704	10729.24584
660.149	10363.00514
660.594	10357.9105
661.039	10170.38909
661.484	9962.68418
661.929	9895.50922
662.373	9751.08949
662.818	9665.88034
663.262	9577.66638
663.707	9480.48607
664.151	9477.43998
664.595	9436.34469
665.039	9235.96181
665.483	9192.92861
665.927	9223.87264
666.371	9090.61365
666.814	9124.68879
667.258	9290.03185
667.701	9287.0036
668.145	9184.87062
668.588	9008.55375
669.031	8976.40273
669.474	9023.5168
669.917	9069.51817
670.36	9086.70139
670.803	9140.74172
671.245	8981.3284
671.688	8954.42378
672.13	8956.31803
672.573	8920.45813
673.015	8992.47121
673.457	9055.48713
673.899	8916.34847
674.341	9034.54208
674.783	8912.32344
675.225	8850.28396
675.666	8975.47132
676.108	9024.42116
676.549	8836.14449
676.991	8817.03312
677.432	8877.11377
677.873	8707.90245
678.314	8611.85065
678.755	8491.807
679.196	8353.41001
679.637	8293.47912
680.078	8361.47891
680.518	8227.27414
680.959	8198.36268
681.399	8184.50251
681.839	8075.32576
682.28	8006.3799
682.72	7805.87616
683.16	7798.26679
683.6	7676.76675
684.039	7763.51629
684.479	7640.13255
684.919	7636.89047
685.358	7475.10979
685.798	7541.41106
686.237	7352.83112
686.676	7364.57538
687.115	7447.80389
687.554	7334.84671
687.993	7269.43981
688.432	7304.5923
688.871	7153.57371
689.309	7201.82534
689.748	7207.16672
690.186	7209.68291
690.625	7204.70912
691.063	7125.77643
691.501	7206.0052
691.939	7212.12423
692.377	7105.86674
692.815	7250.94646
693.253	7160.76469
693.69	7165.35116
694.128	7146.88127
694.565	7136.73401
695.003	7270.2256
695.44	7329.78259
695.877	7153.70239
696.314	7140.1767
696.751	7123.49498
697.188	7173.62614
697.625	7174.44534
698.061	7100.78622
698.498	7158.7185
698.934	7212.79253
699.371	7065.68301
699.807	7134.70743
700.243	7104.82989
700.679	7084.40128
701.115	7223.66148
701.551	7258.64873
701.987	7245.35794
702.422	7223.78842
702.858	7279.79771
703.294	7314.60746
703.729	7161.87891
704.164	7201.77715
704.599	7306.48176
705.035	7288.49332
705.47	7315.89926
705.904	7437.69585
706.339	7479.67421
706.774	7600.82582
707.209	7529.7641
707.643	7567.91006
708.078	7563.99054
708.512	7594.17324
708.946	7709.93376
709.38	7774.99147
709.814	7799.81054
710.248	7819.15425
710.682	8056.24841
711.116	8041.29463
711.549	7992.47421
711.983	8016.06305
712.416	8193.32864
712.85	8090.39827
713.283	8169.28287
713.716	8360.65187
714.149	8349.41818
714.582	8405.4179
715.015	8479.74685
715.448	8506.8764
715.881	8586.60597
716.313	8640.82935
716.746	8815.12582
717.178	8814.15563
717.61	8925.46577
718.043	9115.71455
718.475	9124.70514
718.907	9347.17541
719.339	9315.05369
719.77	9433.32908
720.202	9449.39175
720.634	9662.87117
721.065	9771.16842
721.497	9668.88601
721.928	9842.33106
722.359	10197.35787
722.79	10227.48755
723.221	10389.93842
723.652	10454.09818
724.083	10436.38359
724.514	10587.87019
724.945	10843.80055
725.375	10906.05801
725.806	10961.05641
726.236	11063.31388
726.666	11111.90455
727.096	11413.06547
727.526	11612.67853
727.956	11730.102
728.386	11692.41086
728.816	11867.98274
729.246	12156.82724
729.675	11898.52073
730.105	12143.85407
730.534	12321.33551
730.964	12417.27111
731.393	12684.10942
731.822	12812.46319
732.251	12970.58006
732.68	13092.54169
733.109	13160.21909
733.537	13249.9518
733.966	13508.57934
734.395	13568.10704
734.823	13706.86997
735.251	13815.53698
735.68	13888.75303
736.108	13794.80121
736.536	13949.02499
736.964	13864.47539
737.392	14245.48454
737.82	14195.81424
738.247	14344.13218
738.675	14451.32488
739.102	14181.97877
739.53	14552.60511
739.957	14409.25971
740.384	14491.27228
740.811	14648.10817
741.238	14893.5697
741.665	14546.11246
742.092	14438.59292
742.519	14698.55168
742.945	14534.43501
743.372	14573.41188
743.798	14745.45647
744.225	14638.91174
744.651	14480.51266
745.077	14659.15522
745.503	14391.34759
745.929	14608.17133
746.355	14528.4404
746.781	14240.75396
747.207	14283.62279
747.632	14184.03774
748.058	14251.37258
748.483	14266.03635
748.908	14096.28163
749.334	14203.3386
749.759	13996.12908
750.184	13952.59267
750.609	13799.1535
751.033	13684.96877
751.458	13705.78334
751.883	13710.3987
752.307	13518.51352
752.732	13163.80296
753.156	13137.12574
753.58	13301.87985
754.005	12939.55329
754.429	13080.15419
754.853	12757.40913
755.277	12760.95557
755.7	12554.17367
756.124	12546.10128
756.548	12332.30798
756.971	12315.90006
757.394	12178.69936
757.818	12044.87833
758.241	11876.1059
758.664	11746.49743
759.087	11676.94834
759.51	11488.40267
759.933	11486.49618
760.356	11273.15358
760.778	11076.56468
761.201	10885.86363
761.623	10645.99123
762.046	10595.87052
762.468	10472.33383
762.89	10344.84618
763.312	10359.8806
763.734	10158.26689
764.156	9929.56392
764.578	9891.56654
765	9735.05513
765.421	9547.6189
765.843	9448.43856
766.264	9159.73378
766.686	9005.51288
767.107	8823.16819
767.528	8940.50285
767.949	8816.27241
768.37	8544.84316
768.791	8338.47608
769.212	8154.50257
769.632	8116.17793
770.053	8024.5733
770.473	7853.0523
770.894	7682.03903
771.314	7565.77494
771.734	7416.65682
772.154	7225.11389
772.575	7233.52772
772.994	7088.40425
773.414	7016.64109
773.834	6877.93184
774.254	6763.80118
774.673	6645.85079
775.093	6533.99309
775.512	6388.96311
775.931	6298.18958
776.351	6270.07504
776.77	6106.01452
777.189	5933.82564
777.607	5780.45176
778.026	5798.24144
778.445	5618.50015
778.864	5420.55389
779.282	5365.09576
779.701	5352.51535
780.119	5308.64302
780.537	5043.61901
780.955	4944.79667
781.373	4971.59672
781.791	4961.00173
782.209	4653.08955
782.627	4633.35308
783.045	4565.19789
783.462	4453.16386
783.88	4452.29839
784.297	4331.10261
784.715	4246.36216
785.132	4101.85077
785.549	3964.20382
785.966	3952.26909
786.383	3892.16458
786.8	3842.71065
787.217	3751.9768
787.633	3592.41374
788.05	3669.77872
788.466	3493.84579
788.883	3507.59067
789.299	3400.0131
789.715	3308.23281
790.131	3280.36429
790.547	3227.37913
790.963	3187.34283
791.379	3107.50043
791.795	3028.76538
792.21	2925.94549
792.626	2813.02199
793.041	2811.30328
793.457	2786.27774
793.872	2728.9626
794.287	2715.21038
794.702	2580.16371
795.117	2552.34583
795.532	2513.40752
795.947	2437.00787
796.362	2357.90716
796.776	2371.81905
797.191	2287.14638
797.605	2174.94464
798.02	2167.03696
798.434	2167.62165
798.848	2133.16542
799.262	2074.09346
799.676	2084.00982
800.09	1945.96111
800.504	1888.83704
800.918	1907.62857
801.331	1756.99121
801.745	1799.54315
802.158	1677.77628
802.572	1726.73189
802.985	1637.6006
803.398	1681.61253
803.811	1532.69184
804.224	1516.58247
804.637	1552.52785
805.05	1434.27218
805.462	1417.45722
805.875	1355.61258
806.288	1350.36932
806.7	1275.34946
807.112	1357.1927
807.525	1265.25931
807.937	1219.27049
808.349	1219.27607
808.761	1226.2673
809.173	1123.08912
809.584	1111.09424
809.996	1054.00345
810.408	1097.25315
810.819	1027.87463
811.231	1108.34743
811.642	1099.11898
812.053	984.90411
812.464	917.72994
812.875	888.8703
813.286	915.94361
813.697	907.62847
814.108	836.6582
814.519	868.5539
814.929	827.73831
815.34	783.54752
815.75	799.71033
816.16	747.5335
816.571	740.62038
816.981	690.34467
817.391	714.42646
817.801	654.39578
818.211	668.33937
818.62	658.35332
819.03	649.35066
819.44	594.325
819.849	617.32326
820.259	573.26308
820.668	564.21231
821.077	590.28404
821.486	563.15428
821.895	520.10607
822.304	532.24503
822.713	526.07562
823.122	475.04807
823.531	468.96167
823.939	448.97736
824.348	452.96896
824.756	436.9713
825.164	447.9993
825.573	447.00179
825.981	433.95364
826.389	455.01516
826.797	495.11866
827.205	393.81357
827.612	357.79452
828.02	337.71295
828.428	358.82986
828.835	369.89531
829.243	333.71466
829.65	304.70136
830.057	295.65302
830.464	379.84592
830.871	389.84094
831.278	337.74131
831.685	338.67512
832.092	326.71968
832.499	267.5369
832.905	240.56165
833.312	251.51497
833.718	302.6973
834.124	290.60667
834.531	236.54796
834.937	254.60905
835.343	230.51031
835.749	235.49891
836.155	268.65287
836.561	285.64639
836.966	224.50754
837.372	244.57481
837.777	202.47366
838.183	268.54052
838.588	241.56057
838.993	268.60228
839.399	185.42692
839.804	172.39558
840.209	217.5244
840.613	189.39004
841.018	168.39917
841.423	177.42903
841.828	196.46838
842.232	186.42401
842.637	193.43063
843.041	143.35027
843.445	170.39863
843.849	166.3894
844.253	196.43307
844.657	142.34181
845.061	257.54609
845.465	138.31561
845.869	181.39298
846.272	133.30888
846.676	105.237
847.079	158.38377
847.483	139.32753
847.886	180.40636
848.289	142.36646
848.692	125.29889
849.095	134.30288
849.498	155.36538
849.901	134.28679
850.304	163.3655
850.707	117.28318
851.109	153.36388
851.512	171.39666
851.914	90.2191
852.316	163.39436
852.718	171.42938
853.121	113.26368
853.523	108.23764
853.925	120.30246
854.326	113.27133
854.728	93.23016
855.13	137.33992
855.531	106.24165
855.933	141.31591
856.334	122.292
856.736	145.30838
857.137	172.3783
857.538	102.24701
857.939	167.39504
858.34	111.25412
858.741	88.21998
859.142	116.26273
859.542	106.27004
859.943	128.30167
860.343	75.17954
860.744	101.23466
861.144	147.34207
861.544	95.22116
861.945	79.19293
862.345	76.17696
862.745	123.29287
863.145	70.15674
863.544	112.27082
863.944	122.27261
864.344	89.20825
864.743	118.27767
865.143	122.30155
865.542	54.11832
865.941	152.35684
866.34	75.16928
866.74	109.28076
867.139	129.29687
867.537	75.18125
867.936	105.24154
868.335	75.18269
868.734	95.23287
869.132	79.17255
869.531	126.28457
869.929	97.21106
870.327	67.15382
870.726	73.17248
871.124	82.18096
871.522	68.16585
871.92	74.17488
872.318	65.15114
872.715	82.19093
873.113	46.10719
873.511	79.18775
873.908	87.21421
874.306	111.26532
874.703	83.19657
875.1	54.13102
875.497	72.16434
875.894	82.19611
876.291	83.1952
876.688	55.13702
877.085	89.20187
877.482	67.16088
877.878	117.27119
878.275	78.19067
878.671	84.17137
879.068	93.21368
879.464	66.15271
879.86	86.19376
880.256	53.12353
880.652	63.15403
881.048	55.12945
881.444	104.23114
881.84	50.12227
882.236	101.24187
882.631	119.27888
883.027	91.20892
883.422	68.16592
883.817	47.11487
884.213	66.16295
884.608	80.19221
885.003	10.02313
885.398	52.12546
885.793	55.13217
886.188	53.12649
886.582	60.14656
886.977	61.13752
887.371	21.05104
887.766	73.17522
888.16	36.08508
888.554	98.22899
888.949	108.258
889.343	82.1901
889.737	43.11215
890.131	53.12799
890.525	69.17083
890.918	68.16406
891.312	63.14261
891.706	51.12885
892.099	80.19432
892.492	97.19595
892.886	43.10097
893.279	47.11513
893.672	65.16028
894.065	55.13262
894.458	46.11022
894.851	80.18576
895.244	66.16188
895.637	84.19374
896.029	43.10192
896.422	62.14322
896.814	47.11204
897.206	69.15955
897.599	77.18187
897.991	79.18376
898.383	87.19621
898.775	136.2922
899.167	108.24262
899.559	33.0799
899.951	67.14931
900.342	71.17139
900.734	73.17815
901.125	44.11071
901.517	62.1463
901.908	49.11087
902.299	45.10624
902.69	79.17955
903.082	80.18495
903.473	109.25204
903.863	21.05157
904.254	88.1968
904.645	58.13654
905.036	97.22857
905.426	97.20675
905.817	44.1031
906.207	22.04995
906.597	111.24859
906.987	54.13362
907.378	70.17092
907.768	68.17379
908.158	49.11448
908.547	64.16155
908.937	22.05394
909.327	81.18723
909.717	42.10099
910.106	82.18678
910.495	49.11618
910.885	77.18742
911.274	44.10571
911.663	45.10896
912.052	63.14707
912.441	107.26161
912.83	71.15396
913.219	85.21237
913.608	122.2844
913.997	65.15809
914.385	57.13044
914.774	67.15573
915.162	69.15917
915.55	68.15596
915.939	64.15651
916.327	44.10479
916.715	58.14462
917.103	39.09065
917.491	96.22529
917.878	85.19881
918.266	16.04007
918.654	98.24125
919.041	65.16568
919.429	49.11083
919.816	42.10248
920.203	121.2809
920.591	78.18541
920.978	70.16395
921.365	55.1398
921.752	18.0407
922.139	118.24062
922.525	66.15234
922.912	107.24663
923.299	46.11022
923.685	17.04261
924.072	40.08602
924.458	108.25572
924.844	65.1543
925.231	38.084
925.617	63.15586
926.003	39.09585
926.389	38.09241
926.774	37.09009
927.16	85.20107
927.546	79.19673
927.931	25.05983
928.317	48.10491
928.702	116.25792
929.088	84.19389
929.473	101.2474
929.858	55.13016
930.243	74.17162
930.628	86.2019
931.013	55.13116
931.398	111.23628
931.783	26.06556
932.167	93.21914
932.552	68.16269
932.937	35.08315
933.321	101.24381
933.705	16.03857
934.09	33.07867
934.474	99.22053
934.858	62.15516
935.242	45.09954
935.626	45.11174
936.009	74.19151
936.393	118.28995
936.777	105.25824
937.16	85.2139
937.544	70.15441
937.927	62.15212
938.311	67.15517
938.694	77.19634
939.077	47.10795
939.46	55.12637
939.843	42.08116
940.226	37.0911
940.609	109.23969
940.991	20.04894
941.374	81.19035
941.757	26.06161
942.139	67.14392
942.522	74.16542
942.904	78.17889
943.286	28.06847
943.668	127.31649
944.05	88.20692
944.432	59.13897
944.814	59.13773
945.196	55.1298
945.578	80.18473
945.959	20.04462
946.341	85.19467
946.722	57.12703
947.104	67.15308
947.485	61.1356
947.866	90.21861
948.247	112.27174
948.628	4.00924
949.009	11.02733
949.39	57.13515
949.771	-16.03515
950.152	71.16691
950.532	55.13392
950.913	108.2464
951.293	45.11884
951.674	64.14808
952.054	104.25034
952.434	76.18079
952.814	63.14133
953.194	51.12682
953.574	86.2008
953.954	30.0677
954.334	94.22567
954.714	50.11766
955.093	100.23358
955.473	85.20558
955.853	47.11743
956.232	38.10081
956.611	26.05915
956.99	28.06829
957.37	55.13377
957.749	3.0068
958.128	56.13653
958.506	50.12535
958.885	47.11367
959.264	51.12176
959.643	90.19553
960.021	61.14614
960.4	15.03265
960.778	41.09548
961.156	39.09375
961.535	22.04875
961.913	109.24271
962.291	76.18964
962.669	55.13477
963.047	77.18945
963.424	52.12966
963.802	55.13011
964.18	19.04566
964.557	47.10287
964.935	85.19115
965.312	33.08367
965.69	25.0598
966.067	22.051
966.444	-5.0117
966.821	52.12928
967.198	69.15771
967.575	76.17696
967.952	86.19177
968.329	116.26924
968.705	137.27625
969.082	48.12047
969.458	44.10294
969.835	69.16044
970.211	80.19904
970.587	88.2095
970.963	32.07851
971.339	36.09139
971.715	64.15353
972.091	41.09695
972.467	36.08508
972.843	107.25575
973.219	70.15848
973.594	52.13121
973.97	45.09962
974.345	74.16979
974.721	44.10051
975.096	75.1748
975.471	117.26074
975.846	3.00691
976.221	38.09324
976.596	65.15174
976.971	87.20644
977.346	34.07519
977.72	38.09282
978.095	33.08233
978.469	66.14955
978.844	39.09375
979.218	93.21556
979.593	57.12986
979.967	8.01845
980.341	89.1953
980.715	101.24307
981.089	65.15572
981.463	96.20857
981.837	70.16575
982.21	27.05852
982.584	111.25524
982.957	22.05346
983.331	11.02466
983.704	80.19023
984.078	40.0946
984.451	29.06826
984.824	37.08732
985.197	17.03915
985.57	41.09721
985.943	-21.04943
986.316	19.04421
986.688	84.19227
987.061	88.19656
987.434	58.1476
987.806	29.06658
988.179	17.03845
988.551	39.09482
988.923	41.09639
989.295	62.14749
989.667	80.18517
990.039	91.21826
990.411	-28.06148
990.783	46.09964
991.155	20.04659
991.527	43.09947
991.898	50.12036
992.27	87.20747
992.641	26.06247
993.012	39.0854
993.384	36.08194
993.755	48.11856
994.126	84.1942
994.497	35.0827
994.868	35.07596
995.239	33.07661
995.61	54.13068
995.98	33.07694
996.351	51.12223
996.722	65.14557
997.092	47.10725
997.462	48.10881
997.833	90.20028
998.203	54.1232
998.573	41.09867
998.943	84.18824
999.313	87.19957
999.683	30.06952
1000.053	38.0815
1000.423	42.0971
1000.792	6.01491
1001.162	19.04477
1001.531	110.25774
1001.901	38.0906
1002.27	61.12657
1002.639	50.12182
1003.009	47.10669
1003.378	43.10615
1003.747	65.14527
1004.116	41.09386
1004.485	41.09386
1004.853	33.07936
1005.222	12.02869
1005.591	24.05456
1005.959	66.14211
1006.328	85.18188
1006.696	64.14667
1007.064	-4.00966
1007.433	28.06684
1007.801	36.08329
1008.169	41.09845
1008.537	91.18974
1008.905	83.18504
1009.273	78.18212
1009.64	71.16385
1010.008	82.18527
1010.375	45.10261
1010.743	86.18143
1011.11	137.31137
1011.478	102.24171
1011.845	81.17961
1012.212	59.12881
1012.579	55.1296
1012.946	43.0967
1013.313	31.07009
1013.68	86.18143
1014.047	33.07546
1014.414	0
1014.78	78.1859
1015.147	40.09148
1015.513	89.20367
1015.88	75.18194
1016.246	55.12814
1016.612	63.13574
1016.978	84.19744
1017.344	66.15634
1017.71	47.10894
1018.076	35.07813
1018.442	55.13647
1018.808	80.19294
1019.174	35.08395
1019.539	38.07967
1019.905	83.18703
1020.27	41.09695
1020.636	96.21469
1021.001	45.10356
1021.366	54.12469
1021.731	86.21459
1022.096	55.13462
1022.461	89.20039
1022.826	95.21591
1023.191	69.17395
1023.556	68.15063
1023.92	23.05388
1024.285	21.04875
1024.649	45.10497
1025.014	27.06355
1025.378	83.20059
1025.742	28.0663
1026.107	62.13264
1026.471	80.17573
1026.835	74.17508
1027.199	-3.007
1027.562	48.10522
1027.926	61.1415
1028.29	93.2245
1028.654	50.10909
1029.017	74.17407
1029.381	83.18918
1029.744	36.08856
1030.107	52.11744
1030.471	95.21696
1030.834	3.00645
1031.197	95.21653
1031.56	32.07192
1031.923	59.14687
1032.286	100.22179
1032.648	56.12581
1033.011	102.22453
1033.374	80.1761
1033.736	12.03066
1034.099	55.12839
1034.461	63.15392
1034.823	60.14383
1035.185	54.129
1035.548	88.20466
1035.91	69.15701
1036.272	72.15643
1036.634	75.17467
1036.995	88.19412
1037.357	77.17954
1037.719	66.15349
1038.08	165.36922
1038.442	13.02964
1038.803	31.07014
1039.165	51.12283
1039.526	54.12489
1039.887	35.08019
1040.248	69.16549
1040.609	42.09837
1040.97	11.02584
1041.331	82.19978
1041.692	83.18757
1042.053	54.11612
1042.413	37.08184
1042.774	102.23562
1043.134	85.18903
1043.495	88.21062
1043.855	62.14539
1044.215	60.14152
1044.576	41.09469
1044.936	83.17875
1045.296	65.15501
1045.656	63.14585
1046.016	78.17782
1046.375	32.07454
1046.735	87.19034
1047.095	29.06511
1047.454	16.03191
1047.814	90.2055
1048.173	50.11223
1048.533	28.0614
1048.892	39.09022
1049.251	54.1288
1049.61	47.1111
1049.969	47.10543
1050.328	68.13929
1050.687	31.07191
1051.046	36.08372
1051.405	39.09219
1051.763	54.11982
1052.122	22.0528
1052.48	69.16202
1052.839	93.21103
1053.197	44.09885
1053.555	27.05742
1053.914	56.13044
1054.272	51.11502
1054.63	43.10113
1054.988	79.18028
1055.345	46.09244
1055.703	34.07867
1056.061	69.17227
1056.419	69.17432
1056.776	11.02522
1057.134	28.06083
1057.491	44.10587
1057.848	27.06427
1058.206	-21.04697
1058.563	34.07119
1058.92	88.19062
1059.277	67.15776
1059.634	73.16046
1059.991	99.2251
1060.348	36.07808
1060.704	107.24722
1061.061	49.10616
1061.418	53.12314
1061.774	62.14635
1062.131	65.16801
1062.487	41.09099
1062.843	30.07191
1063.199	55.13111
1063.555	88.19501
1063.911	22.05322
1064.267	110.20982
1064.623	80.1873
1064.979	-14.03079
1065.335	59.13306
1065.691	9.02043
1066.046	22.04604
1066.402	68.14535
1066.757	64.15476
1067.112	78.18126
1067.468	46.10546
1067.823	2.00453
1068.178	22.05076
1068.533	104.23843
1068.888	63.14249
1069.243	56.13229
1069.598	48.11075
1069.952	18.03982
1070.307	83.19687
1070.662	69.15822
1071.016	87.18712
1071.371	70.15195
1071.725	36.08161
1072.079	51.11756
1072.434	49.11448
1072.788	37.08307
1073.142	63.14822
1073.496	54.12186
1073.85	64.14064
1074.203	64.14831
1074.557	82.21192
1074.911	60.13529
1075.265	55.1216
1075.618	105.24299
1075.971	48.1089
1076.325	64.1572
1076.678	55.11982
1077.031	31.06544
1077.385	78.16122
1077.738	65.13866
1078.091	22.04845
1078.444	86.18613
1078.796	51.12069
1079.149	114.2691
1079.502	9.02065
1079.855	68.15094
1080.207	52.12208
1080.56	46.11528
1080.912	48.11154
1081.264	52.12027
1081.617	50.11716
1081.969	69.1677
1082.321	44.10249
1082.673	80.17603
1083.025	32.07221
1083.377	87.1934
1083.728	61.13448
1084.08	17.04063
1084.432	84.19142
1084.783	27.05925
1085.135	37.08965
1085.486	57.12497
1085.838	49.11609
1086.189	90.20947
1086.54	63.14255
1086.891	47.11662
1087.242	110.25834
1087.593	66.15052
1087.944	117.25111
1088.295	59.1269
1088.646	98.22998
1088.996	75.17322
1089.347	44.10273
1089.698	43.09848
1090.048	53.13141
1090.398	62.13556
1090.749	40.09064
1091.099	86.20913
1091.449	56.13424
1091.799	81.19324
1092.149	40.09515
1092.499	72.16745
1092.849	54.132
1093.199	46.10951
1093.548	128.29321
1093.898	30.07191
1094.248	88.21335
1094.597	38.09482
1094.947	79.20278
1095.296	81.19176
1095.645	57.14174
1095.994	54.12385
1096.343	98.23554
1096.692	50.12891
1097.041	65.17258
1097.39	37.08864
1097.739	79.19638
1098.088	44.11292
1098.437	65.16685
1098.785	51.13151
1099.134	33.08319
1099.482	50.13358
1099.83	60.15172
1100.179	88.22427
1100.527	33.08373
1100.875	32.08256
1101.223	50.12908
1101.571	16.04286
1101.919	72.18511
1102.267	68.18691
1102.615	6.01926
1102.962	-3.00963
1103.31	9.02889
1103.658	3.00961
