Data from N3 R2 sample 1_Subt2__3__10-11-35-393.txt Node

Date: Thu Sep 18 10:11:35 PDT 2025
User: uwsun
Spectrometer: HDX01956
Trigger mode: 0
Integration Time (sec): 5.000000E-1
Scans to average: 1
Nonlinearity correction enabled: true
Boxcar width: 0
Storing dark spectrum: false
XAxis mode: Wavelengths
Number of Pixels in Spectrum: 2068
>>>>>Begin Spectral Data<<<<<
194.03	73.20967
194.578	89.28638
195.127	94.29798
195.676	92.29278
196.225	100.26263
196.773	100.27513
197.321	148.40486
197.87	220.55469
198.418	257.64853
198.966	316.80746
199.513	305.75309
200.061	243.60641
200.609	276.71097
201.156	266.5678
201.704	260.64047
202.251	227.5944
202.798	234.59651
203.345	272.65816
203.892	291.71616
204.438	238.55435
204.985	270.6264
205.532	279.71607
206.078	262.6256
206.624	350.84652
207.17	371.83286
207.716	283.67715
208.262	332.63113
208.808	286.70113
209.354	277.66937
209.899	267.65686
210.445	260.6374
210.99	290.68953
211.535	297.68043
212.08	272.61603
212.625	296.71864
213.17	290.72013
213.715	305.676
214.259	279.6351
214.804	257.61636
215.348	346.76925
215.892	300.70781
216.436	225.50493
216.98	262.56072
217.524	259.60623
218.068	268.66114
218.612	287.71126
219.155	254.58765
219.698	261.60636
220.242	259.62375
220.785	285.65059
221.328	257.61988
221.871	275.68302
222.414	247.59689
222.956	208.48944
223.499	224.48914
224.041	218.48832
224.583	210.43406
225.126	228.48901
225.668	276.65069
226.21	242.59943
226.751	284.61227
227.293	261.57294
227.835	264.62965
228.376	253.55912
228.918	217.52973
229.459	198.48668
230	271.63233
230.541	252.56377
231.082	246.5847
231.622	180.40154
232.163	229.54001
232.704	273.66418
233.244	255.61622
233.784	211.50143
234.324	258.56505
234.864	236.51992
235.404	253.57894
235.944	234.53773
236.484	291.70266
237.023	225.5186
237.563	256.57909
238.102	261.59965
238.641	194.47984
239.18	268.61068
239.719	255.62155
240.258	312.67262
240.797	293.67612
241.335	241.57139
241.874	308.57467
242.412	287.67544
242.95	263.61848
243.488	262.57017
244.026	305.68388
244.564	242.48494
245.102	292.63923
245.64	253.58731
246.177	240.51919
246.715	308.71285
247.252	257.56606
247.789	353.61706
248.326	295.68723
248.863	291.61806
249.4	314.68332
249.936	331.66283
250.473	282.6462
251.009	253.56333
251.546	297.64015
252.082	240.50452
252.618	282.61004
253.154	285.6642
253.69	286.61922
254.226	296.68481
254.761	220.48366
255.297	250.53087
255.832	256.59298
256.367	263.60037
256.903	298.63914
257.438	295.66717
257.972	243.52737
258.507	281.62333
259.042	292.61248
259.576	345.72955
260.111	259.57764
260.645	309.64083
261.179	245.56019
261.713	250.54545
262.247	270.59731
262.781	362.72407
263.315	251.5928
263.849	301.72845
264.382	349.76448
264.915	251.57944
265.449	282.66716
265.982	333.7239
266.515	299.70887
267.048	254.52359
267.58	268.55966
268.113	276.57764
268.646	272.64574
269.178	266.57666
269.71	289.6181
270.243	331.73606
270.775	347.85487
271.307	263.60714
271.838	320.72561
272.37	295.69858
272.902	321.69722
273.433	361.76204
273.965	309.72352
274.496	265.63844
275.027	306.73594
275.558	330.77435
276.089	312.75265
276.62	269.65885
277.15	258.61746
277.681	296.61319
278.211	304.71502
278.741	339.72032
279.272	316.69585
279.802	304.73003
280.332	309.70366
280.861	303.69863
281.391	330.71905
281.921	303.69836
282.45	300.71851
282.98	309.77833
283.509	370.80141
284.038	337.73913
284.567	343.76495
285.096	296.69512
285.625	296.64251
286.153	342.7843
286.682	334.73641
287.21	274.63291
287.739	344.77812
288.267	347.81025
288.795	297.75132
289.323	315.71326
289.851	317.71896
290.378	306.65686
290.906	331.77957
291.433	347.82962
291.961	384.8335
292.488	360.85362
293.015	347.78538
293.542	354.8742
294.069	403.94872
294.596	335.78592
295.122	373.85383
295.649	344.71899
296.175	309.71757
296.702	402.93366
297.228	324.75047
297.754	375.80235
298.28	387.84663
298.806	367.84482
299.332	374.79727
299.857	325.71101
300.383	352.84879
300.908	376.88329
301.433	381.89137
301.958	356.77997
302.483	304.72892
303.008	410.96839
303.533	380.93597
304.058	370.82191
304.582	354.80139
305.107	347.86838
305.631	385.82909
306.155	409.9023
306.679	402.89743
307.203	380.84062
307.727	380.85848
308.251	381.8973
308.775	446.02145
309.298	364.84042
309.822	397.94912
310.345	427.96522
310.868	419.95755
311.391	418.97579
311.914	389.93
312.437	469.00065
312.96	424.94458
313.482	393.87789
314.005	392.93198
314.527	365.90978
315.049	500.181
315.571	462.97458
316.093	472.09536
316.615	424.96215
317.137	426.87537
317.659	436.99739
318.18	387.87839
318.702	504.09755
319.223	407.78296
319.744	490.02587
320.265	478.09049
320.786	513.19418
321.307	487.12422
321.828	527.0969
322.348	508.11048
322.869	494.09802
323.389	752.27543
323.909	434.93559
324.43	521.15358
324.95	513.08856
325.47	587.33658
325.989	564.2305
326.509	556.14376
327.029	517.09515
327.548	537.12222
328.067	570.2735
328.587	610.40046
329.106	559.15485
329.625	572.3747
330.144	559.19665
330.662	584.25697
331.181	569.23487
331.7	543.16435
332.218	594.17211
332.736	642.36007
333.255	619.32698
333.773	587.26912
334.291	679.53443
334.808	667.34999
335.326	648.31118
335.844	714.49961
336.361	753.73277
336.879	699.4742
337.396	685.50396
337.913	674.40058
338.43	688.38779
338.947	740.57201
339.464	724.3803
339.981	647.39006
340.497	760.65792
341.014	754.63233
341.53	746.48566
342.046	814.79074
342.562	761.68563
343.078	807.66277
343.594	788.64792
344.11	835.74437
344.626	828.83675
345.141	856.69081
345.657	824.61992
346.172	834.75726
346.687	889.74747
347.202	935.81217
347.717	890.82779
348.232	868.88086
348.747	864.72337
349.261	884.65903
349.776	932.89179
350.29	961.05467
350.805	908.93333
351.319	906.80139
351.833	920.80637
352.347	942.89301
352.861	951.89403
353.374	889.73109
353.888	1023.10001
354.401	983.87458
354.915	1004.89299
355.428	1039.17203
355.941	1022.98339
356.454	1010.86347
356.967	973.91191
357.48	971.84808
357.993	1075.19309
358.505	1007.05786
359.018	1074.18365
359.53	1116.23945
360.042	1075.97034
360.554	1133.27206
361.066	1075.16544
361.578	1150.03581
362.09	1139.2036
362.602	1142.0477
363.113	1126.16031
363.625	1142.0916
364.136	1195.07381
364.647	1132.18743
365.158	1174.19558
365.669	1167.25254
366.18	1134.16841
366.691	1174.04202
367.201	1267.39844
367.712	1285.294
368.222	1272.29451
368.733	1297.16678
369.243	1418.37598
369.753	1280.30432
370.263	1376.56324
370.773	1297.4815
371.282	1354.50111
371.792	1391.45366
372.301	1386.57181
372.811	1468.9643
373.32	1506.3656
373.829	1469.59059
374.338	1528.46367
374.847	1615.67135
375.356	1605.73292
375.865	1746.52782
376.373	1786.76417
376.882	1813.21644
377.39	1816.01502
377.898	1938.19375
378.407	2020.91604
378.915	2102.80806
379.423	2099.05864
379.93	2348.17722
380.438	2337.33067
380.946	2500.23015
381.453	2507.39263
381.96	2665.40922
382.468	2902.35194
382.975	3005.60236
383.482	3073.06656
383.989	3124.91944
384.495	3337.27149
385.002	3491.60976
385.509	3753.30061
386.015	3930.27904
386.521	4113.8223
387.028	4266.72892
387.534	4352.29687
388.04	4571.97399
388.546	4608.34873
389.051	4997.10571
389.557	5282.27103
390.063	5450.00859
390.568	5710.30125
391.073	5983.65865
391.578	6232.1836
392.084	6530.65283
392.589	6915.38201
393.093	7532.01988
393.598	8097.21933
394.103	8776.13178
394.607	9552.61139
395.112	10154.17751
395.616	10809.40976
396.12	11709.74314
396.624	12995.20362
397.128	14005.50069
397.632	15428.80581
398.136	16714.1081
398.639	18711.45114
399.143	21493.81301
399.646	23667.66137
400.15	25873.14356
400.653	29620.96861
401.156	33518.23014
401.659	38809.2601
402.162	50871.78815
402.664	60671.98804
403.167	63977.72923
403.67	63769.22307
404.172	63919.58413
404.674	63858.43483
405.176	63738.15102
405.678	63977.72923
406.18	64011.81569
406.682	63863.44694
407.184	63926.60148
407.686	63841.39382
408.187	64025.8516
408.688	63892.51763
409.19	63833.37461
409.691	63977.72923
410.192	55435.32231
410.693	50000.37642
411.194	47036.53196
411.694	43899.64553
412.195	40399.55893
412.696	37811.58914
413.196	37149.70666
413.696	37389.98946
414.196	36839.63899
414.696	35370.4429
415.196	31701.16297
415.696	25684.46716
416.196	19738.50124
416.695	17248.89753
417.195	16380.43881
417.694	15609.77488
418.194	14287.70537
418.693	13805.56484
419.192	13425.24912
419.691	13124.23019
420.19	12828.87423
420.688	12307.48669
421.187	11435.04045
421.685	10515.45373
422.184	9335.1232
422.682	8031.99022
423.18	7171.70392
423.678	6485.66008
424.176	6098.74647
424.674	5793.70039
425.172	5352.27115
425.669	4881.84457
426.167	4527.6419
426.664	4175.67568
427.161	3915.88501
427.659	3614.36084
428.156	3537.57783
428.652	3281.69935
429.149	3250.4486
429.646	3009.96706
430.143	2872.38107
430.639	2691.29481
431.135	2522.55352
431.632	2407.04472
432.128	2318.25556
432.624	2283.61377
433.12	2202.9608
433.616	2179.77797
434.111	2118.099
434.607	2017.07187
435.103	1880.45877
435.598	1848.41915
436.093	1759.76662
436.588	1707.6001
437.083	1530.43388
437.578	1582.59138
438.073	1486.76342
438.568	1434.64155
439.062	1438.20752
439.557	1298.31316
440.051	1283.18405
440.546	1291.2224
441.04	1241.31841
441.534	1190.38382
442.028	1223.30261
442.522	1153.1969
443.015	1133.89053
443.509	1145.21944
444.002	1128.21075
444.496	1075.84632
444.989	1176.25431
445.482	1053.12782
445.975	1099.02519
446.468	1055.81764
446.961	1042.80803
447.454	1030.86074
447.947	977.92518
448.439	1021.0546
448.931	1031.91508
449.424	1039.1749
449.916	964.95325
450.408	964.81034
450.9	930.88772
451.392	882.90472
451.884	879.69295
452.375	851.79585
452.867	884.65659
453.358	864.66362
453.849	865.5378
454.341	841.60105
454.832	816.48537
455.323	886.86853
455.814	849.63587
456.304	823.61682
456.795	789.53901
457.285	788.4742
457.776	838.61117
458.266	742.52699
458.756	691.42989
459.247	784.61208
459.737	779.62513
460.226	825.59184
460.716	751.5542
461.206	685.43895
461.695	622.37209
462.185	704.4604
462.674	689.37485
463.163	689.34686
463.653	712.30553
464.142	641.37834
464.63	600.3003
465.119	620.27964
465.608	670.37927
466.096	607.16444
466.585	633.2764
467.073	582.22904
467.561	615.31329
468.05	558.15355
468.538	589.28973
469.026	544.16424
469.513	554.04289
470.001	571.1744
470.489	565.20742
470.976	607.26202
471.463	518.17429
471.951	551.23783
472.438	555.17219
472.925	522.11371
473.412	460.0257
473.899	530.09704
474.385	518.15288
474.872	473.00877
475.359	471.06347
475.845	440.83524
476.331	393.77642
476.817	454.01689
477.303	424.91247
477.789	391.86873
478.275	462.05477
478.761	414.91238
479.247	377.78464
479.732	380.88885
480.218	435.05828
480.703	383.88305
481.188	418.83569
481.673	385.82588
482.158	428.85251
482.643	364.8754
483.128	405.87852
483.612	422.93312
484.097	292.67046
484.581	364.78943
485.066	399.91223
485.55	327.68271
486.034	321.65709
486.518	382.85596
487.002	275.63888
487.486	309.7119
487.969	289.66928
488.453	283.67224
488.936	331.70271
489.42	297.62393
489.903	278.661
490.386	238.47251
490.869	336.69324
491.352	265.6103
491.835	282.5481
492.318	257.55323
492.8	294.57742
493.283	297.72282
493.765	256.60238
494.247	308.67994
494.73	304.63793
495.212	223.5101
495.694	267.60262
496.175	250.57748
496.657	283.63925
497.139	228.37474
497.62	273.62822
498.102	247.5917
498.583	175.41876
499.064	211.45519
499.545	259.56544
500.026	263.56979
500.507	207.46148
500.988	261.62619
501.469	204.49289
501.949	239.56839
502.43	238.55282
502.91	270.54706
503.39	200.48104
503.87	247.56158
504.35	224.50568
504.83	190.40364
505.31	189.44292
505.79	180.41431
506.269	212.47057
506.749	187.41552
507.228	220.5007
507.707	226.48661
508.187	215.49733
508.666	216.51834
509.145	204.4626
509.623	173.39525
510.102	155.36722
510.581	230.53572
511.059	190.46564
511.538	192.48167
512.016	211.49002
512.494	167.39213
512.972	205.47627
513.45	147.33653
513.928	167.39702
514.406	241.56984
514.884	211.52809
515.361	174.40657
515.839	194.43456
516.316	243.56923
516.793	198.48596
517.27	255.58915
517.747	172.4315
518.224	171.3847
518.701	204.43697
519.178	186.45381
519.654	184.42453
520.131	186.44907
520.607	134.32206
521.083	103.23106
521.56	222.50587
522.036	194.41016
522.512	240.57176
522.987	212.49536
523.463	185.42726
523.939	204.49215
524.414	186.41441
524.89	175.40786
525.365	162.3581
525.84	164.38591
526.315	216.50708
526.79	231.50261
527.265	230.51329
527.74	173.41018
528.215	114.26272
528.689	182.3885
529.164	164.3437
529.638	130.3245
530.112	162.37288
530.587	186.38739
531.061	172.40694
531.534	179.42096
532.008	194.45934
532.482	181.40569
532.956	175.43626
533.429	221.52397
533.903	170.36383
534.376	172.3713
534.849	120.27235
535.322	190.43645
535.795	142.33701
536.268	203.47759
536.741	176.40785
537.213	190.42508
537.686	207.49192
538.158	239.52399
538.631	192.45285
539.103	220.48081
539.575	197.3934
540.047	190.40294
540.519	178.41526
540.991	198.46972
541.463	182.4271
541.934	160.35412
542.406	211.49215
542.877	202.44278
543.348	209.49017
543.82	242.56766
544.291	260.58311
544.762	224.5164
545.233	235.57644
545.703	213.4595
546.174	253.56449
546.645	210.49376
547.115	245.57077
547.585	291.63879
548.056	268.63404
548.526	306.69274
548.996	294.67153
549.466	306.70934
549.935	321.7295
550.405	341.70688
550.875	292.66321
551.344	337.7612
551.814	340.73675
552.283	407.82596
552.752	359.79401
553.221	411.84436
553.69	428.89811
554.159	407.94994
554.628	437.91841
555.096	385.92325
555.565	391.80762
556.033	425.94465
556.502	395.89364
556.97	422.87184
557.438	420.91823
557.906	402.88705
558.374	423.91286
558.842	447.99312
559.31	443.91666
559.777	479.07849
560.245	415.88601
560.712	435.92306
561.18	486.98379
561.647	456.93067
562.114	508.06034
562.581	520.16881
563.048	497.03894
563.514	595.34663
563.981	530.09998
564.448	565.1469
564.914	549.15139
565.381	567.16459
565.847	587.22471
566.313	558.16643
566.779	613.22468
567.245	560.16752
567.711	560.21092
568.176	570.14627
568.642	573.30624
569.108	602.32848
569.573	632.29569
570.038	668.213
570.504	705.38534
570.969	632.39766
571.434	692.33772
571.899	666.39254
572.363	707.41213
572.828	736.46436
573.293	691.38396
573.757	726.46387
574.222	718.39403
574.686	719.43746
575.15	714.50422
575.614	772.57171
576.078	693.42508
576.542	709.40565
577.006	684.35128
577.469	741.58882
577.933	693.37965
578.396	655.37344
578.86	683.41206
579.323	650.39023
579.786	722.35051
580.249	723.48485
580.712	679.45639
581.175	711.53819
581.637	682.36181
582.1	679.28904
582.563	655.2156
583.025	653.41019
583.487	714.26125
583.95	679.26524
584.412	753.34725
584.874	775.63464
585.336	692.44059
585.797	710.33588
586.259	752.52053
586.721	750.52202
587.182	815.59657
587.643	787.52712
588.105	820.65063
588.566	861.48487
589.027	885.83178
589.488	908.73258
589.949	963.93836
590.41	971.53011
590.87	998.85779
591.331	1028.79683
591.791	1034.93445
592.252	1153.10918
592.712	1143.16836
593.172	1250.16571
593.632	1258.11326
594.092	1315.18033
594.552	1356.14397
595.011	1352.29908
595.471	1481.40263
595.931	1530.43526
596.39	1561.67587
596.849	1642.64178
597.308	1736.39688
597.768	1851.25595
598.227	1890.9677
598.685	2000.81469
599.144	2164.05432
599.603	2256.05468
600.062	2304.59957
600.52	2515.96734
600.978	2588.21322
601.437	2770.02747
601.895	2846.71667
602.353	2956.83318
602.811	3130.96361
603.269	3274.26194
603.727	3456.28826
604.184	3666.88133
604.642	3864.33184
605.099	3998.9099
605.557	4133.13578
606.014	4292.22497
606.471	4512.20023
606.928	4763.16725
607.385	4947.94874
607.842	5108.18104
608.299	5228.248
608.755	5418.41034
609.212	5642.72018
609.668	5723.75752
610.125	5924.12113
610.581	5941.91616
611.037	6070.57409
611.493	6205.78965
611.949	6367.04276
612.405	6381.00105
612.861	6390.64543
613.316	6549.87906
613.772	6610.58887
614.227	6698.87985
614.683	6687.17462
615.138	6646.72479
615.593	6600.66571
616.048	6734.57136
616.503	6731.93487
616.958	6644.16764
617.412	6733.79347
617.867	6559.45753
618.321	6537.04331
618.776	6485.37345
619.23	6344.7669
619.684	6302.47368
620.138	6176.65853
620.592	6098.08495
621.046	5998.93802
621.5	5906.1031
621.954	5743.59547
622.407	5625.64676
622.861	5597.31341
623.314	5437.88789
623.768	5368.22741
624.221	5282.13712
624.674	5061.23333
625.127	4924.35431
625.58	4980.07555
626.033	4944.91875
626.485	4713.68295
626.938	4645.68831
627.39	4494.63667
627.843	4413.57674
628.295	4397.58537
628.747	4207.92856
629.199	4089.65668
629.651	3993.74986
630.103	3902.79379
630.555	3855.27874
631.006	3766.93819
631.458	3745.02878
631.909	3494.79101
632.361	3504.97569
632.812	3353.04025
633.263	3444.62084
633.714	3330.51342
634.165	3159.2952
634.616	3057.2146
635.067	3048.79786
635.518	2940.23579
635.968	2898.24471
636.419	2969.76643
636.869	2806.22403
637.319	2775.10719
637.769	2699.9299
638.219	2563.16662
638.669	2594.21449
639.119	2589.24836
639.569	2549.25402
640.019	2531.04852
640.468	2470.8836
640.918	2444.16108
641.367	2377.85454
641.816	2357.81553
642.265	2396.06592
642.714	2312.95073
643.163	2386.01606
643.612	2383.32175
644.061	2246.61576
644.51	2261.9346
644.958	2271.76408
645.406	2208.11034
645.855	2148.15515
646.303	2176.93424
646.751	2228.96605
647.199	2237.8698
647.647	2125.93458
648.095	2124.8493
648.543	2113.36134
648.99	2098.07832
649.438	2052.87517
649.885	2064.23695
650.333	2050.1845
650.78	1962.01889
651.227	2047.13464
651.674	1888.7253
652.121	1977.09935
652.568	1945.06922
653.015	1850.03557
653.461	1822.84497
653.908	1805.69048
654.354	1793.82714
654.801	1817.78447
655.247	1731.42104
655.693	1749.16543
656.139	1694.75211
656.585	1665.72927
657.031	1633.64257
657.477	1655.40223
657.922	1622.50897
658.368	1600.77575
658.813	1523.42197
659.259	1584.71054
659.704	1570.61546
660.149	1520.4671
660.594	1582.62847
661.039	1558.46343
661.484	1580.61799
661.929	1455.44694
662.373	1382.60349
662.818	1430.61069
663.262	1411.51351
663.707	1361.62417
664.151	1403.52987
664.595	1351.44313
665.039	1317.48251
665.483	1294.53322
665.927	1318.3081
666.371	1367.37505
666.814	1325.35362
667.258	1282.34776
667.701	1341.05675
668.145	1278.4398
668.588	1292.44531
669.031	1214.1895
669.474	1234.27085
669.917	1223.00807
670.36	1301.47965
670.803	1242.30266
671.245	1201.81553
671.688	1248.32981
672.13	1211.07963
672.573	1211.39097
673.015	1227.27645
673.457	1200.9663
673.899	1279.35101
674.341	1262.31677
674.783	1162.172
675.225	1180.27174
675.666	1218.30823
676.108	1183.92919
676.549	1173.10725
676.991	1167.94857
677.432	1155.70097
677.873	1215.10424
678.314	1225.23238
678.755	1246.366
679.196	1241.13817
679.637	1212.23023
680.078	1225.17864
680.518	1208.10914
680.959	1217.22109
681.399	1231.3538
681.839	1317.40426
682.28	1272.42249
682.72	1230.12417
683.16	1226.37175
683.6	1217.09441
684.039	1287.91418
684.479	1295.43145
684.919	1296.28476
685.358	1277.43028
685.798	1288.59223
686.237	1272.29218
686.676	1355.22866
687.115	1396.39968
687.554	1328.37169
687.993	1375.18354
688.432	1328.2255
688.871	1423.34127
689.309	1417.4804
689.748	1439.06204
690.186	1396.3718
690.625	1388.37955
691.063	1440.4849
691.501	1520.69963
691.939	1455.69298
692.377	1502.60613
692.815	1562.70377
693.253	1514.55163
693.69	1518.27726
694.128	1516.62643
694.565	1524.54517
695.003	1563.87227
695.44	1590.61032
695.877	1545.54352
696.314	1555.18087
696.751	1587.44645
697.188	1647.58122
697.625	1638.44195
698.061	1577.63362
698.498	1656.6556
698.934	1643.68698
699.371	1666.65087
699.807	1685.67612
700.243	1701.77658
700.679	1681.45988
701.115	1669.61607
701.551	1682.61034
701.987	1728.41753
702.422	1870.86766
702.858	1806.81645
703.294	1851.6881
703.729	1847.92652
704.164	1822.82711
704.599	1903.61296
705.035	1866.60768
705.47	1776.8612
705.904	1868.73382
706.339	1870.69885
706.774	1977.85014
707.209	1948.80839
707.643	1939.91921
708.078	1994.02832
708.512	1893.0976
708.946	2039.9324
709.38	2010.93311
709.814	2014.71892
710.248	2122.13664
710.682	2085.02866
711.116	2164.14126
711.549	2094.32932
711.983	2125.86264
712.416	2198.02713
712.85	2179.22367
713.283	2181.98935
713.716	2238.25712
714.149	2175.89056
714.582	2267.78979
715.015	2216.1895
715.448	2275.36697
715.881	2245.57211
716.313	2295.98027
716.746	2306.05306
717.178	2318.13731
717.61	2381.47173
718.043	2319.27209
718.475	2377.20653
718.907	2382.35844
719.339	2409.86841
719.77	2430.15676
720.202	2412.38742
720.634	2463.30135
721.065	2498.07931
721.497	2538.30294
721.928	2466.26858
722.359	2465.25561
722.79	2492.16644
723.221	2588.39065
723.652	2603.53654
724.083	2552.84263
724.514	2674.96992
724.945	2632.06594
725.375	2698.07168
725.806	2685.36593
726.236	2636.5798
726.666	2755.1149
727.096	2715.32585
727.526	2806.683
727.956	2785.9488
728.386	2845.35299
728.816	2761.62921
729.246	2862.40873
729.675	2750.31038
730.105	2919.3383
730.534	2884.04513
730.964	2836.4558
731.393	2946.34624
731.822	2976.63773
732.251	2972.58823
732.68	2927.99689
733.109	2953.39955
733.537	2987.35146
733.966	3060.48646
734.395	3099.98285
734.823	3004.72667
735.251	3059.21937
735.68	3067.3818
736.108	3030.47418
736.536	3059.05348
736.964	3104.98702
737.392	3135.47138
737.82	3109.16573
738.247	3114.15284
738.675	3124.06035
739.102	3095.46061
739.53	3117.69057
739.957	3107.73388
740.384	3149.211
740.811	3062.43413
741.238	3117.35663
741.665	3163.07956
742.092	2928.94297
742.519	3002.43951
742.945	3074.30216
743.372	3027.44452
743.798	3030.63577
744.225	2993.11438
744.651	3007.47398
745.077	2958.45309
745.503	3040.23526
745.929	3039.27693
746.355	2968.28369
746.781	2908.34744
747.207	2916.15744
747.632	2846.43562
748.058	2937.53701
748.483	2882.95227
748.908	2922.45132
749.334	2798.37639
749.759	2784.17177
750.184	2893.24709
750.609	2725.31374
751.033	2688.01964
751.458	2735.77655
751.883	2641.32131
752.307	2699.08069
752.732	2686.59333
753.156	2644.32862
753.58	2645.07211
754.005	2583.42229
754.429	2608.11897
754.853	2490.36558
755.277	2506.10233
755.7	2403.30695
756.124	2437.33222
756.548	2442.04635
756.971	2395.20696
757.394	2332.43606
757.818	2312.48879
758.241	2281.38803
758.664	2213.31196
759.087	2251.77316
759.51	2194.16856
759.933	2236.10616
760.356	2188.42313
760.778	2201.16066
761.201	2141.03507
761.623	2060.91544
762.046	2104.85274
762.468	2135.98591
762.89	2109.06243
763.312	2067.06917
763.734	1938.91511
764.156	1982.05191
764.578	1894.63265
765	1922.94687
765.421	1773.04264
765.843	1851.22094
766.264	1716.65913
766.686	1736.86779
767.107	1746.78577
767.528	1722.02361
767.949	1666.90153
768.37	1697.84482
768.791	1596.603
769.212	1617.83398
769.632	1593.53003
770.053	1523.86368
770.473	1567.59558
770.894	1519.61858
771.314	1474.42379
771.734	1447.36273
772.154	1472.70644
772.575	1440.31419
772.994	1407.22842
773.414	1444.41852
773.834	1345.46661
774.254	1324.37418
774.673	1331.40075
775.093	1322.44663
775.512	1288.37527
775.931	1271.43746
776.351	1240.34549
776.77	1231.28615
777.189	1219.16792
777.607	1163.30457
778.026	1150.21385
778.445	1112.21814
778.864	1099.18156
779.282	1057.9596
779.701	1033.0579
780.119	989.02101
780.537	999.98605
780.955	1061.11671
781.373	954.89782
781.791	989.76336
782.209	945.67692
782.627	925.00817
783.045	920.66074
783.462	944.96311
783.88	893.91411
784.297	886.83263
784.715	873.86962
785.132	872.70879
785.549	829.71884
785.966	853.77571
786.383	837.71383
786.8	847.59688
787.217	753.51039
787.633	783.66091
788.05	768.47496
788.466	788.50762
788.883	774.68563
789.299	741.47056
789.715	744.52837
790.131	699.48193
790.547	696.47845
790.963	639.36461
791.379	679.47515
791.795	620.18972
792.21	654.2883
792.626	608.22844
793.041	645.36495
793.457	629.32989
793.872	561.13255
794.287	617.29309
794.702	570.20103
795.117	595.29466
795.532	543.21135
795.947	545.12537
796.362	552.11817
796.776	511.02293
797.191	509.10353
797.605	487.0252
798.02	517.10565
798.434	557.06629
798.848	507.123
799.262	422.94518
799.676	485.04828
800.09	442.97447
800.504	444.95797
800.918	412.84469
801.331	349.81972
801.745	386.79175
802.158	354.80074
802.572	383.84107
802.985	365.7921
803.398	408.87087
803.811	348.80125
804.224	346.77563
804.637	348.75891
805.05	319.66837
805.462	340.75842
805.875	334.80175
806.288	324.72214
806.7	314.71836
807.112	281.59292
807.525	226.51228
807.937	265.61079
808.349	276.63601
808.761	336.76003
809.173	302.67701
809.584	302.68286
809.996	276.62458
810.408	288.69975
810.819	336.72094
811.231	333.82522
811.642	326.74581
812.053	299.67373
812.464	244.53664
812.875	272.65071
813.286	275.66579
813.697	224.47317
814.108	217.49298
814.519	297.61044
814.929	214.5108
815.34	169.38238
815.75	231.55549
816.16	203.46827
816.571	191.46696
816.981	209.45435
817.391	211.47118
817.801	179.42178
818.211	201.44699
818.62	191.43462
819.03	191.43849
819.44	110.27019
819.849	182.42743
820.259	150.36038
820.668	187.43514
821.077	197.46509
821.486	158.35407
821.895	157.36087
822.304	166.4169
822.713	145.3226
823.122	120.28491
823.531	133.29393
823.939	193.44379
824.348	143.32698
824.756	146.34476
825.164	128.30495
825.573	155.36892
825.981	140.32726
826.389	191.45023
826.797	209.50068
827.205	187.40497
827.612	169.39078
828.02	57.12797
828.428	100.24363
828.835	112.28482
829.243	147.32813
829.65	108.25888
830.057	121.27757
830.464	145.33928
830.871	184.41522
831.278	125.2872
831.685	93.19632
832.092	98.22665
832.499	142.29377
832.905	86.20733
833.312	75.15999
833.718	148.35219
834.124	136.29421
834.531	121.28734
834.937	155.37867
835.343	66.15143
835.749	104.2271
836.155	91.229
836.561	101.23762
836.966	59.13816
837.372	126.30364
837.777	90.21566
838.183	106.22175
838.588	82.19671
838.993	97.22563
839.399	121.28279
839.804	59.13876
840.209	103.25426
840.613	113.23718
841.018	75.18139
841.423	101.24831
841.828	83.20263
842.232	102.23647
842.637	116.26295
843.041	83.20557
843.445	45.1081
843.849	80.19082
844.253	96.21655
844.657	61.14909
845.061	129.28176
845.465	89.20555
845.869	87.19268
846.272	60.14136
846.676	70.15913
847.079	114.27919
847.483	131.30916
847.886	96.22044
848.289	79.2061
848.692	61.14764
849.095	98.22314
849.498	76.1819
849.901	92.19869
850.304	129.29129
850.707	85.20697
851.109	95.22846
851.512	89.2098
851.914	32.07875
852.316	90.22074
852.718	84.21422
853.121	125.29099
853.523	39.08706
853.925	97.2455
854.326	92.22179
854.728	56.13953
855.13	74.18572
855.531	77.17656
855.933	80.18149
856.334	76.1835
856.736	102.21896
857.137	29.0657
857.538	76.18495
857.939	117.27944
858.34	39.09058
858.741	45.11337
859.142	83.18925
859.542	56.14392
859.943	95.22534
860.343	60.14405
860.744	78.18205
861.144	99.23256
861.544	42.0988
861.945	66.16158
862.345	59.13784
862.745	118.28124
863.145	57.12797
863.544	75.18262
863.944	71.16032
864.344	37.08746
864.743	98.23151
865.143	85.21152
865.542	42.09226
865.941	68.16226
866.34	90.20252
866.74	70.18153
867.139	88.20417
867.537	24.05856
867.936	49.11398
868.335	39.09564
868.734	91.22323
869.132	39.0859
869.531	104.23594
869.929	42.09245
870.327	8.01858
870.726	51.12102
871.124	80.17662
871.522	33.08101
871.92	91.21435
872.318	41.09579
872.715	19.04479
873.113	47.1095
873.511	75.17838
873.908	70.17289
874.306	82.19709
874.703	12.02881
875.1	70.16933
875.497	92.20914
875.894	64.15359
876.291	53.12537
876.688	41.1024
877.085	91.20632
877.482	50.12045
877.878	92.2143
878.275	47.11555
878.671	24.04963
879.068	78.17975
879.464	81.18685
879.86	83.18711
880.256	75.17405
880.652	22.0542
881.048	44.10378
881.444	27.06097
881.84	45.11015
882.236	59.14243
882.631	62.14692
883.027	62.14317
883.422	55.13452
883.817	88.21343
884.213	74.18244
884.608	95.22759
885.003	-6.01392
885.398	73.17542
885.793	72.17246
886.188	22.05282
886.582	74.18029
886.977	95.21267
887.371	16.03892
887.766	43.1038
888.16	66.15507
888.554	55.1296
888.949	73.17555
889.343	52.12127
889.737	36.094
890.131	57.13755
890.525	79.19523
890.918	59.14259
891.312	50.11348
891.706	46.11632
892.099	89.21582
892.492	137.27422
892.886	25.05891
893.279	34.08348
893.672	58.1432
894.065	54.13023
894.458	53.12683
894.851	62.14448
895.244	43.10591
895.637	49.1138
896.029	67.15806
896.422	18.04194
896.814	60.14267
897.206	101.23206
897.599	115.26961
897.991	79.18376
898.383	43.09785
898.775	105.2271
899.167	71.16071
899.559	42.10152
899.951	78.17343
900.342	55.13317
900.734	82.19978
901.125	46.1157
901.517	59.1393
901.908	46.10415
902.299	48.11326
902.69	77.17508
903.082	76.17584
903.473	104.24072
903.863	36.08817
904.254	69.15491
904.645	69.16209
905.036	64.15178
905.426	99.21092
905.817	39.09147
906.207	-27.06191
906.597	110.24641
906.987	13.03241
907.378	84.20457
907.768	90.22912
908.158	49.11448
908.547	78.19639
908.937	32.07831
909.327	62.14385
909.717	36.08666
910.106	37.08505
910.495	3.00718
910.885	59.14409
911.274	67.16027
911.663	28.06801
912.052	58.13553
912.441	95.23279
912.83	72.15609
913.219	58.14562
913.608	83.19497
913.997	57.13884
914.385	84.19118
914.774	64.14884
915.162	85.19546
915.55	56.12875
915.939	63.15409
916.327	69.16354
916.715	70.17416
917.103	34.0791
917.491	85.1999
917.878	73.17115
918.266	19.04756
918.654	89.21946
919.041	44.11257
919.429	54.12201
919.816	87.21049
920.203	73.17108
920.591	60.14311
920.978	100.23284
921.365	41.10447
921.752	23.05196
922.139	74.15241
922.525	29.06743
922.912	91.21042
923.299	43.1031
923.685	21.0526
924.072	30.06465
924.458	56.13393
924.844	57.13551
925.231	4.0089
925.617	29.07219
926.003	65.15898
926.389	69.16682
926.774	35.08525
927.16	93.21965
927.546	79.19673
927.931	90.21269
928.317	51.11139
928.702	68.1527
929.088	78.18026
929.473	53.13098
929.858	77.18144
930.243	77.17848
930.628	88.20652
931.013	51.12172
931.398	74.15879
931.783	32.0806
932.167	100.23532
932.552	81.19331
932.937	67.15819
933.321	32.07825
933.705	59.14108
934.09	50.1188
934.474	62.13917
934.858	7.01769
935.242	36.07978
935.626	58.14368
936.009	95.24496
936.393	97.23927
936.777	45.1119
937.16	55.13915
937.544	47.10418
937.927	42.10343
938.311	76.1757
938.694	89.22645
939.077	55.12612
939.46	46.10588
939.843	73.14002
940.226	31.07641
940.609	99.21815
940.991	27.06599
941.374	69.16253
941.757	79.18529
942.139	103.21953
942.522	80.17861
942.904	30.06947
943.286	83.20089
943.668	78.19611
944.05	77.18144
944.432	49.11564
944.814	63.14695
945.196	54.12747
945.578	88.20288
945.959	53.11743
946.341	54.12445
946.722	79.17525
947.104	55.12597
947.485	54.12022
947.866	59.14414
948.247	94.22884
948.628	12.02769
949.009	39.09642
949.39	62.14686
949.771	10.02185
950.152	58.1367
950.532	64.15557
950.913	89.20383
951.293	30.07943
951.674	56.12977
952.054	89.21484
952.434	39.09343
952.814	53.11914
953.194	25.06246
953.574	71.16626
953.954	15.03395
954.334	106.2539
954.714	35.0826
955.093	87.20373
955.473	55.13377
955.853	58.14462
956.232	1.00267
956.611	70.15784
956.99	57.13827
957.37	10.02453
957.749	41.0922
958.128	67.16302
958.506	18.04539
958.885	53.12804
959.264	43.10282
959.643	125.26955
960.021	77.18391
960.4	55.1187
960.778	67.15524
961.156	10.02417
961.535	63.13842
961.913	109.24271
962.291	44.11043
962.669	59.14447
963.047	56.13832
963.424	102.25202
963.802	90.21146
964.18	50.11944
964.557	69.15032
964.935	63.14232
965.312	78.19618
965.69	29.06932
966.067	29.06714
966.444	-4.00936
966.821	69.17102
967.198	54.1238
967.575	79.18384
967.952	75.16762
968.329	93.21684
968.705	134.27039
969.082	78.1947
969.458	58.13531
969.835	80.18561
970.211	47.11764
970.587	105.24915
970.963	37.0907
971.339	39.09895
971.715	52.12503
972.091	59.13903
972.467	42.09914
972.843	70.1685
973.219	70.15848
973.594	6.01526
973.97	58.12805
974.345	65.14941
974.721	40.09145
975.096	51.11943
975.471	85.19068
975.846	42.09602
976.221	76.18516
976.596	117.27033
976.971	108.25523
977.346	77.16875
977.72	32.07825
978.095	46.11449
978.469	63.14284
978.844	109.25854
979.218	50.11688
979.593	81.18365
979.967	44.10075
980.341	79.17372
980.715	65.1575
981.089	50.12013
981.463	22.04855
981.837	86.203
982.21	21.04558
982.584	29.06778
982.957	35.08484
983.331	24.05365
983.704	132.31074
984.078	38.08991
984.451	29.06826
984.824	31.07325
985.197	36.0826
985.57	17.04049
985.943	29.06759
986.316	52.12022
986.688	68.15615
987.061	80.17898
987.434	65.16521
987.806	25.05744
988.179	13.02943
988.551	80.19301
988.923	58.1359
989.295	62.14749
989.667	12.02815
990.039	125.29786
990.411	25.05428
990.783	10.02183
991.155	35.08129
991.527	45.10406
991.898	72.17259
992.27	81.19339
992.641	37.08871
993.012	42.09191
993.384	54.12246
993.755	59.14543
994.126	78.18054
994.497	66.15501
994.868	49.10603
995.239	41.09503
995.61	56.13546
995.98	38.08852
996.351	80.19067
996.722	51.11455
997.092	22.05046
997.462	57.12897
997.833	35.07877
998.203	-11.02543
998.573	93.22161
998.943	98.21898
999.313	43.09951
999.683	67.15413
1000.053	19.04092
1000.423	41.09481
1000.792	5.01242
1001.162	28.06586
1001.531	38.09029
1001.901	44.10479
1002.27	40.08338
1002.639	51.12423
1003.009	84.18925
1003.378	69.16952
1003.747	64.14307
1004.116	53.12104
1004.485	90.20401
1004.853	14.03379
1005.222	12.02869
1005.591	68.1532
1005.959	31.06725
1006.328	84.17978
1006.696	38.08754
1007.064	16.03849
1007.433	65.15406
1007.801	-1.00233
1008.169	43.10321
1008.537	92.19178
1008.905	61.13662
1009.273	37.08709
1009.64	54.12504
1010.008	51.11596
1010.375	45.10261
1010.743	38.08101
1011.11	114.2603
1011.478	77.18335
1011.845	89.19702
1012.212	60.13097
1012.579	50.11793
1012.946	41.09224
1013.313	94.20978
1013.68	79.16692
1014.047	33.07546
1014.414	18.04082
1014.78	76.18121
1015.147	58.13217
1015.513	87.19917
1015.88	89.21533
1016.246	44.10273
1016.612	93.19908
1016.978	79.18587
1017.344	58.1376
1017.71	87.20005
1018.076	58.12885
1018.442	49.12171
1018.808	85.2048
1019.174	-3.00725
1019.539	58.12107
1019.905	63.14255
1020.27	43.10164
1020.636	13.02957
1021.001	58.13313
1021.366	44.1018
1021.731	106.26354
1022.096	8.01975
1022.461	79.17824
1022.826	82.18686
1023.191	19.04833
1023.556	42.09354
1023.92	28.06553
1024.285	43.09939
1024.649	60.13954
1025.014	25.05886
1025.378	50.12159
1025.742	41.09684
1026.107	92.19554
1026.471	70.15409
1026.835	58.13765
1027.199	31.07188
1027.562	27.05945
1027.926	45.10472
1028.29	22.05382
1028.654	20.04391
1029.017	94.22025
1029.381	45.10335
1029.744	75.18317
1030.107	105.23458
1030.471	100.22815
1030.834	13.02788
1031.197	119.26991
1031.56	54.12081
1031.923	67.16655
1032.286	64.14301
1032.648	10.02268
1033.011	98.21591
1033.374	50.11076
1033.736	0
1034.099	35.08203
1034.461	39.09571
1034.823	1.00242
1035.185	27.06483
1035.548	47.11019
1035.91	31.07108
1036.272	91.19691
1036.634	74.17237
1036.995	12.02689
1037.357	88.20474
1037.719	123.28283
1038.08	121.27322
1038.442	50.11316
1038.803	8.01819
1039.165	16.03879
1039.526	67.15456
1039.887	29.06653
1040.248	99.23609
1040.609	58.13542
1040.97	44.10269
1041.331	89.21655
1041.692	102.22961
1042.053	42.09055
1042.413	85.18613
1042.774	71.16502
1043.134	59.13192
1043.495	51.12293
1043.855	96.22362
1044.215	18.0428
1044.576	36.08323
1044.936	80.1724
1045.296	59.14086
1045.656	45.10455
1046.016	66.15082
1046.375	29.06759
1046.735	98.21391
1047.095	50.11177
1047.454	73.14368
1047.814	75.17177
1048.173	57.12776
1048.533	86.18629
1048.892	5.01164
1049.251	64.15236
1049.61	45.10641
1049.969	50.1121
1050.328	50.10284
1050.687	10.02329
1051.046	42.09756
1051.405	43.10156
1051.763	60.13296
1052.122	39.09329
1052.48	33.07803
1052.839	92.2088
1053.197	11.02488
1053.555	76.15991
1053.914	54.12583
1054.272	-8.01826
1054.63	36.08478
1054.988	58.13292
1055.345	70.13988
1055.703	76.17438
1056.061	82.20424
1056.419	81.2042
1056.776	54.12276
1057.134	16.03485
1057.491	34.08197
1057.848	82.19311
1058.206	18.03994
1058.563	71.14745
1058.92	100.21606
1059.277	58.1368
1059.634	15.03337
1059.991	119.26947
1060.348	73.15708
1060.704	58.13531
1061.061	47.10187
1061.418	33.07697
1061.774	51.12064
1062.131	53.13728
1062.487	19.04236
1062.843	43.10282
1063.199	57.13583
1063.555	93.20588
1063.911	-16.03898
1064.267	67.12913
1064.623	19.04502
1064.979	23.05019
1065.335	70.15751
1065.691	39.08799
1066.046	83.17137
1066.402	42.09028
1066.757	49.11882
1067.112	33.07737
1067.468	72.1642
1067.823	25.05641
1068.178	21.04846
1068.533	77.17748
1068.888	38.08638
1069.243	54.12762
1069.598	37.08556
1069.952	61.13374
1070.307	3.00723
1070.662	73.16726
1071.016	52.11269
1071.371	85.18392
1071.725	72.16201
1072.079	68.15621
1072.434	42.09826
1072.788	25.05627
1073.142	76.17835
1073.496	11.02504
1073.85	76.16659
1074.203	74.17115
1074.557	89.22973
1074.911	56.12637
1075.265	101.22116
1075.618	76.17689
1075.971	82.18474
1076.325	22.05446
1076.678	14.03077
1077.031	11.02332
1077.385	74.15309
1077.738	57.12181
1078.091	27.0594
1078.444	43.09392
1078.796	65.1534
1079.149	44.10527
1079.502	56.12725
1079.855	43.09595
1080.207	48.11278
1080.56	74.18452
1080.912	51.11845
1081.264	96.22009
1081.617	47.11019
1081.969	17.04172
1082.321	43.10018
1082.673	39.08655
1083.025	36.08117
1083.377	33.07418
1083.728	55.1214
1084.08	68.16095
1084.432	56.12833
1084.783	59.12859
1085.135	52.12565
1085.486	83.18098
1085.838	78.18376
1086.189	94.21861
1086.54	43.09769
1086.891	105.25777
1087.242	88.20756
1087.593	45.10306
1087.944	87.18793
1088.295	106.22568
1088.646	120.2804
1088.996	50.11605
1089.347	19.04458
1089.698	80.18186
1090.048	18.04492
1090.398	67.14634
1090.749	66.14876
1091.099	73.17795
1091.449	90.21434
1091.799	43.10333
1092.149	82.19349
1092.499	85.19717
1092.849	64.15616
1093.199	54.12836
1093.548	79.18275
1093.898	39.09333
1094.248	34.08327
1094.597	69.17121
1094.947	88.22553
1095.296	72.17075
1095.645	39.0973
1095.994	52.11931
1096.343	74.17867
1096.692	50.12891
1097.041	56.14891
1097.39	69.1643
1097.739	55.13732
1098.088	73.1864
1098.437	65.16685
1098.785	26.06733
1099.134	1.00254
1099.482	51.13622
1099.83	66.16671
1100.179	94.2393
1100.527	11.02802
1100.875	56.14387
1101.223	58.14953
1101.571	22.05887
1101.919	65.16731
1102.267	30.08296
1102.615	2.00642
1102.962	0
1103.31	2.00642
1103.658	-2.00641
