Data from N3 R2 sample 8_Subt2__5__10-17-05-881.txt Node

Date: Thu Sep 18 10:17:05 PDT 2025
User: uwsun
Spectrometer: HDX01956
Trigger mode: 0
Integration Time (sec): 5.000000E-1
Scans to average: 1
Nonlinearity correction enabled: true
Boxcar width: 0
Storing dark spectrum: false
XAxis mode: Wavelengths
Number of Pixels in Spectrum: 2068
>>>>>Begin Spectral Data<<<<<
194.03	45.12978
194.578	43.13911
195.127	49.15618
195.676	50.15992
196.225	75.1978
196.773	64.17709
197.321	96.26479
197.87	171.43493
198.418	161.41325
198.966	220.57166
199.513	193.48636
200.061	179.45189
200.609	168.4409
201.156	170.37044
201.704	170.42572
202.251	231.60446
202.798	161.41571
203.345	207.50702
203.892	203.50771
204.438	208.48735
204.985	180.42504
205.532	194.50532
206.078	189.4576
206.624	259.63718
207.17	233.5379
207.716	236.56977
208.262	185.36428
208.808	223.55308
209.354	201.49269
209.899	200.49812
210.445	195.48382
210.99	212.51164
211.535	264.60885
212.08	170.39301
212.625	212.52282
213.17	217.54605
213.715	248.5562
214.259	218.50237
214.804	183.44508
215.348	204.46692
215.892	212.50874
216.436	178.40332
216.98	242.52016
217.524	160.38177
218.068	211.52599
218.612	223.55913
219.155	210.49011
219.698	204.47928
220.242	202.49174
220.785	214.49551
221.328	192.4688
221.871	215.53985
222.414	205.49932
222.956	146.3477
223.499	181.39884
224.041	160.36268
224.583	152.31827
225.126	154.33558
225.668	148.3576
226.21	220.54713
226.751	217.47455
227.293	185.41261
227.835	195.47124
228.376	155.34956
228.918	164.40431
229.459	205.50324
230	217.51171
230.541	197.44573
231.082	204.4888
231.622	126.28422
232.163	151.36147
232.704	199.49086
233.244	214.52114
233.784	168.40255
234.324	222.4899
234.864	194.43116
235.404	146.34128
235.944	166.38666
236.484	229.55944
237.023	159.37131
237.563	204.46636
238.102	230.53171
238.641	209.51552
239.18	148.34542
239.719	196.48301
240.258	224.49204
240.797	191.44971
241.335	195.46644
241.874	220.41943
242.412	198.47406
242.95	221.52397
243.488	178.39429
244.026	221.5041
244.564	226.45456
245.102	220.48894
245.64	197.46239
246.177	173.37962
246.715	247.5786
247.252	208.46285
247.789	270.48229
248.326	183.43573
248.863	244.52355
249.4	196.43723
249.936	254.5177
250.473	272.62454
251.009	208.46745
251.546	239.52156
252.082	171.36494
252.618	199.43814
253.154	180.42817
253.69	198.43676
254.226	216.50767
254.761	206.45421
255.297	192.41287
255.832	213.49759
256.367	187.43343
256.903	263.56833
257.438	227.5205
257.972	217.47355
258.507	223.50065
259.042	177.3807
259.576	276.59247
260.111	204.46016
260.645	254.53325
261.179	202.46587
261.713	221.48514
262.247	142.32254
262.781	218.4506
263.315	179.42866
263.849	229.56173
264.382	225.50576
264.915	250.57725
265.449	174.42026
265.982	235.52151
266.515	229.55026
267.048	249.51386
267.58	219.46231
268.113	237.5003
268.646	165.3998
269.178	170.3761
269.71	284.60806
270.243	302.67562
270.775	203.51338
271.307	182.42693
271.838	236.54428
272.37	193.46605
272.902	208.46266
273.433	261.56305
273.965	229.54461
274.496	198.48309
275.027	247.60071
275.558	235.56167
276.089	212.52109
276.62	185.46018
277.15	221.53265
277.681	219.46149
278.211	234.55789
278.741	227.49411
279.272	239.5348
279.802	241.58568
280.332	187.43635
280.861	219.51342
281.391	274.60413
281.921	202.47496
282.45	234.5675
282.98	211.54082
283.509	266.58895
284.038	206.46429
284.567	238.54232
285.096	234.55618
285.625	225.49579
286.153	261.60828
286.682	239.53745
287.21	233.5426
287.739	254.58509
288.267	230.54941
288.795	222.56911
289.323	206.4768
289.851	234.53967
290.378	231.50389
290.906	287.68174
291.433	240.58554
291.961	279.61915
292.488	249.60308
293.015	272.62504
293.542	306.76235
294.069	297.71363
294.596	276.65499
295.122	302.70118
295.649	273.57958
296.175	262.61409
296.702	248.59353
297.228	189.44949
297.754	307.66653
298.28	259.58194
298.806	233.55072
299.332	264.57623
299.857	319.69877
300.383	246.6051
300.908	289.69045
301.433	326.77093
301.958	288.64005
302.483	224.54529
303.008	295.71232
303.533	270.67853
304.058	233.53233
304.582	240.55593
305.107	239.60979
305.631	314.68652
306.155	238.54386
306.679	253.5822
307.203	289.65147
307.727	235.54661
308.251	282.67695
308.775	371.86424
309.298	249.58807
309.822	275.67279
310.345	304.70443
310.868	316.73716
311.391	287.68725
311.914	279.68106
312.437	315.69583
312.96	280.64239
313.482	250.57495
314.005	316.76229
314.527	267.67737
315.049	353.85907
315.571	328.71227
316.093	346.82454
316.615	266.62298
317.137	309.65171
317.659	350.81453
318.18	310.71463
318.702	337.7612
319.223	329.64479
319.744	416.88679
320.265	372.86844
320.786	356.85584
321.307	342.81376
321.828	309.67544
322.348	426.94903
322.869	372.84932
323.389	626.09741
323.909	370.80859
324.43	340.78252
324.95	381.83316
325.47	398.94224
325.989	381.86478
326.509	418.88796
327.029	404.8784
327.548	378.81909
328.067	413.95409
328.587	418.99797
329.106	405.86691
329.625	371.92707
330.144	484.05258
330.662	466.02796
331.181	435.97249
331.7	412.90987
332.218	460.93756
332.736	438.97051
333.255	493.08513
333.773	430.9623
334.291	458.08081
334.808	489.02941
335.326	469.98912
335.844	500.09895
336.361	556.32914
336.879	498.09592
337.396	549.23938
337.913	502.08254
338.43	516.08136
338.947	485.08667
339.464	523.04506
339.981	542.19042
340.497	512.17475
341.014	551.2439
341.53	564.17014
342.046	608.39475
342.562	534.23801
343.078	591.27614
343.594	549.20809
344.11	583.28516
344.626	618.43015
345.141	571.20235
345.657	644.31913
346.172	611.34976
346.687	600.2588
347.202	668.37638
347.717	604.31955
348.232	638.4496
348.747	634.3314
349.261	643.27758
349.776	687.47167
350.29	663.50919
350.805	655.47054
351.319	680.42248
351.833	694.43451
352.347	680.44819
352.861	719.50847
353.374	641.32097
353.888	737.61076
354.401	704.43246
354.915	748.49793
355.428	760.68725
355.941	721.4987
356.454	733.44519
356.967	708.4772
357.48	715.44463
357.993	707.5627
358.505	709.54691
359.018	789.70852
359.53	810.74023
360.042	796.5604
360.554	834.78798
361.066	775.66891
361.578	830.59117
362.09	793.66095
362.602	874.67485
363.113	858.75252
363.625	803.59599
364.136	806.54212
364.647	863.77507
365.158	864.7393
365.669	830.73124
366.18	871.77147
366.691	843.59399
367.201	890.83927
367.712	911.78238
368.222	924.81423
368.733	888.64857
369.243	942.78196
369.753	921.80961
370.263	988.01488
370.773	940.95305
371.282	998.00502
371.792	1077.05272
372.301	1027.07331
372.811	1027.28059
373.32	1130.96537
373.829	1026.01516
374.338	1095.97897
374.847	1138.12597
375.356	1168.21859
375.865	1193.01707
376.373	1285.27407
376.882	1295.601
377.39	1355.52957
377.898	1360.59301
378.407	1378.37609
378.915	1564.44915
379.423	1482.55913
379.93	1663.73793
380.438	1668.8598
380.946	1739.80643
381.453	1836.00742
381.96	1897.03643
382.468	2018.05647
382.975	2141.3209
383.482	2180.93224
383.989	2220.60959
384.495	2343.18942
385.002	2457.73365
385.509	2638.39199
386.015	2860.62543
386.521	2913.15509
387.028	2985.13882
387.534	3059.80329
388.04	3292.45629
388.546	3260.93422
389.051	3527.83995
389.557	3813.0387
390.063	3947.8153
390.568	4064.17846
391.073	4123.61754
391.578	4440.1041
392.084	4591.51925
392.589	4907.0125
393.093	5304.45753
393.598	5757.9473
394.103	6166.00976
394.607	6729.95307
395.112	7034.07013
395.616	7629.13788
396.12	8303.42304
396.624	8922.35366
397.128	9688.93528
397.632	10836.59072
398.136	11739.79153
398.639	12896.47327
399.143	14694.87826
399.646	16263.37883
400.15	17771.56518
400.653	20251.32755
401.156	23015.52352
401.659	26620.92067
402.162	33811.35156
402.664	49257.94244
403.167	62146.7772
403.67	63769.22307
404.172	63919.58413
404.674	63858.43483
405.176	63738.15102
405.678	63977.72923
406.18	64011.81569
406.682	63863.44694
407.184	63926.60148
407.686	63841.39382
408.187	64025.8516
408.688	63892.51763
409.19	58286.52258
409.691	48533.15621
410.192	41568.21603
410.693	36769.20367
411.194	34501.40073
411.694	32541.67173
412.195	29635.1605
412.696	27391.79987
413.196	26665.10663
413.696	27046.97877
414.196	26799.73604
414.696	25692.04748
415.196	23809.15351
415.696	19691.92734
416.196	15017.80136
416.695	12716.28024
417.195	11765.65335
417.694	11299.16763
418.194	10410.33014
418.693	9940.62992
419.192	9739.06218
419.691	9546.59122
420.19	9284.04124
420.688	9008.57491
421.187	8444.37775
421.685	7782.02906
422.184	6956.83434
422.682	5915.54652
423.18	5158.24591
423.678	4732.43998
424.176	4465.57436
424.674	4260.51366
425.172	3990.00155
425.669	3618.42596
426.167	3402.12179
426.664	3142.03811
427.161	2947.13077
427.659	2650.40815
428.156	2516.72952
428.652	2324.50527
429.149	2325.30905
429.646	2241.87319
430.143	2104.13354
430.639	1984.00761
431.135	1897.17897
431.632	1751.69762
432.128	1702.84177
432.624	1606.02128
433.12	1569.53529
433.616	1565.40238
434.111	1511.61156
434.607	1458.57971
435.103	1455.16683
435.598	1372.07579
436.093	1282.28804
436.588	1253.16009
437.083	1171.05014
437.578	1151.10761
438.073	1099.23708
438.568	1065.14037
439.062	1031.7705
439.557	991.90536
440.051	931.73413
440.546	925.74676
441.04	906.83229
441.534	851.83814
442.028	905.83652
442.522	866.76489
443.015	794.4467
443.509	856.77368
444.002	823.72914
444.496	781.44561
444.989	784.64461
445.482	788.68931
445.975	838.64517
446.468	738.37778
446.961	804.48198
447.454	728.41549
447.947	766.58351
448.439	760.62154
448.931	723.4448
449.424	778.72294
449.916	741.57721
450.408	693.38733
450.9	683.46372
451.392	654.48059
451.884	673.35966
452.375	645.42199
452.867	608.21608
453.358	628.27703
453.849	692.28472
454.341	661.31279
454.832	638.21313
455.323	641.42377
455.814	613.24733
456.304	582.20755
456.795	628.27123
457.285	608.18743
457.776	614.24342
458.266	568.21411
458.756	507.09171
459.247	577.24109
459.737	575.25321
460.226	613.24224
460.716	527.14456
461.206	531.15277
461.695	478.08567
462.185	535.15111
462.674	492.02597
463.163	530.07451
463.653	568.07874
464.142	520.14681
464.63	506.11822
465.119	455.97518
465.608	584.22518
466.096	407.81954
466.585	441.92967
467.073	388.85545
467.561	405.90543
468.05	446.94661
468.538	420.95385
469.026	412.90835
469.513	433.8406
470.001	445.94263
470.489	409.90494
470.976	430.93055
471.463	393.91511
471.951	418.96621
472.438	338.74897
472.925	360.79638
473.412	342.78272
473.899	389.83194
474.385	387.88622
474.872	320.70643
475.359	369.85213
475.845	365.70554
476.331	293.59244
476.817	326.75091
477.303	335.73475
477.789	294.66639
478.275	313.73748
478.761	280.63441
479.247	300.63509
479.732	307.7284
480.218	291.72854
480.703	290.68104
481.188	328.66944
481.673	353.76247
482.158	314.64203
482.643	276.67486
483.128	315.69641
483.612	302.68452
484.097	264.60957
484.581	275.60774
485.066	299.69737
485.55	274.57879
486.034	295.60742
486.518	325.7368
487.002	217.50992
487.486	254.59162
487.969	216.50747
488.453	214.5151
488.936	204.44509
489.42	298.62589
489.903	203.48965
490.386	174.35061
490.869	296.6162
491.352	190.44413
491.835	236.46373
492.318	194.42327
492.8	238.47362
493.283	204.50513
493.765	193.45971
494.247	257.57342
494.73	196.42111
495.212	194.44635
495.694	246.55761
496.175	227.52676
496.657	226.51644
497.139	184.30612
497.62	211.49157
498.102	173.42028
498.583	121.29253
499.064	204.44075
499.545	215.47376
500.026	217.47476
500.507	135.30545
500.988	225.54352
501.469	139.33997
501.949	183.43991
502.43	214.49944
502.91	285.57547
503.39	160.38776
503.87	175.40369
504.35	192.43628
504.83	123.26512
505.31	160.37709
505.79	114.26586
506.269	152.34161
506.749	149.3337
507.228	141.32604
507.707	187.40601
508.187	196.4551
508.666	155.37628
509.145	149.34166
509.623	156.35764
510.102	163.38558
510.581	189.44378
511.059	130.32214
511.538	146.36931
512.016	173.40479
512.494	115.27277
512.972	149.35
513.45	115.26497
513.928	151.36009
514.406	133.32105
514.884	147.37217
515.361	161.37716
515.839	186.41733
516.316	182.43143
516.793	108.26949
517.27	150.3538
517.747	136.3434
518.224	109.24833
518.701	169.36474
519.178	168.41127
519.654	132.30771
520.131	162.3929
520.607	111.26795
521.083	100.22447
521.56	131.304
522.036	125.26828
522.512	198.47551
522.987	148.35016
523.463	143.33302
523.939	201.48519
524.414	154.34539
524.89	137.32169
525.365	134.29794
525.84	135.31947
526.315	162.38432
526.79	142.31481
527.265	165.37318
527.74	130.31079
528.215	84.19474
528.689	96.20875
529.164	149.3133
529.638	69.17414
530.112	96.22388
530.587	151.31694
531.061	136.32401
531.534	163.38453
532.008	142.3396
532.482	146.3296
532.956	155.38781
533.429	192.45777
533.903	89.19381
534.376	123.26831
534.849	103.23457
535.322	137.31805
535.795	114.27202
536.268	168.39794
536.741	160.37195
537.213	154.34709
537.686	129.31116
538.158	102.23008
538.631	158.37512
539.103	141.31331
539.575	131.26561
540.047	95.20565
540.519	151.35415
540.991	152.3638
541.463	137.32433
541.934	87.19549
542.406	137.3242
542.877	127.28279
543.348	178.42
543.82	129.30928
544.291	151.34624
544.762	149.34864
545.233	175.43404
545.703	153.33432
546.174	148.33739
546.645	171.40512
547.115	139.33059
547.585	142.32149
548.056	171.41215
548.526	119.27964
548.996	147.34571
549.466	210.49607
549.935	192.44775
550.405	147.31794
550.875	202.46717
551.344	179.41735
551.814	176.39473
552.283	227.47961
552.752	223.50722
553.221	192.41394
553.69	274.59451
554.159	254.61067
554.628	209.46131
555.096	216.53464
555.565	209.44933
556.033	304.69269
556.502	218.51097
556.97	195.42338
557.438	182.41791
557.906	194.44671
558.374	212.4782
558.842	179.41981
559.31	240.51919
559.777	211.502
560.245	159.35829
560.712	156.35117
561.18	190.41068
561.647	176.38205
562.114	231.51264
562.581	238.56678
563.048	214.4762
563.514	254.61553
563.981	220.48894
564.448	235.5137
564.914	280.62305
565.381	275.60291
565.847	283.63116
566.313	209.47134
566.779	260.56269
567.245	210.47253
567.711	289.66211
568.176	294.62974
568.642	275.66554
569.108	246.58403
569.573	254.5659
570.038	322.63689
570.504	301.64849
570.969	278.661
571.434	317.66858
571.899	296.67038
572.363	382.82139
572.828	401.86094
573.293	371.79894
573.757	367.80187
574.222	367.77301
574.686	382.82422
575.15	373.84559
575.614	433.95044
576.078	364.80489
576.542	399.84927
577.006	409.86108
577.469	479.0842
577.933	443.9343
578.396	461.00736
578.86	416.91256
579.323	470.04372
579.786	475.94371
580.249	524.12378
580.712	420.9523
581.175	455.0373
581.637	469.98391
582.1	508.004
582.563	509.98015
583.025	546.20575
583.487	587.07076
583.95	556.0672
584.412	608.12793
584.874	550.21662
585.336	637.34212
585.797	656.25044
586.259	645.33578
586.721	647.34351
587.182	699.40646
587.643	795.53973
588.105	737.51159
588.566	802.40456
589.027	865.79832
589.488	939.77843
589.949	973.95402
590.41	979.53922
590.87	1023.89268
591.331	1117.90749
591.791	1167.11137
592.252	1220.19479
592.712	1240.29781
593.172	1340.26761
593.632	1475.3357
594.092	1497.36142
594.552	1591.35191
595.011	1599.54396
595.471	1761.64115
595.931	1876.70436
596.39	1952.01019
596.849	2044.93347
597.308	2161.60311
597.768	2294.59207
598.227	2454.26887
598.685	2595.02355
599.144	2758.23125
599.603	2894.18808
600.062	3086.59458
600.52	3210.95948
600.978	3403.19483
601.437	3594.89101
601.895	3870.41365
602.353	4136.43101
602.811	4350.49678
603.269	4525.7721
603.727	4810.68504
604.184	5048.17428
604.642	5301.59202
605.099	5552.07682
605.557	5862.2178
606.014	6112.33709
606.471	6396.25494
606.928	6739.42653
607.385	7027.14272
607.842	7282.66608
608.299	7509.84148
608.755	7746.13036
609.212	8060.04698
609.668	8297.33515
610.125	8656.96756
610.581	8839.17589
611.037	8896.20608
611.493	9294.0197
611.949	9514.52605
612.405	9705.16541
612.861	9833.34635
613.316	9966.67553
613.772	10104.1538
614.227	10148.20304
614.683	10375.29632
615.138	10280.67028
615.593	10397.08906
616.048	10413.18616
616.503	10428.07989
616.958	10383.86908
617.412	10323.78385
617.867	10345.01176
618.321	10097.39372
618.776	10212.60238
619.23	9880.45853
619.684	9852.44337
620.138	9683.94771
620.592	9447.37323
621.046	9378.20706
621.5	9269.99355
621.954	9155.70266
622.407	8882.16388
622.861	8741.09898
623.314	8638.79132
623.768	8491.68805
624.221	8264.02946
624.674	8029.12022
625.127	7928.05801
625.58	7904.91092
626.033	7606.59503
626.485	7513.93961
626.938	7433.88689
627.39	7381.77522
627.843	7106.6267
628.295	6952.60532
628.747	6893.79962
629.199	6803.52709
629.651	6708.56759
630.103	6475.59437
630.555	6501.12559
631.006	6359.69834
631.458	6251.80527
631.909	6229.49564
632.361	6204.68692
632.812	6083.74886
633.263	6093.34963
633.714	6079.21227
634.165	5981.02631
634.616	5889.96268
635.067	5927.48261
635.518	5882.9853
635.968	5885.88153
636.419	5921.43856
636.869	5776.02387
637.319	5913.82537
637.769	5892.62608
638.219	6006.89895
638.669	5961.96941
639.119	5974.00943
639.569	5969.03118
640.019	6108.72185
640.468	6168.51416
640.918	6154.87871
641.367	6303.47099
641.816	6382.41424
642.265	6551.67965
642.714	6582.56757
643.163	6644.61232
643.612	6718.98022
644.061	6723.19548
644.51	6793.55905
644.958	6942.37326
645.406	6932.80265
645.855	6863.90004
646.303	7159.63969
646.751	7186.65639
647.199	7227.56129
647.647	7241.68697
648.095	7298.61164
648.543	7389.19879
648.99	7336.89407
649.438	7245.66334
649.885	7407.12807
650.333	7382.06895
650.78	7507.98185
651.227	7384.01096
651.674	7386.65006
652.121	7221.99146
652.568	7353.00942
653.015	7205.03546
653.461	7167.79463
653.908	7105.59247
654.354	7073.78729
654.801	6973.6907
655.247	6916.2688
655.693	6766.40388
656.139	6760.7915
656.585	6723.79927
657.031	6653.7092
657.477	6704.29745
657.922	6537.51475
658.368	6511.02496
658.813	6486.52145
659.259	6402.95945
659.704	6358.81858
660.149	6265.65449
660.594	6169.87645
661.039	6139.61752
661.484	6133.87219
661.929	6073.80069
662.373	5943.38125
662.818	5985.24525
663.262	5944.09547
663.707	5770.57791
664.151	5807.21388
664.595	5823.14852
665.039	5866.32448
665.483	5787.56641
665.927	5798.93464
666.371	5723.99384
666.814	5718.05919
667.258	5741.16056
667.701	5722.35448
668.145	5702.42424
668.588	5694.39531
669.031	5670.01063
669.474	5742.11965
669.917	5641.54902
670.36	5685.45682
670.803	5758.16702
671.245	5631.15543
671.688	5672.25809
672.13	5696.7313
672.573	5641.57029
673.015	5758.14966
673.457	5756.45905
673.899	5737.17986
674.341	5554.2382
674.783	5760.09974
675.225	5786.29113
675.666	5832.22858
676.108	5845.38155
676.549	5763.8887
676.991	5955.43203
677.432	6009.88239
677.873	5940.67974
678.314	5894.98303
678.755	6062.18162
679.196	5871.71443
679.637	6050.95699
680.078	6023.79963
680.518	5899.72763
680.959	6079.90758
681.399	6213.14485
681.839	6055.05623
682.28	6097.22244
682.72	6270.58145
683.16	6242.19719
683.6	6194.56815
684.039	6272.01497
684.479	6338.08717
684.919	6439.72715
685.358	6464.10442
685.798	6544.43505
686.237	6598.7785
686.676	6619.4551
687.115	6716.69161
687.554	6852.78295
687.993	6837.33949
688.432	6804.49989
688.871	6984.54272
689.309	6942.79584
689.748	7184.15681
690.186	7144.66835
690.625	7153.69807
691.063	7329.82212
691.501	7470.06706
691.939	7461.17405
692.377	7518.97189
692.815	7703.10551
693.253	7791.02083
693.69	7896.79405
694.128	7895.18229
694.565	8009.16252
695.003	8135.60237
695.44	8271.41341
695.877	8209.32602
696.314	8309.16967
696.751	8498.56963
697.188	8630.80867
697.625	8730.90102
698.061	8781.1026
698.498	9040.51708
698.934	9003.46631
699.371	9317.06711
699.807	9209.84402
700.243	9316.08112
700.679	9501.5061
701.115	9577.6713
701.551	9948.68115
701.987	9763.2409
702.422	10089.05462
702.858	10148.2372
703.294	10506.55494
703.729	10593.68293
704.164	10514.45726
704.599	10774.70515
705.035	10837.94814
705.47	11023.35754
705.904	11096.90747
706.339	11345.10097
706.774	11529.87343
707.209	11617.3521
707.643	11687.52263
708.078	11999.04977
708.512	12043.04055
708.946	12404.64392
709.38	12456.92801
709.814	12700.00435
710.248	12764.58107
710.682	13111.13771
711.116	13262.03886
711.549	13191.97614
711.983	13344.34154
712.416	13551.54773
712.85	13719.26921
713.283	13834.87619
713.716	14077.13485
714.149	14140.73626
714.582	14292.52082
715.015	14479.75446
715.448	14503.48734
715.881	14664.71893
716.313	14596.63389
716.746	15093.0718
717.178	15281.62526
717.61	15490.57029
718.043	15647.80678
718.475	15701.71242
718.907	16017.44633
719.339	16063.01242
719.77	16130.55721
720.202	16247.8684
720.634	16636.64643
721.065	16564.82209
721.497	16911.91791
721.928	16903.87964
722.359	17174.13472
722.79	17053.1303
723.221	17422.69032
723.652	17385.6236
724.083	17440.40908
724.514	17725.43046
724.945	17781.66437
725.375	18059.20982
725.806	18004.13118
726.236	17886.6358
726.666	18092.45791
727.096	18360.92491
727.526	18641.02395
727.956	18664.76138
728.386	18665.86949
728.816	18882.41148
729.246	18773.04026
729.675	18924.46561
730.105	18963.92899
730.534	18842.67588
730.964	19054.57419
731.393	19291.32602
731.822	19242.33612
732.251	19559.88747
732.68	19624.59532
733.109	19758.50348
733.537	19692.82196
733.966	19903.11261
734.395	19832.48266
734.823	19972.79176
735.251	19829.33054
735.68	19618.64753
736.108	19764.23981
736.536	19695.25221
736.964	19521.12563
737.392	19812.91527
737.82	19539.53877
738.247	19655.19741
738.675	19658.67389
739.102	19367.84228
739.53	19483.40332
739.957	19485.23916
740.384	19329.42183
740.811	19183.45794
741.238	19504.17251
741.665	19128.26627
742.092	18766.12834
742.519	18845.90066
742.945	18869.82187
743.372	18887.43275
743.798	18537.99383
744.225	18435.93281
744.651	18258.04691
745.077	18195.32385
745.503	18191.20265
745.929	18145.4346
746.355	17821.2913
746.781	17527.36306
747.207	17536.27083
747.632	17147.38709
748.058	17318.05824
748.483	17344.79336
748.908	17252.60644
749.334	17253.88054
749.759	16795.28158
750.184	16674.60691
750.609	16294.00057
751.033	16402.3545
751.458	16239.52183
751.883	16098.77846
752.307	15875.31439
752.732	15779.45831
753.156	15410.57718
753.58	15451.89453
754.005	15226.3937
754.429	14858.88395
754.853	14757.05183
755.277	14572.21431
755.7	14400.95545
756.124	14069.10339
756.548	13957.99761
756.971	14032.10759
757.394	13882.18791
757.818	13609.92919
758.241	13390.51444
758.664	13049.20393
759.087	12966.95793
759.51	12914.59059
759.933	12610.78053
760.356	12484.34919
760.778	12373.17386
761.201	12023.32164
761.623	11820.34369
762.046	11760.16455
762.468	11530.80756
762.89	11530.68322
763.312	11135.83429
763.734	10916.98994
764.156	10788.38546
764.578	10620.06023
765	10386.98589
765.421	10162.19001
765.843	10093.97739
766.264	9762.14846
766.686	9677.90793
767.107	9611.74789
767.528	9396.30839
767.949	9156.82502
768.37	9075.64067
768.791	8714.97296
769.212	8590.95578
769.632	8551.69296
770.053	8352.83361
770.473	8209.35566
770.894	8039.27684
771.314	7857.96023
771.734	7703.81048
772.154	7446.15866
772.575	7467.62168
772.994	7311.47643
773.414	7054.64618
773.834	7037.93368
774.254	6978.79983
774.673	6787.83677
775.093	6558.98795
775.512	6420.95487
775.931	6225.2146
776.351	6196.09999
776.77	6044.03796
777.189	5907.836
777.607	5790.44689
778.026	5652.31225
778.445	5554.53363
778.864	5411.5588
779.282	5269.14724
779.701	5198.60101
780.119	5180.71484
780.537	5038.62185
780.955	4852.84873
781.373	4810.68803
781.791	4688.1563
782.209	4550.14784
782.627	4527.4083
783.045	4413.28279
783.462	4335.22332
783.88	4248.39738
784.297	4144.1922
784.715	4035.45412
785.132	3960.9156
785.549	3847.25
785.966	3734.34902
786.383	3706.23287
786.8	3654.78707
787.217	3617.02511
787.633	3430.4517
788.05	3363.87883
788.466	3255.91028
788.883	3295.62404
789.299	3178.05984
789.715	3129.25809
790.131	3013.38554
790.547	2987.39288
790.963	2896.35165
791.379	2843.48972
791.795	2808.78631
792.21	2711.9461
792.626	2633.00929
793.041	2609.27248
793.457	2527.23112
793.872	2476.93035
794.287	2486.16482
794.702	2369.10591
795.117	2323.26379
795.532	2337.33879
795.947	2282.95987
796.362	2204.85534
796.776	2198.76634
797.191	2092.04914
797.605	2019.86588
798.02	1986.93592
798.434	1999.55546
798.848	1897.00767
799.262	1891.97014
799.676	1848.85647
800.09	1749.81176
800.504	1760.74228
800.918	1642.44945
801.331	1609.84613
801.745	1639.42961
802.158	1512.61398
802.572	1580.60231
802.985	1541.51326
803.398	1511.46123
803.811	1424.57114
804.224	1379.43365
804.637	1316.28182
805.05	1409.24811
805.462	1355.3874
805.875	1217.42293
806.288	1226.22019
806.7	1218.27588
807.112	1122.93194
807.525	1144.10576
807.937	1107.11818
808.349	1049.0397
808.761	1143.15683
809.173	1062.00504
809.584	1056.01696
809.996	946.84616
810.408	942.00145
810.819	915.7169
811.231	965.10749
811.642	997.97014
812.053	932.82567
812.464	857.64025
812.875	851.80682
813.286	824.78472
813.697	798.47237
814.108	815.62439
814.519	812.47434
814.929	734.57413
815.34	702.41347
815.75	736.59672
816.16	662.38478
816.571	629.40923
816.981	636.25513
817.391	646.31071
817.801	623.33844
818.211	620.25673
818.62	583.21905
819.03	606.27308
819.44	527.19158
819.849	535.16738
820.259	513.1448
820.668	500.08928
821.077	531.16989
821.486	503.045
821.895	466.00262
822.304	438.04351
822.713	502.03202
823.122	410.91869
823.531	428.88741
823.939	495.06719
824.348	438.94179
824.756	434.96725
825.164	404.9112
825.573	415.93811
825.981	390.86669
826.389	369.83958
826.797	443.01152
827.205	392.81168
827.612	348.77594
828.02	324.6874
828.428	292.68573
828.835	316.77437
829.243	359.76613
829.65	309.71218
830.057	337.73944
830.464	354.79421
830.871	367.79712
831.278	297.65882
831.685	307.61761
832.092	289.64294
832.499	335.66307
832.905	253.59056
833.312	280.5707
833.718	293.67773
834.124	264.55546
834.531	221.51466
834.937	260.62272
835.343	181.40569
835.749	244.517
836.155	235.57602
836.561	205.47251
836.966	240.54202
837.372	222.52523
837.777	228.5319
838.183	209.42725
838.588	218.50937
838.993	201.45793
839.399	166.38453
839.804	164.37779
840.209	221.53366
840.613	201.41369
841.018	166.39457
841.423	206.4966
841.828	199.47528
842.232	176.40203
842.637	222.49236
843.041	146.35742
843.445	116.27488
843.849	172.403
844.253	221.48575
844.657	120.29006
845.061	240.51186
845.465	164.37311
845.869	175.38044
846.272	167.38523
846.676	106.2392
847.079	149.36253
847.483	202.47014
847.886	161.36487
848.289	148.38155
848.692	121.28955
849.095	148.33357
849.498	135.31947
849.901	137.29302
850.304	145.32634
850.707	139.33503
851.109	131.31288
851.512	126.29488
851.914	135.32588
852.316	125.30459
852.718	183.45852
853.121	121.2819
853.523	91.20095
853.925	157.39309
854.326	146.34837
854.728	136.33393
855.13	129.32054
855.531	125.28387
855.933	89.20154
856.334	134.31998
856.736	130.27738
857.137	120.26681
857.538	86.20889
857.939	139.33059
858.34	109.24964
858.741	101.25188
859.142	97.22055
859.542	134.33968
859.943	85.202
860.343	132.31255
860.744	89.20727
861.144	119.27844
861.544	109.25305
861.945	87.21216
862.345	112.25893
862.745	129.3068
863.145	115.25511
863.544	108.26135
863.944	96.21567
864.344	129.29947
864.743	133.31206
865.143	118.29187
865.542	60.1313
865.941	125.295
866.34	92.20693
866.74	103.26559
867.139	90.20873
867.537	44.10696
867.936	103.23703
868.335	49.11994
868.734	88.21599
869.132	75.16395
869.531	112.25367
869.929	92.20039
870.327	91.20791
870.726	89.20964
871.124	85.18746
871.522	91.221
871.92	107.25125
872.318	118.2715
872.715	79.18405
873.113	71.16463
873.511	13.03129
873.908	109.26729
874.306	66.15911
874.703	66.15682
875.1	67.16216
875.497	92.20914
875.894	107.25468
876.291	106.24817
876.688	112.27612
877.085	108.24402
877.482	68.16325
877.878	75.17529
878.275	85.20751
878.671	61.1251
879.068	116.2653
879.464	89.20498
879.86	73.1649
880.256	16.03756
880.652	56.1371
881.048	45.10612
881.444	54.12126
881.84	67.16332
882.236	52.12569
882.631	108.25365
883.027	105.24038
883.422	10.02466
883.817	74.17995
884.213	81.19944
884.608	105.25107
885.003	34.07826
885.398	89.21322
885.793	63.15116
886.188	15.03606
886.582	74.18029
886.977	87.19509
887.371	55.13282
887.766	79.18941
888.16	42.09914
888.554	122.28373
888.949	86.20631
889.343	64.1489
889.737	61.1586
890.131	90.21582
890.525	78.19279
890.918	65.15691
891.312	50.11348
891.706	71.17874
892.099	101.24436
892.492	118.23723
892.886	47.11028
893.279	53.12968
893.672	77.18945
894.065	91.21793
894.458	11.02653
894.851	100.23128
895.244	43.10591
895.637	95.21862
896.029	70.16504
896.422	35.08129
896.814	57.13562
897.206	92.21176
897.599	138.32208
897.991	41.09609
898.383	75.16956
898.775	123.26501
899.167	65.14731
899.559	48.11589
899.951	82.18217
900.342	44.10676
900.734	100.24281
901.125	81.20245
901.517	71.16724
901.908	61.13768
902.299	72.1691
902.69	102.23074
903.082	68.15758
903.473	69.16082
903.863	20.04913
904.254	150.33116
904.645	49.11555
905.036	95.22394
905.426	98.20883
905.817	62.14476
906.207	23.05221
906.597	84.18917
906.987	83.20429
907.378	84.20457
907.768	87.2216
908.158	48.11216
908.547	56.14156
908.937	36.08803
909.327	57.13238
909.717	53.12717
910.106	81.18454
910.495	56.1326
910.885	74.18022
911.274	64.15318
911.663	81.19479
912.052	27.06347
912.441	98.24
912.83	71.15396
913.219	55.13816
913.608	90.21113
913.997	24.05882
914.385	82.18671
914.774	75.17405
915.162	108.2472
915.55	92.20999
915.939	53.12987
916.327	62.14715
916.715	105.25958
917.103	91.20934
917.491	83.19528
917.878	103.24006
918.266	42.10469
918.654	106.26056
919.041	71.18078
919.429	38.08614
919.816	65.15792
920.203	126.29222
920.591	60.14311
920.978	66.15471
921.365	86.21739
921.752	35.07887
922.139	144.2919
922.525	49.11349
922.912	41.09575
923.299	70.16697
923.685	13.03261
924.072	75.16006
924.458	82.19514
924.844	85.20099
925.231	22.04879
925.617	36.0895
926.003	69.16864
926.389	53.12852
926.774	28.06829
927.16	67.15904
927.546	79.19673
927.931	54.12851
928.317	79.17153
928.702	98.21871
929.088	131.29954
929.473	73.17974
929.858	84.19767
930.243	118.27128
930.628	103.24101
931.013	39.09329
931.398	87.18616
931.783	19.04797
932.167	88.20756
932.552	75.1792
932.937	81.19072
933.321	66.16038
933.705	10.02414
934.09	50.1188
934.474	3.00682
934.858	74.18478
935.242	15.03339
935.626	54.13387
936.009	82.21192
936.393	101.24896
936.777	87.21468
937.16	60.15167
937.544	54.11952
937.927	85.20766
938.311	69.15974
938.694	95.24146
939.077	42.09656
939.46	53.12182
939.843	71.13625
940.226	58.14225
940.609	86.19002
940.991	51.12409
941.374	65.15323
941.757	65.15287
942.139	103.21953
942.522	75.16762
942.904	65.14947
943.286	80.19374
943.668	123.30675
944.05	59.13951
944.432	69.16221
944.814	55.12849
945.196	62.14613
945.578	70.16196
945.959	36.08004
946.341	68.15627
946.722	55.12262
947.104	91.20691
947.485	103.22697
947.866	79.19229
948.247	90.21927
948.628	-4.00926
949.009	37.0915
949.39	38.09043
949.771	39.08468
950.152	52.1227
950.532	89.21533
950.913	89.20383
951.293	57.15023
951.674	99.22747
952.054	105.2527
952.434	44.10531
952.814	37.08345
953.194	19.04752
953.574	53.12455
953.954	22.04973
954.334	95.22803
954.714	42.09899
955.093	90.21063
955.473	79.19128
955.853	93.23042
956.232	68.17949
956.611	54.12216
956.99	62.15026
957.37	68.16499
957.749	3.0068
958.128	68.16542
958.506	42.10545
958.885	57.1376
959.264	101.23883
959.643	139.29884
960.021	82.19566
960.4	83.17806
960.778	65.15066
961.156	64.15312
961.535	57.12539
961.913	116.25792
962.291	86.2142
962.669	54.13235
963.047	33.08185
963.424	101.2496
963.802	55.13011
964.18	45.1076
964.557	82.17815
964.935	80.18009
965.312	76.19122
965.69	83.19634
966.067	23.05331
966.444	25.05818
966.821	48.11943
967.198	88.20037
967.575	61.14245
967.952	100.22234
968.329	99.23056
968.705	147.29573
969.082	107.26568
969.458	59.13762
969.835	65.15126
970.211	98.24303
970.587	87.20716
970.963	44.10772
971.339	47.11908
971.715	73.17482
972.091	46.10867
972.467	19.04505
972.843	98.23465
973.219	97.2184
973.594	29.07348
973.97	75.16499
974.345	55.12667
974.721	24.05504
975.096	78.18169
975.471	77.17302
975.846	48.1096
976.221	20.04924
976.596	140.32199
976.971	103.24365
977.346	51.11238
977.72	56.13633
978.095	40.09967
978.469	72.16294
978.844	78.18612
979.218	77.17904
979.593	51.11634
979.967	30.06889
980.341	55.12155
980.715	80.1933
981.089	62.14862
981.463	63.13784
981.837	82.19371
982.21	35.07573
982.584	75.1737
982.957	84.20174
983.331	9.02018
983.704	51.12195
984.078	-18.04305
984.451	56.13111
984.824	63.14793
985.197	13.02997
985.57	-5.01196
985.943	78.18004
986.316	69.15898
986.688	60.138
987.061	43.09694
987.434	79.2003
987.806	24.05515
988.179	5.01134
988.551	66.15965
988.923	35.08238
989.295	31.07418
989.667	72.16692
990.039	82.19701
990.411	28.06076
990.783	64.1381
991.155	19.04427
991.527	47.10864
991.898	67.16076
992.27	76.18162
992.641	42.1006
993.012	57.12434
993.384	66.1493
993.755	61.15031
994.126	64.14855
994.497	32.07565
994.868	43.09316
995.239	65.14994
995.61	36.08741
995.98	25.05838
996.351	52.1246
996.722	74.16542
997.092	33.07552
997.462	18.04105
997.833	44.09885
998.203	69.15695
998.573	62.14862
998.943	60.13512
999.313	73.16793
999.683	30.06952
1000.053	35.07512
1000.423	23.05337
1000.792	28.06928
1001.162	-2.00473
1001.531	51.12088
1001.901	12.02875
1002.27	53.11016
1002.639	27.06606
1003.009	22.05019
1003.378	73.17921
1003.747	20.04511
1004.116	2.00461
1004.485	10.02304
1004.853	7.01692
1005.222	19.04536
1005.591	79.17758
1005.959	69.14847
1006.328	50.1078
1006.696	41.09439
1007.064	17.04088
1007.433	58.13765
1007.801	37.08559
1008.169	25.06021
1008.537	94.19587
1008.905	97.21563
1009.273	55.129
1009.64	32.07442
1010.008	93.20965
1010.375	77.17444
1010.743	42.08946
1011.11	116.26476
1011.478	53.12678
1011.845	94.20787
1012.212	136.29207
1012.579	67.15751
1012.946	46.10338
1013.313	73.16363
1013.68	28.05982
1014.047	29.06637
1014.414	50.11265
1014.78	78.1859
1015.147	63.14342
1015.513	55.12672
1015.88	57.13874
1016.246	44.10273
1016.612	80.17173
1016.978	73.17195
1017.344	63.14932
1017.71	78.17968
1018.076	54.12007
1018.442	80.19759
1018.808	67.16198
1019.174	60.14322
1019.539	41.08591
1019.905	87.19589
1020.27	85.19928
1020.636	92.20592
1021.001	107.24319
1021.366	32.07422
1021.731	103.25622
1022.096	61.14914
1022.461	82.18489
1022.826	67.15314
1023.191	30.07616
1023.556	34.07585
1023.92	72.16705
1024.285	66.15186
1024.649	57.13264
1025.014	34.07992
1025.378	55.13362
1025.742	22.05215
1026.107	84.17884
1026.471	73.16059
1026.835	52.12356
1027.199	66.15198
1027.562	6.01327
1027.926	63.14608
1028.29	55.13372
1028.654	61.13278
1029.017	84.19721
1029.381	89.20261
1029.744	37.091
1030.107	107.23894
1030.471	120.27268
1030.834	44.09372
1031.197	113.25662
1031.56	64.14289
1031.923	58.14441
1032.286	108.23913
1032.648	39.08792
1033.011	99.21806
1033.374	39.08659
1033.736	30.0764
1034.099	47.10989
1034.461	71.1732
1034.823	83.19809
1035.185	36.0863
1035.548	97.22519
1035.91	74.16822
1036.272	63.13714
1036.634	116.26796
1036.995	20.04475
1037.357	88.20474
1037.719	58.1351
1038.08	113.25557
1038.442	58.13105
1038.803	53.11938
1039.165	46.1109
1039.526	70.16138
1039.887	70.15926
1040.248	81.19383
1040.609	45.10534
1040.97	25.05857
1041.331	59.14436
1041.692	57.1295
1042.053	67.14367
1042.413	36.07965
1042.774	78.18104
1043.134	48.10757
1043.495	81.19413
1043.855	114.2646
1044.215	82.19259
1044.576	74.16979
1044.936	56.1213
1045.296	51.12195
1045.656	25.05831
1046.016	67.15308
1046.375	63.14585
1046.735	125.27129
1047.095	80.17773
1047.454	77.15141
1047.814	114.25904
1048.173	56.12555
1048.533	62.13499
1048.892	64.14731
1049.251	52.12408
1049.61	38.08998
1049.969	71.15849
1050.328	79.16142
1050.687	45.1041
1051.046	33.07679
1051.405	7.01665
1051.763	66.14608
1052.122	51.12172
1052.48	87.20357
1052.839	88.19988
1053.197	62.13877
1053.555	76.15991
1053.914	79.18318
1054.272	12.02728
1054.63	65.15221
1054.988	89.20269
1055.345	56.11227
1055.703	111.25289
1056.061	95.23606
1056.419	88.22157
1056.776	20.04578
1057.134	18.03919
1057.491	83.19824
1057.848	50.11848
1058.206	32.0708
1058.563	47.09813
1058.92	46.10054
1059.277	54.12747
1059.634	-1.00223
1059.991	151.33971
1060.348	84.18032
1060.704	101.23364
1061.061	83.17852
1061.418	52.12084
1061.774	70.16498
1062.131	35.09094
1062.487	54.11952
1062.843	68.16182
1063.199	32.07662
1063.555	97.21455
1063.911	37.08925
1064.267	38.07375
1064.623	89.208
1064.979	-9.01977
1065.335	19.0432
1065.691	30.06781
1066.046	51.10605
1066.402	86.1831
1066.757	61.14759
1067.112	71.16522
1067.468	85.19334
1067.823	67.14987
1068.178	50.11472
1068.533	94.21593
1068.888	82.18474
1069.243	60.14163
1069.598	-1.00233
1069.952	73.15965
1070.307	3.00723
1070.662	75.17177
1071.016	108.23124
1071.371	123.26398
1071.725	52.11749
1072.079	56.12895
1072.434	31.07268
1072.788	38.0853
1073.142	70.16447
1073.496	57.12855
1073.85	33.07299
1074.203	40.09314
1074.557	76.19661
1074.911	96.21487
1075.265	64.14124
1075.618	83.19292
1075.971	51.11563
1076.325	76.18626
1076.678	46.10041
1077.031	6.01274
1077.385	70.14495
1077.738	72.15336
1078.091	63.13754
1078.444	90.19462
1078.796	39.09251
1079.149	103.24365
1079.502	55.125
1079.855	77.1706
1080.207	40.09413
1080.56	60.14999
1080.912	47.10924
1081.264	98.22458
1081.617	42.09856
1081.969	34.08317
1082.321	56.13013
1082.673	77.16953
1083.025	41.09235
1083.377	52.11644
1083.728	65.14317
1084.08	28.06679
1084.432	59.13513
1084.783	70.15221
1085.135	70.16856
1085.486	94.20449
1085.838	71.1675
1086.189	93.21633
1086.54	55.12465
1086.891	94.23123
1087.242	139.3246
1087.593	32.07348
1087.944	85.18369
1088.295	114.24229
1088.646	67.15819
1088.996	57.13212
1089.347	34.07954
1089.698	68.15496
1090.048	59.14613
1090.398	48.10526
1090.749	53.11977
1091.099	2.00494
1091.449	73.17442
1091.799	75.17913
1092.149	61.14452
1092.499	49.11448
1092.849	13.03202
1093.199	55.13071
1093.548	96.22132
1093.898	34.08144
1094.248	26.06377
1094.597	32.07994
1094.947	74.19012
1095.296	110.25895
1095.645	56.13928
1095.994	78.17803
1096.343	49.11887
1096.692	60.15442
1097.041	39.104
1097.39	12.02889
1097.739	22.05525
1098.088	62.15862
1098.437	50.12868
1098.785	20.05185
1099.134	25.06312
1099.482	76.20216
1099.83	65.16422
1100.179	78.19913
1100.527	26.06605
1100.875	16.04139
1101.223	67.17246
1101.571	9.02414
1101.919	78.20032
1102.267	11.03051
1102.615	9.02889
1102.962	4.01283
1103.31	13.0417
1103.658	-2.00641
