Data from N3 R2 sample 6_Subt2__1__10-14-58-886.txt Node

Date: Thu Sep 18 10:14:58 PDT 2025
User: uwsun
Spectrometer: HDX01956
Trigger mode: 0
Integration Time (sec): 5.000000E-1
Scans to average: 1
Nonlinearity correction enabled: true
Boxcar width: 0
Storing dark spectrum: false
XAxis mode: Wavelengths
Number of Pixels in Spectrum: 2068
>>>>>Begin Spectral Data<<<<<
194.03	67.19261
194.578	69.22255
195.127	65.20678
195.676	72.22968
196.225	57.15079
196.773	66.18256
197.321	161.4395
197.87	223.56195
198.418	219.5564
198.966	278.71513
199.513	252.6283
200.061	237.59208
200.609	253.65434
201.156	274.58386
201.704	231.57208
202.251	246.64206
202.798	208.53267
203.345	278.67191
203.892	268.66236
204.438	237.55213
204.985	245.57122
205.532	259.66707
206.078	286.67976
206.624	309.75315
207.17	295.6726
207.716	241.58129
208.262	259.50111
208.808	277.6802
209.354	321.76923
209.899	275.67554
210.445	259.63507
210.99	304.72086
211.535	306.69978
212.08	240.5471
212.625	249.60987
213.17	279.69421
213.715	297.65936
214.259	307.69487
214.804	250.60037
215.348	308.69018
215.892	305.71891
216.436	230.51562
216.98	244.52423
217.524	285.66368
218.068	283.69622
218.612	329.80905
219.155	231.53689
219.698	244.56878
220.242	237.57316
220.785	269.61605
221.328	242.58536
221.871	308.76036
222.414	278.66786
222.956	211.49621
223.499	211.46202
224.041	214.47975
224.583	202.41828
225.126	239.51139
225.668	209.49916
226.21	280.68871
226.751	281.60619
227.293	243.53545
227.835	276.65675
228.376	235.5213
228.918	222.54143
229.459	251.61089
230	276.64336
230.541	287.63743
231.082	267.63204
231.622	244.53709
232.163	186.44228
232.704	287.6964
233.244	247.59779
233.784	252.59412
234.324	280.61038
234.864	213.47152
235.404	262.59845
235.944	262.59869
236.484	297.71633
237.023	239.54933
237.563	270.60902
238.102	291.66455
238.641	230.56512
239.18	263.59989
239.719	230.56324
240.258	287.62205
240.797	237.553
241.335	223.53055
241.874	313.58327
242.412	252.59712
242.95	258.60732
243.488	227.49768
244.026	319.7132
244.564	273.54314
245.102	278.61038
245.64	262.60712
246.177	237.51303
246.715	291.67578
247.252	238.5263
247.789	280.49886
248.326	258.60543
248.863	302.63989
249.4	276.60548
249.936	317.63685
250.473	344.77844
251.009	223.49962
251.546	318.68232
252.082	220.46452
252.618	316.67862
253.154	237.55757
253.69	256.55783
254.226	299.69134
254.761	278.6037
255.297	246.52283
255.832	280.64548
256.367	292.66267
256.903	282.60691
257.438	314.70738
257.972	265.57241
258.507	227.50921
259.042	297.62228
259.576	340.71977
260.111	298.65925
260.645	285.59423
261.179	276.62712
261.713	298.64355
262.247	232.51732
262.781	293.59543
263.315	254.59953
263.849	276.6711
264.382	288.63899
264.915	347.7857
265.449	261.61999
265.982	259.5719
266.515	318.75115
267.048	226.46881
267.58	246.51622
268.113	258.54212
268.646	254.60511
269.178	231.50453
269.71	366.76972
270.243	307.68609
270.775	319.78996
271.307	279.64202
271.838	327.74043
272.37	254.60627
272.902	306.66676
273.433	334.70923
273.965	254.60116
274.496	241.58327
275.027	335.80124
275.558	311.73248
276.089	283.68644
276.62	248.60979
277.15	299.70997
277.681	293.60738
278.211	286.67505
278.741	362.76533
279.272	276.61288
279.802	267.64569
280.332	290.66293
280.861	273.63323
281.391	321.70078
281.921	296.68318
282.45	308.73654
282.98	270.68486
283.509	360.78142
284.038	291.64443
284.567	299.6729
285.096	341.79375
285.625	323.69708
286.153	344.78857
286.682	321.70968
287.21	273.63073
287.739	262.60255
288.267	298.70255
288.795	318.80142
289.323	300.68137
289.851	381.85284
290.378	325.69478
290.906	317.74864
291.433	329.7893
291.961	346.75711
292.488	296.71055
293.015	325.73889
293.542	375.92247
294.069	363.86123
294.596	291.68858
295.122	351.80703
295.649	353.73633
296.175	344.79331
296.702	392.91224
297.228	325.75263
297.754	331.71496
298.28	371.81438
298.806	295.68886
299.332	359.76779
299.857	341.74349
300.383	358.86228
300.908	358.84397
301.433	366.8588
301.958	342.75152
302.483	337.80295
303.008	359.85633
303.533	327.81332
304.058	337.75375
304.582	362.81816
305.107	284.71883
305.631	382.82316
306.155	334.74843
306.679	353.79604
307.203	402.88519
307.727	355.8061
308.251	338.8027
308.775	458.04646
309.298	353.81681
309.822	372.89361
310.345	456.02263
310.868	415.94918
311.391	432.00356
311.914	423.0025
312.437	393.85394
312.96	380.85428
313.482	380.85113
314.005	361.86341
314.527	346.8654
315.049	445.06204
315.571	436.92498
316.093	440.02741
316.615	354.81474
317.137	417.85861
317.659	457.03894
318.18	423.95307
318.702	476.04261
319.223	431.82434
319.744	490.02587
320.265	471.076
320.786	456.07317
321.307	467.08225
321.828	464.98094
322.348	460.01554
322.869	542.19291
323.389	800.33951
323.909	537.13015
324.43	506.1238
324.95	519.09987
325.47	497.15188
325.989	513.13111
326.509	498.03759
327.029	573.19916
327.548	520.09071
328.067	533.19978
328.587	531.23808
329.106	484.01641
329.625	571.37256
330.144	595.26394
330.662	592.27203
331.181	618.3274
331.7	523.12622
332.218	583.15333
332.736	628.33443
333.255	592.2764
333.773	637.36268
334.291	648.47353
334.808	642.30673
335.326	596.22012
335.844	631.34925
336.361	681.58942
336.879	663.4092
337.396	740.60609
337.913	673.39881
338.43	701.40984
338.947	724.54333
339.464	696.33582
339.981	681.45252
340.497	718.5801
341.014	704.5402
341.53	684.3816
342.046	811.78525
342.562	731.62921
343.078	758.57884
343.594	766.60964
344.11	835.74437
344.626	791.76808
345.141	812.62027
345.657	798.57831
346.172	764.6343
346.687	727.48301
347.202	840.66459
347.717	821.71207
348.232	793.74561
348.747	823.65705
349.261	834.58424
349.776	831.72529
350.29	871.89977
350.805	862.85359
351.319	847.70699
351.833	908.7878
352.347	896.81948
352.861	862.75196
353.374	863.69073
353.888	909.91497
354.401	908.7627
354.915	916.7639
355.428	947.01948
355.941	919.82685
356.454	961.79453
356.967	925.83793
357.48	934.79346
357.993	996.06784
358.505	923.92324
359.018	985.04271
359.53	1039.12145
360.042	1029.90758
360.554	1053.15008
361.066	977.01172
361.578	1028.87787
362.09	1013.01798
362.602	1071.95612
363.113	1064.07138
363.625	1072.99878
364.136	1076.9263
364.647	1084.11837
365.158	1111.10953
365.669	1094.148
366.18	1119.14736
366.691	1053.89033
367.201	1097.16146
367.712	1156.13109
368.222	1187.1868
368.733	1188.04265
369.243	1254.19324
369.753	1221.23065
370.263	1235.37958
370.773	1194.34037
371.282	1224.33309
371.792	1305.35248
372.301	1318.48621
372.811	1343.78843
373.32	1449.31245
373.829	1416.53084
374.338	1412.34924
374.847	1483.54002
375.356	1476.5983
375.865	1634.44463
376.373	1650.65181
376.882	1667.06612
377.39	1715.92471
377.898	1758.0365
378.407	1853.80748
378.915	1985.74888
379.423	1939.95871
379.93	2099.05864
380.438	2077.18873
380.946	2260.14241
381.453	2351.33282
381.96	2531.37437
382.468	2647.32032
382.975	2737.56837
383.482	2704.07004
383.989	2849.88328
384.495	3145.29912
385.002	3218.69165
385.509	3361.40346
386.015	3574.43862
386.521	3757.97725
387.028	3925.8918
387.534	3913.52174
388.04	4040.23537
388.546	4112.61466
389.051	4620.31919
389.557	4810.53638
390.063	4969.2707
390.568	5220.56141
391.073	5418.90874
391.578	5622.45281
392.084	5881.84107
392.589	6229.42591
393.093	6766.91355
393.598	7214.71996
394.103	7847.15384
394.607	8782.1686
395.112	9094.71449
395.616	9688.93551
396.12	10534.57032
396.624	11621.08489
397.128	12623.53017
397.632	13740.65226
398.136	14958.55102
398.639	16520.41685
399.143	18959.34915
399.646	20903.61892
400.15	23124.32368
400.653	26045.93486
401.156	29748.57498
401.659	34349.22417
402.162	44038.93482
402.664	59846.18198
403.167	63815.75541
403.67	63769.22307
404.172	63919.58413
404.674	63858.43483
405.176	63738.15102
405.678	63977.72923
406.18	64011.81569
406.682	63863.44694
407.184	63926.60148
407.686	63841.39382
408.187	64025.8516
408.688	63892.51763
409.19	63833.37461
409.691	60414.59202
410.192	51700.25608
410.693	45898.4725
411.194	43488.83493
411.694	40550.72021
412.195	37032.49837
412.696	34460.65509
413.196	33781.47723
413.696	34132.67513
414.196	33991.60706
414.696	32512.87182
415.196	29540.67295
415.696	24127.72081
416.196	18660.87927
416.695	16088.62654
417.195	15026.48732
417.694	14354.45353
418.194	13247.14914
418.693	12570.66516
419.192	12295.72491
419.691	12067.52709
420.19	11712.41296
420.688	11279.27434
421.187	10630.33331
421.685	9868.41586
422.184	8630.90975
422.682	7283.49332
423.18	6519.69463
423.678	5999.79492
424.176	5554.97561
424.674	5342.91437
425.172	4929.50728
425.669	4552.02704
426.167	4201.81341
426.664	3925.79465
427.161	3656.98715
427.659	3395.41311
428.156	3240.67148
428.652	3033.70346
429.149	2951.46009
429.646	2783.97589
430.143	2561.32872
430.639	2505.25287
431.135	2435.5188
431.632	2271.99873
432.128	2092.13741
432.624	2066.46442
433.12	1999.85792
433.616	2006.70088
434.111	1919.97203
434.607	1873.96989
435.103	1774.39904
435.598	1713.33977
436.093	1636.66145
436.588	1553.4701
437.083	1529.43297
437.578	1443.45279
438.073	1353.59757
438.568	1373.56704
439.062	1320.09497
439.557	1189.17743
440.051	1210.0994
440.546	1203.11848
441.04	1158.20698
441.534	1135.30213
442.028	1171.23236
442.522	1056.05868
443.015	1054.79617
443.509	1055.08824
444.002	1016.04312
444.496	986.73315
444.989	1074.10865
445.482	987.02418
445.975	1045.95266
446.468	1022.77603
446.961	1077.85173
447.454	944.74233
447.947	961.90069
448.439	980.99201
448.931	986.85173
449.424	951.0289
449.916	943.91978
450.408	921.74768
450.9	867.78491
451.392	859.86411
451.884	830.61719
452.375	861.813
452.867	792.51748
453.358	839.62508
453.849	785.42413
454.341	782.50983
454.832	802.465
455.323	868.83774
455.814	759.49372
456.304	810.5961
456.795	751.47795
457.285	728.3819
457.776	780.52035
458.266	751.54242
458.756	698.44214
459.247	657.38916
459.737	727.53398
460.226	753.47772
460.716	689.44546
461.206	699.46388
461.695	621.37017
462.185	637.34094
462.674	695.38492
463.163	674.32216
463.653	695.27974
464.142	637.3709
464.63	609.31731
465.119	642.31859
465.608	644.33341
466.096	622.18897
466.585	573.17111
467.073	537.14502
467.561	563.2156
468.05	538.11711
468.538	591.29357
469.026	550.17557
469.513	505.96356
470.001	562.1582
470.489	570.21681
470.976	560.17631
471.463	526.19052
471.951	518.17144
472.438	517.10087
472.925	463.00021
473.412	472.0499
473.899	468.98377
474.385	476.06844
474.872	433.93324
475.359	491.1042
475.845	446.8454
476.331	405.79787
476.817	437.9842
477.303	464.98996
477.789	378.84212
478.275	405.9371
478.761	394.87195
479.247	427.87881
479.732	413.95977
480.218	396.97249
480.703	350.81228
481.188	439.8734
481.673	401.85723
482.158	364.73583
482.643	397.94875
483.128	433.93364
483.612	410.90886
484.097	324.73915
484.581	316.69235
485.066	388.88905
485.55	388.79909
486.034	304.62469
486.518	373.83735
487.002	266.61907
487.486	296.68372
487.969	290.67146
488.453	256.61127
488.936	276.59298
489.42	323.67465
489.903	248.59308
490.386	241.47813
490.869	336.69324
491.352	283.64941
491.835	274.53357
492.318	275.58968
492.8	348.67477
493.283	302.7343
493.765	264.62023
494.247	277.61548
494.73	289.60846
495.212	266.60318
495.694	269.60688
496.175	243.56209
496.657	267.60508
497.139	300.48322
497.62	274.63039
498.102	225.54127
498.583	165.39559
499.064	197.42626
499.545	278.60447
500.026	281.60645
500.507	185.41432
500.988	280.66934
501.469	201.48592
501.949	241.57293
502.43	245.5683
502.91	261.52991
503.39	178.42992
503.87	237.53994
504.35	181.4122
504.83	195.41381
505.31	229.53245
505.79	193.44308
506.269	196.43651
506.749	187.41552
507.228	238.53969
507.707	231.49684
508.187	262.60038
508.666	235.56189
509.145	243.54666
509.623	205.46534
510.102	202.47421
510.581	200.4686
511.059	200.48924
511.538	180.45255
512.016	252.58048
512.494	211.49118
512.972	190.44274
513.45	193.43775
513.928	220.51768
514.406	220.52231
514.884	213.53291
515.361	188.43808
515.839	212.47312
516.316	222.52218
516.793	210.51427
517.27	191.4469
517.747	182.45577
518.224	175.39337
518.701	147.31876
519.178	162.39703
519.654	188.43341
520.131	155.37642
520.607	127.30564
521.083	169.37396
521.56	144.3333
522.036	166.35312
522.512	207.49627
522.987	231.53773
523.463	184.42504
523.939	224.53835
524.414	230.50776
524.89	211.48827
525.365	212.46372
525.84	177.41545
526.315	193.45512
526.79	202.44222
527.265	232.51753
527.74	178.42163
528.215	192.43557
528.689	168.35971
529.164	177.36987
529.638	134.33424
530.112	144.33264
530.587	207.42911
531.061	151.35871
531.534	193.45265
532.008	249.58328
532.482	198.44224
532.956	195.48435
533.429	217.51489
533.903	175.37413
534.376	176.3796
534.849	143.32303
535.322	182.41875
535.795	149.35314
536.268	215.50463
536.741	127.29716
537.213	142.32083
537.686	172.4115
538.158	190.42087
538.631	182.4301
539.103	138.30683
539.575	156.31449
540.047	157.33536
540.519	159.37233
540.991	218.51517
541.463	144.34044
541.934	138.30683
542.406	171.40199
542.877	150.3324
543.348	154.36506
543.82	156.37209
544.291	234.52761
544.762	163.38035
545.233	251.61386
545.703	220.47389
546.174	237.53055
546.645	209.49151
547.115	217.50833
547.585	226.5029
548.056	253.6003
548.526	257.58762
548.996	239.55196
549.466	246.57705
549.935	203.47237
550.405	234.49668
550.875	272.62029
551.344	223.51543
551.814	253.55842
552.283	244.51361
552.752	307.68638
553.221	248.52823
553.69	322.6915
554.159	281.67211
554.628	300.64953
555.096	277.67794
555.565	273.57882
556.033	310.70551
556.502	254.59115
556.97	276.58889
557.438	275.61966
557.906	261.59293
558.374	274.61021
558.842	312.71264
559.31	300.64065
559.777	290.67944
560.245	231.51285
560.712	278.61013
561.18	271.57559
561.647	248.53007
562.114	328.71318
562.581	298.70146
563.048	323.70246
563.514	349.83057
563.981	361.77875
564.448	389.82258
564.914	351.76951
565.381	416.88487
565.847	392.85449
566.313	317.69908
566.779	358.75853
567.245	351.76691
567.711	397.88975
568.176	345.73083
568.642	421.9907
569.108	407.93612
569.573	458.97716
570.038	479.91261
570.504	492.01461
570.969	429.99025
571.434	524.05312
571.899	549.17723
572.363	552.14164
572.828	605.23997
573.293	600.22666
573.757	657.3455
574.222	654.2889
574.686	646.31309
575.15	741.55194
575.614	739.5157
576.078	706.44761
576.542	757.48419
577.006	742.44618
577.469	733.57435
577.933	862.64944
578.396	817.6525
578.86	839.6746
579.323	874.77959
579.786	887.59248
580.249	1008.93856
580.712	926.8813
581.175	1004.03556
581.637	995.84443
582.1	1027.78709
582.563	1113.83474
583.025	1187.27164
583.487	1212.86989
583.95	1167.91674
584.412	1354.05681
584.874	1384.53271
585.336	1453.51999
585.797	1451.24523
586.259	1572.59329
586.721	1571.60225
587.182	1665.62315
587.643	1843.70558
588.105	1859.87287
588.566	1997.45854
589.027	2205.26298
589.488	2217.95382
589.949	2338.28244
590.41	2494.36177
590.87	2599.05012
591.331	2827.82165
591.791	2958.13517
592.252	3165.15402
592.712	3335.30315
593.172	3546.91507
593.632	3845.65519
594.092	3983.60281
594.552	4245.29142
595.011	4477.5304
595.471	4817.27331
595.931	5155.05482
596.39	5464.32629
596.849	5710.98006
597.308	6064.28886
597.768	6458.46325
598.227	6981.87348
598.685	7330.65406
599.144	7795.03908
599.603	8271.41081
600.062	8868.10593
600.52	9749.13065
600.978	10055.95041
601.437	10734.4011
601.895	11342.40729
602.353	12030.9356
602.811	12817.64162
603.269	13422.34367
603.727	14186.29716
604.184	15125.7727
604.642	15881.99495
605.099	17027.99361
605.557	17761.96035
606.014	18562.4208
606.471	19660.07387
606.928	20556.21272
607.385	21673.70198
607.842	22650.64024
608.299	23375.59134
608.755	24393.11019
609.212	25358.98357
609.668	26148.37239
610.125	27319.92785
610.581	28130.71422
611.037	29090.03457
611.493	29556.40101
611.949	30534.02774
612.405	31206.16192
612.861	32031.03217
613.316	32382.59692
613.772	32946.47248
614.227	33425.91668
614.683	33862.56372
615.138	34053.69667
615.593	34073.01763
616.048	34495.75208
616.503	34609.82161
616.958	34825.11792
617.412	34492.17645
617.867	34614.0419
618.321	33983.96409
618.776	33881.18276
619.23	33547.40673
619.684	33153.74341
620.138	32772.96693
620.592	32105.81174
621.046	32004.31784
621.5	31400.14479
621.954	30573.43065
622.407	29838.6767
622.861	29539.37773
623.314	29075.71626
623.768	28523.30076
624.221	27674.23413
624.674	27017.23576
625.127	26832.69389
625.58	26161.80641
626.033	25708.42447
626.485	24848.01868
626.938	24671.66626
627.39	24112.27338
627.843	23347.72263
628.295	22900.24131
628.747	22341.07573
629.199	22098.97257
629.651	21718.23055
630.103	21295.08669
630.555	20690.82073
631.006	20405.94522
631.458	19955.23029
631.909	19576.36788
632.361	19443.69877
632.812	19009.66935
633.263	18529.95481
633.714	18337.0415
634.165	17972.10553
634.616	17825.6221
635.067	17598.54828
635.518	17377.99715
635.968	17153.63781
636.419	17001.38305
636.869	16654.44821
637.319	16494.06934
637.769	16425.99554
638.219	16389.52944
638.669	16374.18955
639.119	16257.75597
639.569	16387.13179
640.019	16303.02192
640.468	16376.50615
640.918	16397.51263
641.367	16351.25645
641.816	16425.25304
642.265	16654.79147
642.714	16711.8608
643.163	16737.96841
643.612	16866.06939
644.061	16921.91106
644.51	17091.33859
644.958	17282.55188
645.406	17198.63022
645.855	17361.20594
646.303	17441.42057
646.751	17753.2547
647.199	17643.40916
647.647	17728.86576
648.095	17824.54915
648.543	17875.05557
648.99	17844.43979
649.438	17919.40023
649.885	17903.18465
650.333	17870.0015
650.78	17861.50168
651.227	17762.93229
651.674	17827.55605
652.121	17542.13013
652.568	17388.29185
653.015	17265.58068
653.461	17192.69394
653.908	16890.94164
654.354	16714.0245
654.801	16478.67782
655.247	16194.2119
655.693	16079.95942
656.139	15853.45033
656.585	15677.58989
657.031	15312.17233
657.477	15172.1341
657.922	14927.03301
658.368	14647.04601
658.813	14478.84823
659.259	14333.49509
659.704	14102.87752
660.149	13746.36893
660.594	13516.16524
661.039	13353.46265
661.484	12995.40757
661.929	12724.72876
662.373	12343.66327
662.818	12422.26231
663.262	12289.67901
663.707	11805.64151
664.151	11729.55408
664.595	11521.57584
665.039	11476.20715
665.483	11260.10632
665.927	11168.11574
666.371	10888.90968
666.814	10947.1099
667.258	10621.79071
667.701	10568.04171
668.145	10409.97601
668.588	10160.20376
669.031	10075.02734
669.474	9946.6243
669.917	9794.31322
670.36	9720.01267
670.803	9751.09306
671.245	9531.67846
671.688	9508.50822
672.13	9292.00216
672.573	9386.28091
673.015	9218.88882
673.457	9203.80556
673.899	9004.49683
674.341	8936.37314
674.783	8990.45618
675.225	8822.24167
675.666	8722.0822
676.108	8792.97617
676.549	8703.93456
676.991	8522.55229
677.432	8544.47715
677.873	8379.43902
678.314	8361.53692
678.755	8240.5426
679.196	8071.10214
679.637	8020.22304
680.078	7978.09399
680.518	7741.84708
680.959	7619.93529
681.399	7767.20711
681.839	7676.05887
682.28	7537.1285
682.72	7439.66126
683.16	7383.10403
683.6	7250.56445
684.039	7210.14515
684.479	7192.0032
684.919	7165.71774
685.358	7039.03568
685.798	6996.35667
686.237	6968.76182
686.676	6830.45401
687.115	6948.69116
687.554	6801.78438
687.993	6866.34241
688.432	6744.49925
688.871	6778.52906
689.309	6586.81849
689.748	6781.0438
690.186	6691.64006
690.625	6660.67411
691.063	6595.7764
691.501	6659.01232
691.939	6672.14347
692.377	6564.88675
692.815	6545.95604
693.253	6674.74668
693.69	6631.27077
694.128	6528.90401
694.565	6599.72548
695.003	6604.26414
695.44	6631.724
695.877	6529.69553
696.314	6535.07291
696.751	6523.4613
697.188	6574.59519
697.625	6489.38943
698.061	6613.78905
698.498	6530.71301
698.934	6610.77429
699.371	6652.67486
699.807	6699.68551
700.243	6602.83908
700.679	6514.36339
701.115	6585.62077
701.551	6666.58657
701.987	6602.24481
702.422	6626.76462
702.858	6714.75048
703.294	6806.51352
703.729	6831.8617
704.164	6744.74586
704.599	6787.36819
705.035	6916.40113
705.47	6799.85094
705.904	6808.56151
706.339	7046.53494
706.774	6903.62892
707.209	7037.6109
707.643	6970.75728
708.078	6997.85753
708.512	7022.05995
708.946	7240.7369
709.38	7197.74817
709.814	7156.4834
710.248	7190.91535
710.682	7314.83895
711.116	7321.92034
711.549	7380.21115
711.983	7289.62239
712.416	7449.81847
712.85	7513.06264
713.283	7456.78993
713.716	7548.0778
714.149	7453.69162
714.582	7691.70475
715.015	7661.06881
715.448	7587.18961
715.881	7558.44665
716.313	7674.84645
716.746	7808.99174
717.178	7751.02419
717.61	7812.34557
718.043	7852.20765
718.475	7929.18226
718.907	7916.30174
719.339	8126.10776
719.77	8008.18959
720.202	8106.45461
720.634	8161.4207
721.065	8079.18271
721.497	8180.42271
721.928	8212.44384
722.359	8233.45545
722.79	8355.52261
723.221	8289.57784
723.652	8450.83795
724.083	8341.32987
724.514	8459.53458
724.945	8410.5181
725.375	8591.75843
725.806	8499.77954
726.236	8465.87593
726.666	8606.79528
727.096	8646.94536
727.526	8733.23083
727.956	8631.77
728.386	8692.01297
728.816	8676.13335
729.246	8739.10323
729.675	8601.87497
730.105	8682.99211
730.534	8771.01869
730.964	8760.155
731.393	8793.15547
731.822	9032.63993
732.251	8781.2388
732.68	8855.14675
733.109	8983.47774
733.537	8970.44075
733.966	8886.35056
734.395	8853.14386
734.823	8886.15359
735.251	8807.1332
735.68	8743.09584
736.108	8746.13826
736.536	8744.98274
736.964	8645.8105
737.392	8710.08803
737.82	8685.93145
738.247	8648.87291
738.675	8532.67524
739.102	8347.64539
739.53	8388.8234
739.957	8405.86696
740.384	8385.5571
740.811	8308.58955
741.238	8302.54063
741.665	8207.29516
742.092	8027.02822
742.519	8025.34194
742.945	7880.14248
743.372	7939.28296
743.798	7909.4064
744.225	7712.89719
744.651	7657.1443
745.077	7658.12867
745.503	7521.8914
745.929	7563.94314
746.355	7499.91993
746.781	7293.91127
747.207	7058.6909
747.632	7136.97289
748.058	6970.05979
748.483	7020.49456
748.908	6954.97267
749.334	6938.90634
749.759	6792.69528
750.184	6683.77562
750.609	6686.86344
751.033	6567.55713
751.458	6420.31119
751.883	6275.97914
752.307	6186.70533
752.732	6177.34231
753.156	6040.07056
753.58	6104.72849
754.005	5859.28939
754.429	5860.88568
754.853	5788.28429
755.277	5681.97099
755.7	5611.33295
756.124	5427.44743
756.548	5509.00136
756.971	5413.29726
757.394	5274.75116
757.818	5268.85076
758.241	5138.79397
758.664	5064.77443
759.087	4935.00233
759.51	4910.65238
759.933	4910.524
760.356	4851.09658
760.778	4758.72034
761.201	4635.64076
761.623	4620.52628
762.046	4442.48947
762.468	4410.6908
762.89	4355.86252
763.312	4394.89214
763.734	4209.86691
764.156	4086.10488
764.578	4142.47472
765	4072.00466
765.421	3926.44695
765.843	3882.65211
766.264	3726.92091
766.686	3652.28618
767.107	3596.14516
767.528	3568.61045
767.949	3519.50045
768.37	3480.35491
768.791	3389.11188
769.212	3279.51023
769.632	3274.012
770.053	3254.75936
770.473	3216.18186
770.894	3102.3227
771.314	2991.0618
771.734	2929.00388
772.154	2888.57126
772.575	2944.92781
772.994	2827.83749
773.414	2878.11051
773.834	2679.38057
774.254	2689.25849
774.673	2626.28049
775.093	2614.38184
775.512	2467.2879
775.931	2472.4424
776.351	2468.34747
776.77	2363.2216
777.189	2351.03118
777.607	2286.39263
778.026	2274.25133
778.445	2243.348
778.864	2128.24872
779.282	2076.91502
779.701	2029.13894
780.119	2016.19096
780.537	1952.04485
780.955	1895.07041
781.373	1950.00706
781.791	1950.65255
782.209	1837.53659
782.627	1839.22972
783.045	1719.49194
783.462	1738.98696
783.88	1663.97986
784.297	1680.86838
784.715	1596.89037
785.132	1592.60072
785.549	1584.73922
785.966	1559.74308
786.383	1503.62083
786.8	1570.44879
787.217	1463.46181
787.633	1388.55906
788.05	1406.29341
788.466	1374.26322
788.883	1381.62243
789.299	1354.30865
789.715	1302.3417
790.131	1233.31133
790.547	1274.36801
790.963	1227.28881
791.379	1162.26579
791.795	1164.94618
792.21	1209.07507
792.626	1172.06528
793.041	1079.06744
793.457	1155.16259
793.872	1013.836
794.287	1069.0178
794.702	1006.91897
795.117	1031.0359
795.532	1000.02008
795.947	1015.87784
796.362	884.65659
796.776	936.69226
797.191	943.85723
797.605	872.68226
798.02	840.67234
798.434	916.60391
798.848	828.71256
799.262	808.66371
799.676	857.70662
800.09	775.58747
800.504	762.53023
800.918	731.38929
801.331	682.49517
801.745	736.38896
802.158	674.42297
802.572	759.53295
802.985	669.3559
803.398	687.37593
803.811	652.40773
804.224	605.28187
804.637	638.30388
805.05	619.20923
805.462	571.21078
805.875	539.24098
806.288	570.20366
806.7	570.23468
807.112	519.0361
807.525	489.04702
807.937	548.18948
808.349	492.0827
808.761	532.15323
809.173	513.09802
809.584	483.04973
809.996	454.99003
810.408	450.05779
810.819	462.96431
811.231	519.23988
811.642	528.15671
812.053	492.06275
812.464	390.83138
812.875	406.9463
813.286	398.94114
813.697	353.72455
814.108	431.9365
814.519	429.85549
814.929	381.88019
815.34	338.73836
815.75	369.86398
816.16	279.63381
816.571	318.75899
816.981	338.71459
817.391	316.6903
817.801	300.6902
818.211	307.66767
818.62	331.73178
819.03	296.6652
819.44	266.63442
819.849	247.57271
820.259	242.57121
820.668	272.62229
821.077	261.60852
821.486	251.55169
821.895	246.55534
822.304	230.57096
822.713	256.55641
823.122	266.6137
823.531	259.55729
823.939	206.47244
824.348	229.51454
824.756	197.46058
825.164	246.57276
825.573	190.44918
825.981	244.55869
826.389	234.54697
826.797	219.52364
827.205	245.524
827.612	227.51883
828.02	150.33033
828.428	188.45047
828.835	192.48133
829.243	147.32813
829.65	175.41412
830.057	137.31326
830.464	188.43618
830.871	176.39781
831.278	166.37827
831.685	138.28844
832.092	157.35885
832.499	209.42589
832.905	86.20733
833.312	134.28219
833.718	199.4689
834.124	221.46939
834.531	140.33124
834.937	168.40944
835.343	128.29003
835.749	195.4176
836.155	91.229
836.561	140.32687
836.966	140.32263
837.372	112.27062
837.777	101.24151
838.183	154.31874
838.588	148.35057
838.993	108.25067
839.399	144.33502
839.804	77.18045
840.209	136.33368
840.613	141.29412
841.018	112.26898
841.423	121.29638
841.828	92.22422
842.232	113.2614
842.637	184.41131
843.041	86.21288
843.445	64.15318
843.849	122.28865
844.253	153.3411
844.657	78.19003
845.061	164.35554
845.465	65.15084
845.869	151.32995
846.272	80.18774
846.676	118.26563
847.079	134.32695
847.483	128.30226
847.886	148.3363
848.289	121.31341
848.692	87.20954
849.095	83.18956
849.498	87.20779
849.901	89.19233
850.304	142.31979
850.707	95.23088
851.109	129.30822
851.512	108.25365
851.914	101.24537
852.316	133.3236
852.718	104.26429
853.121	105.2454
853.523	49.10915
853.925	95.24052
854.326	74.17901
854.728	108.26655
855.13	71.17829
855.531	102.23272
855.933	71.16137
856.334	106.25448
856.736	131.27946
857.137	142.31428
857.538	82.19933
857.939	136.32364
858.34	63.14562
858.741	69.17308
859.142	82.18701
859.542	62.15918
859.943	107.25321
860.343	68.163
860.744	73.17054
861.144	130.30353
861.544	101.23485
861.945	64.15674
862.345	105.24308
862.745	86.20623
863.145	87.19412
863.544	62.15133
863.944	122.27261
864.344	46.10854
864.743	98.23151
865.143	94.23353
865.542	27.0595
865.941	127.29961
866.34	51.11568
866.74	80.20711
867.139	110.2541
867.537	52.12621
867.936	122.27969
868.335	105.25433
868.734	48.11869
869.132	33.07278
869.531	82.18686
869.929	62.13591
870.327	83.18994
870.726	94.2212
871.124	70.15487
871.522	60.14656
871.92	86.20277
872.318	45.10505
872.715	65.15185
873.113	43.10026
873.511	61.14547
873.908	60.14847
874.306	91.21834
874.703	51.12153
875.1	50.12141
875.497	64.14631
875.894	81.19376
876.291	61.14408
876.688	25.06262
877.085	57.13013
877.482	92.21986
877.878	114.26439
878.275	78.19067
878.671	43.08854
879.068	111.25412
879.464	81.18685
879.86	66.1493
880.256	82.19003
880.652	57.13952
881.048	34.08035
881.444	58.13014
881.84	59.14404
882.236	91.21834
882.631	54.12816
883.027	92.21117
883.422	22.05414
883.817	80.19432
884.213	35.08691
884.608	102.24404
885.003	35.08055
885.398	63.15168
885.793	61.14642
886.188	41.09808
886.582	47.11508
886.977	109.24331
887.371	37.08965
887.766	32.07741
888.16	36.08508
888.554	67.15751
888.949	92.22045
889.343	92.21286
889.737	44.11473
890.131	91.21818
890.525	117.28712
890.918	26.06323
891.312	49.11123
891.706	71.17874
892.099	104.25148
892.492	81.16423
892.886	54.12653
893.279	81.19716
893.672	62.15297
894.065	70.16831
894.458	33.07927
894.851	57.13296
895.244	72.1764
895.637	69.15962
896.029	96.2252
896.422	61.14094
896.814	38.09074
897.206	106.2433
897.599	129.30161
897.991	86.19977
898.383	69.15619
898.775	128.27549
899.167	55.1249
899.559	71.17068
899.951	44.09852
900.342	62.14992
900.734	107.25946
901.125	51.12816
901.517	53.12528
901.908	75.1688
902.299	72.1691
902.69	118.26607
903.082	101.23253
903.473	104.24072
903.863	55.13422
904.254	117.26009
904.645	54.12722
905.036	93.21931
905.426	69.14796
905.817	66.15398
906.207	-28.06422
906.597	99.22227
906.987	63.15563
907.378	64.15645
907.768	65.16621
908.158	87.20173
908.547	114.28518
908.937	21.0515
909.327	97.22349
909.717	64.15324
910.106	59.13502
910.495	49.11618
910.885	96.23283
911.274	69.16499
911.663	42.10175
912.052	49.1147
912.441	85.20867
912.83	101.21761
913.219	70.17537
913.608	88.20652
913.997	70.17009
914.385	96.21797
914.774	91.21051
915.162	85.19546
915.55	60.13783
915.939	73.17821
916.327	61.1448
916.715	117.2886
917.103	37.08603
917.491	85.1999
917.878	63.14799
918.266	48.11951
918.654	104.25574
919.041	56.14297
919.429	51.1153
919.816	56.13628
920.203	102.23769
920.591	53.12659
920.978	97.22599
921.365	61.15488
921.752	1.00227
922.139	112.2287
922.525	69.15917
922.912	45.10501
923.299	99.23482
923.685	1.00251
924.072	52.11153
924.458	71.16932
924.844	65.1543
925.231	29.06423
925.617	45.1117
926.003	104.25252
926.389	33.08032
926.774	55.13347
927.16	79.1871
927.546	79.19673
927.931	61.14497
928.317	76.16512
928.702	79.177
929.088	117.26828
929.473	67.16515
929.858	97.22768
930.243	68.1579
930.628	55.1299
931.013	81.1922
931.398	56.12063
931.783	39.09811
932.167	124.29043
932.552	57.13666
932.937	40.09493
933.321	64.15557
933.705	-2.00484
934.09	62.14698
934.474	62.13917
934.858	32.08051
935.242	47.10392
935.626	70.17302
936.009	88.22719
936.393	77.19064
936.777	61.15125
937.16	80.2015
937.544	82.18043
937.927	73.17875
938.311	90.20749
938.694	91.23146
939.077	48.11022
939.46	25.05779
939.843	103.19613
940.226	57.13983
940.609	113.24827
940.991	54.13131
941.374	75.17645
941.757	49.1156
942.139	110.2341
942.522	83.1852
942.904	102.23281
943.286	79.19135
943.668	82.20602
944.05	34.08079
944.432	70.16453
944.814	42.09837
945.196	66.15543
945.578	108.24799
945.959	39.08666
946.341	88.20142
946.722	67.149
947.104	106.24028
947.485	37.08266
947.866	49.11994
948.247	42.10324
948.628	19.04378
949.009	64.15749
949.39	22.05252
949.771	14.03056
950.152	74.17386
950.532	96.23196
950.913	44.10168
951.293	61.16067
951.674	66.15265
952.054	97.2338
952.434	75.17845
952.814	44.09909
953.194	49.12189
953.574	49.11524
953.954	56.1257
954.334	94.22567
954.714	64.15019
955.093	70.16447
955.473	95.22933
955.853	51.12733
956.232	40.10608
956.611	94.21091
956.99	27.06587
957.37	34.08302
957.749	25.05641
958.128	70.17022
958.506	83.20684
958.885	36.08725
959.264	66.15712
959.643	89.1934
960.021	80.19096
960.4	95.20328
960.778	13.03044
961.156	35.0842
961.535	84.18374
961.913	91.20338
962.291	54.13528
962.669	81.19752
963.047	53.13098
963.424	80.19846
963.802	34.08076
964.18	57.13598
964.557	72.15676
964.935	87.19557
965.312	69.17383
965.69	45.10723
966.067	78.17882
966.444	5.01168
966.821	87.21492
967.198	71.16222
967.575	84.19528
967.952	107.23756
968.329	103.23968
968.705	113.22911
969.082	117.28998
969.458	60.13993
969.835	76.17647
970.211	74.18432
970.587	107.2538
970.963	38.09313
971.339	48.12159
971.715	86.20544
972.091	75.17618
972.467	4.00951
972.843	74.17799
973.219	86.19407
973.594	47.1187
973.97	48.10619
974.345	80.18333
974.721	64.14561
975.096	78.18169
975.471	90.20169
975.846	-1.00231
976.221	40.09811
976.596	108.24998
976.971	96.2274
977.346	68.14931
977.72	28.06852
978.095	53.13175
978.469	74.1674
978.844	83.19786
979.218	40.09369
979.593	59.13437
979.967	13.02995
980.341	113.24671
980.715	67.16229
981.089	71.1699
981.463	66.14431
981.837	70.16575
982.21	75.1609
982.584	58.13478
982.957	18.04377
983.331	34.07585
983.704	116.27392
984.078	64.15066
984.451	61.14268
984.824	84.19644
985.197	30.06892
985.57	5.01194
985.943	26.06063
986.316	39.0904
986.688	91.208
987.061	101.22499
987.434	110.27736
987.806	60.13689
988.179	34.07663
988.551	43.10447
988.923	31.07302
989.295	86.20363
989.667	104.23957
990.039	129.30716
990.411	-2.00437
990.783	24.05223
991.155	68.1569
991.527	81.18596
991.898	76.18204
992.27	99.23555
992.641	71.16912
993.012	75.16298
993.384	57.12918
993.755	78.19159
994.126	88.20328
994.497	66.15501
994.868	25.05437
995.239	53.12255
995.61	77.18553
995.98	45.10468
996.351	54.12934
996.722	80.17861
997.092	34.07779
997.462	88.19786
997.833	60.13435
998.203	37.08471
998.573	48.11537
998.943	109.24301
999.313	57.13154
999.683	45.10397
1000.053	71.1512
1000.423	59.13594
1000.792	8.01987
1001.162	57.13332
1001.531	89.20939
1001.901	44.10479
1002.27	55.11427
1002.639	29.07093
1003.009	81.1826
1003.378	28.06931
1003.747	63.14086
1004.116	75.17053
1004.485	70.15932
1004.853	18.04341
1005.222	12.02869
1005.591	99.22163
1005.959	18.03916
1006.328	96.20493
1006.696	21.04854
1007.064	44.10527
1007.433	15.0359
1007.801	45.10393
1008.169	-22.05346
1008.537	77.16105
1008.905	69.15428
1009.273	55.129
1009.64	87.20013
1010.008	49.11146
1010.375	55.12516
1010.743	43.09157
1011.11	119.27145
1011.478	95.22542
1011.845	38.08502
1012.212	57.1245
1012.579	71.16678
1012.946	42.09447
1013.313	57.12818
1013.68	60.1273
1014.047	79.17897
1014.414	19.04308
1014.78	49.11744
1015.147	85.19264
1015.513	102.23281
1015.88	89.21533
1016.246	74.17176
1016.612	67.14423
1016.978	122.28462
1017.344	68.16101
1017.71	99.2271
1018.076	61.13543
1018.442	56.13892
1018.808	76.18343
1019.174	29.06964
1019.539	32.06718
1019.905	63.14255
1020.27	14.03328
1020.636	34.07701
1021.001	125.28306
1021.366	66.15204
1021.731	64.16033
1022.096	26.06398
1022.461	64.14484
1022.826	108.24481
1023.191	54.1365
1023.556	44.09795
1023.92	42.09803
1024.285	33.07643
1024.649	14.03285
1025.014	60.14031
1025.378	62.15043
1025.742	26.06159
1026.107	61.13052
1026.471	77.16925
1026.835	77.18208
1027.199	56.12921
1027.562	40.08783
1027.926	81.18715
1028.29	92.22213
1028.654	83.17983
1029.017	73.17175
1029.381	86.1959
1029.744	24.05917
1030.107	114.25421
1030.471	81.18551
1030.834	3.00645
1031.197	51.11727
1031.56	56.12524
1031.923	69.17146
1032.286	69.15402
1032.648	19.04301
1033.011	129.28235
1033.374	46.10198
1033.736	22.05611
1034.099	38.089
1034.461	50.12245
1034.823	43.10341
1035.185	33.07915
1035.548	72.16798
1035.91	40.09156
1036.272	97.20962
1036.634	103.23855
1036.995	13.02913
1037.357	37.08695
1037.719	81.18782
1038.08	103.23343
1038.442	28.06365
1038.803	32.07239
1039.165	52.12522
1039.526	68.15683
1039.887	58.13228
1040.248	78.18676
1040.609	36.08442
1040.97	49.11425
1041.331	117.28318
1041.692	61.13847
1042.053	47.10122
1042.413	62.13642
1042.774	61.14206
1043.134	97.21518
1043.495	38.09182
1043.855	98.22818
1044.215	18.0428
1044.576	77.17656
1044.936	78.16816
1045.296	84.19959
1045.656	54.12524
1046.016	39.08961
1046.375	52.12065
1046.735	84.1839
1047.095	43.09626
1047.454	80.15719
1047.814	52.11964
1048.173	39.08774
1048.533	62.13499
1048.892	12.02791
1049.251	60.14295
1049.61	23.05462
1049.969	66.14748
1050.328	83.16944
1050.687	30.06961
1051.046	64.14802
1051.405	72.1691
1051.763	89.19604
1052.122	28.06712
1052.48	101.23568
1052.839	94.21325
1053.197	57.12771
1053.555	42.08903
1053.914	70.1626
1054.272	32.07245
1054.63	63.14759
1054.988	101.22946
1055.345	31.06251
1055.703	94.2149
1056.061	68.1698
1056.419	100.25124
1056.776	25.05717
1057.134	13.02833
1057.491	92.21936
1057.848	18.04292
1058.206	18.03994
1058.563	23.04828
1058.92	129.27698
1059.277	83.19482
1059.634	30.06654
1059.991	96.21841
1060.348	51.11026
1060.704	72.16751
1061.061	80.17218
1061.418	61.1415
1061.774	57.13468
1062.131	78.20116
1062.487	65.14353
1062.843	36.0862
1063.199	82.19446
1063.555	76.16884
1063.911	65.15596
1064.267	96.18374
1064.623	80.1873
1064.979	34.07403
1065.335	73.16416
1065.691	19.04304
1066.046	67.13883
1066.402	18.03889
1066.757	74.1786
1067.112	62.14453
1067.468	20.04609
1067.823	-2.00454
1068.178	14.03235
1068.533	43.09979
1068.888	48.1089
1069.243	79.18579
1069.598	12.02789
1069.952	88.19184
1070.307	42.10041
1070.662	98.22341
1071.016	87.18712
1071.371	60.13052
1071.725	65.14647
1072.079	20.04639
1072.434	46.10753
1072.788	20.04506
1073.142	79.18529
1073.496	1.00228
1073.85	75.16444
1074.203	108.24809
1074.557	57.14795
1074.911	95.21267
1075.265	71.15645
1075.618	59.13778
1075.971	64.14472
1076.325	77.18868
1076.678	10.02199
1077.031	-6.01277
1077.385	74.15309
1077.738	51.10913
1078.091	89.19324
1078.444	51.1112
1078.796	54.12772
1079.149	78.18541
1079.502	54.12276
1079.855	68.15094
1080.207	40.09413
1080.56	41.10284
1080.912	81.187
1081.264	77.1772
1081.617	85.1978
1081.969	52.12678
1082.321	38.08862
1082.673	111.24265
1083.025	35.07894
1083.377	287.61143
1083.728	34.07538
1084.08	17.04063
1084.432	32.07369
1084.783	5.01102
1085.135	70.16856
1085.486	29.06396
1085.838	85.19998
1086.189	42.09868
1086.54	57.12913
1086.891	106.26017
1087.242	105.24684
1087.593	65.14827
1087.944	127.27198
1088.295	96.20484
1088.646	121.28268
1088.996	43.09994
1089.347	41.09579
1089.698	54.1234
1090.048	44.10927
1090.398	33.0726
1090.749	66.14876
1091.099	83.20195
1091.449	57.13661
1091.799	66.15791
1092.149	77.18187
1092.499	23.05401
1092.849	53.12958
1093.199	54.12836
1093.548	111.25514
1093.898	25.05998
1094.248	32.0784
1094.597	46.11462
1094.947	49.12644
1095.296	61.14497
1095.645	25.06253
1095.994	66.15101
1096.343	86.20717
1096.692	62.15951
1097.041	52.13837
1097.39	79.18775
1097.739	10.02517
1098.088	37.09508
1098.437	72.18459
1098.785	17.04409
1099.134	27.06814
1099.482	58.15474
1099.83	84.2115
1100.179	106.26928
1100.527	-10.02557
1100.875	31.07999
1101.223	56.14442
1101.571	-2.00537
1101.919	78.20032
1102.267	47.12962
1102.615	4.01285
1102.962	0
1103.31	11.0353
1103.658	4.01282
