Data from N2 R11 sample 11_Subt2__4__14-33-32-160.txt Node

Date: Mon Sep 01 14:33:32 PDT 2025
User: uwsun
Spectrometer: HDX01956
Trigger mode: 0
Integration Time (sec): 5.000000E-1
Scans to average: 1
Nonlinearity correction enabled: true
Boxcar width: 0
Storing dark spectrum: false
XAxis mode: Wavelengths
Number of Pixels in Spectrum: 2068
>>>>>Begin Spectral Data<<<<<
194.03	-35.09877
194.578	-27.08567
195.127	-37.11584
195.676	-28.08783
196.225	1.00265
196.773	28.07643
197.321	19.05083
197.87	10.0247
198.418	0
198.966	-55.13652
199.513	-51.1206
200.061	-72.17377
200.609	24.06015
201.156	-40.08272
201.704	-33.07861
202.251	-54.13601
202.798	-37.09117
203.345	6.01403
203.892	-57.13671
204.438	-13.02945
204.985	-56.12539
205.532	-29.07217
206.078	18.0415
206.624	-41.0953
207.17	-7.01536
207.716	-44.10116
208.262	29.05369
208.808	-82.19153
209.354	-64.14802
209.899	1.0024
210.445	-46.10804
210.99	-80.18363
211.535	-16.03565
212.08	3.00658
212.625	-8.01894
213.17	18.04293
213.715	-57.11975
214.259	38.08298
214.804	22.05123
215.348	-23.04998
215.892	22.04961
216.436	37.08068
216.98	15.03139
217.524	23.05102
218.068	-21.05023
218.612	13.03093
219.155	-32.07162
219.698	-30.06803
220.242	4.00947
220.785	-23.05121
221.328	-20.04745
221.871	41.09819
222.414	3.0071
222.956	-46.1055
223.499	-1.00214
224.041	47.10339
224.583	46.09406
225.126	14.02921
225.668	-2.0046
226.21	-19.04538
226.751	-10.02069
227.293	-17.03708
227.835	-33.0767
228.376	52.11317
228.918	31.07398
229.459	-50.11862
230	-29.06575
230.541	27.05875
231.082	24.05478
231.622	43.09324
232.163	-39.08993
232.704	-21.04935
233.244	-51.12074
233.784	1.00233
234.324	-47.09787
234.864	-6.01288
235.404	32.07174
235.944	-13.02931
236.484	23.05418
237.023	31.06866
237.563	32.06923
238.102	-23.0516
238.641	-14.03353
239.18	-67.14919
239.719	-6.01424
240.258	-22.047
240.797	-7.01578
241.335	0
241.874	8.01446
242.412	-25.05682
242.95	-27.06079
243.488	10.02148
244.026	-46.10058
244.564	-14.02726
245.102	16.03364
245.64	42.09486
246.177	-6.01269
246.715	24.05412
247.252	7.01515
247.789	60.10573
248.326	-37.08362
248.863	14.02868
249.4	16.0341
249.936	27.05181
250.473	-3.00656
251.009	-50.10826
251.546	15.03087
252.082	8.01642
252.618	7.01456
253.154	-4.00899
253.69	-13.0275
254.226	-61.13791
254.761	-28.05923
255.297	-49.1013
255.832	-34.07569
256.367	-8.01765
256.903	-21.04326
257.438	7.01539
257.972	-8.01668
258.507	-42.09016
259.042	-13.02644
259.576	-41.08252
260.111	-4.00866
260.645	20.0403
261.179	-33.07211
261.713	-12.0249
262.247	-14.03022
262.781	-10.0195
263.315	-21.04796
263.849	26.06011
264.382	9.01927
264.915	-35.07651
265.449	-37.08358
265.982	21.04433
266.515	14.03159
267.048	-45.08919
267.58	-17.03483
268.113	36.07134
268.646	-40.09215
269.178	-27.05602
269.71	4.0081
270.243	15.03172
270.775	-19.04493
271.307	17.03796
271.838	21.04633
272.37	-8.01825
272.902	2.00422
273.433	-16.03245
273.965	4.009
274.496	-20.04635
275.027	-21.04831
275.558	2.00447
276.089	-87.19917
276.62	-22.05213
277.15	-14.0321
277.681	-9.01813
278.211	22.04971
278.741	-43.08762
279.272	-44.09307
279.802	-9.02077
280.332	-29.0631
280.861	-47.10509
281.391	-30.06273
281.921	-18.04014
282.45	-16.03698
282.98	-35.08452
283.509	-23.04764
284.038	-8.01672
284.567	-1.00215
285.096	-14.0311
285.625	-36.07521
286.153	-85.18495
286.682	-18.03766
287.21	-5.01098
287.739	-28.06065
288.267	-28.06197
288.795	-11.02656
289.323	-51.10903
289.851	-28.06006
290.378	1.00204
290.906	-52.11485
291.433	-37.08443
291.961	-33.06795
292.488	-6.01357
293.015	-86.18573
293.542	-44.10132
294.069	-68.15276
294.596	-2.00449
295.122	-32.06932
295.649	-26.05205
296.175	19.0415
296.702	-25.05509
297.228	13.02849
297.754	-22.04453
298.28	-35.07161
298.806	-97.21303
299.332	-32.06341
299.857	-32.06487
300.383	-20.04578
300.908	-93.2039
301.433	-3.00648
301.958	8.01654
302.483	-16.03555
303.008	-18.03994
303.533	-25.05861
304.058	-16.0338
304.582	-85.18038
305.107	-91.21376
305.631	-13.02645
306.155	-126.26523
306.679	-71.14784
307.203	-107.2233
307.727	-67.142
308.251	-73.16147
308.775	-84.17659
309.298	-101.21499
309.822	-22.04898
310.345	-44.09193
310.868	-42.08822
311.391	-21.04546
311.914	-92.20413
312.437	-51.10265
312.96	-31.06352
313.482	-45.09295
314.005	-76.16772
314.527	-58.13308
315.049	-25.05511
315.571	-60.1145
316.093	-40.08565
316.615	-74.15453
317.137	-33.06131
317.659	-17.03554
318.18	-71.14876
318.702	-42.08331
319.223	-23.03971
319.744	-41.07765
320.265	-102.21121
320.786	-85.17825
321.307	-102.21679
321.828	-42.07957
322.348	-28.05484
322.869	-146.29189
323.389	-74.09872
323.909	-79.15168
324.43	-8.01605
324.95	-72.13587
325.47	-92.187
325.989	-113.21999
326.509	-138.24866
327.029	-74.13416
327.548	-144.26373
328.067	-111.21661
328.587	-94.1909
329.106	-62.11195
329.625	-19.04057
330.144	-112.20606
330.662	-105.19216
331.181	-149.27917
331.7	-73.13373
332.218	-121.20425
332.736	-97.17716
333.255	-134.24331
333.773	-139.2567
334.291	-115.22559
334.808	-127.21543
335.326	-133.22891
335.844	-200.35429
336.361	-166.31987
336.879	-155.26978
337.396	-168.30381
337.913	-162.27547
338.43	-123.20052
338.947	-173.30398
339.464	-182.27968
339.981	-186.3204
340.497	-151.27216
341.014	-213.37899
341.53	-222.35735
342.046	-228.40452
342.562	-190.34254
343.078	-200.33275
343.594	-236.40219
344.11	-154.25367
344.626	-199.35242
345.141	-169.26055
345.657	-125.19078
346.172	-246.41177
346.687	-210.32424
347.202	-173.25432
347.717	-179.28445
348.232	-208.35179
348.747	-188.28106
349.261	-273.37927
349.776	-176.26598
350.29	-308.50174
350.805	-175.28225
351.319	-169.24783
351.833	-297.42569
352.347	-240.35642
352.861	-249.36248
353.374	-218.3141
353.888	-212.32021
354.401	-227.31799
354.915	-254.33598
355.428	-257.39391
355.941	-247.34159
356.454	-183.24147
356.967	-234.33126
357.48	-235.3189
357.993	-249.36923
358.505	-306.44867
359.018	-253.36466
359.53	-273.38
360.042	-249.30945
360.554	-289.40903
361.066	-296.41509
361.578	-250.29419
362.09	-292.39459
362.602	-310.36917
363.113	-321.4103
363.625	-318.38314
364.136	-252.28671
364.647	-382.46301
365.158	-279.33771
365.669	-301.3818
366.18	-316.39014
366.691	-264.28583
367.201	-329.40664
367.712	-320.35669
368.222	-346.38808
368.733	-356.35502
369.243	-386.39411
369.753	-329.35473
370.263	-380.43283
370.773	-337.39153
371.282	-433.47187
371.792	-470.44536
372.301	-420.43138
372.811	-369.42172
373.32	-552.43136
373.829	-520.46577
374.338	-472.35203
374.847	-494.37086
375.356	-520.39503
375.865	-627.34045
376.373	-631.37436
376.882	-539.40034
377.39	-555.33772
377.898	-649.3458
378.407	-668.23314
378.915	-656.16667
379.423	-652.18634
379.93	-663.11548
380.438	-856.16097
380.946	-823.04827
381.453	-879.00197
381.96	-1035.91932
382.468	-1162.75945
382.975	-961.75608
383.482	-1072.63635
383.989	-1078.69542
384.495	-1138.52909
385.002	-1339.32787
385.509	-1476.28245
386.015	-1383.24757
386.521	-1480.19933
387.028	-1613.14905
387.534	-1614.20086
388.04	-1571.20401
388.546	-1951.19188
389.051	-2144.38381
389.557	-2180.67707
390.063	-1822.95973
390.568	-2132.24814
391.073	-2484.94492
391.578	-2493.23083
392.084	-2764.42641
392.589	-3151.39675
393.093	-3616.06425
393.598	-3543.21614
394.103	-3994.56283
394.607	-4227.06159
395.112	-4350.81094
395.616	-4775.37928
396.12	-5499.76043
396.624	-6262.11512
397.128	-6583.10887
397.632	-6874.04999
398.136	-7704.74446
398.639	-9565.82957
399.143	-11488.38664
399.646	-12578.36566
400.15	-14033.17968
400.653	-16244.99964
401.156	-19389.06159
401.659	-23026.90778
402.162	-19352.28967
402.664	-5442.49175
403.167	-1085.76291
403.67	0
404.172	0
404.674	0
405.176	0
405.678	0
406.18	0
406.682	0
407.184	0
407.686	0
408.187	0
408.688	0
409.19	0
409.691	0
410.192	0
410.693	-5754.57347
411.194	-10612.23782
411.694	-9037.99649
412.195	-7709.09286
412.696	-8693.9118
413.196	-10178.89545
413.696	-11222.62771
414.196	-9688.51028
414.696	-6719.53721
415.196	-3723.9284
415.696	397.299
416.196	581.24901
416.695	-2246.5806
417.195	-4076.28133
417.694	-3794.06772
418.194	-3167.031
418.693	-3489.27611
419.192	-3407.11945
419.691	-3349.60264
420.19	-3144.18403
420.688	-2608.81139
421.187	-2263.3251
421.685	-1964.73215
422.184	-1197.85053
422.682	-1285.71547
423.18	-1811.55673
423.678	-1703.96288
424.176	-1545.09874
424.674	-1536.51814
425.172	-1147.99668
425.669	-1049.68562
426.167	-848.6413
426.664	-955.50764
427.161	-899.50058
427.659	-816.55704
428.156	-973.47547
428.652	-807.6566
429.149	-845.66325
429.646	-703.71131
430.143	-661.8227
430.639	-674.86203
431.135	-686.96094
431.632	-679.96289
432.128	-629.05021
432.624	-762.19468
433.12	-807.08961
433.616	-709.07682
434.111	-790.19543
434.607	-809.29641
435.103	-571.13834
435.598	-497.12427
436.093	-518.26636
436.588	-503.26993
437.083	-473.28607
437.578	-451.30881
438.073	-606.52529
438.568	-506.47327
439.062	-459.32509
439.557	-476.45264
440.051	-467.41334
440.546	-531.49696
441.04	-552.59082
441.534	-478.56788
442.028	-448.49998
442.522	-495.56344
443.015	-510.51545
443.509	-449.54571
444.002	-515.64323
444.496	-430.44422
444.989	-498.63797
445.482	-464.6046
445.975	-504.57131
446.468	-448.47085
446.961	-393.40777
447.454	-449.52926
447.947	-517.65984
448.439	-436.58393
448.931	-464.55243
449.424	-428.6161
449.916	-394.53219
450.408	-497.6194
450.9	-492.6845
451.392	-510.76419
451.884	-432.56936
452.375	-490.7187
452.867	-388.50924
453.358	-457.5981
453.849	-425.51315
454.341	-448.59525
454.832	-440.55115
455.323	-477.7162
455.814	-419.58489
456.304	-450.64093
456.795	-417.58583
457.285	-326.4426
457.776	-328.46676
458.266	-429.64602
458.756	-360.55168
459.247	-415.62981
459.737	-505.79267
460.226	-414.59482
460.716	-386.60103
461.206	-418.6707
461.695	-387.6587
462.185	-395.6271
462.674	-334.51213
463.163	-316.46191
463.653	-369.5157
464.142	-389.64604
464.63	-400.69096
465.119	-408.65688
465.608	-335.53028
466.096	-306.45918
466.585	-344.56576
467.073	-277.46965
467.561	-343.59737
468.05	-345.58212
468.538	-296.52929
469.026	-340.59856
469.513	-352.5375
470.001	-313.51634
470.489	-345.60467
470.976	-298.50897
471.463	-352.67079
471.951	-279.5305
472.438	-323.57474
472.925	-333.59131
473.412	-280.53253
473.899	-291.51537
474.385	-312.60121
474.872	-281.50518
475.359	-329.63473
475.845	-322.52072
476.331	-227.38445
476.817	-274.53331
477.303	-278.51406
477.789	-257.49486
478.275	-315.63458
478.761	-237.45965
479.247	-202.36156
479.732	-329.67377
480.218	-289.62211
480.703	-246.50117
481.188	-265.46443
481.673	-259.48791
482.158	-272.46931
482.643	-268.57554
483.128	-252.47414
483.612	-257.50249
484.097	-200.40987
484.581	-208.40523
485.066	-245.50175
485.55	-285.52898
486.034	-242.4401
486.518	-277.55264
487.002	-246.51007
487.486	-259.54122
487.969	-227.47183
488.453	-221.48044
488.936	-257.49915
489.42	-277.53466
489.903	-241.53015
490.386	-645.03078
490.869	-208.39309
491.352	-183.39072
491.835	-175.31218
492.318	-219.42961
492.8	-199.35739
493.283	-217.48237
493.765	-213.45891
494.247	-162.33199
494.73	-195.37765
495.212	-200.42952
495.694	-229.47174
496.175	-210.43523
496.657	-142.29496
497.139	-119.18097
497.62	-253.53244
498.102	-232.51261
498.583	-177.39379
499.064	-235.46645
499.545	-194.39361
500.026	-178.35273
500.507	-143.29273
500.988	-105.22914
501.469	-169.3749
501.949	-146.32125
502.43	-171.35924
502.91	-124.22447
503.39	-100.2217
503.87	-93.19098
504.35	-59.12231
504.83	-72.13733
505.31	-78.16556
505.79	-52.10821
506.269	-8.01623
506.749	-14.02756
507.228	32.06418
507.707	69.12953
508.187	130.26304
508.666	131.27023
509.145	130.25448
509.623	242.46542
510.102	281.55645
510.581	375.72834
511.059	313.63607
511.538	413.85956
512.016	458.85882
512.494	583.08172
512.972	578.04925
513.45	584.0086
513.928	715.27452
514.406	746.29462
514.884	884.62974
515.361	985.61668
515.839	1065.59822
516.316	1052.70748
516.793	1185.00024
517.27	1294.00328
517.747	1321.17717
518.224	1398.9619
518.701	1421.86993
519.178	1408.14969
519.654	1523.15558
520.131	1538.27607
520.607	1515.28421
521.083	1480.98699
521.56	1453.06816
522.036	1438.85927
522.512	1467.23472
522.987	1347.98129
523.463	1340.99547
523.939	1334.0909
524.414	1365.95449
524.89	1242.90753
525.365	1134.68458
525.84	1032.66551
526.315	1022.69858
526.79	1037.58118
527.265	980.54125
527.74	867.52783
528.215	862.46175
528.689	765.23084
529.164	782.23021
529.638	707.39254
530.112	636.14072
530.587	655.03609
531.061	611.13322
531.534	590.11679
532.008	538.01469
532.482	535.96543
532.956	402.83686
533.429	465.90704
533.903	479.84226
534.376	405.72293
534.849	373.70891
535.322	316.62092
535.795	318.64962
536.268	301.60471
536.741	331.66252
537.213	306.59078
537.686	223.46186
538.158	222.41934
538.631	216.45107
539.103	224.42395
539.575	244.42886
540.047	206.38606
540.519	261.52967
540.991	167.35532
541.463	195.40658
541.934	134.26653
542.406	125.25936
542.877	170.33041
543.348	140.29522
543.82	159.33963
544.291	156.3168
544.762	139.2857
545.233	111.24337
545.703	124.23744
546.174	153.30766
546.645	84.17472
547.115	156.32404
547.585	159.31486
548.056	106.22077
548.526	85.17337
548.996	156.32274
549.466	185.38762
549.935	171.34274
550.405	155.28768
550.875	162.32598
551.344	181.36883
551.814	207.40012
552.283	234.4249
552.752	256.49092
553.221	217.38911
553.69	311.56028
554.159	252.51082
554.628	293.53001
555.096	307.63782
555.565	376.66959
556.033	479.89356
556.502	475.91731
556.97	482.8442
557.438	517.97259
557.906	595.10568
558.374	637.12757
558.842	696.27357
559.31	825.35701
559.777	854.52094
560.245	938.59875
560.712	1013.66189
561.18	1095.6435
561.647	1281.85481
562.114	1283.90129
562.581	1414.25934
563.048	1602.21457
563.514	1643.43269
563.981	1867.34856
564.448	1947.30706
564.914	2230.55883
565.381	2403.49984
565.847	2557.64408
566.313	2703.61766
566.779	2905.44025
567.245	3155.57905
567.711	3339.65649
568.176	3588.18646
568.642	3827.74969
569.108	4160.46548
569.573	4483.05069
570.038	4772.23123
570.504	5024.40121
570.969	5321.96476
571.434	5728.9614
571.899	6023.32025
572.363	6458.01776
572.828	6909.09391
573.293	7115.1484
573.757	7692.48841
574.222	8010.72402
574.686	8355.18765
575.15	8715.83529
575.614	9037.44651
576.078	9379.23204
576.542	9669.0522
577.006	10050.28796
577.469	10307.88127
577.933	10375.50957
578.396	10774.83095
578.86	10915.4811
579.323	11179.64844
579.786	11223.46213
580.249	11141.73674
580.712	11210.61298
581.175	11158.33195
581.637	11103.43072
582.1	11173.05489
582.563	11096.80541
583.025	11155.41428
583.487	10862.07977
583.95	10959.1989
584.412	10902.01218
584.874	10680.34446
585.336	10465.60141
585.797	10276.22392
586.259	10100.29858
586.721	9923.75407
587.182	9664.97517
587.643	9551.70956
588.105	9245.90205
588.566	9143.73822
589.027	8543.58089
589.488	8560.544
589.949	8174.12157
590.41	7958.49173
590.87	7759.56119
591.331	7664.33625
591.791	7345.28961
592.252	7047.12173
592.712	6895.33125
593.172	6627.99843
593.632	6457.901
594.092	6217.98297
594.552	6056.84617
595.011	5807.21027
595.471	5676.14782
595.931	5618.14584
596.39	5275.7036
596.849	5109.63188
597.308	5026.3004
597.768	4839.35025
598.227	4702.084
598.685	4648.84264
599.144	4468.021
599.603	4369.16357
600.062	4283.50661
600.52	4052.95478
600.978	4153.28304
601.437	3923.20115
601.895	3883.78818
602.353	3759.10621
602.811	3648.14506
603.269	3609.58655
603.727	3501.62409
604.184	3450.28483
604.642	3423.78259
605.099	3353.49623
605.557	3293.79879
606.014	3182.14921
606.471	3201.9141
606.928	3042.14369
607.385	3016.77422
607.842	2970.49902
608.299	3027.60151
608.755	2914.77703
609.212	2985.34646
609.668	2996.30346
610.125	3007.79901
610.581	2984.76453
611.037	2940.57232
611.493	2832.75141
611.949	2752.81194
612.405	2729.98926
612.861	2851.7502
613.316	2715.7896
613.772	2697.61347
614.227	2662.73617
614.683	2736.31994
615.138	2618.70019
615.593	2595.67363
616.048	2659.63093
616.503	2519.9702
616.958	2542.05073
617.412	2413.7562
617.867	2353.43691
618.321	2426.21673
618.776	2422.48821
619.23	2279.71062
619.684	2329.57974
620.138	2259.69345
620.592	2204.85723
621.046	2171.71542
621.5	2074.81101
621.954	2103.53785
622.407	2029.46626
622.861	1918.74072
623.314	1978.53724
623.768	1879.56618
624.221	1868.00483
624.674	1810.49462
625.127	1821.5636
625.58	1733.43761
626.033	1759.35147
626.485	1607.49055
626.938	1667.53695
627.39	1634.43591
627.843	1658.44268
628.295	1543.3517
628.747	1462.36696
629.199	1511.27946
629.651	1455.22929
630.103	1410.21608
630.555	1367.97319
631.006	1401.28836
631.458	1358.2613
631.909	1395.24196
632.361	1325.20662
632.812	1272.11958
633.263	1259.94118
633.714	1346.012
634.165	1243.23462
634.616	1136.04937
635.067	1226.99689
635.518	1201.14895
635.968	1185.7285
636.419	1113.82665
636.869	1129.05686
637.319	1045.87784
637.769	1118.89544
638.219	1123.06956
638.669	1001.89146
639.119	1009.96138
639.569	1017.94513
640.019	974.79781
640.468	992.75008
640.918	979.89667
641.367	936.68625
641.816	954.70649
642.265	921.72733
642.714	870.65355
643.163	857.62367
643.612	795.59768
644.061	774.36038
644.51	819.54929
644.958	803.46572
645.406	804.61393
645.855	804.66288
646.303	763.51357
646.751	792.50871
647.199	791.51009
647.647	721.41683
648.095	732.42936
648.543	782.3379
648.99	772.56458
649.438	755.51511
649.885	723.54486
650.333	786.26224
650.78	740.53243
651.227	717.50493
651.674	688.35411
652.121	713.50047
652.568	674.4267
653.015	728.59744
653.461	691.42543
653.908	714.43569
654.354	689.43274
654.801	636.30919
655.247	703.33144
655.693	604.40601
656.139	639.34988
656.585	648.36802
657.031	545.13796
657.477	574.10023
657.922	581.19071
658.368	602.32626
658.813	644.3227
659.259	583.25025
659.704	540.13323
660.149	580.20768
660.594	558.19167
661.039	538.10518
661.484	612.3049
661.929	561.18126
662.373	494.13972
662.818	550.23482
663.262	524.14552
663.707	528.21877
664.151	543.20386
664.595	537.17472
665.039	499.13916
665.483	552.27626
665.927	569.20969
666.371	413.88938
666.814	514.12267
667.258	476.03383
667.701	534.04759
668.145	552.25097
668.588	472.07028
669.031	381.84195
669.474	491.08795
669.917	485.99053
670.36	448.0326
670.803	489.08891
671.245	408.80624
671.688	463.04835
672.13	377.79721
672.573	454.07425
673.015	426.95806
673.457	413.84311
673.899	385.882
674.341	394.89699
674.783	347.79145
675.225	356.83208
675.666	365.83082
676.108	368.75858
676.549	367.82625
676.991	367.76825
677.432	342.64951
677.873	368.80898
678.314	368.83477
678.755	349.80948
679.196	361.78609
679.637	355.82763
680.078	345.77228
680.518	364.80892
680.959	342.78304
681.399	334.7926
681.839	296.69512
682.28	304.7217
682.72	289.63921
683.16	284.6833
683.6	304.66971
684.039	292.5892
684.479	298.705
684.919	222.50055
685.358	282.69286
685.798	279.7073
686.237	330.76648
686.676	304.68205
687.115	278.63371
687.554	277.63793
687.993	253.54673
688.432	255.56825
688.871	264.58258
689.309	212.4973
689.748	267.54482
690.186	227.53196
690.625	219.50377
691.063	272.63329
691.501	263.63243
691.939	247.60026
692.377	215.51466
692.815	208.48887
693.253	237.558
693.69	193.41975
694.128	201.47895
694.565	246.57321
695.003	252.62305
695.44	196.45438
695.877	208.4778
696.314	230.4867
696.751	282.62542
697.188	197.44664
697.625	283.63194
698.061	174.41327
698.498	245.57975
698.934	221.52256
699.371	170.3966
699.807	241.55769
700.243	247.58018
700.679	189.42397
701.115	227.5253
701.551	228.52709
701.987	234.51681
702.422	181.42517
702.858	204.47872
703.294	180.4047
703.729	240.57439
704.164	151.36161
704.599	152.33796
705.035	149.3326
705.47	183.43957
705.904	143.33224
706.339	226.51706
706.774	194.44867
707.209	191.43515
707.643	206.48719
708.078	170.41013
708.512	134.33351
708.946	177.42047
709.38	205.47872
709.814	189.4278
710.248	189.45502
710.682	181.42583
711.116	134.31851
711.549	170.43399
711.983	124.28701
712.416	170.3991
712.85	157.38855
713.283	172.40363
713.716	199.49284
714.149	203.4774
714.582	154.34482
715.015	190.46978
715.448	185.46052
715.881	186.4041
716.313	124.29088
716.746	138.3241
717.178	119.28628
717.61	187.46803
718.043	93.23286
718.475	159.3828
718.907	157.3948
719.339	63.14475
719.77	121.28678
720.202	123.31041
720.634	139.33668
721.065	150.35393
721.497	164.39865
721.928	106.26065
722.359	81.19649
722.79	156.3708
723.221	150.37523
723.652	150.38455
724.083	133.29995
724.514	198.449
724.945	98.2316
725.375	102.23759
725.806	111.27752
726.236	159.40398
726.666	139.3283
727.096	148.36124
727.526	72.18401
727.956	138.31307
728.386	113.27853
728.816	91.23089
729.246	147.35498
729.675	106.26114
730.105	120.2953
730.534	113.26513
730.964	175.43768
731.393	154.38036
731.822	145.36802
732.251	132.33366
732.68	162.37943
733.109	124.30503
733.537	111.26835
733.966	142.35072
734.395	137.31578
734.823	173.38744
735.251	112.27011
735.68	154.38315
736.108	147.36952
736.536	124.29259
736.964	86.20111
737.392	124.30963
737.82	128.30682
738.247	108.25938
738.675	151.35913
739.102	56.1412
739.53	114.2897
739.957	108.27756
740.384	142.34892
740.811	128.32343
741.238	69.16983
741.665	112.26016
742.092	134.31937
742.519	83.20632
742.945	121.29032
743.372	94.23345
743.798	111.28502
744.225	96.22924
744.651	92.23156
745.077	144.35683
745.503	134.32585
745.929	90.21705
746.355	170.41879
746.781	80.1994
747.207	48.11405
747.632	56.13781
748.058	117.29157
748.483	133.3057
748.908	120.29758
749.334	120.29432
749.759	98.23196
750.184	108.2575
750.609	90.22213
751.033	140.32995
751.458	138.30913
751.883	121.29935
752.307	89.21061
752.732	35.08846
753.156	121.29814
753.58	134.31741
754.005	137.34587
754.429	102.2404
754.853	81.20157
755.277	95.22577
755.7	88.21911
756.124	89.22147
756.548	59.14129
756.971	102.24952
757.394	93.23989
757.818	90.23195
758.241	88.22379
758.664	103.26003
759.087	54.12211
759.51	143.35351
759.933	62.15049
760.356	97.24881
760.778	115.28231
761.201	117.28435
761.623	108.26233
762.046	129.30551
762.468	121.29043
762.89	91.22538
763.312	118.28769
763.734	79.19128
764.156	99.24474
764.578	110.2536
765	119.28975
765.421	44.11273
765.843	88.23096
766.264	175.4178
766.686	106.26613
767.107	52.1273
767.528	80.20244
767.949	65.16626
768.37	72.17777
768.791	88.21375
769.212	42.10647
769.632	9.02137
770.053	91.2396
770.473	92.22431
770.894	144.35788
771.314	143.33958
771.734	69.16209
772.154	101.25907
772.575	77.17975
772.994	77.17607
773.414	83.20028
773.834	84.21051
774.254	113.27597
774.673	103.25089
775.093	68.16912
775.512	66.16349
775.931	89.22581
776.351	78.19428
776.77	93.22746
777.189	75.17934
777.607	67.1718
778.026	50.12553
778.445	35.08843
778.864	102.26113
779.282	107.25702
779.701	119.29849
780.119	33.0842
780.537	63.15797
780.955	103.26152
781.373	73.1812
781.791	87.19605
782.209	125.28686
782.627	91.23936
783.045	76.17563
783.462	92.23479
783.88	75.19426
784.297	61.15417
784.715	78.20039
785.132	62.15094
785.549	86.21514
785.966	86.2163
786.383	56.13857
786.8	114.26387
787.217	72.17134
787.633	36.09061
788.05	148.34813
788.466	138.32284
788.883	55.14088
789.299	109.26153
789.715	109.26392
790.131	81.20157
790.547	92.22948
790.963	84.20854
791.379	68.17232
791.795	94.21455
792.21	76.17822
792.626	83.19718
793.041	67.16588
793.457	94.23191
793.872	73.17215
794.287	36.08669
794.702	91.22398
795.117	62.15454
795.532	63.15831
795.947	111.26602
796.362	133.31498
796.776	140.32495
797.191	80.19592
797.605	56.13214
798.02	101.24491
798.434	136.30012
798.848	48.1189
799.262	68.169
799.676	102.24804
800.09	65.1604
800.504	72.17509
800.918	48.11203
801.331	92.24055
801.745	38.08813
802.158	68.17029
802.572	119.28672
802.985	116.2787
803.398	134.31643
803.811	108.2762
804.224	111.27471
804.637	38.09126
805.05	94.21749
805.462	81.199
805.875	42.10941
806.288	42.10198
806.7	92.23056
807.112	100.2311
807.525	87.21437
807.937	71.17565
808.349	52.13084
808.761	80.19672
809.173	105.25318
809.584	117.28712
809.996	47.11568
810.408	48.12435
810.819	38.09008
811.231	37.09613
811.642	-4.00968
812.053	85.20177
812.464	111.26217
812.875	119.30161
813.286	146.37089
813.697	127.29437
814.108	117.28371
814.519	95.21118
814.929	107.27129
815.34	84.20342
815.75	82.20794
816.16	117.28935
816.571	80.20746
816.981	131.30616
817.391	78.18825
817.801	83.20572
818.211	86.20466
818.62	62.14958
819.03	108.26302
819.44	128.33102
819.849	104.26054
820.259	95.24215
820.668	34.08419
821.077	38.09492
821.486	92.22087
821.895	142.34646
822.304	93.24536
822.713	86.20285
823.122	62.15499
823.531	94.22197
823.939	75.18262
824.348	74.17988
824.756	120.29791
825.164	107.26752
825.573	55.13836
825.981	94.23217
826.389	70.17587
826.797	67.16788
827.205	73.16753
827.612	83.20436
828.02	65.15281
828.428	77.19578
828.835	66.17369
829.243	112.26489
829.65	40.09996
830.057	95.2295
830.464	74.18015
830.871	131.31012
831.278	86.20725
831.685	58.12987
832.092	65.15928
832.499	111.2409
832.905	86.217
833.312	57.13044
833.718	111.27441
834.124	80.18252
834.531	80.20121
834.937	91.23252
835.343	114.27275
835.749	118.27313
836.155	77.20116
836.561	46.11357
836.966	94.22875
837.372	82.20809
837.777	81.2012
838.183	112.24696
838.588	55.13682
838.993	85.20627
839.399	69.16858
839.804	46.11249
840.209	91.23048
840.613	48.10726
841.018	83.20947
841.423	58.14891
841.828	59.14933
842.232	112.2751
842.637	73.17202
843.041	50.12841
843.445	89.2222
843.849	61.15108
844.253	92.21759
844.657	43.10864
845.061	100.22539
845.465	51.12349
845.869	89.20588
846.272	59.14377
846.676	65.15721
847.079	56.14251
847.483	90.22343
847.886	108.26066
848.289	54.14421
848.692	88.22181
849.095	77.18447
849.498	108.27154
849.901	84.19196
850.304	90.21401
850.707	80.2033
851.109	114.2858
851.512	101.24639
851.914	34.08607
852.316	94.23634
852.718	20.05197
853.121	116.28134
853.523	82.19093
853.925	3.0079
854.326	72.17959
854.728	62.15934
855.13	46.11888
855.531	40.09596
855.933	76.18197
856.334	70.17416
856.736	59.13225
857.137	81.1876
857.538	63.15826
857.939	47.11636
858.34	92.22288
858.741	92.23908
859.142	80.19148
859.542	77.20246
859.943	115.28284
860.343	31.07714
860.744	106.25641
861.144	90.21828
861.544	9.02183
861.945	67.17048
862.345	81.1973
862.745	66.16379
863.145	120.28359
863.544	77.19391
863.944	161.37287
864.344	106.26104
864.743	104.25593
865.143	108.27494
865.542	75.17343
865.941	86.21179
866.34	141.3325
866.74	88.23494
867.139	44.10563
867.537	67.17042
867.936	55.13247
868.335	53.13495
868.734	72.18349
869.132	81.18737
869.531	101.24234
869.929	44.10059
870.327	48.11528
870.726	86.21335
871.124	69.16095
871.522	73.18542
871.92	66.16254
872.318	100.24254
872.715	85.20936
873.113	74.17975
873.511	90.22286
873.908	28.07103
874.306	61.15158
874.703	87.2165
875.1	106.2688
875.497	67.16033
875.894	39.09585
876.291	83.2027
876.688	52.1342
877.085	106.25196
877.482	85.21167
877.878	35.08459
878.275	88.22229
878.671	108.23804
879.068	95.22768
879.464	91.21851
879.86	53.12542
880.256	64.15773
880.652	64.16253
881.048	117.28669
881.444	89.21053
881.84	97.24471
882.236	127.31523
882.631	115.27918
883.027	90.21656
883.422	91.23121
883.817	67.168
884.213	95.24206
884.608	45.11055
885.003	71.17068
885.398	50.12526
885.793	108.26851
886.188	36.0898
886.582	106.26947
886.977	99.23301
887.371	88.22125
887.766	30.07494
888.16	103.25482
888.554	125.30516
888.949	74.18519
889.343	84.20411
889.737	51.13595
890.131	98.24391
890.525	101.25617
890.918	45.11345
891.312	98.23259
891.706	114.29604
892.099	121.30427
892.492	100.21374
892.886	98.23786
893.279	87.22035
893.672	87.22019
894.065	72.17972
894.458	66.16564
894.851	104.25252
895.244	87.2209
895.637	74.17759
896.029	78.18989
896.422	89.21606
896.814	59.14655
897.206	56.13332
897.599	129.31469
897.991	34.08252
898.383	93.21812
898.775	81.18186
899.167	52.12132
899.559	90.22636
899.951	106.2474
900.342	81.20501
900.734	15.03748
901.125	93.24238
901.517	56.1374
901.908	137.32332
902.299	57.13926
902.69	97.22697
903.082	91.21884
903.473	26.06259
903.863	37.09468
904.254	56.12993
904.645	99.24421
905.036	55.13312
905.426	122.27554
905.817	60.14705
906.207	66.15688
906.597	51.11933
906.987	107.27475
907.378	66.16654
907.768	73.19234
908.158	90.21795
908.547	17.04419
908.937	78.19927
909.327	59.14312
909.717	131.328
910.106	39.09393
910.495	96.23781
910.885	86.21654
911.274	63.15717
911.663	103.25911
912.052	80.19643
912.441	66.16743
912.83	108.24521
913.219	90.23404
913.608	50.12254
913.997	54.13533
914.385	86.20418
914.774	91.22
915.162	44.10503
915.55	96.23038
915.939	50.12625
916.327	68.16925
916.715	70.17783
917.103	131.31778
917.491	65.16046
917.878	94.22935
918.266	59.15282
918.654	122.30783
919.041	35.09162
919.429	82.19243
919.816	89.22413
920.203	63.15248
920.591	58.14368
920.978	64.15639
921.365	61.1598
921.752	46.1098
922.139	84.18118
922.525	44.10583
922.912	95.22985
923.299	68.16851
923.685	82.2128
924.072	85.19475
924.458	104.25517
924.844	46.11395
925.231	70.16235
925.617	42.107
926.003	65.16574
926.389	73.18344
926.774	59.14933
927.16	76.18792
927.546	65.16551
927.931	132.32459
928.317	100.22815
928.702	91.21368
929.088	48.11361
929.473	50.12724
929.858	44.10652
930.243	27.0651
930.628	65.15774
931.013	79.1948
931.398	102.23225
931.783	81.21219
932.167	52.12711
932.552	82.20432
932.937	67.16582
933.321	71.17752
933.705	81.20311
934.09	95.23821
934.474	87.20524
934.858	38.09878
935.242	77.17756
935.626	46.11785
936.009	90.2378
936.393	79.20001
936.777	86.21886
937.16	43.11203
937.544	110.25623
937.927	56.14196
938.311	115.2774
938.694	92.24162
939.077	63.15047
939.46	95.2314
939.843	108.22253
940.226	76.19409
940.609	46.10571
940.991	68.17256
941.374	66.16086
941.757	63.15512
942.139	59.1323
942.522	58.13691
942.904	62.14873
943.286	119.29871
943.668	41.10638
944.05	102.24887
944.432	88.21567
944.814	93.22729
945.196	16.03924
945.578	48.11414
945.959	96.223
946.341	126.30502
946.722	43.10109
947.104	88.20885
947.485	78.18054
947.866	64.16085
948.247	63.1586
948.628	80.1941
949.009	33.08477
949.39	106.26123
949.771	135.30881
950.152	69.16876
950.532	23.05686
950.913	71.17062
951.293	41.11092
951.674	38.09213
952.054	44.10916
952.434	75.18535
952.814	85.20092
953.194	109.28242
953.574	95.2321
953.954	65.15394
954.334	95.23486
954.714	33.08068
955.093	99.24124
955.473	73.18179
955.853	119.30439
956.232	87.23705
956.611	114.27014
956.99	67.16788
957.37	70.17776
957.749	84.19913
958.128	41.10347
958.506	68.17586
958.885	40.10115
959.264	4.00989
959.643	84.18987
960.021	23.05728
960.4	40.09086
960.778	68.16697
961.156	49.12287
961.535	52.12117
961.913	121.27924
962.291	93.2368
962.669	56.14171
963.047	54.13772
963.424	63.16041
963.802	81.19804
964.18	123.30719
964.557	105.23922
964.935	101.23698
965.312	53.13794
965.69	129.31844
966.067	125.30015
966.444	92.22498
966.821	102.26058
967.198	95.22855
967.575	120.29126
967.952	97.22652
968.329	81.19598
968.705	119.25143
969.082	33.08489
969.458	54.12944
969.835	90.21746
970.211	92.23438
970.587	106.26123
970.963	72.18401
971.339	50.13056
971.715	109.26927
972.091	64.1572
972.467	80.19846
972.843	49.12163
973.219	151.35567
973.594	19.04996
973.97	82.19401
974.345	58.13861
974.721	122.29144
975.096	89.21379
975.471	60.14207
975.846	57.13676
976.221	54.13704
976.596	82.19536
976.971	117.28531
977.346	122.28003
977.72	52.13243
978.095	64.165
978.469	89.21086
978.844	101.25161
979.218	70.16716
979.593	99.235
979.967	65.15792
980.341	63.14469
980.715	73.18318
981.089	59.14746
981.463	64.14655
981.837	49.11976
982.21	102.23497
982.584	67.16131
982.957	44.10999
983.331	67.15788
983.704	84.20511
984.078	43.10611
984.451	127.31281
984.824	82.19851
985.197	128.30636
985.57	88.21919
985.943	149.3613
986.316	109.26491
986.688	102.24357
987.061	92.21388
987.434	63.1638
987.806	96.23082
988.179	80.18767
988.551	94.23659
988.923	77.18868
989.295	146.35848
989.667	0
990.039	41.10147
990.411	47.10825
990.783	67.15376
991.155	22.05314
991.527	125.30357
991.898	38.09489
992.27	48.11877
992.641	85.21191
993.012	96.22388
993.384	77.18271
993.755	80.20287
994.126	84.20074
994.497	51.12516
994.868	63.14435
995.239	95.22829
995.61	76.19033
995.98	71.17178
996.351	69.17027
996.722	70.1617
997.092	33.0784
997.462	72.16745
997.833	81.19087
998.203	74.1786
998.573	67.1663
998.943	66.15428
999.313	92.21868
999.683	73.17442
1000.053	90.20542
1000.423	82.19806
1000.792	95.24428
1001.162	33.08146
1001.531	69.16952
1001.901	51.1271
1002.27	136.29862
1002.639	55.14039
1003.009	56.13301
1003.378	84.21347
1003.747	78.18326
1004.116	63.15036
1004.485	97.22972
1004.853	63.15922
1005.222	79.19816
1005.591	96.2259
1005.959	16.0363
1006.328	47.10583
1006.696	28.06781
1007.064	78.1952
1007.433	89.22083
1007.801	91.22166
1008.169	81.2034
1008.537	100.21911
1008.905	57.13259
1009.273	79.19408
1009.64	27.06468
1010.008	78.18491
1010.375	132.31557
1010.743	140.31748
1011.11	48.11361
1011.478	69.17014
1011.845	84.1962
1012.212	30.06817
1012.579	66.16152
1012.946	55.13076
1013.313	107.25184
1013.68	83.18527
1014.047	56.13327
1014.414	85.19936
1014.78	72.17816
1015.147	89.21363
1015.513	63.15139
1015.88	93.23596
1016.246	125.30425
1016.612	74.16856
1016.978	85.20689
1017.344	56.13821
1017.71	123.29579
1018.076	94.21973
1018.442	107.27244
1018.808	80.19883
1019.174	59.14773
1019.539	129.29224
1019.905	47.11088
1020.27	12.02981
1020.636	88.20942
1021.001	101.23938
1021.366	-1.00242
1021.731	56.14382
1022.096	36.091
1022.461	73.17195
1022.826	100.23532
1023.191	66.17263
1023.556	77.17947
1023.92	88.21479
1024.285	92.22271
1024.649	74.18049
1025.014	82.20186
1025.378	66.1654
1025.742	79.19509
1026.107	106.23696
1026.471	130.29863
1026.835	67.16551
1027.199	46.11077
1027.562	87.20069
1027.926	107.25878
1028.29	98.24578
1028.654	72.16487
1029.017	82.2003
1029.381	77.18292
1029.744	65.16527
1030.107	88.2066
1030.471	85.20208
1030.834	81.18305
1031.197	107.25487
1031.56	55.1296
1031.923	53.1369
1032.286	107.2484
1032.648	126.29684
1033.011	74.16897
1033.374	86.20064
1033.736	62.16261
1034.099	88.21287
1034.461	64.1612
1034.823	56.13923
1035.185	70.17549
1035.548	73.17682
1035.91	90.21385
1036.272	72.16308
1036.634	61.14886
1036.995	87.20293
1037.357	65.15762
1037.719	82.19813
1038.08	77.18179
1038.442	102.23956
1038.803	120.28414
1039.165	51.12862
1039.526	96.22986
1039.887	80.19023
1040.248	21.05199
1040.609	118.2878
1040.97	83.20149
1041.331	119.29742
1041.692	57.1328
1042.053	95.21425
1042.413	100.23064
1042.774	91.21951
1043.134	81.19161
1043.495	100.24898
1043.855	65.15715
1044.215	94.23132
1044.576	29.06958
1044.936	86.19566
1045.296	112.27622
1045.656	94.22867
1046.016	71.17062
1046.375	29.07059
1046.735	33.07503
1047.095	56.13085
1047.454	49.1038
1047.814	57.13676
1048.173	96.22722
1048.533	52.11902
1048.892	10.02417
1049.251	92.22906
1049.61	81.19819
1049.969	73.17121
1050.328	54.11692
1050.687	64.15522
1051.046	56.13613
1051.405	100.24635
1051.763	27.06233
1052.122	37.09244
1052.48	69.16851
1052.839	38.08956
1053.197	52.12227
1053.555	145.32407
1053.914	107.25878
1054.272	87.20875
1054.63	41.10035
1054.988	51.12106
1055.345	67.14367
1055.703	80.19133
1056.061	76.1945
1056.419	39.10109
1056.776	92.2212
1057.134	53.12255
1057.491	80.19911
1057.848	68.16863
1058.206	71.1662
1058.563	85.18589
1058.92	100.22806
1059.277	81.19856
1059.634	87.20309
1059.991	121.28579
1060.348	58.13078
1060.704	46.10964
1061.061	79.18239
1061.418	77.18567
1061.774	58.14289
1062.131	52.13735
1062.487	47.10989
1062.843	116.28556
1063.199	62.15375
1063.555	75.17281
1063.911	48.1212
1064.267	101.20816
1064.623	67.1621
1064.979	133.30986
1065.335	130.30579
1065.691	45.10789
1066.046	102.2217
1066.402	43.09777
1066.757	94.23523
1067.112	87.21192
1067.468	21.04983
1067.823	76.18169
1068.178	97.23238
1068.533	90.2164
1068.888	133.31254
1069.243	100.24436
1069.598	67.16216
1069.952	18.04077
1070.307	60.14814
1070.662	92.21649
1071.016	34.07638
1071.371	99.22282
1071.725	140.32893
1072.079	71.16997
1072.434	59.14302
1072.788	99.23337
1073.142	93.22679
1073.496	66.15598
1073.85	38.08827
1074.203	111.26602
1074.557	59.15655
1074.911	109.25704
1075.265	96.22097
1075.618	93.22509
1075.971	72.17042
1076.325	72.18213
1076.678	27.06199
1077.031	28.0636
1077.385	138.29816
1077.738	59.13284
1078.091	36.08204
1078.444	86.19811
1078.796	80.19505
1079.149	44.10947
1079.502	48.11335
1079.855	77.17848
1080.207	63.15472
1080.56	66.16998
1080.912	101.24335
1081.264	72.17253
1081.617	52.12659
1081.969	56.141
1082.321	106.25593
1082.673	52.11854
1083.025	59.13962
1083.377	133.28015
1083.728	97.22403
1084.08	72.17888
1084.432	82.19641
1084.783	121.27935
1085.135	63.1574
1085.486	57.13013
1085.838	74.1813
1086.189	57.13806
1086.54	89.21078
1086.891	52.13135
1087.242	90.2173
1087.593	60.14569
1087.944	93.20845
1088.295	88.19834
1088.646	77.18553
1088.996	23.05565
1089.347	111.26906
1089.698	24.05696
1090.048	81.20908
1090.398	94.21593
1090.749	69.16436
1091.099	38.09568
1091.449	63.15643
1091.799	104.25762
1092.149	68.16511
1092.499	32.07825
1092.849	85.21452
1093.199	52.13018
1093.548	89.21208
1093.898	62.15465
1094.248	109.27695
1094.597	26.06659
1094.947	80.21216
1095.296	104.25404
1095.645	59.15308
1095.994	98.23303
1096.343	86.21483
1096.692	27.07114
1097.041	38.10299
1097.39	68.16986
1097.739	82.21177
1098.088	101.26808
1098.437	52.13643
1098.785	72.19324
1099.134	75.19814
1099.482	80.21878
1099.83	79.20639
1100.179	46.11995
1100.527	84.22173
1100.875	37.09795
1101.223	56.14842
1101.571	46.12708
1101.919	19.04986
1102.267	45.12667
1102.615	3.00965
1102.962	14.04506
1103.31	2.00643
1103.658	24.07718
