Data from N2 R11 sample 1_Subt2__3__14-45-40-145.txt Node

Date: Mon Sep 01 14:45:40 PDT 2025
User: uwsun
Spectrometer: HDX01956
Trigger mode: 0
Integration Time (sec): 5.000000E-1
Scans to average: 1
Nonlinearity correction enabled: true
Boxcar width: 0
Storing dark spectrum: false
XAxis mode: Wavelengths
Number of Pixels in Spectrum: 2068
>>>>>Begin Spectral Data<<<<<
194.03	-56.15853
194.578	-61.19434
195.127	-60.18839
195.676	-69.21753
196.225	3.00795
196.773	-51.14096
197.321	-73.19826
197.87	-62.15516
198.418	-76.18826
198.966	-119.29882
199.513	-152.36643
200.061	-114.27732
200.609	-95.24317
201.156	-133.28076
201.704	-116.28071
202.251	-120.30581
202.798	-129.32323
203.345	-64.15172
203.892	-105.25414
204.438	-93.21411
204.985	-95.21443
205.532	-123.3113
206.078	-95.22394
206.624	-95.22316
207.17	-66.14663
207.716	-123.28724
208.262	-73.1386
208.808	-142.33558
209.354	-134.31422
209.899	-58.14057
210.445	-157.37669
210.99	-127.29425
211.535	-86.19439
212.08	-68.15145
212.625	-89.21395
213.17	-94.22901
213.715	-148.31716
214.259	-68.15182
214.804	-109.26034
215.348	-87.19163
215.892	-73.16779
216.436	-58.12901
216.98	-64.13626
217.524	-84.19049
218.068	-91.22058
218.612	-55.13257
219.155	-42.0942
219.698	-77.17628
220.242	-62.14868
220.785	-53.11875
221.328	-106.25564
221.871	-34.08259
222.414	-46.10993
222.956	-89.20588
223.499	-62.13413
224.041	-59.13268
224.583	-40.08338
225.126	-84.17908
225.668	-80.18701
226.21	-116.28219
226.751	-133.28274
227.293	-35.07664
227.835	-89.20915
228.376	-22.04863
228.918	-58.14078
229.459	-131.31563
230	-76.17396
230.541	-104.23258
231.082	-77.17932
231.622	-74.16447
232.163	-79.18362
232.704	-60.14207
233.244	-108.25849
233.784	-52.12241
234.324	-138.29317
234.864	-93.20339
235.404	-70.16022
235.944	-50.11357
236.484	-36.08577
237.023	-99.22519
237.563	-84.18623
238.102	-86.19542
238.641	-95.23106
239.18	-127.2863
239.719	-76.1828
240.258	-84.18188
240.797	-93.21334
241.335	-86.20237
241.874	-56.10287
242.412	-44.10039
242.95	-96.2192
243.488	-98.21536
244.026	-101.2234
244.564	-54.10616
245.102	-78.16737
245.64	-70.1617
246.177	-49.10458
246.715	-52.11907
247.252	-89.19653
247.789	-18.03237
248.326	-164.3802
248.863	-99.20798
249.4	-87.18954
249.936	-91.17961
250.473	-99.22071
251.009	-119.26146
251.546	-108.22844
252.082	-73.15255
252.618	-91.19337
253.154	-130.29959
253.69	-70.14994
254.226	-101.2302
254.761	-101.21705
255.297	-106.22195
255.832	-105.23719
256.367	-87.19517
256.903	-94.19682
257.438	-65.14503
257.972	-110.23461
258.507	-110.2396
259.042	-97.20108
259.576	-120.24592
260.111	-103.22773
260.645	-123.25601
261.179	-82.18103
261.713	-117.24851
262.247	-127.28079
262.781	-87.17276
263.315	-85.19663
263.849	-110.26117
264.382	-80.17462
264.915	-132.29447
265.449	-174.40402
265.982	-56.12021
266.515	-133.30913
267.048	-96.19255
267.58	-40.08238
268.113	-113.23173
268.646	-160.37738
269.178	-136.28905
269.71	-100.20744
270.243	-93.20132
270.775	-138.33382
271.307	-86.19613
271.838	-101.22853
272.37	-116.27031
272.902	-127.27539
273.433	-79.16252
273.965	-92.211
274.496	-95.22342
275.027	-91.21226
275.558	-140.32224
276.089	-189.44153
276.62	-90.21607
277.15	-108.25226
277.681	-87.17841
278.211	-95.21976
278.741	-145.30233
279.272	-147.31794
279.802	-109.25655
280.332	-121.26842
280.861	-92.20761
281.391	-131.28006
281.921	-101.22909
282.45	-100.23495
282.98	-98.23947
283.509	-68.14226
284.038	-154.3323
284.567	-79.17277
285.096	-119.27013
285.625	-124.26412
286.153	-134.2946
286.682	-122.2611
287.21	-141.31838
287.739	-140.3105
288.267	-114.25684
288.795	-91.22307
289.323	-149.3253
289.851	-104.22672
290.378	-148.31181
290.906	-157.35436
291.433	-136.31654
291.961	-110.23043
292.488	-133.30852
293.015	-146.31936
293.542	-158.37208
294.069	-186.42795
294.596	-90.20575
295.122	-125.27614
295.649	-154.31746
296.175	-103.23077
296.702	-131.29508
297.228	-124.2796
297.754	-139.28892
298.28	-144.30192
298.806	-152.33768
299.332	-213.43997
299.857	-167.34898
300.383	-90.2089
300.908	-225.507
301.433	-174.38976
301.958	-110.23338
302.483	-199.45886
303.008	-148.33725
303.533	-141.33805
304.058	-120.25927
304.582	-182.3944
305.107	-176.42027
305.631	-100.20753
306.155	-163.34591
306.679	-180.3839
307.203	-174.36852
307.727	-167.36166
308.251	-165.37196
308.775	-215.46501
309.298	-230.5033
309.822	-191.44007
310.345	-170.36509
310.868	-186.40307
311.391	-147.32677
311.914	-183.41372
312.437	-201.41853
312.96	-182.38564
313.482	-190.40523
314.005	-212.48113
314.527	-234.55576
315.049	-187.42621
315.571	-216.42783
316.093	-192.42459
316.615	-251.54473
317.137	-213.41349
317.659	-141.30288
318.18	-184.39516
318.702	-208.42858
319.223	-230.41912
319.744	-193.37914
320.265	-195.41219
320.786	-261.5686
321.307	-246.53922
321.828	-220.43494
322.348	-240.49362
322.869	-252.5162
323.389	-519.79674
323.909	-206.40764
324.43	-199.41677
324.95	-256.50492
325.47	-307.6546
325.989	-288.58406
326.509	-306.57518
327.029	-305.5856
327.548	-310.59161
328.067	-306.62482
328.587	-297.63108
329.106	-355.68917
329.625	-281.63395
330.144	-320.61959
330.662	-366.71409
331.181	-327.63966
331.7	-313.60821
332.218	-325.5792
332.736	-319.61543
333.255	-361.69346
333.773	-332.64282
334.291	-355.7359
334.808	-293.51946
335.326	-325.5882
335.844	-431.80958
336.361	-426.87221
336.879	-413.76812
337.396	-403.77265
337.913	-406.73615
338.43	-375.65484
338.947	-406.75717
339.464	-493.8279
339.981	-499.9318
340.497	-379.72312
341.014	-441.83122
341.53	-442.75622
342.046	-473.89286
342.562	-411.78304
343.078	-440.78075
343.594	-464.83962
344.11	-450.80265
344.626	-518.99388
345.141	-510.86606
345.657	-456.7651
346.172	-458.81144
346.687	-472.78547
347.202	-510.82821
347.717	-495.85855
348.232	-534.9836
348.747	-529.87337
349.261	-572.87223
349.776	-543.91192
350.29	-564.98531
350.805	-513.90727
351.319	-508.82357
351.833	-620.97989
352.347	-587.96491
352.861	-600.96958
353.374	-525.82983
353.888	-577.96801
354.401	-579.90369
354.915	-589.8681
355.428	-624.05954
355.941	-591.90956
356.454	-600.90467
356.967	-631.00547
357.48	-644.99329
357.993	-600.98603
358.505	-681.11331
359.018	-569.90205
359.53	-667.04604
360.042	-627.88531
360.554	-566.87232
361.066	-720.14676
361.578	-679.92856
362.09	-666.01097
362.602	-679.9201
363.113	-686.98943
363.625	-651.8809
364.136	-674.89265
364.647	-775.07374
365.158	-721.01341
365.669	-701.01344
366.18	-770.10567
366.691	-638.79532
367.201	-717.00904
367.712	-731.94738
368.222	-748.9718
368.733	-801.9536
369.243	-823.99712
369.753	-764.96978
370.263	-806.06858
370.773	-807.10464
371.282	-812.01867
371.792	-941.08158
372.301	-927.15626
372.811	-944.3189
373.32	-965.92064
373.829	-1034.15275
374.338	-1009.97826
374.847	-1022.9923
375.356	-1148.17357
375.865	-1183.90396
376.373	-1146.91735
376.882	-1161.16324
377.39	-1179.01467
377.898	-1418.19265
378.407	-1370.84165
378.915	-1376.7109
379.423	-1436.8284
379.93	-1451.65781
380.438	-1679.81316
380.946	-1632.54029
381.453	-1797.54879
381.96	-1987.44318
382.468	-2154.16829
382.975	-2087.1214
383.482	-2173.85997
383.989	-2277.10049
384.495	-2329.65551
385.002	-2569.25253
385.509	-2769.32053
386.015	-2881.86279
386.521	-2931.87205
387.028	-3067.72339
387.534	-3187.62345
388.04	-3207.64868
388.546	-3594.53407
389.051	-3839.60187
389.557	-4012.76602
390.063	-3818.92578
390.568	-4249.16447
391.073	-4628.85599
391.578	-4671.14741
392.084	-5033.39218
392.589	-5611.4385
393.093	-6186.25868
393.598	-6392.25265
394.103	-6864.22493
394.607	-7432.58415
395.112	-7903.126
395.616	-8544.68216
396.12	-9602.76776
396.624	-10696.98739
397.128	-11318.34851
397.632	-12278.11794
398.136	-13475.47397
398.639	-15726.15226
399.143	-18224.61079
399.646	-20075.28286
400.15	-22492.69615
400.653	-25564.70082
401.156	-29688.67381
401.659	-35281.11609
402.162	-34040.49926
402.664	-24617.90102
403.167	-10125.54118
403.67	-1559.37522
404.172	0
404.674	0
405.176	0
405.678	0
406.18	0
406.682	0
407.184	0
407.686	0
408.187	0
408.688	0
409.19	-337.08412
409.691	-13034.51199
410.192	-20181.8429
410.693	-25484.13947
411.194	-28665.8845
411.694	-26724.80015
412.195	-24103.62401
412.696	-23673.85295
413.196	-24368.97302
413.696	-25033.47733
414.196	-23669.5759
414.696	-20704.24417
415.196	-17403.47859
415.696	-11891.74662
416.196	-9391.63565
416.695	-9885.92337
417.195	-10527.95636
417.694	-9846.85925
418.194	-8955.56254
418.693	-8946.18339
419.192	-8682.13137
419.691	-8456.67442
420.19	-8078.43914
420.688	-7630.25115
421.187	-7216.26602
421.685	-6307.24997
422.184	-5373.77053
422.682	-4731.58551
423.18	-4591.78967
423.678	-4298.34875
424.176	-4108.15342
424.674	-3803.47704
425.172	-3411.87165
425.669	-3093.64806
426.167	-2731.70181
426.664	-2627.76965
427.161	-2525.93234
427.659	-2272.23587
428.156	-2218.17934
428.652	-2163.72996
429.149	-2021.73355
429.646	-1882.71502
430.143	-1826.08557
430.639	-1690.13998
431.135	-1702.45407
431.632	-1473.28314
432.128	-1564.62543
432.624	-1550.84577
433.12	-1600.61607
433.616	-1517.58638
434.111	-1585.85526
434.607	-1476.9158
435.103	-1298.65608
435.598	-1271.67558
436.093	-1161.89224
436.588	-1094.84348
437.083	-1079.91686
437.578	-1007.91962
438.073	-1157.2744
438.568	-982.1186
439.062	-973.89537
439.557	-926.05901
440.051	-955.043
440.546	-968.08671
441.04	-982.23528
441.534	-916.26569
442.028	-828.0614
442.522	-918.21556
443.015	-903.0656
443.509	-802.09954
444.002	-826.14511
444.496	-818.98355
444.989	-828.18192
445.482	-900.34824
445.975	-911.19537
446.468	-798.96076
446.961	-779.93947
447.454	-809.08154
447.947	-848.20681
448.439	-818.23522
448.931	-866.18468
449.424	-795.27565
449.916	-811.24696
450.408	-805.11263
450.9	-872.36205
451.392	-863.43074
451.884	-711.02476
452.375	-858.40091
452.867	-748.10149
453.358	-832.22797
453.849	-728.97732
454.341	-746.08981
454.832	-748.0385
455.323	-827.37238
455.814	-697.05913
456.304	-731.13281
456.795	-716.10138
457.285	-635.95092
457.776	-672.0597
458.266	-731.19996
458.756	-645.07079
459.247	-776.30417
459.737	-702.16344
460.226	-647.99822
460.716	-707.20312
461.206	-655.12042
461.695	-653.18961
462.185	-668.14241
462.674	-636.06134
463.163	-642.03211
463.653	-643.97863
464.142	-669.19542
464.63	-598.08563
465.119	-636.08871
465.608	-587.99719
466.096	-559.90351
466.585	-552.96077
467.073	-533.96674
467.561	-557.02311
468.05	-511.90137
468.538	-549.04385
469.026	-544.00696
469.513	-568.92352
470.001	-553.97346
470.489	-524.96178
470.976	-501.90267
471.463	-524.0381
471.951	-467.92868
472.438	-497.92439
472.925	-520.96838
473.412	-435.85859
473.899	-499.9318
474.385	-426.84339
474.872	-474.89453
475.359	-481.96187
475.845	-457.76741
476.331	-323.56134
476.817	-423.85255
477.303	-432.82966
477.789	-451.90898
478.275	-498.04311
478.761	-390.78405
479.247	-396.74438
479.732	-427.89384
480.218	-405.89348
480.703	-430.91265
481.188	-367.6605
481.673	-411.80322
482.158	-470.85396
482.643	-365.8002
483.128	-451.89017
483.612	-369.74063
484.097	-369.78508
484.581	-368.74425
485.066	-362.76097
485.55	-337.63362
486.034	-372.69891
486.518	-385.78738
487.002	-426.91875
487.486	-379.81302
487.969	-424.91992
488.453	-328.72924
488.936	-392.78589
489.42	-352.69166
489.903	-343.77065
490.386	-761.25699
490.869	-312.60468
491.352	-301.65907
491.835	-292.53671
492.318	-335.67519
492.8	-272.49768
493.283	-319.72408
493.765	-328.72409
494.247	-290.61151
494.73	-302.59985
495.212	-305.6698
495.694	-314.6592
496.175	-411.89001
496.657	-305.65655
497.139	-241.37991
497.62	-391.84779
498.102	-313.70325
498.583	-288.65545
499.064	-379.77757
499.545	-275.56828
500.026	-322.65958
500.507	-288.60889
500.988	-288.6528
501.469	-348.80061
501.949	-320.72973
502.43	-334.72684
502.91	-254.47508
503.39	-295.68046
503.87	-342.74172
504.35	-292.6368
504.83	-270.5398
505.31	-334.74843
505.79	-315.6938
506.269	-286.61711
506.749	-351.74581
507.228	-351.76627
507.707	-302.6189
508.187	-268.59165
508.666	-288.64988
509.145	-318.6885
509.623	-284.61542
510.102	-263.58704
510.581	-269.60267
511.059	-314.72904
511.538	-273.65448
512.016	-305.67966
512.494	-271.61065
512.972	-311.69331
513.45	-356.77043
513.928	-293.6594
514.406	-344.77083
514.884	-289.68966
515.361	-343.77317
515.839	-314.66996
516.316	-274.61223
516.793	-297.7044
517.27	-240.54069
517.747	-300.71823
518.224	-261.56353
518.701	-300.6287
519.178	-308.71257
519.654	-246.54649
520.131	-308.71568
520.607	-290.67678
521.083	-317.68414
521.56	-286.63402
522.036	-248.50962
522.512	-267.61883
522.987	-305.67909
523.463	-247.54723
523.939	-262.60279
524.414	-227.48991
524.89	-263.58559
525.365	-268.57033
525.84	-322.72065
526.315	-291.66
526.79	-243.51342
527.265	-278.5983
527.74	-280.64214
528.215	-257.56891
528.689	-253.52611
529.164	-244.49936
529.638	-268.64897
530.112	-250.55145
530.587	-307.62217
531.061	-272.61628
531.534	-238.54232
532.008	-252.56819
532.482	-242.52374
532.956	-316.76229
533.429	-243.5536
533.903	-204.42317
534.376	-236.4913
534.849	-251.5496
535.322	-176.38595
535.795	-246.56666
536.268	-236.53277
536.741	-241.54616
537.213	-225.48976
537.686	-223.50784
538.158	-234.49148
538.631	-204.46561
539.103	-284.60438
539.575	-217.4277
540.047	-196.40385
540.519	-199.44622
540.991	-171.39053
541.463	-205.46534
541.934	-181.38645
542.406	-248.55734
542.877	-214.45403
543.348	-160.35958
543.82	-203.46753
544.291	-167.36413
544.762	-227.50502
545.233	-165.38274
545.703	-201.41518
546.174	-185.40098
546.645	-213.4723
547.115	-142.31455
547.585	-137.2901
548.056	-181.40102
548.526	-122.26054
548.996	-98.21427
549.466	-88.1955
549.935	-131.28091
550.405	-117.2319
550.875	-107.22865
551.344	-63.1355
551.814	-50.10261
552.283	-9.01735
552.752	-2.00407
553.221	-77.14855
553.69	33.06369
554.159	23.04907
554.628	25.04832
555.096	85.18534
555.565	122.23158
556.033	207.41221
556.502	195.40188
556.97	214.40125
557.438	309.61104
557.906	351.69279
558.374	385.72708
558.842	415.81411
559.31	552.97755
559.777	536.0322
560.245	669.2219
560.712	721.27795
561.18	778.2777
561.647	854.39825
562.114	951.54942
562.581	1051.8511
563.048	1189.85831
563.514	1207.01891
563.981	1360.00396
564.448	1473.03704
564.914	1554.21861
565.381	1718.26039
565.847	1875.44801
566.313	1974.47251
566.779	2196.42072
567.245	2309.60067
567.711	2490.7365
568.176	2645.42812
568.642	2733.98296
569.108	2956.87291
569.573	3177.62889
570.038	3348.97738
570.504	3605.16167
570.969	3830.75929
571.434	3969.85821
571.899	4277.18679
572.363	4441.83176
572.828	4844.65428
573.293	4822.65861
573.757	5290.4144
574.222	5368.18882
574.686	5606.10418
575.15	5903.33097
575.614	5977.11803
576.078	6169.18617
576.542	6494.01237
577.006	6546.9586
577.469	6636.45409
577.933	6761.93413
578.396	6896.24538
578.86	6978.21979
579.323	7031.26517
579.786	7130.94135
580.249	7181.13565
580.712	7182.44582
581.175	7063.44677
581.637	7182.21362
582.1	7023.97785
582.563	7090.93534
583.025	6891.3349
583.487	6950.66675
583.95	6792.80216
584.412	6831.76183
584.874	6625.34008
585.336	6554.21985
585.797	6303.81095
586.259	6243.26293
586.721	6177.21986
587.182	6114.2659
587.643	5862.15756
588.105	5663.4583
588.566	5531.90187
589.027	5391.66091
589.488	5205.46244
589.949	5108.88615
590.41	4941.77385
590.87	4919.64452
591.331	4743.42884
591.791	4453.93166
592.252	4341.92513
592.712	4266.3076
593.172	4031.0312
593.632	3957.95087
594.092	3762.1225
594.552	3650.98766
595.011	3510.36307
595.471	3431.28229
595.931	3277.31273
596.39	3151.7167
596.849	2986.60863
597.308	2905.29824
597.768	2779.08693
598.227	2748.81415
598.685	2649.59893
599.144	2585.65626
599.603	2520.71755
600.062	2436.17438
600.52	2313.40629
600.978	2236.66205
601.437	2222.51757
601.895	2128.18885
602.353	2045.34416
602.811	1996.31882
603.269	1991.60165
603.727	1883.54383
604.184	1807.27433
604.642	1799.57642
605.099	1735.34454
605.557	1682.4815
606.014	1614.02565
606.471	1559.43635
606.928	1519.93983
607.385	1477.2673
607.842	1445.08101
608.299	1503.19225
608.755	1461.24774
609.212	1345.9172
609.668	1282.84198
610.125	1359.16897
610.581	1301.09103
611.037	1367.05164
611.493	1310.08608
611.949	1190.98768
612.405	1185.57174
612.861	1214.98605
613.316	1146.92639
613.772	1107.79866
614.227	1114.86427
614.683	1076.63079
615.138	1006.71778
615.593	1030.73634
616.048	1065.7582
616.503	990.81831
616.958	962.811
617.412	979.71857
617.867	935.52581
618.321	1028.52621
618.776	892.49078
619.23	909.61872
619.684	909.55707
620.138	863.55009
620.592	796.52442
621.046	865.57436
621.5	817.56131
621.954	777.38529
622.407	783.37588
622.861	727.42528
623.314	788.42197
623.768	717.34875
624.221	695.09324
624.674	699.30838
625.127	705.34304
625.58	664.2504
626.033	701.26498
626.485	607.21492
626.938	668.31715
627.39	618.20357
627.843	684.30644
628.295	619.20123
628.747	598.20267
629.199	584.12483
629.651	569.0993
630.103	597.15791
630.555	562.01341
631.006	575.15501
631.458	496.02058
631.909	568.12597
632.361	532.07808
632.812	496.00178
633.263	493.93199
633.714	532.99171
634.165	490.04984
634.616	487.0234
635.067	524.02018
635.518	498.05138
635.968	537.94034
636.419	475.91863
636.869	472.00206
637.319	468.966
637.769	451.90313
638.219	490.04532
638.669	397.86153
639.119	427.94555
639.569	401.8817
640.019	417.87754
640.468	431.87226
640.918	455.99242
641.367	344.71421
641.816	408.83309
642.265	401.84907
642.714	379.80705
643.163	389.82186
643.612	356.78852
644.061	383.74282
644.51	397.82921
644.958	389.7851
645.406	363.80352
645.855	361.82138
646.303	420.90076
646.751	359.75649
647.199	411.85768
647.647	319.68698
648.095	368.78142
648.543	386.7313
648.99	377.83381
649.438	380.82939
649.885	373.85828
650.333	384.68774
650.78	369.82837
651.227	342.77801
651.674	360.7641
652.121	393.88622
652.568	360.8153
653.015	401.94145
653.461	383.84566
653.908	384.83173
654.354	378.84143
654.801	361.79009
655.247	385.78666
655.693	377.91814
656.139	368.8246
656.585	358.80484
657.031	331.72506
657.477	377.75809
657.922	313.68129
658.368	428.9787
658.813	425.91718
659.259	367.8249
659.704	359.78472
660.149	379.82563
660.594	401.88688
661.039	383.81557
661.484	430.95437
661.929	417.90724
662.373	348.82772
662.818	452.0348
663.262	421.94197
663.707	433.01796
664.151	443.00217
664.595	399.89974
665.039	453.04353
665.483	397.94767
665.927	401.88503
666.371	372.80815
666.814	451.99993
667.258	362.80682
667.701	508.00259
668.145	442.0236
668.588	434.99362
669.031	400.88042
669.474	443.99322
669.917	436.90036
670.36	438.01152
670.803	433.97719
671.245	466.90834
671.688	479.08113
672.13	428.89494
672.573	491.15366
673.015	459.02325
673.457	447.90547
673.899	464.04402
674.341	469.04947
674.783	472.0473
675.225	484.10065
675.666	453.01069
676.108	481.96632
676.549	516.1242
676.991	440.90617
677.432	444.8223
677.873	453.97801
678.314	453.00777
678.755	485.09247
679.196	518.08842
679.637	497.1241
680.078	504.08918
680.518	535.1447
680.959	502.11029
681.399	548.24441
681.839	556.23707
682.28	504.14805
682.72	521.0945
683.16	474.09698
683.6	557.15997
684.039	491.94548
684.479	491.11592
684.919	482.02689
685.358	532.24406
685.798	508.23272
686.237	560.23928
686.676	527.12609
687.115	546.17507
687.554	518.13333
687.993	588.17764
688.432	542.13394
688.871	573.18064
689.309	552.20631
689.748	576.0913
690.186	611.32164
690.625	590.25412
691.063	588.28131
691.501	624.39486
691.939	613.3846
692.377	646.41617
692.815	594.28838
693.253	648.40087
693.69	655.28271
694.128	621.35759
694.565	651.39327
695.003	635.45645
695.44	692.44378
695.877	659.37454
696.314	733.3789
696.751	731.46756
697.188	719.45472
697.625	753.51595
698.061	733.55003
698.498	776.64426
698.934	745.57955
699.371	714.48446
699.807	759.57287
700.243	752.58921
700.679	771.52022
701.115	863.74166
701.551	824.67617
701.987	836.61194
702.422	859.74704
702.858	827.70096
703.294	860.66146
703.729	846.78646
704.164	867.7881
704.599	889.67212
705.035	879.6638
705.47	826.73735
705.904	901.77608
706.339	932.82653
706.774	953.86817
707.209	913.77368
707.643	947.91397
708.078	952.95171
708.512	939.9877
708.946	985.97089
709.38	987.94672
709.814	965.83664
710.248	962.97134
710.682	1021.00297
711.116	958.91108
711.549	1009.18425
711.983	971.86595
712.416	1009.97623
712.85	1006.09326
713.283	1001.96423
713.716	1045.17788
714.149	1057.06598
714.582	1024.87995
715.015	1038.15803
715.448	1031.16192
715.881	992.78465
716.313	1046.0055
716.746	1006.95785
717.178	985.97452
717.61	1012.14572
718.043	1005.09164
718.475	955.94687
718.907	1053.211
719.339	937.77291
719.77	904.81407
720.202	966.0605
720.634	912.88224
721.065	935.86558
721.497	968.99255
721.928	928.92896
722.359	837.73698
722.79	855.75467
723.221	910.95684
723.652	907.0073
724.083	815.57928
724.514	863.68994
724.945	810.64617
725.375	787.58231
725.806	765.68114
726.236	779.75625
726.666	770.59249
727.096	779.67323
727.526	728.64022
727.956	678.36696
728.386	720.57192
728.816	692.56351
729.246	669.45279
729.675	625.38877
730.105	695.52465
730.534	644.35124
730.964	637.45638
731.393	657.469
731.822	644.48566
732.251	575.33502
732.68	648.37041
733.109	585.31323
733.537	553.2225
733.966	578.30997
734.395	537.1366
734.823	574.17714
735.251	488.09049
735.68	592.35204
736.108	465.09926
736.536	492.07545
736.964	485.04291
737.392	483.12469
737.82	456.02221
738.247	499.10662
738.675	498.1028
739.102	412.97198
739.53	424.01549
739.957	413.00204
740.384	462.06535
740.811	399.95899
741.238	397.9175
741.665	337.74784
742.092	415.93543
742.519	368.86686
742.945	365.83485
743.372	381.89625
743.798	370.90665
744.225	340.77377
744.651	336.80838
745.077	311.74697
745.503	381.88333
745.929	352.80658
746.355	338.80672
746.781	323.7693
747.207	242.55344
747.632	282.66484
748.058	321.77011
748.483	307.681
748.908	307.73513
749.334	310.73339
749.759	323.73107
750.184	275.63459
750.609	252.60334
751.033	294.67208
751.458	251.54914
751.883	253.61069
752.307	228.52499
752.732	202.49523
753.156	231.5576
753.58	237.55018
754.005	210.52322
754.429	236.54168
754.853	202.49156
755.277	212.49244
755.7	244.59019
756.124	178.43575
756.548	190.44361
756.971	251.59693
757.394	222.55973
757.818	195.49333
758.241	215.53441
758.664	196.48657
759.087	137.30455
759.51	153.37754
759.933	119.28574
760.356	166.42064
760.778	165.4013
761.201	174.41835
761.623	253.59775
762.046	220.51183
762.468	218.51357
762.89	196.47607
763.312	172.41511
763.734	122.293
764.156	179.436
764.578	203.4593
765	130.31589
765.421	119.30086
765.843	200.51487
766.264	202.47976
766.686	147.36633
767.107	129.31128
767.528	105.26451
767.949	128.32378
768.37	139.33896
768.791	183.43656
769.212	98.24595
769.632	84.19659
770.053	127.33235
770.473	161.38747
770.894	152.37721
771.314	143.33958
771.734	100.23348
772.154	132.33675
772.575	148.34066
772.994	118.26759
773.414	135.32255
773.834	98.24498
774.254	104.25441
774.673	105.25567
775.093	128.31487
775.512	102.251
775.931	112.28301
776.351	92.22856
776.77	125.30391
777.189	130.30758
777.607	105.26745
778.026	108.26831
778.445	93.23252
778.864	108.2762
779.282	74.17887
779.701	112.28129
780.119	92.23231
780.537	66.1654
780.955	126.31861
781.373	112.27602
781.791	95.21373
782.209	145.33142
782.627	63.16649
783.045	56.12993
783.462	76.1945
783.88	74.19171
784.297	98.24604
784.715	79.20293
785.132	82.19888
785.549	108.2691
785.966	121.30242
786.383	96.2358
786.8	115.26613
787.217	115.2714
787.633	47.11806
788.05	136.32065
788.466	108.25414
788.883	70.17883
789.299	100.24035
789.715	131.31587
790.131	103.25529
790.547	95.23683
790.963	108.26694
791.379	46.11702
791.795	98.2235
792.21	80.18745
792.626	90.21352
793.041	138.33721
793.457	121.29704
793.872	83.19535
794.287	38.09147
794.702	109.26739
795.117	92.22806
795.532	77.19301
795.947	98.23545
796.362	126.29881
796.776	149.34522
797.191	62.15235
797.605	78.18326
798.02	75.18276
798.434	81.18081
798.848	85.20913
799.262	76.18861
799.676	154.37083
800.09	106.25959
800.504	59.14382
800.918	76.1764
801.331	116.30206
801.745	73.16813
802.158	73.18265
802.572	150.35928
802.985	106.25515
803.398	104.24702
803.811	133.33864
804.224	101.25042
804.637	62.14822
805.05	93.21522
805.462	102.24961
805.875	50.13007
806.288	95.22837
806.7	62.15622
807.112	114.26272
807.525	84.20709
807.937	44.10939
808.349	80.20027
808.761	67.16515
809.173	74.17948
809.584	121.29671
809.996	66.16188
810.408	41.10634
810.819	63.14863
811.231	5.01306
811.642	-14.03394
812.053	59.14076
812.464	95.22507
812.875	91.23179
813.286	97.24855
813.697	161.37065
814.108	116.28134
814.519	95.21118
814.929	80.20381
815.34	81.19627
815.75	77.19544
816.16	96.23833
816.571	67.17414
816.981	113.26503
817.391	94.22618
817.801	65.16163
818.211	53.12693
818.62	42.10171
819.03	90.21992
819.44	112.29045
819.849	92.23098
820.259	105.26716
820.668	77.18917
821.077	57.1419
821.486	132.31448
821.895	134.32743
822.304	53.14077
822.713	111.26054
823.122	80.19933
823.531	105.24742
823.939	99.23998
824.348	93.22526
824.756	94.23447
825.164	91.22818
825.573	102.25442
825.981	74.18344
826.389	115.28659
826.797	72.18025
827.205	57.13123
827.612	119.29105
828.02	49.11555
828.428	46.1176
828.835	45.11884
829.243	114.26951
829.65	73.18133
830.057	52.12664
830.464	51.12469
830.871	65.15584
831.278	76.1835
831.685	76.16954
832.092	84.20511
832.499	63.13813
832.905	70.17713
833.312	75.17101
833.718	105.25986
834.124	82.18701
834.531	88.22101
834.937	76.19471
835.343	104.2493
835.749	100.23229
836.155	57.14942
836.561	105.25643
836.966	99.2407
837.372	78.19808
837.777	93.2305
838.183	112.24696
838.588	65.1614
838.993	87.21105
839.399	114.27618
839.804	36.0882
840.209	56.14272
840.613	64.14254
841.018	69.17457
841.423	62.15906
841.828	82.20669
842.232	128.31347
842.637	85.19983
843.041	62.1589
843.445	81.20252
843.849	49.12163
844.253	91.21526
844.657	47.11866
845.061	72.16321
845.465	69.1665
845.869	105.24212
846.272	58.14136
846.676	115.27551
847.079	78.19773
847.483	119.29386
847.886	137.32883
848.289	69.18382
848.692	45.1143
849.095	93.22212
849.498	143.35727
849.901	94.21438
850.304	82.19529
850.707	134.33727
851.109	105.26366
851.512	84.20557
851.914	41.10366
852.316	58.14677
852.718	9.02343
853.121	86.20976
853.523	50.11716
853.925	39.10206
854.326	57.14257
854.728	69.17712
855.13	40.10348
855.531	34.08166
855.933	99.236
856.334	45.11247
856.736	8.01812
857.137	82.18988
857.538	92.2299
857.939	30.07451
858.34	101.24427
858.741	99.25696
859.142	95.22673
859.542	51.13469
859.943	95.23451
860.343	48.11908
860.744	89.21598
861.144	72.17522
861.544	20.04842
861.945	87.22058
862.345	67.16363
862.745	78.19315
863.145	81.19287
863.544	70.1765
863.944	94.2206
864.344	94.232
864.743	70.17334
865.143	91.23236
865.542	70.16203
865.941	75.18507
866.34	110.26096
866.74	54.14498
867.139	59.14124
867.537	118.29742
867.936	87.20827
868.335	84.21271
868.734	24.06168
869.132	115.26423
869.531	73.17609
869.929	65.14797
870.327	57.13666
870.726	85.21091
871.124	120.27709
871.522	55.14014
871.92	97.23751
872.318	77.18756
872.715	83.20451
873.113	53.12924
873.511	97.23989
873.908	28.07103
874.306	47.11709
874.703	75.18704
875.1	93.23638
875.497	73.17449
875.894	34.08364
876.291	75.18344
876.688	38.09831
877.085	95.22629
877.482	112.27754
877.878	69.16568
878.275	71.17989
878.671	143.31286
879.068	74.17806
879.464	89.21379
879.86	84.19759
880.256	85.20867
880.652	69.17507
881.048	103.25304
881.444	86.20356
881.84	79.19994
882.236	90.2249
882.631	90.21951
883.027	96.23073
883.422	77.19613
883.817	37.09328
884.213	105.26707
884.608	16.03952
885.003	58.13977
885.398	105.26043
885.793	48.12064
886.188	40.0997
886.582	133.33649
886.977	68.16101
887.371	74.18652
887.766	44.10963
888.16	89.22075
888.554	88.21631
888.949	113.28079
889.343	117.28254
889.737	14.03755
890.131	61.15285
890.525	84.21369
890.918	62.15583
891.312	85.20224
891.706	66.17281
892.099	123.30919
892.492	99.21165
892.886	74.18042
893.279	38.09708
893.672	56.14251
894.065	80.1994
894.458	78.19534
894.851	123.29759
895.244	54.13791
895.637	76.18232
896.029	54.13205
896.422	110.26599
896.814	81.20039
897.206	22.05272
897.599	119.29084
897.991	75.18064
898.383	91.21351
898.775	41.09281
899.167	15.03525
899.559	100.25106
899.951	74.1738
900.342	95.23984
900.734	29.07227
901.125	91.23725
901.517	67.16405
901.908	107.25399
902.299	85.20658
902.69	102.23843
903.082	92.2212
903.473	61.14586
903.863	55.14029
904.254	86.19835
904.645	99.24421
905.036	44.10672
905.426	72.16427
905.817	85.20736
906.207	52.12394
906.597	77.17925
906.987	104.26719
907.378	77.19391
907.768	37.09808
908.158	91.22033
908.547	58.14969
908.937	61.15631
909.327	70.16946
909.717	99.24931
910.106	24.05797
910.495	93.2305
910.885	91.22892
911.274	98.24294
911.663	86.217
912.052	130.31624
912.441	92.23231
912.83	42.09664
913.219	106.27489
913.608	90.21894
913.997	63.15763
914.385	106.2507
914.774	117.28147
915.162	17.04079
915.55	92.22095
915.939	56.14125
916.327	63.15695
916.715	33.08438
917.103	93.22721
917.491	137.3337
917.878	119.289
918.266	82.21155
918.654	74.18832
919.041	49.12797
919.429	94.22008
919.816	35.08899
920.203	66.15965
920.591	72.1779
920.978	112.27123
921.365	68.17792
921.752	88.20837
922.139	82.17694
922.525	43.10345
922.912	84.20365
923.299	62.15381
923.685	82.2128
924.072	117.26635
924.458	96.23589
924.844	69.1702
925.231	49.11412
925.617	22.05624
926.003	120.303
926.389	62.15611
926.774	41.1041
927.16	81.2001
927.546	51.13018
927.931	92.2279
928.317	105.23932
928.702	77.1813
929.088	55.13
929.473	71.18002
929.858	38.0921
930.243	44.10575
930.628	24.05869
931.013	101.24804
931.398	120.27223
931.783	83.21735
932.167	68.16573
932.552	96.23859
932.937	107.26287
933.321	36.09058
933.705	103.25724
934.09	109.27262
934.474	107.25145
934.858	49.12714
935.242	57.13196
935.626	74.18865
936.009	64.16984
936.393	45.11462
936.777	46.11789
937.16	60.15587
937.544	102.23797
937.927	36.09158
938.311	89.21574
938.694	91.23903
939.077	59.14102
939.46	96.2338
939.843	98.20238
940.226	77.19661
940.609	80.1826
940.991	78.19759
941.374	39.09553
941.757	115.28043
942.139	81.18081
942.522	91.21343
942.904	68.16294
943.286	106.2667
943.668	104.26691
944.05	63.15483
944.432	82.20119
944.814	93.22729
945.196	37.0904
945.578	29.06921
945.959	58.13574
946.341	109.26471
946.722	50.11738
947.104	83.19718
947.485	68.15771
947.866	100.24971
948.247	64.16109
948.628	115.27719
949.009	51.13059
949.39	56.13928
949.771	101.23262
950.152	75.18323
950.532	37.09124
950.913	99.23663
951.293	41.11092
951.674	93.22314
952.054	24.05976
952.434	97.23874
952.814	78.18462
953.194	84.21859
953.574	118.28705
953.954	67.15861
954.334	82.2032
954.714	65.15797
955.093	114.27701
955.473	38.09523
955.853	114.29185
956.232	86.23436
956.611	101.23994
956.99	40.10071
957.37	59.15012
957.749	68.1617
958.128	52.13098
958.506	41.10653
958.885	81.20332
959.264	41.10065
959.643	73.16538
960.021	58.14352
960.4	65.14689
960.778	109.2656
961.156	45.11292
961.535	86.19906
961.913	96.22265
962.291	35.09003
962.669	37.09394
963.047	98.24799
963.424	90.22807
963.802	60.14727
964.18	124.30963
964.557	93.2124
964.935	87.20469
965.312	98.25309
965.69	107.2652
966.067	119.28607
966.444	101.24657
966.821	93.23797
967.198	111.26623
967.575	130.31494
967.952	98.22881
968.329	88.21263
968.705	79.16838
969.082	65.16626
969.458	8.01934
969.835	86.20795
970.211	80.20424
970.587	108.26606
970.963	87.22176
971.339	66.17187
971.715	62.15448
972.091	80.19592
972.467	69.17152
972.843	76.18771
973.219	111.26349
973.594	34.08917
973.97	143.33434
974.345	51.12204
974.721	89.21395
975.096	102.24441
975.471	108.25335
975.846	95.22629
976.221	78.1971
976.596	99.23509
976.971	81.19885
977.346	83.192
977.72	63.16013
978.095	74.19045
978.469	102.24105
978.844	119.29548
979.218	38.0913
979.593	70.16709
979.967	91.22
980.341	59.13562
980.715	81.20296
981.089	116.28693
981.463	30.06916
981.837	62.15116
982.21	117.26871
982.584	40.0968
982.957	42.10503
983.331	107.25017
983.704	52.12773
984.078	53.13055
984.451	105.25967
984.824	58.14104
985.197	77.18609
985.57	85.21183
985.943	52.12839
986.316	113.27442
986.688	103.24591
987.061	84.19559
987.434	47.12254
987.806	84.20243
988.179	91.21301
988.551	82.20683
988.923	85.20797
989.295	107.26462
989.667	44.10523
990.039	41.10147
990.411	92.20999
990.783	93.21231
991.155	55.13202
991.527	118.28694
991.898	65.16152
992.27	68.16765
992.641	99.24618
993.012	130.30114
993.384	72.17101
993.755	56.14261
994.126	79.18897
994.497	50.12272
994.868	94.21403
995.239	56.13557
995.61	67.16806
995.98	54.13107
996.351	62.15319
996.722	22.05131
997.092	66.15579
997.462	26.06102
997.833	86.20245
998.203	110.26368
998.573	79.19566
998.943	60.14042
999.313	54.1293
999.683	42.10095
1000.053	57.13097
1000.423	82.19806
1000.792	61.15778
1001.162	53.13035
1001.531	94.22987
1001.901	42.10484
1002.27	96.21256
1002.639	84.21332
1003.009	88.20772
1003.378	57.14555
1003.747	89.20866
1004.116	33.07921
1004.485	89.2111
1004.853	93.23378
1005.222	66.16594
1005.591	109.25585
1005.959	44.09925
1006.328	41.09243
1006.696	51.12297
1007.064	69.17295
1007.433	85.21106
1007.801	85.20728
1008.169	82.20587
1008.537	86.18899
1008.905	57.13259
1009.273	86.21101
1009.64	89.2107
1010.008	51.12153
1010.375	129.30857
1010.743	153.34604
1011.11	58.13702
1011.478	81.19929
1011.845	85.1985
1012.212	55.12434
1012.579	68.16635
1012.946	82.19394
1013.313	110.25875
1013.68	125.2766
1014.047	26.06223
1014.414	47.11105
1014.78	115.28231
1015.147	108.25829
1015.513	105.2503
1015.88	100.25341
1016.246	116.28282
1016.612	98.22215
1016.978	88.21407
1017.344	111.27118
1017.71	168.40055
1018.076	108.25177
1018.442	86.21979
1018.808	89.22083
1019.174	77.19217
1019.539	199.44438
1019.905	79.18521
1020.27	81.1987
1020.636	92.21877
1021.001	104.24635
1021.366	33.07948
1021.731	52.13364
1022.096	27.06836
1022.461	68.16033
1022.826	95.22377
1023.191	88.22931
1023.556	64.14955
1023.92	75.18351
1024.285	86.20842
1024.649	71.17327
1025.014	102.25017
1025.378	54.13562
1025.742	90.2218
1026.107	110.24569
1026.471	85.19702
1026.835	77.18987
1027.199	56.1346
1027.562	99.22783
1027.926	95.23028
1028.29	79.1988
1028.654	85.19413
1029.017	81.19789
1029.381	-4.00965
1029.744	77.19537
1030.107	127.29588
1030.471	75.17865
1030.834	87.19637
1031.197	106.25254
1031.56	76.17835
1031.923	53.1369
1032.286	112.25975
1032.648	122.28764
1033.011	38.0874
1033.374	87.20293
1033.736	32.08435
1034.099	69.16751
1034.461	44.11122
1034.823	55.13677
1035.185	106.26402
1035.548	116.2787
1035.91	89.21151
1036.272	112.25161
1036.634	125.3014
1036.995	66.15458
1037.357	42.10229
1037.719	77.18623
1038.08	111.26034
1038.442	86.20261
1038.803	85.20263
1039.165	61.15356
1039.526	85.20395
1039.887	102.24152
1040.248	43.10603
1040.609	101.24712
1040.97	68.16554
1041.331	39.09888
1041.692	35.0819
1042.053	97.21867
1042.413	129.2958
1042.774	97.23371
1043.134	119.27943
1043.495	103.25631
1043.855	95.22837
1044.215	42.10435
1044.576	34.0815
1044.936	116.26231
1045.296	127.31235
1045.656	96.23345
1046.016	108.2577
1046.375	60.14519
1046.735	76.1713
1047.095	46.1077
1047.454	126.26243
1047.814	93.22161
1048.173	110.25965
1048.533	61.13937
1048.892	53.12707
1049.251	106.26325
1049.61	48.11816
1049.969	100.2333
1050.328	95.20389
1050.687	50.12159
1051.046	75.18166
1051.405	71.17585
1051.763	47.10808
1052.122	72.17875
1052.48	94.2285
1052.839	67.15702
1053.197	50.11761
1053.555	107.24102
1053.914	109.26352
1054.272	139.33021
1054.63	72.17522
1054.988	44.10459
1055.345	88.18785
1055.703	109.25924
1056.061	102.25985
1056.419	54.1396
1056.776	83.19991
1057.134	82.18852
1057.491	30.07535
1057.848	86.21257
1058.206	44.10354
1058.563	77.16868
1058.92	82.18769
1059.277	59.14522
1059.634	99.23056
1059.991	116.27424
1060.348	26.05901
1060.704	41.09781
1061.061	98.22539
1061.418	67.16186
1061.774	75.18419
1062.131	34.09008
1062.487	51.11915
1062.843	87.21532
1063.199	86.21233
1063.555	31.07205
1063.911	79.19838
1064.267	93.19201
1064.623	-11.027
1064.979	108.25286
1065.335	103.24356
1065.691	70.16703
1066.046	66.14455
1066.402	91.20489
1066.757	57.1436
1067.112	84.20472
1067.468	30.07106
1067.823	66.15809
1068.178	75.18043
1068.533	69.16656
1068.888	133.31254
1069.243	57.1404
1069.598	65.15738
1069.952	41.09243
1070.307	77.18952
1070.662	68.16076
1071.016	23.05179
1071.371	71.16071
1071.725	130.30603
1072.079	61.14631
1072.434	40.09731
1072.788	54.12841
1073.142	113.27453
1073.496	43.10207
1073.85	63.14562
1074.203	83.19998
1074.557	52.13814
1074.911	126.29615
1075.265	36.08386
1075.618	84.20365
1075.971	32.07633
1076.325	74.18712
1076.678	78.17724
1077.031	34.07713
1077.385	81.17714
1077.738	53.11948
1078.091	54.12261
1078.444	106.24321
1078.796	46.11286
1079.149	114.28001
1079.502	42.0993
1079.855	76.17619
1080.207	88.21511
1080.56	70.18015
1080.912	87.21017
1081.264	66.15833
1081.617	76.18419
1081.969	74.18572
1082.321	73.17735
1082.673	57.12981
1083.025	74.17461
1083.377	-129.28736
1083.728	94.21723
1084.08	37.09251
1084.432	80.19169
1084.783	121.27935
1085.135	37.09288
1085.486	61.13915
1085.838	42.10351
1086.189	60.14525
1086.54	85.20146
1086.891	50.12634
1087.242	75.1816
1087.593	76.18398
1087.944	50.11306
1088.295	84.18948
1088.646	63.1522
1088.996	53.12751
1089.347	65.15892
1089.698	55.12975
1090.048	69.17848
1090.398	138.31421
1090.749	66.1573
1091.099	65.16287
1091.449	52.12938
1091.799	44.11019
1092.149	40.09763
1092.499	57.13874
1092.849	49.12446
1093.199	126.3112
1093.548	83.19801
1093.898	74.18418
1094.248	108.27446
1094.597	-2.00515
1094.947	61.16229
1095.296	75.18419
1095.645	107.27533
1095.994	118.27951
1096.343	55.13816
1096.692	32.08424
1097.041	36.0976
1097.39	82.20432
1097.739	88.22703
1098.088	94.24979
1098.437	23.06064
1098.785	92.2461
1099.134	86.22678
1099.482	74.20257
1099.83	86.2244
1100.179	52.13546
1100.527	99.26066
1100.875	36.09531
1101.223	82.21638
1101.571	58.15993
1101.919	21.05509
1102.267	33.09306
1102.615	2.00643
1102.962	12.03863
1103.31	-3.00965
1103.658	15.04829
