Data from N2 R11 sample 2_Subt2__0__14-43-47-146.txt Node

Date: Mon Sep 01 14:43:47 PDT 2025
User: uwsun
Spectrometer: HDX01956
Trigger mode: 0
Integration Time (sec): 5.000000E-1
Scans to average: 1
Nonlinearity correction enabled: true
Boxcar width: 0
Storing dark spectrum: false
XAxis mode: Wavelengths
Number of Pixels in Spectrum: 2068
>>>>>Begin Spectral Data<<<<<
194.03	-71.20145
194.578	-83.26512
195.127	-70.22006
195.676	-72.22707
196.225	-12.0319
196.773	-4.01097
197.321	-40.10806
197.87	-58.14504
198.418	-78.19329
198.966	-126.31679
199.513	-155.37388
200.061	-157.38499
200.609	-103.26402
201.156	-140.296
201.704	-138.33532
202.251	-125.31884
202.798	-164.41351
203.345	-80.19023
203.892	-99.23934
204.438	-89.20474
204.985	-138.31421
205.532	-121.30613
206.078	-122.2891
206.624	-164.39042
207.17	-98.21916
207.716	-134.3136
208.262	-117.22452
208.808	-195.46555
209.354	-123.2878
209.899	-70.17003
210.445	-136.32501
210.99	-154.35871
211.535	-38.08505
212.08	-119.26783
212.625	-120.29017
213.17	-70.16978
213.715	-221.48105
214.259	-74.16542
214.804	-60.14196
215.348	-88.19387
215.892	-108.24998
216.436	-59.13127
216.98	-58.12333
217.524	-150.34471
218.068	-88.21319
218.612	-113.27535
219.155	-87.19693
219.698	-77.17628
220.242	-83.19983
220.785	-100.22622
221.328	-96.23108
221.871	-66.16128
222.414	-70.16805
222.956	-131.30556
223.499	-60.12975
224.041	-62.13951
224.583	-27.05612
225.126	-81.17257
225.668	-88.20603
226.21	-76.1835
226.751	-129.27399
227.293	-51.11205
227.835	-121.28612
228.376	-5.01101
228.918	-60.14569
229.459	-116.2787
230	-87.19957
230.541	-116.26006
231.082	-93.21727
231.622	-54.11952
232.163	-87.20253
232.704	-112.26786
233.244	-121.29032
233.784	-77.18215
234.324	-167.35702
234.864	-102.22349
235.404	-89.20449
235.944	-83.18979
236.484	-92.22154
237.023	-114.26009
237.563	-105.2338
238.102	-77.17465
238.641	-101.24593
239.18	-135.30483
239.719	-69.16575
240.258	-93.20175
240.797	-112.2579
241.335	-78.18326
241.874	-62.11407
242.412	-88.20256
242.95	-115.26359
243.488	-82.17959
244.026	-96.21212
244.564	-48.09423
245.102	-104.22441
245.64	-86.1993
246.177	-117.25338
246.715	-91.21001
247.252	-67.14727
247.789	15.02674
248.326	-107.24526
248.863	-133.2815
249.4	-67.14535
249.936	-58.11359
250.473	-143.32171
251.009	-107.2345
251.546	-90.18962
252.082	-105.22098
252.618	-108.23034
253.154	-80.18252
253.69	-89.19143
254.226	-73.16544
254.761	-87.1864
255.297	-140.29535
255.832	-105.23719
256.367	-88.19745
256.903	-101.21181
257.438	-120.2708
257.972	-115.24554
258.507	-173.38185
259.042	-74.15261
259.576	-168.34803
260.111	-93.20519
260.645	-89.18384
261.179	-132.29447
261.713	-74.1557
262.247	-92.20192
262.781	-93.18494
263.315	-117.27237
263.849	-131.31228
264.382	-122.26867
264.915	-137.30594
265.449	-156.36093
265.982	-73.15728
266.515	-105.2427
267.048	-81.1619
267.58	-67.13883
268.113	-155.32088
268.646	-107.24978
269.178	-111.23463
269.71	-105.21806
270.243	-124.2702
270.775	-129.31152
271.307	-110.25208
271.838	-70.15739
272.37	-134.31336
272.902	-106.22882
273.433	-120.24915
273.965	-108.24849
274.496	-104.24502
275.027	-125.29351
275.558	-111.25402
276.089	-188.43911
276.62	-138.33432
277.15	-123.28814
277.681	-109.22464
278.211	-92.21269
278.741	-180.37823
279.272	-105.22506
279.802	-117.2758
280.332	-126.2798
280.861	-139.31668
281.391	-134.28666
281.921	-100.22677
282.45	-93.21821
282.98	-107.2619
283.509	-81.16994
284.038	-116.24826
284.567	-56.12187
285.096	-119.27013
285.625	-143.30585
286.153	-150.33088
286.682	-133.28532
287.21	-182.41439
287.739	-137.30366
288.267	-184.42047
288.795	-113.27812
289.323	-162.35465
289.851	-149.32792
290.378	-170.35989
290.906	-166.37536
291.433	-150.35008
291.961	-164.34765
292.488	-124.28713
293.015	-166.36464
293.542	-156.36723
294.069	-177.40651
294.596	-159.36853
295.122	-143.31709
295.649	-109.22242
296.175	-135.30446
296.702	-170.38597
297.228	-153.34703
297.754	-132.27394
298.28	-170.35848
298.806	-178.39757
299.332	-158.32233
299.857	-150.31227
300.383	-140.32816
300.908	-204.45771
301.433	-180.4037
301.958	-125.26608
302.483	-172.39447
303.008	-175.40095
303.533	-190.45976
304.058	-131.2837
304.582	-215.46919
305.107	-259.62824
305.631	-174.36707
306.155	-203.43455
306.679	-247.53445
307.203	-188.39939
307.727	-172.37289
308.251	-198.44936
308.775	-197.42444
309.298	-273.60281
309.822	-210.48567
310.345	-213.46167
310.868	-217.47335
311.391	-170.37971
311.914	-238.54408
312.437	-196.40767
312.96	-210.44769
313.482	-199.42525
314.005	-215.48824
314.527	-223.52851
315.049	-146.33001
315.571	-250.49912
316.093	-206.45688
316.615	-197.42262
317.137	-245.47925
317.659	-202.43961
318.18	-170.36399
318.702	-204.41996
319.223	-226.41141
319.744	-276.55282
320.265	-295.63721
320.786	-293.64264
321.307	-254.55769
321.828	-260.51884
322.348	-251.51753
322.869	-308.6389
323.389	-319.46069
323.909	-263.52739
324.43	-227.47835
324.95	-266.52588
325.47	-346.74399
325.989	-349.71764
326.509	-345.65473
327.029	-310.59591
327.548	-353.68071
328.067	-319.65329
328.587	-338.7246
329.106	-336.64932
329.625	-294.66504
330.144	-374.73351
330.662	-403.79319
331.181	-331.6481
331.7	-328.63964
332.218	-371.66907
332.736	-317.61128
333.255	-440.86133
333.773	-406.80003
334.291	-361.74934
334.808	-423.77538
335.326	-343.62364
335.844	-427.80128
336.361	-480.99477
336.879	-459.86346
337.396	-445.86184
337.913	-469.86406
338.43	-433.76773
338.947	-435.81709
339.464	-482.80698
339.981	-501.936
340.497	-488.95575
341.014	-503.96254
341.53	-509.88659
342.046	-517.98646
342.562	-501.97541
343.078	-506.91332
343.594	-528.97108
344.11	-482.86687
344.626	-542.04378
345.141	-563.96983
345.657	-459.77077
346.172	-532.96075
346.687	-548.93114
347.202	-557.91657
347.717	-527.92184
348.232	-510.93372
348.747	-558.9287
349.261	-622.9627
349.776	-596.01352
350.29	-635.12811
350.805	-511.90326
351.319	-585.96912
351.833	-667.06665
352.347	-688.16094
352.861	-667.09645
353.374	-586.94265
353.888	-644.09831
354.401	-615.97002
354.915	-690.0469
355.428	-647.10551
355.941	-690.09131
356.454	-565.84288
356.967	-680.09896
357.48	-608.92776
357.993	-658.09695
358.505	-750.25007
359.018	-668.08743
359.53	-695.09892
360.042	-675.96776
360.554	-723.16438
361.066	-722.15061
361.578	-742.0341
362.09	-748.16365
362.602	-702.95854
363.113	-748.09813
363.625	-736.02242
364.136	-772.05478
364.647	-855.21567
365.158	-786.12804
365.669	-791.17611
366.18	-809.17607
366.691	-762.99208
367.201	-814.18154
367.712	-778.02302
368.222	-834.11403
368.733	-858.04153
369.243	-896.11301
369.753	-892.18171
370.263	-881.19788
370.773	-923.31205
371.282	-886.1409
371.792	-1006.18522
372.301	-1003.28521
372.811	-1011.44331
373.32	-1165.21032
373.829	-1115.28287
374.338	-1122.14093
374.847	-1140.16335
375.356	-1235.30927
375.865	-1286.03623
376.373	-1296.1174
376.882	-1281.35026
377.39	-1299.18399
377.898	-1562.40909
378.407	-1487.98333
378.915	-1470.81328
379.423	-1594.01867
379.93	-1666.89342
380.438	-1778.92942
380.946	-1816.72477
381.453	-2001.76127
381.96	-2140.59354
382.468	-2272.26578
382.975	-2265.26359
383.482	-2347.97167
383.989	-2471.26522
384.495	-2545.77858
385.002	-2833.35349
385.509	-2889.37698
386.015	-3029.88377
386.521	-3150.91575
387.028	-3364.75921
387.534	-3451.62677
388.04	-3480.67007
388.546	-3920.52829
389.051	-4175.55578
389.557	-4390.68581
390.063	-4244.78686
390.568	-4675.03446
391.073	-4939.73455
391.578	-5019.00068
392.084	-5404.21347
392.589	-6031.22399
393.093	-6635.01721
393.598	-6906.96315
394.103	-7408.93671
394.607	-8025.34685
395.112	-8524.94077
395.616	-9046.62771
396.12	-10263.96965
396.624	-11596.70961
397.128	-12274.71333
397.632	-13346.72716
398.136	-14585.57547
398.639	-17031.91871
399.143	-19597.98865
399.646	-21698.81442
400.15	-24245.25604
400.653	-27621.20753
401.156	-31872.26821
401.659	-37779.32551
402.162	-36951.46727
402.664	-28432.7605
403.167	-15383.61862
403.67	-2112.46292
404.172	0
404.674	0
405.176	0
405.678	0
406.18	0
406.682	0
407.184	0
407.686	0
408.187	0
408.688	0
409.19	-6579.61423
409.691	-18013.35297
410.192	-24607.81502
410.693	-29451.08732
411.194	-32040.0744
411.694	-29959.76845
412.195	-27020.42954
412.696	-26327.4509
413.196	-27073.22664
413.696	-27581.30972
414.196	-25993.67108
414.696	-23337.37458
415.196	-19780.71106
415.696	-13896.65848
416.196	-11094.97112
416.695	-11022.26821
417.195	-11731.48004
417.694	-10860.31707
418.194	-9948.06239
418.693	-9981.78079
419.192	-9643.10927
419.691	-9602.85728
420.19	-9046.02258
420.688	-8494.37049
421.187	-7818.03481
421.685	-7054.69503
422.184	-6060.83413
422.682	-5292.41542
423.18	-5085.51799
423.678	-4816.06151
424.176	-4519.9423
424.674	-4245.27002
425.172	-3790.72546
425.669	-3459.55395
426.167	-3082.6242
426.664	-2915.73868
427.161	-2744.94162
427.659	-2565.3039
428.156	-2518.22466
428.652	-2384.85397
429.149	-2306.88503
429.646	-2164.84415
430.143	-1970.18358
430.639	-1949.32885
431.135	-1913.65633
431.632	-1776.53007
432.128	-1697.76378
432.624	-1768.11658
433.12	-1771.79599
433.616	-1601.6691
434.111	-1688.97936
434.607	-1580.04514
435.103	-1383.74456
435.598	-1386.79902
436.093	-1307.0824
436.588	-1230.01646
437.083	-1192.06828
437.578	-1156.12779
438.073	-1253.43314
438.568	-1115.33578
439.062	-1049.99927
439.557	-1098.33949
440.051	-1074.22916
440.546	-1075.25762
441.04	-1019.29873
441.534	-1047.50907
442.028	-937.24709
442.522	-984.33229
443.015	-944.13117
443.509	-926.32171
444.002	-935.34258
444.496	-894.10348
444.989	-935.38031
445.482	-924.39435
445.975	-985.32536
446.468	-924.1626
446.961	-914.15553
447.454	-902.24383
447.947	-942.38097
448.439	-867.32871
448.931	-925.29014
449.424	-866.41796
449.916	-829.2815
450.408	-891.26632
450.9	-861.34051
451.392	-891.48869
451.884	-833.24707
452.375	-888.4622
452.867	-782.16373
453.358	-840.24285
453.849	-808.11212
454.341	-826.23692
454.832	-819.16351
455.323	-840.39901
455.814	-769.194
456.304	-791.24765
456.795	-765.19401
457.285	-725.11363
457.776	-673.06159
458.266	-742.2218
458.756	-717.21427
459.247	-756.26356
459.737	-774.30859
460.226	-772.23336
460.716	-733.25621
461.206	-717.24713
461.695	-687.26244
462.185	-691.18912
462.674	-661.11073
463.163	-659.06463
463.653	-631.95691
464.142	-724.31224
464.63	-671.24102
465.119	-636.08871
465.608	-672.16591
466.096	-627.03109
466.585	-611.07808
467.073	-566.03315
467.561	-594.10135
468.05	-597.07474
468.538	-568.08503
469.026	-644.22218
469.513	-593.97099
470.001	-611.08988
470.489	-570.05624
470.976	-543.9889
471.463	-532.05595
471.951	-523.05135
472.438	-551.03647
472.925	-541.01063
473.412	-480.95742
473.899	-439.80756
474.385	-508.02278
474.872	-540.03343
475.359	-505.01323
475.845	-466.78446
476.331	-409.72705
476.817	-447.90589
477.303	-453.8744
477.789	-461.93127
478.275	-508.06644
478.761	-461.94195
479.247	-384.71968
479.732	-496.05173
480.218	-436.96809
480.703	-422.89412
481.188	-434.79455
481.673	-411.80322
482.158	-473.86006
482.643	-443.9871
483.128	-471.93401
483.612	-426.86629
484.097	-379.80811
484.581	-340.68321
485.066	-395.83637
485.55	-403.77004
486.034	-362.67845
486.518	-378.77184
487.002	-388.82999
487.486	-398.85726
487.969	-423.91755
488.453	-342.76257
488.936	-337.66703
489.42	-332.64929
489.903	-351.78991
490.386	-837.41197
490.869	-331.64442
491.352	-303.66373
491.835	-329.61035
492.318	-305.61048
492.8	-334.62071
493.283	-367.84111
493.765	-386.86243
494.247	-280.58912
494.73	-283.55962
495.212	-285.62325
495.694	-352.74517
496.175	-393.84777
496.657	-256.54527
497.139	-222.34803
497.62	-388.84075
498.102	-328.73922
498.583	-330.75739
499.064	-304.61313
499.545	-321.67018
500.026	-322.65958
500.507	-337.72012
500.988	-321.73246
501.469	-343.78832
501.949	-272.61428
502.43	-345.75253
502.91	-345.65984
503.39	-262.60038
503.87	-311.67004
504.35	-240.51764
504.83	-295.5932
505.31	-322.71976
505.79	-304.66803
506.269	-287.6194
506.749	-334.70706
507.228	-308.66628
507.707	-275.56012
508.187	-252.55447
508.666	-336.7656
509.145	-334.72561
509.623	-303.65925
510.102	-294.66043
510.581	-276.61924
511.059	-329.76612
511.538	-286.68733
512.016	-266.58797
512.494	-275.62017
512.972	-325.72662
513.45	-358.77509
513.928	-299.67373
514.406	-362.81416
514.884	-290.69218
515.361	-289.64427
515.839	-232.4862
516.316	-263.58632
516.793	-239.56052
517.27	-225.50534
517.747	-320.76902
518.224	-233.50006
518.701	-256.53128
519.178	-298.68807
519.654	-211.46533
520.131	-245.56222
520.607	-232.53527
521.083	-275.58816
521.56	-277.61292
522.036	-213.43424
522.512	-229.52677
522.987	-264.58282
523.463	-256.56823
523.939	-252.57863
524.414	-235.50805
524.89	-254.5645
525.365	-230.48542
525.84	-318.71111
526.315	-230.5152
526.79	-247.52233
527.265	-218.46312
527.74	-271.62038
528.215	-279.62044
528.689	-259.5393
529.164	-228.46492
529.638	-235.56553
530.112	-272.60274
530.587	-281.56609
531.061	-263.5948
531.534	-235.53516
532.008	-233.52331
532.482	-190.40663
532.956	-272.65071
533.429	-260.59436
533.903	-228.47549
534.376	-235.48911
534.849	-206.44679
535.322	-184.40418
535.795	-206.47074
536.268	-256.58027
536.741	-178.39823
537.213	-229.49889
537.686	-226.51498
538.158	-208.43436
538.631	-154.34795
539.103	-237.4992
539.575	-141.27294
540.047	-119.24095
540.519	-175.39047
540.991	-128.28979
541.463	-117.26084
541.934	-176.37537
542.406	-176.38969
542.877	-175.36813
543.348	-108.24013
543.82	-71.15921
544.291	-97.20836
544.762	-114.24768
545.233	-65.14779
545.703	-89.17921
546.174	-26.05444
546.645	-104.22537
547.115	-20.04317
547.585	83.16729
548.056	-30.06437
548.526	27.0558
548.996	59.12471
549.466	95.20301
549.935	44.09078
550.405	111.20828
550.875	205.40842
551.344	183.37274
551.814	261.49797
552.283	300.53561
552.752	340.63879
553.221	302.52971
553.69	406.71367
554.159	389.76383
554.628	483.83151
555.096	547.0739
555.565	615.02649
556.033	771.33352
556.502	818.44917
556.97	901.40549
557.438	954.60258
557.906	1101.79386
558.374	1135.75501
558.842	1336.05921
559.31	1513.03056
559.777	1535.26679
560.245	1701.32756
560.712	1870.37258
561.18	2076.26012
561.647	2190.34463
562.114	2428.45522
562.581	2671.87765
563.048	2915.53299
563.514	3143.80055
563.981	3504.33302
564.448	3594.1789
564.914	3892.27134
565.381	4246.95933
565.847	4589.93841
566.313	4975.6832
566.779	5232.35803
567.245	5615.39074
567.711	5990.38268
568.176	6315.95737
568.642	6886.50859
569.108	7271.49644
569.573	7858.72269
570.038	8283.02601
570.504	8880.11748
570.969	9405.26025
571.434	9956.05299
571.899	10446.52446
572.363	11060.32982
572.828	11724.68994
573.293	12393.74966
573.757	12880.07068
574.222	13383.29236
574.686	14033.71069
575.15	14489.88586
575.614	15101.39059
576.078	15650.6938
576.542	16002.06046
577.006	16442.32111
577.469	16907.59891
577.933	17148.01804
578.396	17417.82548
578.86	17728.96353
579.323	17684.21509
579.786	17865.81435
580.249	18050.01188
580.712	18006.57278
581.175	17961.82688
581.637	17875.24388
582.1	17704.16883
582.563	17602.33027
583.025	17258.40674
583.487	17286.8345
583.95	16830.92894
584.412	16724.95294
584.874	16476.02877
585.336	16165.0019
585.797	15985.80585
586.259	15684.72386
586.721	15228.16122
587.182	14845.25669
587.643	14676.19273
588.105	14198.15163
588.566	13894.14459
589.027	13462.84257
589.488	13246.78533
589.949	12962.96375
590.41	12506.13444
590.87	12298.0685
591.331	11876.97045
591.791	11439.08567
592.252	10988.96203
592.712	10812.90626
593.172	10576.22779
593.632	10274.13275
594.092	9752.32339
594.552	9476.58484
595.011	9248.92456
595.471	9067.51613
595.931	8612.61277
596.39	8363.32021
596.849	8143.99077
597.308	8005.69876
597.768	7727.88609
598.227	7433.51215
598.685	7390.32627
599.144	7030.23061
599.603	6918.26913
600.062	6781.74328
600.52	6440.94472
600.978	6376.26826
601.437	6244.11594
601.895	6192.75295
602.353	6030.00413
602.811	5819.05176
603.269	5697.51447
603.727	5560.57202
604.184	5479.23883
604.642	5435.7725
605.099	5191.56455
605.557	5207.86862
606.014	5107.17323
606.471	5118.02414
606.928	5001.17553
607.385	4830.98574
607.842	4850.64295
608.299	4802.80134
608.755	4740.02625
609.212	4727.53839
609.668	4634.54417
610.125	4570.16159
610.581	4706.04001
611.037	4537.90028
611.493	4412.17265
611.949	4458.21889
612.405	4368.26365
612.861	4375.19316
613.316	4316.26954
613.772	4247.08705
614.227	4263.23251
614.683	4271.71614
615.138	4061.29571
615.593	4059.26457
616.048	4029.224
616.503	3938.71709
616.958	3926.82189
617.412	3781.53358
617.867	3700.1641
618.321	3664.89059
618.776	3688.22517
619.23	3503.62593
619.684	3442.46088
620.138	3501.61132
620.592	3281.91947
621.046	3234.75883
621.5	3078.97111
621.954	3031.60077
622.407	2948.55742
622.861	2917.00678
623.314	2802.69489
623.768	2764.80299
624.221	2754.057
624.674	2591.75578
625.127	2611.84058
625.58	2533.73977
626.033	2514.59955
626.485	2367.91199
626.938	2402.91735
627.39	2271.77949
627.843	2307.77459
628.295	2256.76136
628.747	2190.86297
629.199	2178.67341
629.651	2072.63108
630.103	2043.65736
630.555	2072.37893
631.006	1957.72465
631.458	1943.74048
631.909	1948.66506
632.361	1866.66669
632.812	1784.57268
633.263	1759.33153
633.714	1716.29214
634.165	1763.76196
634.616	1636.58652
635.067	1649.3788
635.518	1554.53534
635.968	1619.05942
636.419	1565.25602
636.869	1470.45304
637.319	1447.33792
637.769	1455.24756
638.219	1401.40642
638.669	1337.32145
639.119	1374.44168
639.569	1315.33578
640.019	1327.23645
640.468	1280.09122
640.918	1274.2958
641.367	1275.1009
641.816	1202.01433
642.265	1287.19908
642.714	1178.07266
643.163	1216.10432
643.612	1167.14556
644.061	1099.77064
644.51	1160.01333
644.958	1115.87763
645.406	1125.09182
645.855	1097.12015
646.303	1087.99538
646.751	1050.87675
647.199	1108.95535
647.647	1098.96881
648.095	1007.83989
648.543	1128.75481
648.99	1030.96577
649.438	1085.01225
649.885	1010.0236
650.333	1045.5577
650.78	988.93369
651.227	1018.99623
651.674	1035.87312
652.121	986.95156
652.568	994.95826
653.015	988.04849
653.461	945.83941
653.908	965.82954
654.354	950.86185
654.801	910.75904
655.247	954.69774
655.693	908.98757
656.139	934.8468
656.585	916.8213
657.031	860.67176
657.477	885.571
657.922	913.73247
658.368	867.80488
658.813	886.72156
659.259	896.79305
659.704	858.67578
660.149	813.60615
660.594	810.63645
661.039	818.57567
661.484	909.81448
661.929	806.6068
662.373	802.73779
662.818	815.73109
663.262	817.67661
663.707	835.81048
664.151	832.73465
664.595	768.59898
665.039	845.79563
665.483	806.77017
665.927	819.64748
666.371	709.42791
666.814	819.67468
667.258	761.55385
667.701	818.4988
668.145	788.70091
668.588	751.60751
669.031	749.52586
669.474	771.60985
669.917	803.52045
670.36	786.6908
670.803	832.72238
671.245	740.34743
671.688	750.60018
672.13	758.46761
672.573	766.70409
673.015	750.57253
673.457	778.45546
673.899	777.63743
674.341	758.59631
674.783	747.56383
675.225	767.64531
675.666	760.58932
676.108	766.4365
676.549	786.61547
676.991	786.49147
677.432	747.27821
677.873	833.65032
678.314	794.64291
678.755	797.68182
679.196	833.63034
679.637	846.77867
680.078	814.64379
680.518	906.78469
680.959	790.64337
681.399	822.76375
681.839	834.74958
682.28	804.72141
682.72	842.64526
683.16	864.84597
683.6	874.69338
684.039	869.52101
684.479	843.78051
684.919	772.5425
685.358	918.98501
685.798	852.93449
686.237	932.90381
686.676	957.85664
687.115	911.80841
687.554	939.87357
687.993	963.76375
688.432	998.87982
688.871	972.82539
689.309	1001.98174
689.748	1075.79337
690.186	1102.13439
690.625	1052.0122
691.063	1077.10416
691.501	1152.29489
691.939	1155.32049
692.377	1122.21339
692.815	1137.18198
693.253	1167.24398
693.69	1194.04431
694.128	1163.25227
694.565	1173.22865
695.003	1288.56746
695.44	1266.30794
695.877	1301.33099
696.314	1293.10381
696.751	1387.36964
697.188	1397.39443
697.625	1482.49198
698.061	1427.56423
698.498	1494.67497
698.934	1518.68227
699.371	1518.59965
699.807	1613.71604
700.243	1640.80257
700.679	1687.6295
701.115	1657.74737
701.551	1665.75174
701.987	1722.63474
702.422	1768.86878
702.858	1832.93602
703.294	1821.73406
703.729	1905.10894
704.164	1855.99736
704.599	1905.72263
705.035	1980.78075
705.47	1991.14109
705.904	2017.97104
706.339	2104.02644
706.774	2060.02143
707.209	2087.96638
707.643	2190.21247
708.078	2158.25927
708.512	2177.39697
708.946	2260.24261
709.38	2250.17892
709.814	2245.0093
710.248	2372.37683
710.682	2336.23102
711.116	2369.25048
711.549	2296.64586
711.983	2372.10288
712.416	2465.25561
712.85	2425.52078
713.283	2416.23919
713.716	2490.59739
714.149	2418.28352
714.582	2436.98522
715.015	2447.56
715.448	2463.60105
715.881	2448.87297
716.313	2464.2027
716.746	2481.22887
717.178	2419.31927
717.61	2494.64875
718.043	2414.5159
718.475	2401.358
718.907	2437.61924
719.339	2385.00764
719.77	2345.21245
720.202	2329.55075
720.634	2290.3207
721.065	2322.20906
721.497	2253.34549
721.928	2261.35368
722.359	2196.22339
722.79	2222.2061
723.221	2237.47652
723.652	2200.5883
724.083	2118.88326
724.514	2091.95392
724.945	2059.03351
725.375	2062.97251
725.806	2059.3195
726.236	1964.36898
726.666	1976.01451
727.096	1974.17274
727.526	1958.31646
727.956	1894.7859
728.386	1851.0895
728.816	1808.16428
729.246	1761.94985
729.675	1708.95201
730.105	1694.94449
730.534	1635.69439
730.964	1652.00917
731.393	1661.95217
731.822	1649.04483
732.251	1568.92786
732.68	1561.65186
733.109	1532.77536
733.537	1490.65558
733.966	1536.80779
734.395	1481.49766
734.823	1531.47475
735.251	1337.46777
735.68	1395.67203
736.108	1325.61039
736.536	1392.47
736.964	1322.33682
737.392	1245.46393
737.82	1258.35775
738.247	1215.2953
738.675	1280.37568
739.102	1176.35681
739.53	1168.39969
739.957	1086.30079
740.384	1142.27703
740.811	1120.31638
741.238	1061.12354
741.665	1055.9898
742.092	1058.06745
742.519	963.00056
742.945	962.93324
743.372	928.9469
743.798	935.04448
744.225	907.8247
744.651	878.89123
745.077	885.88963
745.503	889.85071
745.929	875.79171
746.355	927.95888
746.781	815.75435
747.207	749.53554
747.632	744.59354
748.058	819.77502
748.483	777.55286
748.908	758.65564
749.334	762.64195
749.759	738.52693
750.184	676.43281
750.609	742.60702
751.033	714.49171
751.458	675.34251
751.883	671.48862
752.307	632.33536
752.732	619.39703
753.156	641.42436
753.58	629.34439
754.005	593.37143
754.429	569.21651
754.853	558.26459
755.277	573.23353
755.7	566.28326
756.124	501.15016
756.548	541.17352
756.971	545.22032
757.394	505.20593
757.818	470.128
758.241	466.10269
758.664	458.07997
759.087	440.91636
759.51	459.06619
759.933	409.92756
760.356	453.08652
760.778	413.9575
761.201	447.01657
761.623	430.9809
762.046	435.96888
762.468	438.98746
762.89	404.94275
763.312	396.91501
763.734	343.78895
764.156	361.84922
764.578	376.82066
765	319.74752
765.421	315.76834
765.843	328.82543
766.264	372.85444
766.686	360.86217
767.107	303.70698
767.528	279.6808
767.949	296.72617
768.37	279.66249
768.791	302.70395
769.212	265.64496
769.632	250.56598
770.053	237.60851
770.473	281.66081
770.894	303.73108
771.314	305.70156
771.734	253.57289
772.154	268.66721
772.575	232.52502
772.994	206.45878
773.414	242.56633
773.834	181.44564
774.254	249.59263
774.673	224.53324
775.093	208.50407
775.512	169.41072
775.931	219.54276
776.351	222.5384
776.77	194.46555
777.189	197.46004
777.607	181.45481
778.026	160.39372
778.445	142.35188
778.864	188.47401
779.282	163.38737
779.701	165.41044
780.119	162.40393
780.537	138.34134
780.955	203.50624
781.373	129.31692
781.791	187.41275
782.209	194.43903
782.627	143.37281
783.045	151.34374
783.462	147.37151
783.88	144.36852
784.297	95.23864
784.715	118.30103
785.132	116.27954
785.549	129.32019
785.966	119.29753
786.383	153.37184
786.8	164.37582
787.217	121.28523
787.633	106.26344
788.05	214.49689
788.466	157.36592
788.883	100.25413
789.299	128.30601
789.715	141.33934
790.131	128.3158
790.547	154.3798
790.963	161.39406
791.379	111.27913
791.795	105.23913
792.21	139.32192
792.626	122.28764
793.041	105.25815
793.457	113.27782
793.872	132.30771
794.287	52.12484
794.702	151.36753
795.117	78.19385
795.532	91.22752
795.947	162.38447
796.362	153.36094
796.776	177.40781
797.191	127.30831
797.605	36.08528
798.02	117.28286
798.434	148.32578
798.848	101.24776
799.262	82.20328
799.676	142.34271
800.09	124.30266
800.504	100.2419
800.918	112.25811
801.331	142.36811
801.745	136.30928
802.158	109.27095
802.572	101.24418
802.985	158.37657
803.398	114.27024
803.811	96.24603
804.224	83.20647
804.637	42.10079
805.05	135.30981
805.462	109.2664
805.875	89.22997
806.288	54.13082
806.7	106.26498
807.112	95.21976
807.525	88.21679
807.937	70.17321
808.349	106.26411
808.761	100.24499
809.173	70.1699
809.584	148.3611
809.996	75.18364
810.408	76.19593
810.819	110.25713
811.231	-17.04458
811.642	19.04578
812.053	81.19242
812.464	95.22507
812.875	96.24431
813.286	99.25359
813.697	183.41945
814.108	127.30738
814.519	76.16961
814.929	102.25884
815.34	118.28393
815.75	69.17538
816.16	77.19182
816.571	75.19466
816.981	107.25125
817.391	88.21199
817.801	88.21791
818.211	108.25592
818.62	89.21363
819.03	62.15229
819.44	95.24708
819.849	103.25808
820.259	94.23964
820.668	55.13567
821.077	64.15912
821.486	46.1114
821.895	129.31551
822.304	92.24276
822.713	75.17728
823.122	53.13271
823.531	81.19176
823.939	65.15857
824.348	126.3033
824.756	103.2565
825.164	98.24542
825.573	75.18799
825.981	100.24672
826.389	131.32551
826.797	68.17036
827.205	40.0924
827.612	79.19466
828.02	64.15049
828.428	82.20831
828.835	42.11098
829.243	90.21376
829.65	82.20335
830.057	58.14109
830.464	34.08339
830.871	108.25681
831.278	95.22855
831.685	95.2111
832.092	78.19067
832.499	79.17262
832.905	77.1946
833.312	107.2424
833.718	73.18173
834.124	95.21609
834.531	93.23336
834.937	105.26764
835.343	125.29843
835.749	115.26634
836.155	64.16757
836.561	70.17207
836.966	120.2906
837.372	106.26785
837.777	72.17914
838.183	89.19719
838.588	55.13682
838.993	80.19432
839.399	62.15167
839.804	41.10035
840.209	56.14272
840.613	55.12272
841.018	64.16207
841.423	89.22725
841.828	57.14431
842.232	106.26065
842.637	80.18825
843.041	43.11057
843.445	73.18278
843.849	52.129
844.253	75.17797
844.657	25.06336
845.061	89.20105
845.465	60.14503
845.869	62.14419
846.272	56.13653
846.676	73.17629
847.079	52.13243
847.483	118.29145
847.886	92.22271
848.289	22.05906
848.692	75.18948
849.095	64.15371
849.498	119.2986
849.901	89.20318
850.304	102.24199
850.707	86.21832
851.109	86.21669
851.512	78.19109
851.914	30.076
852.316	88.22149
852.718	25.06491
853.121	72.17607
853.523	101.23429
853.925	27.0708
854.326	31.0779
854.728	55.14152
855.13	61.15724
855.531	59.14102
855.933	107.25468
856.334	46.11495
856.736	31.06989
857.137	74.17162
857.538	43.1084
857.939	61.15064
858.34	71.17269
858.741	84.21859
859.142	51.12274
859.542	57.15038
859.943	91.2248
860.343	56.13872
860.744	68.16567
861.144	105.25394
861.544	13.03151
861.945	75.19056
862.345	101.2451
862.745	92.22723
863.145	100.23724
863.544	97.2434
863.944	84.19751
864.344	112.27551
864.743	113.27761
865.143	85.21727
865.542	84.19389
865.941	77.18994
866.34	82.19559
866.74	84.22441
867.139	58.13887
867.537	107.27023
867.936	62.14913
868.335	107.26984
868.734	77.19606
869.132	52.12098
869.531	123.29388
869.929	86.19494
870.327	83.19801
870.726	108.26685
871.124	111.25677
871.522	80.20294
871.92	37.09161
872.318	78.18996
872.715	115.28169
873.113	47.11474
873.511	60.14939
873.908	9.02291
874.306	71.1761
874.703	48.12029
875.1	86.21886
875.497	64.15324
875.894	22.05424
876.291	49.12043
876.688	90.23074
877.085	82.19581
877.482	63.15752
877.878	65.1562
878.275	65.16486
878.671	117.25739
879.068	73.17569
879.464	88.21143
879.86	55.13011
880.256	68.16746
880.652	71.18008
881.048	111.27229
881.444	74.17556
881.84	65.16492
882.236	93.23227
882.631	99.24106
883.027	102.24487
883.422	88.22371
883.817	52.13074
884.213	66.16903
884.608	39.09592
885.003	52.12546
885.398	9.02271
885.793	58.14551
886.188	44.10959
886.582	147.37098
886.977	77.18201
887.371	72.18155
887.766	6.01505
888.16	94.23294
888.554	94.23081
888.949	111.27592
889.343	101.24464
889.737	7.0188
890.131	53.13299
890.525	70.17852
890.918	65.16328
891.312	112.26509
891.706	98.25519
892.099	82.20765
892.492	91.19488
892.886	54.13215
893.279	54.13757
893.672	75.19023
894.065	71.17726
894.458	68.1706
894.851	84.20472
895.244	58.14802
895.637	83.19884
896.029	79.19229
896.422	70.17054
896.814	43.10712
897.206	15.03599
897.599	132.32183
897.991	69.16638
898.383	59.1393
898.775	64.14419
899.167	24.0563
899.559	96.24119
899.951	109.25425
900.342	94.23736
900.734	45.11182
901.125	88.22954
901.517	78.1906
901.908	120.28414
902.299	40.09803
902.69	47.11105
903.082	94.22593
903.473	48.11506
903.863	65.16551
904.254	39.09079
904.645	97.23936
905.036	29.07053
905.426	106.24018
905.817	67.16399
906.207	80.18965
906.597	57.13322
906.987	60.15533
907.378	95.23847
907.768	68.17931
908.158	78.18932
908.547	44.11383
908.937	86.2194
909.327	103.24779
909.717	126.31577
910.106	56.13444
910.495	88.21831
910.885	93.23387
911.274	69.17196
911.663	93.23437
912.052	107.26141
912.441	41.10447
912.83	67.15339
913.219	97.25194
913.608	121.29264
913.997	8.02022
914.385	72.17141
914.774	38.09279
915.162	57.13572
915.55	84.20205
915.939	87.21823
916.327	77.19133
916.715	39.09962
917.103	107.26073
917.491	121.29561
917.878	67.1643
918.266	79.20392
918.654	50.12778
919.041	55.14349
919.429	52.12275
919.816	67.16939
920.203	71.17159
920.591	72.1779
920.978	96.23318
921.365	73.19084
921.752	43.1027
922.139	96.20653
922.525	78.1864
922.912	91.22033
923.299	73.18073
923.685	54.14081
924.072	90.206
924.458	55.13617
924.844	51.12622
925.231	85.19655
925.617	49.12468
926.003	38.09735
926.389	84.21067
926.774	82.20669
927.16	92.22681
927.546	31.07941
927.931	88.21815
928.317	102.23262
928.702	122.28474
929.088	102.2389
929.473	48.1222
929.858	48.11611
930.243	42.10099
930.628	57.13853
931.013	90.22147
931.398	116.26337
931.783	80.2096
932.167	95.23037
932.552	73.18219
932.937	121.29649
933.321	46.11553
933.705	42.10605
934.09	78.19618
934.474	62.14698
934.858	36.09362
935.242	43.09983
935.626	74.18865
936.009	54.14355
936.393	65.16498
936.777	100.25386
937.16	86.22241
937.544	98.22881
937.927	62.157
938.311	114.27503
938.694	91.23903
939.077	53.12683
939.46	121.2933
939.843	97.20036
940.226	69.17643
940.609	56.12844
940.991	73.18509
941.374	73.17768
941.757	103.25173
942.139	36.08111
942.522	89.20882
942.904	97.23114
943.286	86.21716
943.668	103.26439
944.05	82.20082
944.432	63.15512
944.814	59.14511
945.196	37.0904
945.578	66.1564
945.959	134.30893
946.341	109.26471
946.722	96.22335
947.104	100.23678
947.485	45.10484
947.866	31.07838
948.247	40.10111
948.628	68.16536
949.009	43.11026
949.39	86.21272
949.771	112.25739
950.152	80.19527
950.532	13.0322
950.913	126.29961
951.293	53.14311
951.674	73.17582
952.054	65.16063
952.434	61.15114
952.814	65.15424
953.194	97.25185
953.574	117.28467
953.954	86.20285
954.334	74.18365
954.714	42.10252
955.093	84.20526
955.473	69.17196
955.853	109.2793
956.232	72.19665
956.611	103.24459
956.99	32.08069
957.37	67.17024
957.749	96.22705
958.128	60.15091
958.506	48.12456
958.885	78.1959
959.264	34.08358
959.643	100.2253
960.021	53.13127
960.4	71.16026
960.778	92.22489
961.156	76.18964
961.535	73.16941
961.913	72.16778
962.291	46.1181
962.669	47.11912
963.047	93.23554
963.424	58.14781
963.802	61.1497
964.18	83.20879
964.557	81.18544
964.935	84.19774
965.312	72.18678
965.69	93.23109
966.067	80.19374
966.444	123.29904
966.821	70.17984
967.198	87.20962
967.575	119.28889
967.952	55.1295
968.329	118.2835
968.705	83.17675
969.082	90.2292
969.458	33.07942
969.835	85.20558
970.211	64.16385
970.587	78.19322
970.963	126.31895
971.339	65.16929
971.715	118.29102
972.091	76.18626
972.467	80.19846
972.843	85.20959
973.219	124.29361
973.594	72.18762
973.97	113.26575
974.345	38.09116
974.721	91.21868
975.096	67.16161
975.471	107.25105
975.846	92.21927
976.221	43.10933
976.596	45.10797
976.971	100.24463
977.346	108.24859
977.72	97.24506
978.095	94.24108
978.469	59.14059
978.844	115.28576
979.218	49.11748
979.593	101.23966
979.967	60.14591
980.341	55.12652
980.715	67.1683
981.089	84.20899
981.463	71.16235
981.837	83.20157
982.21	115.26423
982.584	76.18266
982.957	55.13722
983.331	58.13691
983.704	66.1617
984.078	77.18882
984.451	99.2451
984.824	65.15786
985.197	75.18132
985.57	61.15268
985.943	90.22066
986.316	134.32414
986.688	124.29486
987.061	94.21844
987.434	52.13546
987.806	70.16914
988.179	91.21301
988.551	117.29327
988.923	56.13776
989.295	105.25977
989.667	48.11471
990.039	56.13821
990.411	95.2167
990.783	96.21903
991.155	26.06275
991.527	122.29645
991.898	55.13692
992.27	64.1579
992.641	76.18978
993.012	106.24671
993.384	133.31218
993.755	87.22035
994.126	95.22655
994.497	99.24079
994.868	125.28283
995.239	113.27061
995.61	64.16062
995.98	61.14786
996.351	23.05724
996.722	39.09065
997.092	58.13712
997.462	31.07268
997.833	97.22786
998.203	91.21892
998.573	61.15158
998.943	49.11492
999.313	61.14586
999.683	74.17678
1000.053	82.18746
1000.423	67.16229
1000.792	80.20625
1001.162	65.15951
1001.531	87.21303
1001.901	91.22513
1002.27	91.2017
1002.639	65.16562
1003.009	32.07636
1003.378	89.22597
1003.747	107.24997
1004.116	66.15742
1004.485	101.23901
1004.853	93.23378
1005.222	56.14105
1005.591	96.2259
1005.959	38.08582
1006.328	84.1877
1006.696	71.17055
1007.064	100.24925
1007.433	102.25248
1007.801	84.20488
1008.169	45.11373
1008.537	85.18683
1008.905	33.07713
1009.273	79.19408
1009.64	31.07421
1010.008	118.27757
1010.375	136.32488
1010.743	151.34166
1011.11	86.20206
1011.478	113.27638
1011.845	67.15702
1012.212	67.1511
1012.579	97.23601
1012.946	77.18229
1013.313	136.31828
1013.68	95.21153
1014.047	32.0765
1014.414	53.12508
1014.78	27.06736
1015.147	120.28633
1015.513	51.12283
1015.88	104.26336
1016.246	115.28043
1016.612	94.21325
1016.978	76.1853
1017.344	70.17232
1017.71	116.27933
1018.076	71.16672
1018.442	88.22482
1018.808	90.22327
1019.174	75.18725
1019.539	168.37756
1019.905	58.13654
1020.27	21.05209
1020.636	71.16951
1021.001	67.15984
1021.366	47.1129
1021.731	78.19955
1022.096	38.09602
1022.461	60.14169
1022.826	69.16335
1023.191	95.24725
1023.556	81.18864
1023.92	74.18109
1024.285	75.18214
1024.649	69.16845
1025.014	86.21155
1025.378	82.20491
1025.742	87.21453
1026.107	94.21065
1026.471	83.19246
1026.835	93.22865
1027.199	39.09404
1027.562	56.12998
1027.926	86.20882
1028.29	83.20872
1028.654	79.18064
1029.017	84.20511
1029.381	73.17355
1029.744	62.15773
1030.107	117.27312
1030.471	113.2672
1030.834	101.22732
1031.197	96.22916
1031.56	73.17141
1031.923	57.14713
1032.286	101.23475
1032.648	83.19718
1033.011	82.18693
1033.374	89.20752
1033.736	59.15482
1034.099	38.09279
1034.461	41.10369
1034.823	68.16869
1035.185	126.31269
1035.548	66.16007
1035.91	65.15519
1036.272	106.23842
1036.634	103.24939
1036.995	79.18456
1037.357	54.13122
1037.719	76.18384
1038.08	80.18877
1038.442	57.13505
1038.803	75.17913
1039.165	97.24261
1039.526	84.20159
1039.887	80.19023
1040.248	59.14506
1040.609	96.23511
1040.97	81.19671
1041.331	90.22612
1041.692	42.09814
1042.053	75.16984
1042.413	63.14637
1042.774	114.27379
1043.134	138.32284
1043.495	89.22204
1043.855	77.18574
1044.215	108.26508
1044.576	13.03129
1044.936	86.19566
1045.296	117.28829
1045.656	70.17105
1046.016	124.29497
1046.375	79.19049
1046.735	63.14237
1047.095	97.22483
1047.454	131.27254
1047.814	61.14625
1048.173	112.26427
1048.533	69.15739
1048.892	55.13182
1049.251	105.26081
1049.61	100.24381
1049.969	59.13876
1050.328	99.21229
1050.687	50.12159
1051.046	43.10478
1051.405	94.23183
1051.763	52.11945
1052.122	49.12216
1052.48	62.15161
1052.839	64.15008
1053.197	70.16402
1053.555	152.33922
1053.914	79.19207
1054.272	133.31632
1054.63	46.11249
1054.988	34.08097
1055.345	60.12886
1055.703	66.15827
1056.061	68.17427
1056.419	94.24133
1056.776	79.19042
1057.134	92.21109
1057.491	74.18438
1057.848	85.21013
1058.206	74.17312
1058.563	62.13625
1058.92	81.18544
1059.277	101.24666
1059.634	125.28962
1059.991	50.11972
1060.348	48.10845
1060.704	21.05029
1061.061	146.33256
1061.418	39.09471
1061.774	57.14045
1062.131	4.01065
1062.487	62.14453
1062.843	58.14431
1063.199	61.1513
1063.555	62.14322
1063.911	84.21074
1064.267	79.16362
1064.623	23.05611
1064.979	132.30759
1065.335	89.21102
1065.691	68.16232
1066.046	83.18113
1066.402	81.18275
1066.757	105.26224
1067.112	76.1855
1067.468	31.07342
1067.823	92.21927
1068.178	107.25585
1068.533	46.11153
1068.888	59.14065
1069.243	42.10374
1069.598	48.11659
1069.952	49.11028
1070.307	40.09912
1070.662	59.13973
1071.016	74.16488
1071.371	69.15625
1071.725	87.20652
1072.079	80.19118
1072.434	30.07312
1072.788	99.23337
1073.142	102.24831
1073.496	56.1326
1073.85	73.1684
1074.203	104.24958
1074.557	80.21152
1074.911	128.30074
1075.265	67.15511
1075.618	80.1941
1075.971	86.203
1076.325	54.13704
1076.678	44.10067
1077.031	55.12424
1077.385	76.16638
1077.738	44.09937
1078.091	60.13606
1078.444	125.28571
1078.796	96.23336
1079.149	102.2511
1079.502	43.10164
1079.855	71.16476
1080.207	86.2103
1080.56	67.17252
1080.912	72.17443
1081.264	80.1914
1081.617	93.22467
1081.969	49.12353
1082.321	96.23222
1082.673	61.13881
1083.025	85.20014
1083.377	-140.31257
1083.728	95.2195
1084.08	54.1346
1084.432	39.09418
1084.783	133.30632
1085.135	65.16234
1085.486	24.05515
1085.838	109.26531
1086.189	63.15243
1086.54	105.2479
1086.891	40.10126
1087.242	76.18398
1087.593	151.36037
1087.944	103.23039
1088.295	113.25339
1088.646	22.05356
1088.996	58.1394
1089.347	71.1734
1089.698	62.14607
1090.048	111.28502
1090.398	79.18202
1090.749	122.28764
1091.099	62.15544
1091.449	84.20778
1091.799	93.23084
1092.149	53.12905
1092.499	66.16038
1092.849	97.24427
1093.199	118.29187
1093.548	93.22144
1093.898	59.14725
1094.248	112.28442
1094.597	49.12499
1094.947	79.20955
1095.296	31.07675
1095.645	88.22719
1095.994	95.22603
1096.343	110.27358
1096.692	64.16757
1097.041	42.11376
1097.39	85.21167
1097.739	63.16324
1098.088	125.33045
1098.437	30.079
1098.785	107.28552
1099.134	107.28115
1099.482	86.23496
1099.83	103.26798
1100.179	53.13804
1100.527	98.25807
1100.875	93.24387
1101.223	71.1877
1101.571	96.26312
1101.919	41.10719
1102.267	34.09587
1102.615	10.03213
1102.962	19.06111
1103.31	12.03853
1103.658	25.08039
