Data from N2 R11 sample 8_Subt2__5__14-36-49-154.txt Node

Date: Mon Sep 01 14:36:49 PDT 2025
User: uwsun
Spectrometer: HDX01956
Trigger mode: 0
Integration Time (sec): 5.000000E-1
Scans to average: 1
Nonlinearity correction enabled: true
Boxcar width: 0
Storing dark spectrum: false
XAxis mode: Wavelengths
Number of Pixels in Spectrum: 2068
>>>>>Begin Spectral Data<<<<<
194.03	-112.31973
194.578	-106.33951
195.127	-121.38277
195.676	-112.35495
196.225	-36.09608
196.773	-86.239
197.321	-123.33674
197.87	-125.31636
198.418	-173.43612
198.966	-214.54649
199.513	-231.56516
200.061	-257.64181
200.609	-180.46758
201.156	-221.47553
201.704	-221.54532
202.251	-230.59744
202.798	-183.46297
203.345	-194.47139
203.892	-222.54909
204.438	-165.38532
204.985	-241.56012
205.532	-251.64962
206.078	-203.48853
206.624	-210.50432
207.17	-183.41642
207.716	-195.4618
208.262	-188.36697
208.808	-220.52774
209.354	-237.56689
209.899	-171.42319
210.445	-209.5064
210.99	-242.57343
211.535	-178.40987
212.08	-185.42199
212.625	-204.50106
213.17	-203.50458
213.715	-267.58685
214.259	-158.35931
214.804	-187.45327
215.348	-183.41119
215.892	-177.41529
216.436	-188.42944
216.98	-158.34327
217.524	-240.56143
218.068	-155.38022
218.612	-155.38065
219.155	-179.41275
219.698	-212.49847
220.242	-158.38579
220.785	-145.33102
221.328	-136.32984
221.871	-155.385
222.414	-166.40577
222.956	-204.48265
223.499	-142.31245
224.041	-117.26624
224.583	-108.22854
225.126	-195.42572
225.668	-179.42653
226.21	-156.38232
226.751	-197.42462
227.293	-140.31335
227.835	-152.36157
228.376	-131.29616
228.918	-115.28211
229.459	-196.47803
230	-180.42059
230.541	-158.35727
231.082	-184.43752
231.622	-128.28767
232.163	-207.49325
232.704	-174.42105
233.244	-220.53775
233.784	-148.3549
234.324	-188.40375
234.864	-156.3457
235.404	-145.33688
235.944	-137.31666
236.484	-146.35516
237.023	-179.41374
237.563	-147.33017
238.102	-132.30274
238.641	-177.43708
239.18	-257.59471
239.719	-170.41617
240.258	-167.36799
240.797	-148.34324
241.335	-148.35246
241.874	-191.36282
242.412	-162.37839
242.95	-205.47834
243.488	-176.39311
244.026	-212.47976
244.564	-128.25602
245.102	-201.44272
245.64	-122.28474
246.177	-168.36779
246.715	-121.2809
247.252	-173.38872
247.789	-109.20059
248.326	-190.44274
248.863	-212.45646
249.4	-173.38377
249.936	-185.37321
250.473	-214.48843
251.009	-194.43295
251.546	-238.51773
252.082	-187.40065
252.618	-173.37417
253.154	-183.42617
253.69	-175.38336
254.226	-210.48914
254.761	-214.47106
255.297	-189.40301
255.832	-222.51342
256.367	-220.50698
256.903	-207.44426
257.438	-172.39226
257.972	-187.40549
258.507	-238.53245
259.042	-216.45968
259.576	-273.57882
260.111	-200.45114
260.645	-185.39036
261.179	-202.45714
261.713	-215.4664
262.247	-204.45828
262.781	-228.46767
263.315	-193.456
263.849	-223.54093
264.382	-167.37123
264.915	-211.47838
265.449	-255.60154
265.982	-156.3421
266.515	-193.45388
267.048	-191.39151
267.58	-183.38903
268.113	-205.42914
268.646	-241.57733
269.178	-213.46029
269.71	-189.39985
270.243	-216.47985
270.775	-191.46662
271.307	-210.49088
271.838	-212.49049
272.37	-248.59285
272.902	-194.42668
273.433	-195.41164
273.965	-193.45158
274.496	-217.52242
275.027	-239.57363
275.558	-220.51445
276.089	-294.70092
276.62	-220.54115
277.15	-215.5127
277.681	-200.42062
278.211	-194.45757
278.741	-237.50425
279.272	-227.49936
279.802	-255.61714
280.332	-251.57183
280.861	-195.44928
281.391	-218.47483
281.921	-167.38385
282.45	-203.4865
282.98	-222.55492
283.509	-216.46667
284.038	-233.51127
284.567	-176.39278
285.096	-223.51686
285.625	-261.57246
286.153	-285.64639
286.682	-216.47167
287.21	-250.57702
287.739	-209.47018
288.267	-294.68666
288.795	-224.56255
289.323	-299.67346
289.851	-239.5359
290.378	-219.46859
290.906	-293.67962
291.433	-234.55511
291.961	-252.54445
292.488	-251.59578
293.015	-252.56354
293.542	-270.64963
294.069	-258.60212
294.596	-223.52341
295.122	-218.49093
295.649	-234.49104
296.175	-250.57702
296.702	-283.65721
297.228	-211.4842
297.754	-251.53474
298.28	-269.57956
298.806	-300.68689
299.332	-267.55819
299.857	-281.60203
300.383	-230.54857
300.908	-356.82359
301.433	-279.63843
301.958	-217.47114
302.483	-345.81853
303.008	-256.59604
303.533	-268.65798
304.058	-207.45556
304.582	-301.6688
305.107	-327.80324
305.631	-224.47774
306.155	-309.67659
306.679	-281.61243
307.203	-304.66213
307.727	-282.62568
308.251	-301.69734
308.775	-365.81468
309.298	-350.78524
309.822	-303.71364
310.345	-305.67403
310.868	-292.64705
311.391	-263.59868
311.914	-336.78319
312.437	-329.70455
312.96	-354.77821
313.482	-320.7017
314.005	-330.76678
314.527	-360.87561
315.049	-312.72897
315.571	-383.78826
316.093	-336.76529
316.615	-343.75894
317.137	-317.63068
317.659	-321.71619
318.18	-287.63001
318.702	-343.72818
319.223	-390.7396
319.744	-380.77944
320.265	-417.92418
320.786	-425.95797
321.307	-428.97398
321.828	-322.65182
322.348	-400.85232
322.869	-408.86521
323.389	-411.61071
323.909	-368.75585
324.43	-366.79478
324.95	-391.79566
325.47	-437.95801
325.989	-417.87059
326.509	-422.81592
327.029	-438.86796
327.548	-475.94283
328.067	-486.03049
328.587	-449.98555
329.106	-474.94633
329.625	-401.92674
330.144	-524.06184
330.662	-473.94631
331.181	-491.99778
331.7	-496.00362
332.218	-492.91486
332.736	-495.99536
333.255	-531.05961
333.773	-531.07482
334.291	-505.07947
334.808	-571.08365
335.326	-525.99881
335.844	-583.13394
336.361	-620.32256
336.879	-579.11919
337.396	-608.22113
337.913	-601.14181
338.43	-609.12726
338.947	-622.21999
339.464	-615.06538
339.981	-629.21021
340.497	-603.2108
341.014	-680.35467
341.53	-671.21691
342.046	-663.30759
342.562	-675.3662
343.078	-656.22744
343.594	-672.27852
344.11	-641.19784
344.626	-698.39509
345.141	-688.2228
345.657	-671.19036
346.172	-723.36739
346.687	-735.31025
347.202	-750.29883
347.717	-721.32372
348.232	-706.3544
348.747	-751.31469
349.261	-823.34771
349.776	-761.35251
350.29	-856.60876
350.805	-799.51655
351.319	-818.44091
351.833	-802.33261
352.347	-827.44883
352.861	-851.47148
353.374	-788.33882
353.888	-821.46769
354.401	-824.3768
354.915	-908.46879
355.428	-847.52595
355.941	-857.42154
356.454	-799.27555
356.967	-861.4636
357.48	-851.39138
357.993	-853.49919
358.505	-957.68686
359.018	-867.49128
359.53	-949.61192
360.042	-900.38072
360.554	-916.55695
361.066	-951.61619
361.578	-928.37201
362.09	-929.52275
362.602	-995.48904
363.113	-986.55519
363.625	-1014.53725
364.136	-989.44891
364.647	-1136.76118
365.158	-999.53107
365.669	-1043.67151
366.18	-1032.60566
366.691	-1031.4656
367.201	-1030.59695
367.712	-1047.50439
368.222	-1090.58267
368.733	-1085.42744
369.243	-1108.48191
369.753	-1128.61504
370.263	-1150.70438
370.773	-1168.79107
371.282	-1193.70191
371.792	-1315.73105
372.301	-1292.82429
372.811	-1294.0126
373.32	-1363.53429
373.829	-1471.92637
374.338	-1441.66688
374.847	-1474.72031
375.356	-1515.79316
375.865	-1585.47774
376.373	-1651.67482
376.882	-1610.93082
377.39	-1640.73654
377.898	-1892.97667
378.407	-1886.55657
378.915	-1892.36682
379.423	-1975.5717
379.93	-2042.40143
380.438	-2227.56428
380.946	-2240.26
381.453	-2363.22594
381.96	-2580.13708
382.468	-2847.90864
382.975	-2813.86794
383.482	-2898.48534
383.989	-3088.00019
384.495	-3097.25979
385.002	-3374.72261
385.509	-3568.90589
386.015	-3688.15556
386.521	-3873.29757
387.028	-4041.06168
387.534	-4220.88904
388.04	-4310.03938
388.546	-4631.74465
389.051	-4988.71247
389.557	-5331.82516
390.063	-5232.80025
390.568	-5544.04205
391.073	-5930.62298
391.578	-6181.8756
392.084	-6553.96636
392.589	-7112.91971
393.093	-7822.63718
393.598	-8300.34522
394.103	-8815.22259
394.607	-9701.45517
395.112	-10218.0471
395.616	-10971.70662
396.12	-12215.32227
396.624	-13597.45064
397.128	-14516.09367
397.632	-15652.54232
398.136	-17355.74624
398.639	-19903.43207
399.143	-22812.97624
399.646	-25331.16904
400.15	-28037.38118
400.653	-31933.25606
401.156	-36573.95038
401.659	-43212.09953
402.162	-43588.86281
402.664	-37505.90424
403.167	-28280.53649
403.67	-3495.23353
404.172	0
404.674	0
405.176	0
405.678	0
406.18	0
406.682	0
407.184	0
407.686	0
408.187	0
408.688	-1372.07232
409.19	-21573.25626
409.691	-30011.81268
410.192	-35037.99191
410.693	-38399.00395
411.194	-40382.06972
411.694	-37937.92432
412.195	-34703.38267
412.696	-33142.10759
413.196	-33470.7563
413.696	-33985.5284
414.196	-32766.08306
414.696	-29508.42614
415.196	-25901.25939
415.696	-19569.2972
416.196	-15435.24256
416.695	-14539.0635
417.195	-14534.50501
417.694	-13682.21067
418.194	-12653.02213
418.693	-12480.7243
419.192	-12116.36578
419.691	-11938.74808
420.19	-11391.65426
420.688	-10684.65499
421.187	-10043.46172
421.685	-9073.27005
422.184	-7816.10958
422.682	-6904.56499
423.18	-6439.85397
423.678	-5961.63222
424.176	-5568.63433
424.674	-5156.05753
425.172	-4806.64223
425.669	-4365.61871
426.167	-3935.70934
426.664	-3700.90062
427.161	-3545.2399
427.659	-3238.69079
428.156	-3125.50301
428.652	-2994.39609
429.149	-2873.37501
429.646	-2701.25738
430.143	-2464.64764
430.639	-2452.8536
431.135	-2319.15168
431.632	-2222.03226
432.128	-2081.248
432.624	-2052.53452
433.12	-2112.22925
433.616	-2022.17382
434.111	-2091.55403
434.607	-2000.67094
435.103	-1759.20976
435.598	-1638.10832
436.093	-1597.51941
436.588	-1541.4771
437.083	-1417.4066
437.578	-1438.57943
438.073	-1480.84228
438.568	-1355.76891
439.062	-1278.3422
439.557	-1243.59708
440.051	-1262.54972
440.546	-1243.54716
441.04	-1265.7527
441.534	-1234.88406
442.028	-1164.66905
442.522	-1198.7385
443.015	-1145.47491
443.509	-1098.65346
444.002	-1161.78707
444.496	-1083.42861
444.989	-1087.68039
445.482	-1109.76773
445.975	-1166.66466
446.468	-1073.42193
446.961	-1080.44606
447.454	-1077.5709
447.947	-1127.74765
448.439	-1027.64948
448.931	-1110.64173
449.424	-998.69496
449.916	-1035.69812
450.408	-1069.60618
450.9	-1072.77322
451.392	-1018.76067
451.884	-973.51918
452.375	-1017.73523
452.867	-942.471
453.358	-1038.63007
453.849	-984.43316
454.341	-997.57126
454.832	-959.42368
455.323	-952.63487
455.814	-918.48836
456.304	-970.61008
456.795	-879.41811
457.285	-855.36449
457.776	-828.36536
458.266	-932.61663
458.756	-839.46837
459.247	-891.54492
459.737	-895.56335
460.226	-854.39669
460.716	-854.51153
461.206	-823.47203
461.695	-799.50992
462.185	-820.46025
462.674	-785.36427
463.163	-791.3262
463.653	-779.23219
464.142	-787.44949
464.63	-722.35251
465.119	-779.38529
465.608	-742.3115
466.096	-724.22318
466.585	-694.25137
467.073	-717.35933
467.561	-717.37057
468.05	-649.1841
468.538	-670.31182
469.026	-668.27521
469.513	-653.0853
470.001	-738.36009
470.489	-682.29947
470.976	-694.3102
471.463	-643.30966
471.951	-598.22312
472.438	-620.18628
472.925	-641.22742
473.412	-598.22312
473.899	-555.04862
474.385	-595.22219
474.872	-579.11865
475.359	-627.29382
475.845	-582.00888
476.331	-514.93868
476.817	-545.12688
477.303	-537.05522
477.789	-510.03954
478.275	-557.18208
478.761	-491.00778
479.247	-450.85715
479.732	-566.2187
480.218	-514.15719
480.703	-489.04882
481.188	-487.90353
481.673	-498.99332
482.158	-515.94645
482.643	-436.9701
483.128	-494.98489
483.612	-468.9608
484.097	-391.83586
484.581	-411.83941
485.066	-453.97131
485.55	-471.91482
486.034	-432.82366
486.518	-453.94071
487.002	-481.04715
487.486	-442.96101
487.969	-449.97933
488.453	-395.89036
488.936	-442.89637
489.42	-374.73871
489.903	-367.82861
490.386	-830.39747
490.869	-376.73987
491.352	-393.87716
491.835	-334.6204
492.318	-371.75393
492.8	-383.72047
493.283	-411.95022
493.765	-378.84317
494.247	-346.73855
494.73	-372.75097
495.212	-349.7735
495.694	-387.82552
496.175	-414.89708
496.657	-339.73506
497.139	-304.48799
497.62	-429.9377
498.102	-389.88758
498.583	-316.72323
499.064	-391.80436
499.545	-350.73542
500.026	-398.82927
500.507	-324.6904
500.988	-315.7179
501.469	-387.89724
501.949	-335.76624
502.43	-378.83026
502.91	-313.594
503.39	-342.79623
503.87	-348.7557
504.35	-301.65768
504.83	-365.7458
505.31	-374.84493
505.79	-350.77653
506.269	-321.69781
506.749	-384.82179
507.228	-348.75923
507.707	-324.66728
508.187	-279.61735
508.666	-354.80953
509.145	-358.78171
509.623	-315.6871
510.102	-325.7347
510.581	-297.66923
511.059	-345.8059
511.538	-323.78168
512.016	-292.64894
512.494	-312.70891
512.972	-344.7721
513.45	-342.73792
513.928	-338.76766
514.406	-391.88459
514.884	-322.77324
515.361	-313.70123
515.839	-293.62231
516.316	-351.7967
516.793	-277.65444
517.27	-296.67447
517.747	-283.67534
518.224	-279.60471
518.701	-263.54666
519.178	-307.71011
519.654	-290.65011
520.131	-341.7975
520.607	-306.71636
521.083	-303.65196
521.56	-293.65049
522.036	-267.55101
522.512	-244.56295
522.987	-306.68146
523.463	-283.63168
523.939	-253.58104
524.414	-272.59269
524.89	-281.628
525.365	-314.6749
525.84	-363.81925
526.315	-310.70579
526.79	-282.60091
527.265	-301.651
527.74	-299.68831
528.215	-274.60869
528.689	-272.56801
529.164	-318.66171
529.638	-280.67955
530.112	-314.70188
530.587	-271.54469
531.061	-304.69325
531.534	-249.56865
532.008	-263.59432
532.482	-244.52829
532.956	-324.78277
533.429	-256.58475
533.903	-211.43838
534.376	-268.56189
534.849	-273.60054
535.322	-290.65118
535.795	-293.68123
536.268	-298.68122
536.741	-274.6251
537.213	-300.66339
537.686	-296.68399
538.158	-277.5873
538.631	-267.61711
539.103	-311.66572
539.575	-240.47559
540.047	-259.54122
540.519	-237.53557
540.991	-249.57757
541.463	-247.56544
541.934	-262.5692
542.406	-272.61428
542.877	-269.57757
543.348	-268.61561
543.82	-228.52772
544.291	-241.53372
544.762	-258.57767
545.233	-257.60696
545.703	-273.57301
546.174	-225.49184
546.645	-281.63188
547.115	-255.57812
547.585	-219.47204
548.056	-283.64029
548.526	-239.52333
548.996	-229.51454
549.466	-196.44518
549.935	-222.48539
550.405	-238.48509
550.875	-199.43372
551.344	-186.41063
551.814	-196.41548
552.283	-165.33011
552.752	-206.43916
553.221	-178.35174
553.69	-185.37578
554.159	-185.41244
554.628	-119.23797
555.096	-85.19201
555.565	-85.1695
556.033	-68.14409
556.502	-13.02805
556.97	-1.00197
557.438	43.09034
557.906	102.2131
558.374	104.20995
558.842	145.3026
559.31	191.37008
559.777	209.4348
560.245	342.67709
560.712	344.6702
561.18	377.68895
561.647	460.83663
562.114	514.94058
562.581	614.2037
563.048	712.26556
563.514	696.32619
563.981	846.44074
564.448	960.5445
564.914	1065.75045
565.381	1164.81114
565.847	1232.95096
566.313	1316.0175
566.779	1504.08647
567.245	1605.27327
567.711	1685.40617
568.176	1813.25082
568.642	1920.72508
569.108	2186.77315
569.573	2383.66062
570.038	2573.16983
570.504	2663.41259
570.969	2884.99394
571.434	3077.23328
571.899	3253.62896
572.363	3449.32454
572.828	3793.22528
573.293	3877.17707
573.757	4171.0299
574.222	4336.74417
574.686	4569.63035
575.15	4750.89059
575.614	4934.57786
576.078	5315.5066
576.542	5344.33652
577.006	5566.17178
577.469	5719.69679
577.933	5924.99197
578.396	6075.3054
578.86	6193.22587
579.323	6121.28349
579.786	6320.78331
580.249	6292.01676
580.712	6355.4069
581.175	6320.45264
581.637	6395.1069
582.1	6310.88961
582.563	6288.80175
583.025	6169.38875
583.487	6091.53833
583.95	6037.79342
584.412	6075.72297
584.874	5955.4729
585.336	5767.40066
585.797	5702.93988
586.259	5635.45981
586.721	5592.41612
587.182	5324.57632
587.643	5314.38447
588.105	5060.75562
588.566	5029.13138
589.027	4687.04526
589.488	4703.73633
589.949	4600.17254
590.41	4391.07111
590.87	4249.02186
591.331	4189.74138
591.791	4073.14027
592.252	3875.17287
592.712	3703.58007
593.172	3718.18617
593.632	3632.10994
594.092	3492.24131
594.552	3444.07857
595.011	3195.46861
595.471	3186.36458
595.931	2988.39101
596.39	2888.75644
596.849	2859.62553
597.308	2812.31423
597.768	2706.08139
598.227	2615.80879
598.685	2628.59875
599.144	2580.65598
599.603	2436.70592
600.062	2379.1732
600.52	2258.39697
600.978	2274.67278
601.437	2245.52325
601.895	2183.19917
602.353	2070.35214
602.811	2074.34466
603.269	2088.64486
603.727	1948.57863
604.184	1971.34817
604.642	1915.6482
605.099	1840.40524
605.557	1813.57286
606.014	1818.12881
606.471	1764.59955
606.928	1718.05114
607.385	1724.46197
607.842	1743.28864
608.299	1792.39258
608.755	1744.46947
609.212	1760.19783
609.668	1613.08809
610.125	1765.50514
610.581	1826.5187
611.037	1789.36122
611.493	1805.48681
611.949	1783.51386
612.405	1791.92494
612.861	1866.52281
613.316	1733.46509
613.772	1746.34977
614.227	1757.44413
614.683	1801.17061
615.138	1718.39424
615.593	1742.39156
616.048	1727.35016
616.503	1730.60556
616.958	1702.6387
617.412	1686.43072
617.867	1685.19779
618.321	1730.04955
618.776	1634.19782
619.23	1669.40807
619.684	1585.24034
620.138	1686.41134
620.592	1528.42106
621.046	1488.29168
621.5	1481.38528
621.954	1462.15846
622.407	1436.10431
622.861	1330.24214
623.314	1365.10858
623.768	1245.04328
624.221	1218.6358
624.674	1216.99155
625.127	1212.02897
625.58	1247.01835
626.033	1135.82583
626.485	1090.94145
626.938	1132.99265
627.39	1109.91201
627.843	1109.90391
628.295	1012.78268
628.747	1012.84394
629.199	1045.79367
629.651	916.62491
630.103	956.6978
630.555	943.53805
631.006	894.66549
631.458	863.63108
631.909	869.60323
632.361	882.64634
632.812	768.45584
633.263	802.40088
633.714	764.34136
634.165	788.58105
634.616	690.38609
635.067	726.34663
635.518	700.41332
635.968	706.18041
636.419	748.35102
636.869	687.39116
637.319	644.27511
637.769	601.16013
638.219	656.34981
638.669	585.21675
639.119	638.34864
639.569	588.2401
640.019	596.20305
640.468	593.15397
640.918	590.24814
641.367	552.09113
641.816	555.09374
642.265	560.14269
642.714	551.1276
643.163	552.12276
643.612	458.99282
644.061	479.90774
644.51	508.03311
644.958	509.999
645.406	506.08465
645.855	490.0837
646.303	518.08555
646.751	403.84099
647.199	460.94949
647.647	445.93234
648.095	409.86071
648.543	522.95618
648.99	439.95834
649.438	475.01392
649.885	461.04001
650.333	442.77982
650.78	407.90653
651.227	414.92803
651.674	448.93261
652.121	407.91515
652.568	409.91701
653.015	488.12407
653.461	374.82735
653.908	408.87918
654.354	379.84348
654.801	380.82834
655.247	403.82008
655.693	418.00793
656.139	379.84732
656.585	393.87716
657.031	365.79379
657.477	345.69886
657.922	329.71368
658.368	344.79994
658.813	399.86587
659.259	352.79362
659.704	371.80889
660.149	337.74069
660.594	324.72811
661.039	356.76253
661.484	350.78976
661.929	326.72299
662.373	285.6861
662.818	309.72918
663.262	316.72236
663.707	268.65165
664.151	304.70861
664.595	245.56987
665.039	336.79365
665.483	311.75463
665.927	357.79518
666.371	267.59302
666.814	315.71819
667.258	314.7068
667.701	345.70813
668.145	365.85996
668.588	261.61832
669.031	259.58695
669.474	305.70325
669.917	264.56622
670.36	291.6931
670.803	301.69762
671.245	284.57753
671.688	298.69873
672.13	244.531
672.573	292.71398
673.015	274.63543
673.457	196.41984
673.899	269.63062
674.341	247.57905
674.783	229.53476
675.225	233.55775
675.666	196.46139
676.108	271.57082
676.549	274.62863
676.991	294.62539
677.432	255.49456
677.873	240.5418
678.314	272.62904
678.755	253.59798
679.196	234.52329
679.637	268.63551
680.078	260.59221
680.518	277.62672
680.959	245.57189
681.399	206.50092
681.839	257.60814
682.28	209.50526
682.72	198.44626
683.16	224.54509
683.6	246.54854
684.039	235.4804
684.479	205.49372
684.919	175.39837
685.358	194.48441
685.798	206.52902
686.237	238.56286
686.676	223.50866
687.115	244.56003
687.554	199.46544
687.993	195.42663
688.432	208.46803
688.871	199.44512
689.309	213.49955
689.748	233.47912
690.186	234.54761
690.625	194.44849
691.063	235.55114
691.501	230.55654
691.939	179.44055
692.377	196.47089
692.815	172.4071
693.253	226.53324
693.69	208.45093
694.128	186.44449
694.565	204.47928
695.003	200.49921
695.44	238.54714
695.877	189.43581
696.314	217.4605
696.751	200.45114
697.188	192.43574
697.625	237.53426
698.061	153.36486
698.498	233.55264
698.934	198.47026
699.371	169.39435
699.807	227.52676
700.243	158.37758
700.679	185.41534
701.115	217.50315
701.551	194.45152
701.987	230.5084
702.422	163.38423
702.858	185.43575
703.294	146.33054
703.729	187.45208
704.164	172.41025
704.599	243.53006
705.035	203.44807
705.47	161.38835
705.904	178.41069
706.339	211.4842
706.774	158.36803
707.209	166.3801
707.643	189.44846
708.078	155.37501
708.512	123.30675
708.946	229.53854
709.38	154.36323
709.814	221.49697
710.248	155.37557
710.682	182.4281
711.116	137.32545
711.549	164.41911
711.983	133.30729
712.416	156.36723
712.85	204.5005
713.283	182.42627
713.716	237.58285
714.149	207.48643
714.582	180.40088
715.015	202.49835
715.448	188.46773
715.881	236.50726
716.313	171.39744
716.746	159.37189
717.178	203.48056
717.61	178.44623
718.043	184.45311
718.475	176.42236
718.907	218.54216
719.339	137.31011
719.77	100.23797
720.202	154.38649
720.634	164.39536
721.065	185.43355
721.497	145.35372
721.928	159.38714
722.359	124.29837
722.79	121.28955
723.221	174.43337
723.652	199.50578
724.083	147.33057
724.514	183.41625
724.945	149.34864
725.375	124.28758
725.806	160.39648
726.236	157.39904
726.666	165.38774
727.096	148.36124
727.526	107.27177
727.956	148.33507
728.386	148.36245
728.816	97.24585
729.246	102.24841
729.675	91.2248
730.105	158.38607
730.534	130.304
730.964	151.3793
731.393	184.45194
731.822	166.41975
732.251	124.31389
732.68	190.44256
733.109	138.33859
733.537	138.33193
733.966	153.37712
734.395	119.27528
734.823	189.42188
735.251	102.24646
735.68	185.45767
736.108	144.36217
736.536	106.25099
736.964	129.29912
737.392	130.32426
737.82	148.35341
738.247	140.33418
738.675	155.36835
739.102	91.22801
739.53	89.22717
739.957	137.3503
740.384	157.3847
740.811	122.3086
741.238	105.25672
741.665	121.28057
742.092	149.3541
742.519	113.27935
742.945	93.22433
743.372	122.30144
743.798	112.28754
744.225	81.19398
744.651	105.26366
745.077	101.25225
745.503	134.32585
745.929	103.24779
746.355	200.48996
746.781	115.28482
747.207	91.21443
747.632	56.13781
748.058	121.30132
748.483	106.24496
748.908	107.26598
749.334	81.2001
749.759	85.20169
750.184	95.22707
750.609	111.2729
751.033	133.31388
751.458	130.29168
751.883	118.29209
752.307	83.19664
752.732	40.101
753.156	121.29814
753.58	96.22907
754.005	114.28898
754.429	97.22884
754.853	79.19666
755.277	62.14828
755.7	100.24844
756.124	58.14515
756.548	86.20489
756.971	101.24712
757.394	82.21192
757.818	74.19124
758.241	83.21126
758.664	63.16019
759.087	52.11763
759.51	94.23447
759.933	71.17204
760.356	83.21342
760.778	95.23408
761.201	112.27245
761.623	105.25519
762.046	127.30089
762.468	102.24571
762.89	89.22051
763.312	95.23261
763.734	74.17934
764.156	97.23989
764.578	77.17869
765	70.172
765.421	27.06938
765.843	80.21025
766.264	91.22075
766.686	112.28088
767.107	54.13215
767.528	31.07913
767.949	78.19906
768.37	77.18994
768.791	90.21853
769.212	43.10899
769.632	77.18045
770.053	79.20842
770.473	98.23867
770.894	43.10883
771.314	133.31644
771.734	86.20135
772.154	76.1958
772.575	92.21413
772.994	59.1354
773.414	105.25232
773.834	91.22777
774.254	84.20625
774.673	94.22935
775.093	48.11982
775.512	13.03252
775.931	90.22831
776.351	84.20899
776.77	62.15252
777.189	44.10583
777.607	58.14896
778.026	87.21697
778.445	10.02538
778.864	78.20053
779.282	113.27113
779.701	57.14457
780.119	46.11711
780.537	33.08319
780.955	81.20646
781.373	71.1763
781.791	87.19605
782.209	90.20799
782.627	57.15079
783.045	51.11845
783.462	108.27484
783.88	58.15067
784.297	88.22133
784.715	59.15208
785.132	86.20842
785.549	58.14583
785.966	98.24595
786.383	54.13367
786.8	98.22755
787.217	93.22042
787.633	50.12553
788.05	128.30226
788.466	63.14955
788.883	54.13835
789.299	105.25212
789.715	116.28049
790.131	91.22604
790.547	52.13065
790.963	97.24024
791.379	69.17482
791.795	76.1741
792.21	48.11317
792.626	45.10768
793.041	73.18054
793.457	99.24403
793.872	76.17912
794.287	57.13671
794.702	71.1754
795.117	48.11995
795.532	47.11845
795.947	78.18811
796.362	96.22898
796.776	125.29099
797.191	61.14992
797.605	27.06407
798.02	66.1611
798.434	130.28724
798.848	63.15563
799.262	58.14441
799.676	95.23132
800.09	78.19202
800.504	60.14623
800.918	54.12588
801.331	71.18631
801.745	96.22009
802.158	62.15544
802.572	91.22042
802.985	49.11922
803.398	87.20731
803.811	122.31124
804.224	110.27229
804.637	40.09603
805.05	68.15815
805.462	109.2664
805.875	26.06791
806.288	35.0851
806.7	74.18605
807.112	52.12132
807.525	90.22164
807.937	60.14874
808.349	83.20767
808.761	90.2209
809.173	73.17709
809.584	125.30629
809.996	64.15703
810.408	27.0702
810.819	41.09714
811.231	1.00261
811.642	-46.1122
812.053	33.07912
812.464	72.17134
812.875	91.23179
813.286	68.17513
813.697	125.28984
814.108	111.26947
814.519	83.18497
814.929	76.19375
815.34	57.13874
815.75	42.10726
816.16	108.26753
816.571	51.13292
816.981	68.16089
817.391	87.20962
817.801	20.05014
818.211	86.20466
818.62	46.11132
819.03	106.25825
819.44	119.30823
819.849	90.22604
820.259	98.24966
820.668	72.17705
821.077	26.06509
821.486	58.14014
821.895	122.29878
822.304	61.1618
822.713	121.28346
823.122	76.1895
823.531	77.18243
823.939	75.18262
824.348	95.23002
824.756	93.23202
825.164	87.21831
825.573	66.1657
825.981	132.32375
826.389	90.22531
826.797	74.18519
827.205	81.18559
827.612	62.15325
828.02	44.10386
828.428	94.23829
828.835	66.17369
829.243	88.20909
829.65	45.11235
830.057	73.17709
830.464	69.16814
830.871	81.19361
831.278	108.25918
831.685	70.15635
832.092	78.19067
832.499	56.12296
832.905	78.1971
833.312	110.24904
833.718	95.23554
834.124	47.10795
834.531	96.24076
834.937	48.12358
835.343	71.17126
835.749	105.24366
836.155	49.12862
836.561	71.17449
836.966	69.1687
837.372	111.28023
837.777	69.17177
838.183	150.32811
838.588	76.18833
838.993	68.16554
839.399	56.13715
839.804	35.08576
840.209	62.15784
840.613	40.08953
841.018	68.17207
841.423	48.12345
841.828	75.18928
842.232	93.22924
842.637	116.27105
843.041	5.01294
843.445	56.14065
843.849	68.1682
844.253	76.1803
844.657	50.12616
845.061	64.14531
845.465	60.14503
845.869	77.17855
846.272	33.0808
846.676	56.13567
847.079	72.18271
847.483	87.2161
847.886	123.29602
848.289	51.13627
848.692	46.11682
849.095	104.24787
849.498	99.24931
849.901	89.20318
850.304	75.17886
850.707	70.1782
851.109	90.22661
851.512	82.20075
851.914	18.04569
852.316	61.15428
852.718	-4.01044
853.121	43.10572
853.523	48.11251
853.925	22.05774
854.326	47.11777
854.728	85.21757
855.13	55.14192
855.531	29.06971
855.933	95.22664
856.334	25.06271
856.736	49.11006
857.137	20.04688
857.538	23.05819
857.939	58.14331
858.34	93.22526
858.741	58.1516
859.142	97.23141
859.542	62.16344
859.943	81.20047
860.343	36.0895
860.744	104.25167
861.144	88.21351
861.544	43.10364
861.945	31.07938
862.345	73.17808
862.745	59.14661
863.145	87.20692
863.544	70.1765
863.944	48.11366
864.344	92.22715
864.743	103.25351
865.143	68.17434
865.542	36.08389
865.941	63.1558
866.34	97.2307
866.74	83.22177
867.139	14.0338
867.537	43.10984
867.936	34.08222
868.335	60.15259
868.734	55.14059
869.132	86.19874
869.531	56.13552
869.929	46.10512
870.327	69.16505
870.726	108.26685
871.124	86.19993
871.522	50.12751
871.92	113.27586
872.318	106.2568
872.715	105.25767
873.113	85.20604
873.511	37.09251
873.908	10.02545
874.306	45.11215
874.703	94.23362
875.1	98.24887
875.497	93.22144
875.894	20.04933
876.291	118.2863
876.688	98.25089
877.085	88.2099
877.482	63.15752
877.878	76.18225
878.275	53.13471
878.671	80.17736
879.068	106.25351
879.464	84.20197
879.86	66.15579
880.256	78.19173
880.652	74.18759
881.048	66.16325
881.444	53.12625
881.84	61.15488
882.236	75.18793
882.631	40.09847
883.027	106.25428
883.422	79.20115
883.817	48.12077
884.213	49.12587
884.608	60.147
885.003	39.09432
885.398	41.10288
885.793	59.14799
886.188	78.19308
886.582	119.30182
886.977	96.22608
887.371	117.29263
887.766	15.03757
888.16	59.14714
888.554	138.33608
888.949	79.19752
889.343	59.14404
889.737	48.12802
890.131	63.1578
890.525	71.18104
890.918	76.19053
891.312	123.29051
891.706	80.20896
892.099	62.15756
892.492	59.12723
892.886	79.19243
893.279	84.21286
893.672	49.12485
894.065	76.18957
894.458	77.19287
894.851	133.32118
895.244	64.16316
895.637	19.04607
896.029	77.18749
896.422	77.18735
896.814	38.09475
897.206	45.10736
897.599	153.37156
897.991	85.20433
898.383	61.14396
898.775	48.1085
899.167	25.05864
899.559	75.18914
899.951	87.20381
900.342	102.25719
900.734	53.13151
901.125	100.26031
901.517	51.12525
901.908	107.25399
902.299	52.12716
902.69	61.14374
903.082	135.32194
903.473	28.06737
903.863	73.18561
904.254	83.19154
904.645	118.29005
905.036	27.06569
905.426	110.24904
905.817	63.15432
906.207	52.12394
906.597	35.08215
906.987	66.17069
907.378	59.14906
907.768	78.20534
908.158	74.17975
908.547	53.1369
908.937	80.20431
909.327	68.16468
909.717	109.274
910.106	24.05797
910.495	92.22806
910.885	88.22149
911.274	99.24537
911.663	99.24922
912.052	89.21816
912.441	61.15488
912.83	84.19165
913.219	120.31044
913.608	103.24995
913.997	14.03534
914.385	77.18313
914.774	121.29087
915.162	33.07894
915.55	99.23745
915.939	54.13626
916.327	89.22067
916.715	65.16527
917.103	125.30357
917.491	77.18966
917.878	111.26997
918.266	51.13228
918.654	58.14802
919.041	49.12797
919.429	57.13442
919.816	78.19681
920.203	49.11891
920.591	78.19251
920.978	72.17568
921.365	79.20632
921.752	79.18738
922.139	82.17694
922.525	67.16045
922.912	81.19649
923.299	71.17585
923.685	74.1923
924.072	86.197
924.458	66.16307
924.844	60.14825
925.231	39.09101
925.617	61.15488
926.003	88.22347
926.389	69.17351
926.774	103.25864
927.16	108.26547
927.546	57.14534
927.931	124.30536
928.317	130.2948
928.702	59.13941
929.088	24.05707
929.473	79.20001
929.858	24.05832
930.243	69.16505
930.628	40.09753
931.013	80.19723
931.398	75.1717
931.783	50.13167
932.167	72.17535
932.552	75.18711
932.937	89.21938
933.321	66.16517
933.705	91.22777
934.09	121.30198
934.474	110.25834
934.858	67.1733
935.242	91.20925
935.626	69.17606
936.009	78.20651
936.393	58.1474
936.777	49.12551
937.16	85.21986
937.544	111.2585
937.927	74.18699
938.311	113.27267
938.694	72.18973
939.077	39.09358
939.46	78.1906
939.843	125.25657
940.226	40.1028
940.609	87.19829
940.991	54.13738
941.374	46.11253
941.757	73.17941
942.139	106.23539
942.522	104.2433
942.904	82.19596
943.286	91.22958
943.668	81.20872
944.05	71.17424
944.432	78.19152
944.814	96.23449
945.196	21.05146
945.578	35.08344
945.959	80.18642
946.341	123.29792
946.722	96.22335
947.104	104.24606
947.485	53.12329
947.866	42.10598
948.247	53.13366
948.628	94.22747
949.009	27.06943
949.39	89.22002
949.771	102.23487
950.152	85.20728
950.532	44.10836
950.913	72.17299
951.293	64.1725
951.674	76.18294
952.054	30.07461
952.434	76.18778
952.814	77.18229
953.194	104.2697
953.574	60.14754
953.954	89.2098
954.334	88.21783
954.714	63.15317
955.093	101.24602
955.473	25.0628
955.853	68.17549
956.232	72.19665
956.611	128.30249
956.99	59.14805
957.37	55.14004
957.749	60.14289
958.128	42.10598
958.506	76.19627
958.885	94.2354
959.264	39.09578
959.643	76.17207
960.021	55.13617
960.4	84.18909
960.778	127.30842
961.156	72.17979
961.535	61.14189
961.913	113.26119
962.291	19.04901
962.669	24.06108
963.047	60.15286
963.424	41.1048
963.802	71.17391
964.18	92.23106
964.557	78.17868
964.935	99.23237
965.312	51.13278
965.69	82.20417
966.067	119.28607
966.444	73.17914
966.821	73.18745
967.198	93.22382
967.575	70.1715
967.952	85.19897
968.329	76.18405
968.705	109.23081
969.082	45.11551
969.458	25.06026
969.835	102.2459
970.211	68.17397
970.587	104.2564
970.963	78.19913
971.339	73.18987
971.715	56.13969
972.091	118.28694
972.467	42.10492
972.843	49.12163
973.219	110.26117
973.594	55.14374
973.97	124.291
974.345	65.15513
974.721	113.27041
975.096	49.1186
975.471	142.33089
975.846	42.10106
976.221	43.10933
976.596	85.20239
976.971	91.22298
977.346	102.23506
977.72	89.22517
978.095	50.12922
978.469	98.23178
978.844	133.3294
979.218	44.10559
979.593	70.16709
979.967	45.10974
980.341	46.10601
980.715	71.17822
981.089	50.12517
981.463	50.11481
981.837	34.08333
982.21	130.29779
982.584	58.13988
982.957	31.07768
983.331	102.23871
983.704	48.11799
984.078	104.25375
984.451	125.308
984.824	40.0976
985.197	65.15744
985.57	88.21919
985.943	76.18682
986.316	94.2291
986.688	96.22951
987.061	101.23438
987.434	49.12771
987.806	109.26143
988.179	57.13431
988.551	47.11929
988.923	88.21519
989.295	112.27673
989.667	37.08861
990.039	44.10884
990.411	90.2055
990.783	100.22797
991.155	13.03145
991.527	147.35552
991.898	73.18113
992.27	57.14081
992.641	85.21191
993.012	118.27399
993.384	67.15929
993.755	61.15521
994.126	90.21483
994.497	8.01979
994.868	108.24521
995.239	101.24243
995.61	81.20267
995.98	44.107
996.351	54.13362
996.722	32.07448
997.092	67.15812
997.462	26.06102
997.833	72.16996
998.203	98.23545
998.573	54.13435
998.943	74.17271
999.313	18.04339
999.683	79.18854
1000.053	89.20318
1000.423	85.20519
1000.792	99.25439
1001.162	48.11816
1001.531	67.16466
1001.901	66.16403
1002.27	51.11398
1002.639	65.16562
1003.009	76.17982
1003.378	113.28569
1003.747	101.23624
1004.116	48.11489
1004.485	119.28063
1004.853	23.05854
1005.222	86.21545
1005.591	105.24665
1005.959	56.12601
1006.328	56.12586
1006.696	44.10624
1007.064	81.20259
1007.433	70.17429
1007.801	138.33319
1008.169	72.18109
1008.537	103.22554
1008.905	50.11647
1009.273	79.19408
1009.64	29.06945
1010.008	72.17088
1010.375	114.27347
1010.743	148.33507
1011.11	64.15101
1011.478	94.23072
1011.845	73.17088
1012.212	51.1154
1012.579	32.07881
1012.946	54.12841
1013.313	81.19161
1013.68	94.20935
1014.047	28.06699
1014.414	66.15537
1014.78	53.1316
1015.147	89.21363
1015.513	81.19398
1015.88	127.32028
1016.246	86.21085
1016.612	71.16183
1016.978	76.1853
1017.344	96.23519
1017.71	106.25573
1018.076	133.30852
1018.442	68.17434
1018.808	44.11007
1019.174	92.22898
1019.539	108.24571
1019.905	66.15513
1020.27	66.16236
1020.636	105.24905
1021.001	61.14569
1021.366	43.10337
1021.731	104.26485
1022.096	11.02793
1022.461	82.19281
1022.826	96.22608
1023.191	92.23957
1023.556	76.17717
1023.92	68.1666
1024.285	97.2346
1024.649	59.14431
1025.014	79.19459
1025.378	48.12068
1025.742	69.17071
1026.107	89.19965
1026.471	116.26722
1026.835	89.21897
1027.199	31.07486
1027.562	62.14374
1027.926	68.16567
1028.29	48.12146
1028.654	25.05779
1029.017	110.26729
1029.381	62.14771
1029.744	68.17281
1030.107	103.2411
1030.471	68.1622
1030.834	78.17638
1031.197	86.20568
1031.56	55.1296
1031.923	82.21074
1032.286	105.24386
1032.648	88.20885
1033.011	81.18469
1033.374	85.19834
1033.736	25.06598
1034.099	104.25081
1034.461	31.07854
1034.823	25.06251
1035.185	88.2199
1035.548	53.12886
1035.91	71.16932
1036.272	49.1115
1036.634	150.35997
1036.995	71.16613
1037.357	94.2267
1037.719	94.22661
1038.08	75.17714
1038.442	51.12097
1038.803	76.18148
1039.165	86.21553
1039.526	76.18266
1039.887	75.17851
1040.248	60.14749
1040.609	106.25911
1040.97	74.17995
1041.331	27.0686
1041.692	56.13049
1042.053	81.1832
1042.413	63.14637
1042.774	80.19337
1043.134	126.29546
1043.495	54.13557
1043.855	85.20472
1044.215	115.2819
1044.576	37.08864
1044.936	78.17774
1045.296	107.26413
1045.656	77.18791
1046.016	84.20136
1046.375	73.17622
1046.735	58.13121
1047.095	61.1424
1047.454	83.17452
1047.814	70.16754
1048.173	124.29191
1048.533	49.11222
1048.892	36.08659
1049.251	87.21681
1049.61	93.22704
1049.969	97.22643
1050.328	91.19547
1050.687	41.09987
1051.046	53.12891
1051.405	85.20998
1051.763	65.14893
1052.122	44.10979
1052.48	57.13952
1052.839	54.12687
1053.197	40.09427
1053.555	75.17004
1053.914	81.19686
1054.272	72.17325
1054.63	88.21351
1054.988	37.08807
1055.345	38.082
1055.703	84.20074
1056.061	56.14382
1056.419	48.12422
1056.776	96.23065
1057.134	42.09733
1057.491	82.20402
1057.848	76.1882
1058.206	45.10587
1058.563	47.10361
1058.92	89.20342
1059.277	101.24666
1059.634	75.17549
1059.991	122.28809
1060.348	65.14635
1060.704	47.112
1061.061	120.27478
1061.418	65.15709
1061.774	45.11113
1062.131	34.09008
1062.487	38.089
1062.843	104.25659
1063.199	62.15375
1063.555	36.08359
1063.911	76.19095
1064.267	135.2761
1064.623	66.15971
1064.979	94.22068
1065.335	107.25282
1065.691	39.09361
1066.046	107.23232
1066.402	71.16052
1066.757	90.22539
1067.112	114.27628
1067.468	3.00714
1067.823	89.21224
1068.178	128.30484
1068.533	58.1403
1068.888	101.23883
1069.243	90.22033
1069.598	97.23345
1069.952	33.07452
1070.307	41.10158
1070.662	78.18405
1071.016	32.07192
1071.371	55.1249
1071.725	93.22051
1072.079	76.18176
1072.434	50.12141
1072.788	99.23337
1073.142	103.2507
1073.496	81.19087
1073.85	65.15018
1074.203	96.23073
1074.557	61.1618
1074.911	140.32816
1075.265	102.2345
1075.618	96.23222
1075.971	90.21228
1076.325	60.1521
1076.678	58.13233
1077.031	80.1798
1077.385	93.20287
1077.738	66.14839
1078.091	69.15619
1078.444	74.17088
1078.796	66.16134
1079.149	90.22205
1079.502	69.16228
1079.855	42.09803
1080.207	120.29159
1080.56	47.12144
1080.912	83.20066
1081.264	106.25235
1081.617	82.19851
1081.969	32.08092
1082.321	33.08077
1082.673	24.05502
1083.025	76.17926
1083.377	-175.39354
1083.728	77.17855
1084.08	66.16415
1084.432	72.17279
1084.783	104.24091
1085.135	83.20662
1085.486	53.12109
1085.838	59.14495
1086.189	91.21901
1086.54	56.13347
1086.891	78.19611
1087.242	68.16486
1087.593	99.23862
1087.944	55.12424
1088.295	98.22043
1088.646	70.16888
1088.996	22.05324
1089.347	52.12744
1089.698	42.09933
1090.048	78.20144
1090.398	73.1684
1090.749	87.20652
1091.099	16.04044
1091.449	36.08983
1091.799	56.13994
1092.149	-4.00984
1092.499	45.10978
1092.849	80.20208
1093.199	90.22376
1093.548	31.07469
1093.898	77.19154
1094.248	65.16644
1094.597	34.08695
1094.947	68.1807
1095.296	59.14532
1095.645	102.26269
1095.994	67.16027
1096.343	65.16299
1096.692	83.21661
1097.041	33.08951
1097.39	55.13771
1097.739	44.11438
1098.088	86.22884
1098.437	40.10516
1098.785	85.22764
1099.134	99.26048
1099.482	55.15101
1099.83	71.18574
1100.179	34.08884
1100.527	54.14326
1100.875	43.11371
1101.223	64.16939
1101.571	58.15993
1101.919	16.04201
1102.267	25.07059
1102.615	4.01286
1102.962	16.05148
1103.31	4.01285
1103.658	22.07077
