Data from N2 R11 sample 12_Subt2__0__14-32-46-161.txt Node

Date: Mon Sep 01 14:32:46 PDT 2025
User: uwsun
Spectrometer: HDX01956
Trigger mode: 0
Integration Time (sec): 5.000000E-1
Scans to average: 1
Nonlinearity correction enabled: true
Boxcar width: 0
Storing dark spectrum: false
XAxis mode: Wavelengths
Number of Pixels in Spectrum: 2068
>>>>>Begin Spectral Data<<<<<
194.03	93.25729
194.578	87.27217
195.127	70.21619
195.676	79.24446
196.225	187.48049
196.773	162.43262
197.321	181.47122
197.87	278.65261
198.418	237.55322
198.966	242.56789
199.513	193.43472
200.061	207.47312
200.609	314.74543
201.156	201.39318
201.704	202.45937
202.251	165.3992
202.798	225.52748
203.345	285.62983
203.892	219.49752
204.438	297.63026
204.985	199.42212
205.532	233.552
206.078	214.47403
206.624	184.4086
207.17	270.55783
207.716	258.55717
208.262	246.43079
208.808	214.47066
209.354	206.45079
209.899	307.6926
210.445	210.46846
210.99	207.44771
211.535	278.58157
212.08	253.52587
212.625	287.64034
213.17	273.61918
213.715	185.36789
214.259	254.52924
214.804	288.63526
215.348	251.51357
215.892	272.58187
216.436	310.63673
216.98	304.59537
217.524	235.49826
218.068	291.65437
218.612	235.53516
219.155	252.53092
219.698	243.52039
220.242	258.58076
220.785	226.47719
221.328	263.58971
221.871	238.54845
222.414	276.61873
222.956	183.40037
223.499	211.42977
224.041	246.5185
224.583	327.62602
225.126	259.51096
225.668	177.39281
226.21	226.51436
226.751	252.49072
227.293	301.61224
227.835	222.4899
228.376	245.51129
228.918	246.56281
229.459	196.44284
230	203.43849
230.541	242.50245
231.082	216.47387
231.622	231.48079
232.163	216.47267
232.704	184.41505
233.244	185.4179
233.784	260.57471
234.324	152.30248
234.864	225.45891
235.404	277.58961
235.944	267.56734
236.484	233.52632
237.023	234.49625
237.563	197.41112
238.102	263.55519
238.641	246.55987
239.18	168.35582
239.719	211.47974
240.258	222.44919
240.797	215.46262
241.335	233.51406
241.874	200.34378
242.412	240.51608
242.95	209.44778
243.488	211.43349
244.026	239.49101
244.564	271.49196
245.102	178.36082
245.64	219.4767
246.177	201.40567
246.715	245.5274
247.252	269.5494
247.789	315.5182
248.326	204.43829
248.863	282.54261
249.4	253.51133
249.936	208.38172
250.473	220.45799
251.009	214.43717
251.546	227.44488
252.082	277.53389
252.618	251.49355
253.154	261.55435
253.69	265.52648
254.226	192.41162
254.761	241.4797
255.297	220.42739
255.832	191.40532
256.367	226.47426
256.903	237.45987
257.438	259.53906
257.972	262.5136
258.507	225.45515
259.042	256.48878
259.576	209.39643
260.111	258.52729
260.645	265.50388
261.179	244.50185
261.713	195.38597
262.247	233.47631
262.781	254.46427
263.315	239.51714
263.849	213.47407
264.382	292.58703
264.915	236.48627
265.449	195.41959
265.982	285.56675
266.515	252.54095
267.048	256.47171
267.58	294.55998
268.113	240.4529
268.646	220.4804
269.178	222.43498
269.71	283.5368
270.243	214.4328
270.775	245.54958
271.307	291.61294
271.838	332.68468
272.37	230.49926
272.902	272.53951
273.433	232.44382
273.965	280.59405
274.496	271.59164
275.027	238.51905
275.558	257.54443
276.089	169.36693
276.62	244.54835
277.15	298.64024
277.681	283.53182
278.211	263.56493
278.741	262.49684
279.272	263.51885
279.802	282.61291
280.332	283.57484
280.861	272.56801
281.391	267.52154
281.921	280.58575
282.45	248.54292
282.98	279.63355
283.509	255.49527
284.038	237.46844
284.567	276.55819
285.096	281.58589
285.625	265.51665
286.153	254.51276
286.682	252.49563
287.21	257.53299
287.739	245.4997
288.267	242.50536
288.795	296.67311
289.323	221.4446
289.851	253.50968
290.378	282.53791
290.906	223.46414
291.433	339.71467
291.961	292.55725
292.488	314.66357
293.015	249.49908
293.542	225.49018
294.069	272.56826
294.596	295.62191
295.122	238.48576
295.649	294.54501
296.175	311.6372
296.702	252.52297
297.228	289.59641
297.754	292.5486
298.28	305.57599
298.806	264.53564
299.332	269.49555
299.857	276.52007
300.383	295.63229
300.908	220.45045
301.433	287.58164
301.958	317.60981
302.483	264.55228
303.008	311.64267
303.533	319.6973
304.058	337.65672
304.582	238.46942
305.107	251.55006
305.631	360.67037
306.155	307.5846
306.679	282.54104
307.203	315.59575
307.727	344.66351
308.251	294.60032
308.775	267.51783
309.298	242.47664
309.822	300.62314
310.345	335.64103
310.868	325.62731
311.391	376.74475
311.914	278.5692
312.437	363.66102
312.96	356.66555
313.482	312.59282
314.005	356.71438
314.527	318.67437
315.049	307.62957
315.571	338.5829
316.093	371.72367
316.615	318.60628
317.137	393.65304
317.659	361.69145
318.18	429.79947
318.702	410.7275
319.223	361.55994
319.744	367.626
320.265	332.62068
320.786	331.63031
321.307	367.70022
321.828	429.71958
322.348	361.64204
322.869	369.6498
323.389	405.45558
323.909	356.61198
324.43	443.79609
324.95	346.5862
325.47	372.6762
325.989	393.67326
326.509	376.58887
327.029	389.62254
327.548	382.60733
328.067	399.68464
328.587	424.75939
329.106	414.6571
329.625	524.98697
330.144	397.63753
330.662	420.66739
331.181	420.67698
331.7	437.69821
332.218	495.69732
332.736	461.72397
333.255	393.61855
333.773	466.73119
334.291	553.91454
334.808	475.67593
335.326	498.7143
335.844	470.68891
336.361	433.71478
336.879	446.6541
337.396	513.76799
337.913	497.69658
338.43	524.70151
338.947	522.75205
339.464	535.65139
339.981	498.70312
340.497	510.76511
341.014	516.74665
341.53	481.62232
342.046	534.76217
342.562	526.77631
343.078	540.71817
343.594	584.77888
344.11	525.70402
344.626	622.8696
345.141	565.68652
345.657	618.73952
346.172	535.70699
346.687	509.62278
347.202	573.65395
347.717	612.75638
348.232	616.81291
348.747	661.74109
349.261	560.57515
349.776	619.71787
350.29	556.69041
350.805	710.86489
351.319	605.6812
351.833	554.58778
352.347	582.65347
352.861	614.66162
353.374	677.71108
353.888	598.68904
354.401	650.66305
354.915	599.57285
355.428	621.71053
355.941	651.64735
356.454	692.65394
356.967	683.69487
357.48	700.66854
357.993	676.72815
358.505	613.65191
359.018	765.76466
359.53	680.66636
360.042	770.628
360.554	719.70392
361.066	771.72691
361.578	731.5628
362.09	756.68298
362.602	747.56218
363.113	753.62159
363.625	720.55625
364.136	778.55663
364.647	784.57145
365.158	810.61434
365.669	797.64351
366.18	869.6456
366.691	793.51973
367.201	748.58766
367.712	765.51472
368.222	839.5381
368.733	799.43306
369.243	791.43865
369.753	859.51713
370.263	882.55371
370.773	916.59723
371.282	875.49602
371.792	850.37316
372.301	911.45964
372.811	897.56502
373.32	827.22981
373.829	841.31962
374.338	943.22551
374.847	953.22191
375.356	1004.21698
375.865	1070.99711
376.373	1087.03202
376.882	1157.17577
377.39	1208.03802
377.898	1054.98693
378.407	1079.83305
378.915	1211.70779
379.423	1256.71317
379.93	1421.53785
380.438	1327.54948
380.946	1508.3653
381.453	1370.39574
381.96	1425.29625
382.468	1402.2503
382.975	1695.10023
383.482	1805.06274
383.989	1743.07646
384.495	1821.11296
385.002	1687.33821
385.509	1813.33472
386.015	2088.91139
386.521	2176.96031
387.028	2211.36658
387.534	2315.9116
388.04	2439.92969
388.546	2327.80032
389.051	2098.26113
389.557	2443.89626
390.063	3230.95619
390.568	3016.36416
391.073	3035.43909
391.578	3227.0783
392.084	3060.52446
392.589	2751.39441
393.093	2706.90035
393.598	3207.42955
394.103	3614.38288
394.607	4196.76543
395.112	4637.21496
395.616	4868.79235
396.12	4706.32742
396.624	4931.53924
397.128	5682.96648
397.632	6702.83933
398.136	7278.04247
398.639	5956.52827
399.143	5679.72836
399.646	6967.6005
400.15	7053.24021
400.653	6951.36262
401.156	6980.41303
401.659	3888.53063
402.162	795.89894
402.664	0
403.167	0
403.67	0
404.172	0
404.674	0
405.176	0
405.678	0
406.18	0
406.682	0
407.184	0
407.686	0
408.187	0
408.688	0
409.19	0
409.691	0
410.192	0
410.693	0
411.194	435.30976
411.694	4082.94878
412.195	8864.71461
412.696	12089.80453
413.196	12760.96929
413.696	12863.67595
414.196	13703.56671
414.696	17261.84252
415.196	21764.24417
415.696	29583.19008
416.196	25259.24319
416.695	16817.72597
417.195	12464.96716
417.694	11986.57856
418.194	11709.09189
418.693	10209.09689
419.192	9718.465
419.691	9841.17712
420.19	9719.6798
420.688	9906.12463
421.187	9303.62529
421.685	9362.53187
422.184	9032.30437
422.682	7539.56631
423.18	5664.25356
423.678	4792.13651
424.176	4323.18148
424.674	4393.95332
425.172	4170.12607
425.669	4270.61015
426.167	3824.27641
426.664	3437.16837
427.161	3110.67773
427.659	2746.534
428.156	2552.51477
428.652	2440.95901
429.149	2354.93501
429.646	2356.91961
430.143	2246.86544
430.639	2087.93662
431.135	1879.10683
431.632	1873.11269
432.128	1664.3368
432.624	1417.57887
433.12	1329.50472
433.616	1264.55952
434.111	1132.70542
434.607	1096.80194
435.103	1317.67146
435.598	1232.73808
436.093	1202.96846
436.588	1096.02356
437.083	1087.0922
437.578	1040.17433
438.073	793.27072
438.568	852.3535
439.062	855.20485
439.557	899.38032
440.051	736.31306
440.546	656.31088
441.04	738.40905
441.534	677.48072
442.028	724.46307
442.522	671.44352
443.015	650.35721
443.509	666.49988
444.002	591.46321
444.496	644.38777
444.989	586.48166
445.482	557.48329
445.975	585.40117
446.468	615.38254
446.961	557.3637
447.454	477.37728
447.947	455.39224
448.439	438.42117
448.931	420.34372
449.424	455.4788
449.916	545.51555
450.408	460.38663
450.9	400.401
451.392	456.48899
451.884	493.45391
452.375	323.35767
452.867	434.41586
453.358	280.27703
453.849	414.35291
454.341	350.34403
454.832	335.30844
455.323	304.35092
455.814	365.38425
456.304	358.38283
456.795	293.32015
457.285	479.48302
457.776	395.43649
458.266	270.32244
458.756	293.3634
459.247	295.35425
459.737	254.31221
460.226	269.30525
460.716	280.35231
461.206	268.34714
461.695	287.40053
462.185	276.35483
462.674	282.35458
463.163	256.30907
463.653	262.29335
464.142	190.26555
464.63	266.37873
465.119	176.23686
465.608	257.33824
466.096	202.25716
466.585	221.30681
467.073	155.23221
467.561	191.28597
468.05	227.3239
468.538	251.38585
469.026	238.35604
469.513	176.22701
470.001	139.2007
470.489	169.2564
470.976	171.2554
471.463	179.29723
471.951	172.29121
472.438	125.19669
472.925	136.21221
473.412	195.3281
473.899	195.30188
474.385	140.24051
474.872	64.10489
475.359	113.19491
475.845	98.13978
476.331	149.22673
476.817	79.14085
477.303	89.1495
477.789	62.11023
478.275	7.01306
478.761	94.1679
479.247	133.21755
479.732	21.0396
480.218	98.19338
480.703	105.19683
481.188	74.11816
481.673	71.12292
482.158	31.04917
482.643	105.20734
483.128	-6.01061
483.612	34.06189
484.097	107.20404
484.581	47.08601
485.066	41.07853
485.55	-10.01729
486.034	29.04911
486.518	38.07026
487.002	-1.00196
487.486	-11.02172
487.969	-22.04364
488.453	26.05355
488.936	51.09178
489.42	62.10994
489.903	61.12566
490.386	-449.6786
490.869	27.04809
491.352	37.07523
491.835	43.07239
492.318	-35.06567
492.8	8.0136
493.283	7.01484
493.765	-34.07044
494.247	-1.00197
494.73	17.03125
495.212	47.09556
495.694	-28.05507
496.175	-82.16508
496.657	-7.0141
497.139	35.05079
497.62	-67.13522
498.102	-57.12133
498.583	-40.08646
499.064	-73.13941
499.545	-18.03505
500.026	-43.08252
500.507	-63.12663
500.988	-33.07092
501.469	-89.19414
501.949	-38.08172
502.43	-142.29641
502.91	-85.15233
503.39	-51.11191
503.87	-63.1285
504.35	-22.04523
504.83	-41.07762
505.31	-62.13114
505.79	-121.25566
506.269	-41.08381
506.749	-127.25667
507.228	-85.1751
507.707	-62.12016
508.187	-42.08833
508.666	-96.20813
509.145	-85.17487
509.623	-75.15527
510.102	-59.12614
510.581	-44.09401
511.059	-81.17939
511.538	-44.10087
512.016	-65.13764
512.494	-72.15563
512.972	-48.10117
513.45	-55.11136
513.928	-65.13944
514.406	-81.17167
514.884	-79.18093
515.361	-10.021
515.839	-4.00796
516.316	-53.11301
516.793	-32.07201
517.27	-28.06034
517.747	-45.10248
518.224	-16.03273
518.701	-32.06309
519.178	-48.10531
519.654	-21.04447
520.131	-20.04382
520.607	-26.05752
521.083	-57.11615
521.56	-48.10113
522.036	-47.0922
522.512	5.01096
522.987	-45.09479
523.463	-31.06559
523.939	-23.05038
524.414	-12.0247
524.89	-34.07211
525.365	-1.002
525.84	-64.13561
526.315	-26.05579
526.79	-47.09503
527.265	-35.07139
527.74	-76.16716
528.215	-19.03997
528.689	-60.1194
529.164	-65.12763
529.638	-38.08803
530.112	-81.17234
530.587	-60.11472
531.061	-38.082
531.534	-61.13402
532.008	-101.22069
532.482	-92.19272
532.956	-112.25975
533.429	-51.11168
533.903	-49.09812
534.376	-64.12813
534.849	-26.05422
535.322	-78.16751
535.795	-77.17138
536.268	-85.18597
536.741	-48.10451
537.213	-45.0942
537.686	-97.21527
538.158	-133.27312
538.631	-47.10387
539.103	-120.24626
539.575	-21.03948
540.047	-60.11984
540.519	-20.04319
540.991	-18.03984
541.463	-61.13442
541.934	-59.12264
542.406	-95.20679
542.877	-52.10642
543.348	-73.16113
543.82	-28.06223
544.291	-19.04013
544.762	-83.17914
545.233	-75.17087
545.703	-74.14849
546.174	-36.07555
546.645	-94.20327
547.115	-35.0758
547.585	-3.00617
548.056	-45.09687
548.526	-55.11575
548.996	19.04051
549.466	-15.03282
549.935	-6.01252
550.405	20.03837
550.875	44.09095
551.344	35.07369
551.814	-11.02237
552.283	37.07056
552.752	25.05062
553.221	28.05266
553.69	46.08851
554.159	69.14572
554.628	46.08847
555.096	29.06398
555.565	71.13645
556.033	84.17207
556.502	86.18159
556.97	71.13783
557.438	59.12351
557.906	145.30005
558.374	116.23353
558.842	84.17768
559.31	189.36638
559.777	140.29574
560.245	206.42083
560.712	241.48104
561.18	230.43594
561.647	261.49869
562.114	202.39879
562.581	312.65616
563.048	326.63816
563.514	344.7123
563.981	466.87555
564.448	434.80297
564.914	492.93807
565.381	585.06279
565.847	616.14677
566.313	638.17311
566.779	688.20384
567.245	783.39529
567.711	826.49525
568.176	848.4085
568.642	930.72841
569.108	1019.80952
569.573	1151.88407
570.038	1157.62955
570.504	1280.8722
570.969	1326.23055
571.434	1455.95361
571.899	1515.24636
572.363	1667.21893
572.828	1759.30244
573.293	1908.37444
573.757	1920.38319
574.222	2089.3194
574.686	2152.34846
575.15	2198.6094
575.614	2312.48996
576.078	2389.59838
576.542	2465.48823
577.006	2525.4391
577.469	2696.92971
577.933	2645.3905
578.396	2785.70464
578.86	2831.65497
579.323	2754.69697
579.786	2865.22507
580.249	2862.46456
580.712	2867.85396
581.175	2872.89042
581.637	2912.56053
582.1	2924.3255
582.563	2812.25177
583.025	2709.80266
583.487	2835.9501
583.95	2664.22923
584.412	2729.1589
584.874	2597.81366
585.336	2541.69273
585.797	2493.28813
586.259	2546.69735
586.721	2363.62335
587.182	2451.66376
587.643	2320.49522
588.105	2217.64131
588.566	2201.18416
589.027	2068.64006
589.488	1984.41405
589.949	1964.63956
590.41	1961.85592
590.87	1863.37715
591.331	1858.18338
591.791	1712.30615
592.252	1672.24252
592.712	1653.41394
593.172	1589.15372
593.632	1527.0483
594.092	1457.03522
594.552	1470.94886
595.011	1417.06923
595.471	1427.0206
595.931	1295.89722
596.39	1243.02083
596.849	1333.04318
597.308	1263.81276
597.768	1166.08876
598.227	1189.98762
598.685	1175.86604
599.144	1135.85158
599.603	1054.78848
600.062	1053.53096
600.52	1070.66895
600.978	1037.76853
601.437	983.63308
601.895	964.46108
602.353	914.49017
602.811	989.57474
603.269	960.68732
603.727	908.61651
604.184	907.49648
604.642	909.6613
605.099	853.48433
605.557	934.6895
606.014	888.39438
606.471	839.58332
606.928	797.26873
607.385	885.59376
607.842	951.578
608.299	973.64837
608.755	946.67392
609.212	880.43535
609.668	901.44636
610.125	987.74079
610.581	1015.76243
611.037	994.65731
611.493	930.64042
611.949	916.6434
612.405	958.36508
612.861	1025.76391
613.316	916.635
613.772	931.58636
614.227	938.64425
614.683	1030.58207
615.138	954.65141
615.593	986.68172
616.048	995.67396
616.503	991.81969
616.958	930.76436
617.412	1005.75237
617.867	942.53427
618.321	1010.50752
618.776	947.55926
619.23	950.67405
619.684	989.65841
620.138	974.7004
620.592	913.69969
621.046	961.70714
621.5	901.68726
621.954	941.60775
622.407	948.59506
622.861	897.68884
623.314	878.54848
623.768	838.53012
624.221	819.24303
624.674	838.51548
625.127	762.4318
625.58	817.48155
626.033	901.54416
626.485	783.50418
626.938	793.5183
627.39	795.48403
627.843	785.46316
628.295	723.36872
628.747	728.42086
629.199	679.27839
629.651	672.26674
630.103	631.21407
630.555	633.12106
631.006	629.24798
631.458	610.22347
631.909	666.29045
632.361	577.15744
632.812	616.21048
633.263	597.09839
633.714	596.09188
634.165	589.23542
634.616	506.05896
635.067	602.15066
635.518	555.15733
635.968	531.93129
636.419	499.9595
636.869	508.07019
637.319	461.95305
637.769	494.9794
638.219	469.00498
638.669	372.81159
639.119	474.03734
639.569	417.91379
640.019	460.95886
640.468	428.86679
640.918	481.04139
641.367	401.82196
641.816	391.80146
642.265	416.87794
642.714	393.83432
643.163	385.81413
643.612	340.7556
644.061	320.62997
644.51	385.80628
644.958	314.64465
645.406	336.74795
645.855	358.81505
646.303	362.78609
646.751	304.64835
647.199	354.74809
647.647	302.65274
648.095	293.63234
648.543	339.64962
648.99	336.7495
649.438	363.79514
649.885	350.80907
650.333	379.67965
650.78	292.66589
651.227	286.658
651.674	310.66516
652.121	278.64164
652.568	264.60957
653.015	301.72049
653.461	320.71588
653.908	343.74944
654.354	324.72931
654.801	276.61491
655.247	320.6635
655.693	267.66364
656.139	281.64094
656.585	281.64172
657.031	204.45884
657.477	254.52524
657.922	251.55354
658.368	303.71031
658.813	287.6377
659.259	195.45376
659.704	219.49288
660.149	268.59759
660.594	278.63064
661.039	250.54776
661.484	277.63437
661.929	245.55252
662.373	196.47981
662.818	213.51201
663.262	201.47012
663.707	200.49251
664.151	239.56424
664.595	152.36004
665.039	210.50815
665.483	196.48586
665.927	253.57569
666.371	175.39612
666.814	219.509
667.258	200.46071
667.701	260.54391
668.145	224.54223
668.588	206.49322
669.031	186.42778
669.474	173.40939
669.917	235.50718
670.36	214.51725
670.803	248.58083
671.245	243.49878
671.688	194.46413
672.13	168.37152
672.573	210.52132
673.015	189.44569
673.457	195.41779
673.899	192.45689
674.341	203.48
674.783	159.37641
675.225	193.46553
675.666	153.36318
676.108	184.39499
676.549	229.53013
676.991	194.42166
677.432	188.37045
677.873	180.41133
678.314	186.43751
678.755	222.52787
679.196	153.34787
679.637	210.50356
680.078	187.43223
680.518	197.45298
680.959	171.40497
681.399	174.42564
681.839	215.5129
682.28	190.46098
682.72	127.2904
683.16	201.49123
683.6	231.51669
684.039	156.32462
684.479	151.36739
684.919	140.32096
685.358	186.46511
685.798	175.45185
686.237	184.43971
686.676	197.45172
687.115	196.4542
687.554	149.35191
687.993	151.33343
688.432	157.35697
688.871	137.31036
689.309	152.36074
689.748	180.37456
690.186	188.44393
690.625	143.33394
691.063	152.36227
691.501	203.49371
691.939	167.41193
692.377	158.38234
692.815	139.3311
693.253	187.44457
693.69	154.33771
694.128	127.30692
694.565	148.35152
695.003	140.35325
695.44	168.39163
695.877	117.27366
696.314	150.32297
696.751	190.42946
697.188	116.26732
697.625	173.3951
698.061	136.32538
698.498	173.41508
698.934	148.3549
699.371	137.32169
699.807	146.34423
700.243	146.3497
700.679	159.35888
701.115	178.41592
701.551	155.36353
701.987	171.38265
702.422	122.28988
702.858	129.30716
703.294	121.27534
703.729	144.35095
704.164	131.31491
704.599	112.25109
705.035	102.2299
705.47	131.31778
705.904	151.35027
706.339	191.44007
706.774	121.2839
707.209	116.26828
707.643	153.36556
708.078	124.30176
708.512	93.23319
708.946	155.36977
709.38	159.37466
709.814	152.34665
710.248	142.34491
710.682	149.35273
711.116	86.20631
711.549	123.3166
711.983	91.21201
712.416	159.37408
712.85	132.32818
713.283	144.33978
713.716	184.45695
714.149	153.36332
714.582	114.25736
715.015	136.3396
715.448	120.30225
715.881	147.32202
716.313	114.26795
716.746	97.22964
717.178	125.30038
717.61	138.34845
718.043	131.32575
718.475	88.21471
718.907	167.41919
719.339	53.12202
719.77	118.27983
720.202	111.28073
720.634	81.19833
721.065	138.32638
721.497	93.22907
721.928	84.2074
722.359	96.23222
722.79	122.29189
723.221	154.38496
723.652	186.47383
724.083	126.28457
724.514	142.32567
724.945	96.22696
725.375	96.22388
725.806	125.31173
726.236	146.37181
726.666	81.19346
727.096	162.39437
727.526	79.20165
727.956	78.17911
728.386	102.25193
728.816	97.24585
729.246	103.2508
729.675	69.17114
730.105	115.28325
730.534	148.34487
730.964	156.39151
731.393	153.37796
731.822	111.28343
732.251	116.29405
732.68	158.37035
733.109	88.21791
733.537	90.21845
733.966	105.2611
734.395	124.28656
734.823	129.29152
735.251	107.25829
735.68	150.37347
736.108	109.27587
736.536	128.30179
736.964	80.1873
737.392	113.28273
737.82	100.24099
738.247	154.36661
738.675	145.34525
739.102	76.19095
739.53	124.31456
739.957	95.2447
740.384	158.38708
740.811	133.33577
741.238	83.20376
741.665	72.16857
742.092	113.27041
742.519	67.16703
742.945	85.20534
743.372	64.15981
743.798	79.20399
744.225	93.22221
744.651	98.24639
745.077	88.2203
745.503	159.38483
745.929	100.24071
746.355	150.37089
746.781	124.3066
747.207	17.04063
747.632	75.18392
748.058	104.25979
748.483	135.31018
748.908	108.26841
749.334	96.2365
749.759	123.28972
750.184	39.09422
750.609	113.27771
751.033	146.34369
751.458	141.31565
751.883	109.27026
752.307	40.09556
752.732	67.16836
753.156	108.26675
753.58	122.28965
754.005	102.25912
754.429	96.22652
754.853	78.19421
755.277	104.24673
755.7	116.28735
756.124	62.15504
756.548	85.20255
756.971	129.31398
757.394	116.29801
757.818	101.2598
758.241	96.24379
758.664	72.18278
759.087	79.17773
759.51	89.2222
759.933	73.17682
760.356	86.22102
760.778	102.251
761.201	113.27484
761.623	151.36381
762.046	143.33774
762.468	122.29278
762.89	141.34601
763.312	85.20851
763.734	57.13858
764.156	94.2326
764.578	102.23553
765	82.20104
765.421	74.18859
765.843	94.24645
766.264	140.33648
766.686	105.26366
767.107	88.21399
767.528	58.14734
767.949	87.22168
768.37	56.13867
768.791	118.28501
769.212	59.14911
769.632	27.06389
770.053	116.30413
770.473	100.24345
770.894	103.2579
771.314	100.23943
771.734	131.304
772.154	101.25907
772.575	96.22326
772.994	79.18057
773.414	98.23581
773.834	103.25724
774.254	109.2664
774.673	126.30559
775.093	75.1863
775.512	103.25342
775.931	111.28053
776.351	85.21144
776.77	93.22746
777.189	93.22161
777.607	68.17434
778.026	65.16275
778.445	46.11599
778.864	144.36594
779.282	91.21926
779.701	67.16963
780.119	93.23479
780.537	67.16788
780.955	137.34574
781.373	83.20564
781.791	86.19383
782.209	132.3025
782.627	98.25746
783.045	65.15054
783.462	71.18187
783.88	99.25536
784.297	99.24851
784.715	69.17755
785.132	75.18214
785.549	43.1084
785.966	99.24842
786.383	81.19951
786.8	96.223
787.217	83.1971
787.633	44.11059
788.05	163.38229
788.466	107.25184
788.883	78.19899
789.299	73.17635
789.715	90.21869
790.131	124.30615
790.547	88.21966
790.963	87.21587
791.379	64.1623
791.795	84.19211
792.21	117.27215
792.626	105.24838
793.041	95.23399
793.457	91.22464
793.872	77.18144
794.287	28.06753
794.702	110.26979
795.117	57.14221
795.532	116.28871
795.947	105.25193
796.362	94.2243
796.776	150.34747
797.191	103.25117
797.605	49.11578
798.02	66.1611
798.434	127.28079
798.848	30.07456
799.262	47.11726
799.676	105.25519
800.09	80.19687
800.504	118.28447
800.918	105.24231
801.331	103.26881
801.745	97.22233
802.158	80.19991
802.572	98.23706
802.985	92.22204
803.398	83.19793
803.811	131.33367
804.224	106.26258
804.637	50.11981
805.05	114.26272
805.462	122.29745
805.875	40.10423
806.288	46.11161
806.7	79.19845
807.112	94.21749
807.525	110.26989
807.937	81.20003
808.349	92.22981
808.761	75.1846
809.173	70.1699
809.584	124.3039
809.996	36.08879
810.408	56.14487
810.819	86.20198
811.231	44.11418
811.642	74.17644
812.053	153.35842
812.464	169.39466
812.875	183.45852
813.286	95.24351
813.697	164.37733
814.108	118.28608
814.519	118.26106
814.929	145.36515
815.34	89.21533
815.75	92.23289
816.16	112.27724
816.571	96.24827
816.981	131.30616
817.391	87.20962
817.801	52.12961
818.211	49.11744
818.62	69.16625
819.03	123.29871
819.44	138.35626
819.849	53.134
820.259	109.27714
820.668	56.13811
821.077	58.14436
821.486	133.3168
821.895	107.26277
822.304	69.18278
822.713	97.2283
823.122	75.18704
823.531	90.21269
823.939	76.18502
824.348	99.23952
824.756	63.15803
825.164	113.28222
825.573	80.20034
825.981	128.31417
826.389	111.27682
826.797	67.16788
827.205	44.10156
827.612	102.25026
828.02	40.09449
828.428	96.24327
828.835	59.15545
829.243	106.25099
829.65	62.15431
830.057	103.24845
830.464	39.09557
830.871	120.28469
831.278	80.19301
831.685	71.15855
832.092	90.21951
832.499	87.18978
832.905	62.15711
833.312	85.19342
833.718	102.25258
834.124	100.22723
834.531	94.23583
834.937	111.28263
835.343	105.25165
835.749	106.24594
836.155	107.2781
836.561	65.15993
836.966	54.1324
837.372	102.25792
837.777	49.12242
838.183	80.17758
838.588	65.1614
838.993	102.24674
839.399	78.19024
839.804	46.11249
840.209	113.28508
840.613	74.16447
841.018	75.18955
841.423	75.19198
841.828	92.23148
842.232	119.29192
842.637	120.28018
843.041	52.1335
843.445	85.21237
843.849	46.11424
844.253	122.28686
844.657	49.12366
845.061	100.22539
845.465	64.15458
845.869	77.17855
846.272	98.23706
846.676	121.28955
847.079	72.18271
847.483	107.26481
847.886	93.22509
848.289	41.10973
848.692	61.1545
849.095	86.20568
849.498	124.31087
849.901	79.18071
850.304	43.10317
850.707	108.27309
851.109	131.32741
851.512	82.20075
851.914	53.13371
852.316	104.26101
852.718	27.07008
853.121	94.22893
853.523	52.12179
853.925	79.20533
854.326	54.13514
854.728	110.28033
855.13	34.08805
855.531	69.16461
855.933	55.13222
856.334	51.12733
856.736	38.08554
857.137	91.21034
857.538	73.18305
857.939	75.18473
858.34	81.19664
858.741	81.21089
859.142	65.15602
859.542	70.18428
859.943	112.27561
860.343	61.15097
860.744	84.20404
861.144	80.19439
861.544	48.11559
861.945	36.0921
862.345	76.1853
862.745	40.09974
863.145	137.3227
863.544	116.29008
863.944	91.21368
864.344	91.22472
864.743	128.31359
865.143	72.18446
865.542	59.13686
865.941	42.10427
866.34	98.23303
866.74	103.2743
867.139	32.077
867.537	93.23546
867.936	43.1038
868.335	67.17018
868.734	56.14312
869.132	76.17598
869.531	105.25174
869.929	63.14348
870.327	81.19331
870.726	109.26927
871.124	115.26581
871.522	65.16533
871.92	90.22066
872.318	94.22824
872.715	130.31754
873.113	100.24172
873.511	83.20579
873.908	-22.0563
874.306	94.23217
874.703	98.24338
875.1	97.24637
875.497	67.16033
875.894	55.13477
876.291	90.21951
876.688	55.14187
877.085	63.15099
877.482	88.21903
877.878	46.11094
878.275	68.17238
878.671	104.22941
879.068	123.29321
879.464	46.1114
879.86	61.14413
880.256	120.29268
880.652	66.16755
881.048	116.2843
881.444	96.22678
881.84	64.16241
882.236	95.23718
882.631	77.18826
883.027	101.24252
883.422	79.20115
883.817	23.05813
884.213	46.11822
884.608	25.06165
885.003	44.10632
885.398	69.17227
885.793	89.22204
886.188	52.12933
886.582	100.25449
886.977	94.22146
887.371	62.15661
887.766	63.15643
888.16	96.23781
888.554	119.29084
888.949	101.25152
889.343	106.25651
889.737	22.05893
890.131	82.20469
890.525	73.18607
890.918	66.16576
891.312	116.27435
891.706	99.25775
892.099	96.24249
892.492	52.1123
892.886	87.2116
893.279	78.19787
893.672	79.20023
894.065	114.28239
894.458	116.2885
894.851	117.28339
895.244	83.21089
895.637	102.24348
896.029	100.24244
896.422	103.24939
896.814	50.1244
897.206	49.11681
897.599	120.29323
897.991	67.16161
898.383	53.12528
898.775	114.25421
899.167	45.10513
899.559	132.32949
899.951	90.21071
900.342	104.26214
900.734	20.04992
901.125	83.21669
901.517	88.21463
901.908	123.29107
902.299	115.27792
902.69	48.11339
903.082	89.21411
903.473	33.07933
903.863	97.24559
904.254	49.11385
904.645	114.28043
905.036	56.13552
905.426	136.30628
905.817	91.22174
906.207	57.13572
906.597	53.12397
906.987	96.24698
907.378	95.23847
907.768	47.12438
908.158	78.18932
908.547	46.11896
908.937	80.20431
909.327	94.22653
909.717	78.19717
910.106	40.09632
910.495	111.27421
910.885	103.25855
911.274	95.23563
911.663	71.17963
912.052	112.27337
912.441	82.20743
912.83	88.20061
913.219	87.22635
913.608	51.12497
913.997	27.06799
914.385	76.18079
914.774	98.23661
915.162	40.09556
915.55	78.18783
915.939	44.11122
916.327	107.26442
916.715	60.15269
917.103	149.36022
917.491	124.30277
917.878	84.20534
918.266	90.23187
918.654	54.13791
919.041	44.11501
919.429	88.20627
919.816	72.18187
920.203	86.20725
920.591	82.20223
920.978	83.2021
921.365	70.18309
921.752	61.14519
922.139	89.19176
922.525	62.14862
922.912	96.23222
923.299	84.20755
923.685	57.14856
924.072	89.20375
924.458	58.14352
924.844	43.10658
925.231	73.1692
925.617	61.15488
926.003	77.19592
926.389	83.2082
926.774	99.24877
927.16	89.21954
927.546	56.14282
927.931	116.28609
928.317	96.2192
928.702	109.25505
929.088	4.00955
929.473	53.13481
929.858	12.02922
930.243	36.08666
930.628	79.19121
931.013	61.15091
931.398	93.21214
931.783	85.22252
932.167	74.18015
932.552	65.16246
932.937	91.22422
933.321	83.20707
933.705	97.24252
934.09	119.2971
934.474	74.17502
934.858	52.13485
935.242	79.18209
935.626	54.13815
936.009	45.1198
936.393	58.1474
936.777	76.19375
937.16	59.1533
937.544	129.29936
937.927	63.15951
938.311	134.32206
938.694	72.18973
939.077	50.11972
939.46	140.33814
939.843	111.22856
940.226	62.15873
940.609	43.09888
940.991	65.16504
941.374	59.14398
941.757	95.23253
942.139	82.183
942.522	131.30484
942.904	81.19361
943.286	81.20471
943.668	105.26943
944.05	86.21046
944.432	57.1405
944.814	98.23929
945.196	45.10978
945.578	45.10707
945.959	36.08462
946.341	104.25281
946.722	109.25295
947.104	65.15495
947.485	67.15542
947.866	70.17574
948.247	59.14863
948.628	83.20127
949.009	46.11789
949.39	120.29497
949.771	106.24389
950.152	70.17118
950.532	38.09368
950.913	65.15638
951.293	66.17783
951.674	87.20898
952.054	101.24795
952.434	53.13151
952.814	79.18695
953.194	104.2697
953.574	85.20805
953.954	39.09283
954.334	82.2032
954.714	37.0904
955.093	92.22447
955.473	95.23563
955.853	84.21618
956.232	81.22091
956.611	68.16257
956.99	47.11819
957.37	73.18528
957.749	103.24327
958.128	67.1683
958.506	61.15795
958.885	70.17606
959.264	71.17333
959.643	86.19431
960.021	48.11899
960.4	80.18024
960.778	131.3179
961.156	23.05794
961.535	89.20588
961.913	137.31515
962.291	49.12573
962.669	23.05854
963.047	87.22058
963.424	49.12507
963.802	86.21007
964.18	109.27292
964.557	96.21912
964.935	103.24157
965.312	84.21746
965.69	111.27491
966.067	143.34219
966.444	88.21535
966.821	75.19252
967.198	104.24977
967.575	92.22447
967.952	86.20127
968.329	77.18644
968.705	106.2246
969.082	101.25671
969.458	37.08898
969.835	120.28831
970.211	98.2494
970.587	92.22731
970.963	96.24431
971.339	47.12279
971.715	95.23529
972.091	78.19109
972.467	100.24717
972.843	53.13146
973.219	125.29592
973.594	72.18762
973.97	102.2404
974.345	70.1669
974.721	116.27742
975.096	73.17589
975.471	85.20029
975.846	97.23097
976.221	74.18712
976.596	88.20942
976.971	79.19401
977.346	78.18061
977.72	68.17269
978.095	92.23603
978.469	95.22481
978.844	87.21728
979.218	44.10559
979.593	91.21635
979.967	83.20097
980.341	52.11969
980.715	86.21529
981.089	67.16721
981.463	69.15784
981.837	63.15357
982.21	128.29333
982.584	112.26735
982.957	61.15202
983.331	123.28668
983.704	80.19549
984.078	82.20089
984.451	135.33202
984.824	43.10486
985.197	84.20274
985.57	110.27288
985.943	113.27586
986.316	126.30525
986.688	99.23654
987.061	122.28194
987.434	48.12512
987.806	113.27082
988.179	96.2245
988.551	91.22917
988.923	49.12069
989.295	133.32735
989.667	55.13126
990.039	30.0744
990.411	77.17628
990.783	89.20334
991.155	65.15572
991.527	133.32251
991.898	71.17623
992.27	76.18709
992.641	69.17252
993.012	115.26719
993.384	84.19905
993.755	90.22782
994.126	55.13217
994.497	47.11543
994.868	68.15565
995.239	55.13317
995.61	43.10833
995.98	73.17655
996.351	86.21155
996.722	63.14574
997.092	38.09019
997.462	27.06335
997.833	84.19782
998.203	90.21656
998.573	65.1614
998.943	88.20482
999.313	48.11506
999.683	33.07945
1000.053	84.19196
1000.423	64.15511
1000.792	75.19352
1001.162	76.18613
1001.531	99.24187
1001.901	72.17875
1002.27	112.24716
1002.639	67.17066
1003.009	77.18215
1003.378	94.23846
1003.747	91.21326
1004.116	29.06966
1004.485	85.20177
1004.853	79.19909
1005.222	108.26949
1005.591	128.29933
1005.959	84.18793
1006.328	45.10136
1006.696	34.08225
1007.064	83.20752
1007.433	57.14226
1007.801	157.3777
1008.169	121.30165
1008.537	75.1652
1008.905	46.10723
1009.273	86.21101
1009.64	53.12634
1010.008	71.16854
1010.375	125.29923
1010.743	109.24874
1011.11	87.20437
1011.478	85.20898
1011.845	79.18471
1012.212	89.19982
1012.579	76.18564
1012.946	132.30916
1013.313	130.3046
1013.68	106.23549
1014.047	108.25444
1014.414	60.14141
1014.78	59.14634
1015.147	84.20182
1015.513	75.17982
1015.88	113.28569
1016.246	98.23974
1016.612	133.29934
1016.978	93.22602
1017.344	100.24481
1017.71	132.31689
1018.076	86.20135
1018.442	140.35439
1018.808	60.14966
1019.174	105.26072
1019.539	147.33179
1019.905	56.13188
1020.27	42.10377
1020.636	103.2444
1021.001	97.23008
1021.366	73.17449
1021.731	68.17427
1022.096	58.14604
1022.461	111.25952
1022.826	55.13056
1023.191	73.19071
1023.556	138.31777
1023.92	81.19797
1024.285	122.29367
1024.649	69.16845
1025.014	130.31719
1025.378	62.15549
1025.742	104.25564
1026.107	66.14876
1026.471	123.28295
1026.835	70.17283
1027.199	16.03875
1027.562	88.20296
1027.926	93.22552
1028.29	62.1565
1028.654	59.13545
1029.017	93.2267
1029.381	53.12649
1029.744	67.1703
1030.107	130.30269
1030.471	104.24635
1030.834	117.26246
1031.197	93.22212
1031.56	91.21293
1031.923	97.24864
1032.286	113.26202
1032.648	111.26227
1033.011	77.17571
1033.374	122.28261
1033.736	18.04756
1034.099	73.17709
1034.461	79.19845
1034.823	83.20534
1035.185	106.26402
1035.548	69.16726
1035.91	86.2045
1036.272	95.21416
1036.634	110.26599
1036.995	89.20752
1037.357	73.17675
1037.719	59.14318
1038.08	91.21426
1038.442	70.16543
1038.803	81.19324
1039.165	96.24015
1039.526	78.1874
1039.887	92.21826
1040.248	36.08888
1040.609	108.2639
1040.97	73.17755
1041.331	72.18148
1041.692	37.08654
1042.053	92.20761
1042.413	77.1784
1042.774	59.14318
1043.134	128.30003
1043.495	80.19991
1043.855	99.23781
1044.215	27.06726
1044.576	37.08864
1044.936	109.24683
1045.296	128.31475
1045.656	115.27865
1046.016	111.26471
1046.375	69.16669
1046.735	103.23087
1047.095	79.18376
1047.454	81.17039
1047.814	60.14388
1048.173	153.35814
1048.533	77.17536
1048.892	5.0121
1049.251	101.25106
1049.61	70.17162
1049.969	76.17815
1050.328	74.15954
1050.687	100.24089
1051.046	115.27645
1051.405	51.12677
1051.763	5.01159
1052.122	60.14928
1052.48	72.17574
1052.839	48.11291
1053.197	82.19168
1053.555	127.2849
1053.914	116.28007
1054.272	81.19457
1054.63	53.12944
1054.988	53.12576
1055.345	48.10335
1055.703	92.21952
1056.061	59.15145
1056.419	60.15495
1056.776	51.12358
1057.134	69.15904
1057.491	83.20647
1057.848	51.12687
1058.206	79.18463
1058.563	73.16005
1058.92	88.20118
1059.277	100.24426
1059.634	111.25789
1059.991	108.25572
1060.348	56.12632
1060.704	45.10727
1061.061	129.29485
1061.418	49.11878
1061.774	56.13801
1062.131	35.09271
1062.487	72.16751
1062.843	109.26867
1063.199	78.19287
1063.555	37.0859
1063.911	88.22062
1064.267	105.2162
1064.623	29.07067
1064.979	115.26887
1065.335	82.19469
1065.691	83.19756
1066.046	116.25138
1066.402	63.14266
1066.757	86.21553
1067.112	83.20233
1067.468	44.10394
1067.823	55.13202
1068.178	106.25351
1068.533	69.16656
1068.888	108.25503
1069.243	67.16472
1069.598	38.09248
1069.952	47.10583
1070.307	39.09666
1070.662	42.0998
1071.016	42.0942
1071.371	18.04118
1071.725	109.25764
1072.079	81.19354
1072.434	49.119
1072.788	67.15892
1073.142	95.23158
1073.496	51.12088
1073.85	62.14334
1074.203	91.21892
1074.557	80.21152
1074.911	91.21535
1075.265	84.19381
1075.618	114.27483
1075.971	81.19139
1076.325	60.1521
1076.678	44.10067
1077.031	42.09513
1077.385	96.20928
1077.738	51.11502
1078.091	56.1271
1078.444	98.22521
1078.796	92.2238
1079.149	87.21476
1079.502	46.10867
1079.855	78.18076
1080.207	73.17894
1080.56	13.03379
1080.912	86.2078
1081.264	93.22195
1081.617	62.15066
1081.969	80.20056
1082.321	62.15094
1082.673	15.03445
1083.025	47.11148
1083.377	-166.37261
1083.728	104.23986
1084.08	63.15677
1084.432	78.18697
1084.783	124.2861
1085.135	62.15493
1085.486	52.11883
1085.838	88.21503
1086.189	51.12367
1086.54	85.20146
1086.891	43.10879
1087.242	77.18637
1087.593	125.2998
1087.944	83.18642
1088.295	99.22263
1088.646	88.21159
1088.996	48.11559
1089.347	82.19985
1089.698	34.08054
1090.048	53.13747
1090.398	77.17748
1090.749	77.18313
1091.099	37.09318
1091.449	65.16134
1091.799	87.21618
1092.149	-21.05184
1092.499	70.16997
1092.849	55.13955
1093.199	129.31844
1093.548	109.25874
1093.898	50.12499
1094.248	69.17656
1094.597	21.05383
1094.947	101.26691
1095.296	47.11602
1095.645	96.2475
1095.994	100.2377
1096.343	81.20252
1096.692	66.17275
1097.041	38.10299
1097.39	85.21167
1097.739	57.14784
1098.088	93.24717
1098.437	23.06064
1098.785	69.18528
1099.134	111.29147
1099.482	67.18361
1099.83	95.24751
1100.179	36.09403
1100.527	64.1695
1100.875	55.14516
1101.223	84.22158
1101.571	43.11885
1101.919	13.03415
1102.267	51.14343
1102.615	0
1102.962	12.03863
1103.31	10.03211
1103.658	14.04508
