Data from N2 R11 sample 2_Subt2__1__14-43-48-146.txt Node

Date: Mon Sep 01 14:43:48 PDT 2025
User: uwsun
Spectrometer: HDX01956
Trigger mode: 0
Integration Time (sec): 5.000000E-1
Scans to average: 1
Nonlinearity correction enabled: true
Boxcar width: 0
Storing dark spectrum: false
XAxis mode: Wavelengths
Number of Pixels in Spectrum: 2068
>>>>>Begin Spectral Data<<<<<
194.03	-77.21867
194.578	-86.2748
195.127	-89.28044
195.676	-88.27808
196.225	-24.06393
196.773	-40.11037
197.321	-100.27277
197.87	-76.19067
198.418	-151.37916
198.966	-141.35546
199.513	-189.45881
200.061	-182.44835
200.609	-93.23797
201.156	-112.23534
201.704	-183.4484
202.251	-149.38165
202.798	-129.32323
203.345	-117.28019
203.892	-129.31363
204.438	-87.20005
204.985	-140.3189
205.532	-137.34759
206.078	-136.32314
206.624	-175.41748
207.17	-102.2283
207.716	-152.35698
208.262	-104.19895
208.808	-171.40638
209.354	-144.33833
209.899	-102.24924
210.445	-169.40641
210.99	-182.42627
211.535	-121.27545
212.08	-155.35142
212.625	-129.31246
213.17	-116.28377
213.715	-224.48789
214.259	-109.24542
214.804	-120.28721
215.348	-129.28664
215.892	-133.30937
216.436	-85.19013
216.98	-79.16875
217.524	-129.29521
218.068	-95.23045
218.612	-89.2159
219.155	-121.27579
219.698	-91.20892
220.242	-76.18273
220.785	-50.11196
221.328	-133.32239
221.871	-39.09482
222.414	-76.18266
222.956	-138.32233
223.499	-52.11225
224.041	-93.2106
224.583	-63.132
225.126	-94.20083
225.668	-120.28271
226.21	-120.29213
226.751	-157.3355
227.293	-102.22651
227.835	-136.32252
228.376	-16.03532
228.918	-112.27459
229.459	-130.31316
230	-122.28182
230.541	-83.18481
231.082	-105.24588
231.622	-101.22573
232.163	-132.31001
232.704	-103.24591
233.244	-114.27316
233.784	-89.21102
234.324	-152.3239
234.864	-127.27974
235.404	-88.20215
235.944	-75.17122
236.484	-49.11703
237.023	-142.3258
237.563	-139.31169
238.102	-114.26051
238.641	-98.23849
239.18	-184.41962
239.719	-98.2367
240.258	-79.17087
240.797	-77.17607
241.335	-66.15471
241.874	-101.18764
242.412	-110.25431
242.95	-151.3486
243.488	-116.25588
244.026	-142.31677
244.564	-73.14415
245.102	-107.23103
245.64	-81.18752
246.177	-114.24673
246.715	-82.1889
247.252	-86.18979
247.789	-20.03598
248.326	-141.32539
248.863	-101.21228
249.4	-121.26551
249.936	-112.22215
250.473	-129.28938
251.009	-133.29307
251.546	-104.21979
252.082	-109.2296
252.618	-122.26099
253.154	-158.36614
253.69	-128.27762
254.226	-107.24417
254.761	-138.29892
255.297	-125.26283
255.832	-132.29982
256.367	-59.13159
256.903	-136.28741
257.438	-122.27542
257.972	-173.37401
258.507	-192.42547
259.042	-54.11087
259.576	-152.31376
260.111	-87.19171
260.645	-123.25601
261.179	-133.29676
261.713	-132.28128
262.247	-159.35389
262.781	-158.31896
263.315	-137.32018
263.849	-129.30739
264.382	-109.23938
264.915	-159.35668
265.449	-208.4862
265.982	-100.2167
266.515	-143.33302
267.048	-101.20281
267.58	-96.20021
268.113	-149.30805
268.646	-147.34584
269.178	-173.37065
269.71	-123.25646
270.243	-111.24121
270.775	-146.3537
271.307	-67.15222
271.838	-112.25398
272.37	-156.36637
272.902	-138.29994
273.433	-129.26837
273.965	-137.31704
274.496	-138.32726
275.027	-146.34423
275.558	-144.33172
276.089	-227.53425
276.62	-145.35174
277.15	-120.28095
277.681	-111.22887
278.211	-109.25285
278.741	-191.40232
279.272	-124.26688
279.802	-119.28063
280.332	-157.35089
280.861	-145.33075
281.391	-175.37769
281.921	-111.25228
282.45	-137.3242
282.98	-198.49279
283.509	-130.2757
284.038	-136.29233
284.567	-101.22191
285.096	-147.33558
285.625	-153.32794
286.153	-191.42493
286.682	-161.34748
287.21	-178.40496
287.739	-132.29227
288.267	-154.34979
288.795	-138.34122
289.323	-207.45747
289.851	-164.36206
290.378	-177.37529
290.906	-201.45774
291.433	-169.3959
291.961	-171.36304
292.488	-182.42627
293.015	-219.48641
293.542	-210.49953
294.069	-201.46384
294.596	-126.29014
295.122	-179.39989
295.649	-172.356
296.175	-127.28595
296.702	-151.34152
297.228	-123.27728
297.754	-169.35363
298.28	-203.43116
298.806	-187.41845
299.332	-182.37332
299.857	-174.36417
300.383	-162.38136
300.908	-246.5567
301.433	-171.38281
301.958	-128.27264
302.483	-227.52634
303.008	-210.48451
303.533	-154.37013
304.058	-182.39844
304.582	-231.50581
305.107	-246.59525
305.631	-174.36707
306.155	-243.52467
306.679	-236.50945
307.203	-184.39055
307.727	-205.44756
308.251	-174.39297
308.775	-248.54017
309.298	-244.53551
309.822	-226.52433
310.345	-185.39859
310.868	-179.38732
311.391	-176.39359
311.914	-243.55606
312.437	-207.4316
312.96	-241.51723
313.482	-230.49479
314.005	-289.66609
314.527	-258.61558
315.049	-235.54078
315.571	-247.49278
316.093	-227.50565
316.615	-242.52419
317.137	-228.4442
317.659	-222.48518
318.18	-253.55141
318.702	-233.48279
319.223	-209.37882
319.744	-256.51038
320.265	-301.651
320.786	-291.63798
321.307	-288.63686
321.828	-265.52943
322.348	-268.55469
322.869	-323.67226
323.389	-270.38394
323.909	-273.54871
324.43	-210.44088
324.95	-299.5957
325.47	-309.65915
325.989	-327.66907
326.509	-331.62601
327.029	-386.75561
327.548	-327.62663
328.067	-328.67309
328.587	-341.73151
329.106	-333.64306
329.625	-282.63634
330.144	-376.73778
330.662	-377.73747
331.181	-369.729
331.7	-393.77824
332.218	-351.62976
332.736	-378.7396
333.255	-369.71019
333.773	-365.7123
334.291	-387.80796
334.808	-414.75716
335.326	-407.75207
335.844	-459.86813
336.361	-431.88345
336.879	-450.84465
337.396	-490.95921
337.913	-479.8847
338.43	-416.73432
338.947	-478.90739
339.464	-512.86429
339.981	-486.9046
340.497	-478.93395
341.014	-507.97113
341.53	-556.98054
342.046	-512.97574
342.562	-491.95367
343.078	-557.01643
343.594	-531.97734
344.11	-492.88713
344.626	-538.03507
345.141	-542.92841
345.657	-492.83367
346.172	-536.96897
346.687	-589.00996
347.202	-597.99339
347.717	-560.98811
348.232	-590.09991
348.747	-616.03972
349.261	-623.96453
349.776	-618.05726
350.29	-621.09919
350.805	-547.976
351.319	-609.01366
351.833	-747.22221
352.347	-643.07158
352.861	-635.03443
353.374	-588.94641
353.888	-661.13253
354.401	-629.99614
354.915	-714.09119
355.428	-702.21744
355.941	-675.06291
356.454	-652.99856
356.967	-643.02816
357.48	-635.9768
357.993	-664.1088
358.505	-747.24404
359.018	-657.06618
359.53	-789.2818
360.042	-715.03633
360.554	-719.15661
361.066	-767.23826
361.578	-684.93694
362.09	-759.18461
362.602	-742.02484
363.113	-758.11628
363.625	-776.0921
364.136	-721.97013
364.647	-915.326
365.158	-789.13342
365.669	-849.28491
366.18	-788.13798
366.691	-793.04179
367.201	-859.26452
367.712	-858.1592
368.222	-878.19027
368.733	-910.12576
369.243	-909.13444
369.753	-814.04979
370.263	-880.19612
370.773	-940.34349
371.282	-972.28927
371.792	-1056.26758
372.301	-1036.34286
372.811	-1099.61304
373.32	-1078.07928
373.829	-1162.36113
374.338	-1156.19256
374.847	-1187.23555
375.356	-1303.42016
375.865	-1274.02019
376.373	-1322.15434
376.882	-1279.34704
377.39	-1384.31179
377.898	-1577.43272
378.407	-1515.01774
378.915	-1521.87202
379.423	-1617.04836
379.93	-1653.87804
380.438	-1825.98761
380.946	-1863.7765
381.453	-1992.75115
381.96	-2112.56455
382.468	-2378.36309
382.975	-2309.30271
383.482	-2420.0248
383.989	-2501.29345
384.495	-2671.86689
385.002	-2797.33682
385.509	-3018.44952
386.015	-3152.91177
386.521	-3145.91441
387.028	-3474.78658
387.534	-3548.63821
388.04	-3499.67323
388.546	-3906.5273
389.051	-4274.5533
389.557	-4472.67735
390.063	-4259.78327
390.568	-4641.04213
391.073	-5044.7011
391.578	-5169.94918
392.084	-5416.20825
392.589	-5962.25686
393.093	-6707.98097
393.598	-7089.86057
394.103	-7536.86445
394.607	-8106.30694
395.112	-8627.89684
395.616	-9192.58933
396.12	-10344.97458
396.624	-11558.69246
397.128	-12431.85456
397.632	-13353.74003
398.136	-14697.90391
398.639	-17082.09565
399.143	-19829.144
399.646	-21769.32158
400.15	-24336.06156
400.653	-27756.66865
401.156	-32090.04014
401.659	-38129.32686
402.162	-37353.97378
402.664	-28810.8205
403.167	-15954.46419
403.67	-2148.01748
404.172	0
404.674	0
405.176	0
405.678	0
406.18	0
406.682	0
407.184	0
407.686	0
408.187	0
408.688	0
409.19	-7516.71391
409.691	-18557.65549
410.192	-25170.55032
410.693	-29995.67497
411.194	-32413.81574
411.694	-30292.4581
412.195	-27301.91289
412.696	-26619.4957
413.196	-27191.92793
413.696	-27890.79094
414.196	-26621.68959
414.696	-23451.02116
415.196	-20183.56793
415.696	-13963.60607
416.196	-11210.24033
416.695	-11406.68901
417.195	-11892.07234
417.694	-11053.01215
418.194	-10090.46372
418.693	-9974.76731
419.192	-9736.24848
419.691	-9594.84678
420.19	-9136.12261
420.688	-8646.49607
421.187	-7916.12803
421.685	-7145.72052
422.184	-6185.81691
422.682	-5513.31874
423.18	-5167.47143
423.678	-4861.03793
424.176	-4561.92271
424.674	-4272.25905
425.172	-3822.71539
425.669	-3460.55377
426.167	-3166.61416
426.664	-3000.73791
427.161	-2820.95149
427.659	-2626.32526
428.156	-2542.23076
428.652	-2447.89613
429.149	-2348.91254
429.646	-2150.83637
430.143	-2014.21678
430.639	-1965.34228
431.135	-1922.66579
431.632	-1760.51516
432.128	-1804.88609
432.624	-1762.10854
433.12	-1775.8005
433.616	-1635.70427
434.111	-1764.07559
434.607	-1593.06213
435.103	-1452.82093
435.598	-1382.79454
436.093	-1314.09206
436.588	-1276.0791
437.083	-1232.12508
437.578	-1193.18292
438.073	-1284.48621
438.568	-1082.28038
439.062	-1120.09954
439.557	-1057.27017
440.051	-1046.1842
440.546	-1077.26091
441.04	-1027.31261
441.534	-1040.49566
442.028	-930.23484
442.522	-986.33589
443.015	-988.20324
443.509	-901.27578
444.002	-962.39319
444.496	-971.23197
444.989	-923.35753
445.482	-941.42733
445.975	-1006.36317
446.468	-886.09973
446.961	-909.14717
447.454	-883.21002
447.947	-938.37339
448.439	-897.38705
448.931	-950.3358
449.424	-837.35927
449.916	-867.35539
450.408	-880.24628
450.9	-896.40943
451.392	-912.53263
451.884	-864.30576
452.375	-900.48695
452.867	-816.22704
453.358	-864.28785
453.849	-863.20937
454.341	-863.30697
454.832	-780.09427
455.323	-858.43613
455.814	-768.19209
456.304	-813.29059
456.795	-765.19401
457.285	-725.11363
457.776	-684.08241
458.266	-826.39223
458.756	-761.30432
459.247	-792.33693
459.737	-771.30245
460.226	-718.12921
460.716	-744.27886
461.206	-706.22439
461.695	-699.2884
462.185	-707.22191
462.674	-675.13864
463.163	-664.07424
463.653	-633.96052
464.142	-730.32515
464.63	-635.16378
465.119	-654.125
465.608	-648.11703
466.096	-620.01757
466.585	-552.96077
467.073	-594.09204
467.561	-622.16141
468.05	-591.06228
468.538	-594.14193
469.026	-618.16533
469.513	-583.95193
470.001	-561.98962
470.489	-599.1181
470.976	-520.94147
471.463	-565.13019
471.951	-522.04909
472.438	-529.99175
472.925	-600.13742
473.412	-488.97519
473.899	-439.80756
474.385	-510.02729
474.872	-558.07259
475.359	-526.06055
475.845	-479.80921
476.331	-392.69375
476.817	-491.00278
477.303	-454.87654
477.789	-468.94693
478.275	-500.04777
478.761	-425.8613
479.247	-390.73201
479.732	-482.01888
480.218	-424.9391
480.703	-427.9057
481.188	-424.77427
481.673	-397.77328
482.158	-504.92367
482.643	-395.87142
483.128	-448.88363
483.612	-376.7559
484.097	-341.72109
484.581	-398.81046
485.066	-426.90811
485.55	-407.77844
486.034	-393.74219
486.518	-377.76962
487.002	-402.86253
487.486	-370.79217
487.969	-382.82139
488.453	-372.83459
488.936	-361.71855
489.42	-319.62194
489.903	-389.88221
490.386	-781.29726
490.869	-322.62555
491.352	-305.66839
491.835	-297.54658
492.318	-330.66434
492.8	-278.50943
493.283	-321.72891
493.765	-382.85279
494.247	-268.56239
494.73	-301.59773
495.212	-258.56099
495.694	-357.75658
496.175	-419.90888
496.657	-308.66343
497.139	-258.40872
497.62	-394.85484
498.102	-319.71761
498.583	-385.89331
499.064	-354.72218
499.545	-293.60792
500.026	-339.69708
500.507	-325.69268
500.988	-307.69854
501.469	-368.84999
501.949	-285.64534
502.43	-349.7619
502.91	-316.60013
503.39	-275.63181
503.87	-316.68154
504.35	-277.60217
504.83	-327.6624
505.31	-334.74843
505.79	-317.69849
506.269	-279.6011
506.749	-349.74124
507.228	-345.75221
507.707	-296.60578
508.187	-291.64551
508.666	-346.78997
509.145	-363.79346
509.623	-288.62462
510.102	-293.65805
510.581	-215.47634
511.059	-340.79344
511.538	-289.69494
512.016	-268.59264
512.494	-255.57272
512.972	-289.64134
513.45	-356.77043
513.928	-298.67134
514.406	-350.78524
514.884	-311.74527
515.361	-335.75391
515.839	-292.62005
516.316	-304.68346
516.793	-272.64201
517.27	-248.55963
517.747	-299.7157
518.224	-289.62772
518.701	-258.53567
519.178	-313.72485
519.654	-275.61459
520.131	-268.61782
520.607	-262.60808
521.083	-289.61997
521.56	-280.61995
522.036	-247.50745
522.512	-263.60908
522.987	-288.63899
523.463	-269.5987
523.939	-234.53536
524.414	-234.50578
524.89	-254.5645
525.365	-307.65886
525.84	-320.71588
526.315	-253.56939
526.79	-240.50675
527.265	-243.51904
527.74	-297.68344
528.215	-247.54563
528.689	-231.478
529.164	-258.52969
529.638	-260.62865
530.112	-284.6309
530.587	-299.60485
531.061	-252.56865
531.534	-255.58305
532.008	-278.63013
532.482	-183.39106
532.956	-267.63815
533.429	-239.54405
533.903	-180.37139
534.376	-202.41734
534.849	-219.4763
535.322	-221.48922
535.795	-214.48981
536.268	-201.45052
536.741	-210.47292
537.213	-197.42626
537.686	-217.49358
538.158	-214.44749
538.631	-146.32933
539.103	-241.50808
539.575	-160.31112
540.047	-173.35462
540.519	-134.29645
540.991	-172.39289
541.463	-158.35524
541.934	-123.25931
542.406	-163.35993
542.877	-137.28578
543.348	-89.19711
543.82	-81.18201
544.291	-97.20836
544.762	-135.29461
545.233	-95.21731
545.703	-127.25797
546.174	-38.07978
546.645	-63.13533
547.115	-35.0758
547.585	-21.04334
548.056	-42.09036
548.526	-13.02711
548.996	45.09541
549.466	74.15885
549.935	42.0867
550.405	29.05552
550.875	104.21207
551.344	135.27798
551.814	249.47646
552.283	273.4908
552.752	219.42372
553.221	305.53455
553.69	326.58504
554.159	392.76917
554.628	406.71329
555.096	441.88882
555.565	597.00128
556.033	662.17771
556.502	715.30017
556.97	786.26653
557.438	904.53898
557.906	968.63501
558.374	1051.66438
558.842	1209.93237
559.31	1311.87411
559.777	1458.20196
560.245	1654.29633
560.712	1725.2931
561.18	1860.18581
561.647	2118.32733
562.114	2257.43039
562.581	2391.83591
563.048	2674.55395
563.514	2834.83723
563.981	3127.45579
564.448	3341.27892
564.914	3610.39859
565.381	3983.10037
565.847	4274.11531
566.313	4547.92429
566.779	4848.56219
567.245	5243.56688
567.711	5613.52701
568.176	5915.03664
568.642	6269.56646
569.108	6721.39946
569.573	7179.30262
570.038	7514.12813
570.504	8115.86458
570.969	8640.79902
571.434	9064.52616
571.899	9760.23875
572.363	10248.94798
572.828	10850.3267
573.293	11252.21189
573.757	11863.48226
574.222	12396.09004
574.686	12889.48587
575.15	13353.23119
575.614	13808.3819
576.078	14364.94358
576.542	14729.80621
577.006	15238.08668
577.469	15542.36435
577.933	15827.57038
578.396	16080.02553
578.86	16283.50485
579.323	16272.22016
579.786	16560.56803
580.249	16489.6711
580.712	16471.83218
581.175	16447.40484
581.637	16461.90869
582.1	16195.83057
582.563	16093.06457
583.025	15984.58064
583.487	15707.03658
583.95	15462.29067
584.412	15306.90206
584.874	15191.17616
585.336	14827.01251
585.797	14738.67092
586.259	14373.75225
586.721	13952.19527
587.182	13701.00885
587.643	13437.32625
588.105	13044.83875
588.566	12728.83285
589.027	12325.83118
589.488	12004.30197
589.949	11813.71182
590.41	11523.79941
590.87	11165.74858
591.331	10818.44495
591.791	10467.7026
592.252	10220.82504
592.712	9949.77237
593.172	9589.83107
593.632	9348.20634
594.092	9027.42855
594.552	8724.80673
595.011	8299.15446
595.471	8290.11056
595.931	7998.73336
596.39	7645.60109
596.849	7457.39086
597.308	7348.11271
597.768	6972.61617
598.227	6812.33738
598.685	6681.12001
599.144	6446.18466
599.603	6411.26126
600.062	6030.72426
600.52	6031.0016
600.978	5862.40082
601.437	5792.23778
601.895	5603.89811
602.353	5405.22687
602.811	5364.23321
603.269	5258.72332
603.727	5100.80491
604.184	4958.49905
604.642	4856.08625
605.099	4919.71148
605.557	4673.16762
606.014	4644.42314
606.471	4544.34767
606.928	4436.48772
607.385	4396.23115
607.842	4351.92486
608.299	4338.06388
608.755	4263.29273
609.212	4208.83121
609.668	4068.86134
610.125	4165.38307
610.581	4248.2953
611.037	4129.12663
611.493	4064.35883
611.949	3973.47428
612.405	3901.52483
612.861	3969.4062
613.316	3838.51079
613.772	3707.3572
614.227	3718.50035
614.683	3790.97246
615.138	3645.48935
615.593	3701.43474
616.048	3626.41238
616.503	3529.87855
616.958	3408.00842
617.412	3439.66555
617.867	3264.33603
618.321	3358.02531
618.776	3273.38578
619.23	3224.70973
619.684	3086.564
620.138	3095.72317
620.592	2906.97218
621.046	2891.81345
621.5	2854.98764
621.954	2754.6333
622.407	2637.58192
622.861	2587.99017
623.314	2550.69145
623.768	2453.77781
624.221	2461.08916
624.674	2316.71076
625.127	2259.76997
625.58	2330.70444
626.033	2289.56557
626.485	2114.81905
626.938	2103.81034
627.39	2115.72283
627.843	2029.6702
628.295	2003.65937
628.747	1953.74631
629.199	1853.52346
629.651	1837.51247
630.103	1811.53177
630.555	1770.25037
631.006	1787.61735
631.458	1708.58111
631.909	1744.53722
632.361	1606.47533
632.812	1564.40433
633.263	1601.22938
633.714	1567.1924
634.165	1554.57739
634.616	1488.44966
635.067	1432.20079
635.518	1444.42636
635.968	1459.95521
636.419	1395.11403
636.869	1300.26815
637.319	1310.19635
637.769	1263.05813
638.219	1282.27049
638.669	1292.26943
639.119	1225.25928
639.569	1193.18478
640.019	1169.05303
640.468	1173.97357
640.918	1139.1221
641.367	1081.87641
641.816	1109.90593
642.265	1150.03581
642.714	1020.86885
643.163	1099.96105
643.612	978.88348
644.061	1033.69483
644.51	1013.8267
644.958	991.72426
645.406	978.88528
645.855	1032.02507
646.303	1014.89509
646.751	930.71301
647.199	990.80012
647.647	1003.84178
648.095	898.68536
648.543	929.52783
648.99	889.75403
649.438	946.81566
649.885	915.87453
650.333	927.43028
650.78	890.78185
651.227	911.83107
651.674	901.6856
652.121	874.77476
652.568	845.72244
653.015	875.86102
653.461	874.72964
653.908	822.6122
654.354	902.78761
654.801	804.59316
655.247	869.58005
655.693	850.88322
656.139	839.6955
656.585	869.74657
657.031	735.47085
657.477	794.44232
657.922	863.65732
658.368	794.67951
658.813	857.67659
659.259	777.59731
659.704	749.50028
660.149	789.56741
660.594	753.54097
661.039	805.55542
661.484	820.67029
661.929	702.43292
662.373	756.65405
662.818	746.60813
663.262	742.54822
663.707	728.61416
664.151	736.5669
664.595	708.49353
665.039	741.60996
665.483	744.65513
665.927	728.49479
666.371	669.3596
666.814	739.5382
667.258	696.44186
667.701	734.373
668.145	746.62461
668.588	735.57865
669.031	624.30692
669.474	750.57322
669.917	654.28286
670.36	679.4939
670.803	787.64547
671.245	698.28431
671.688	758.61447
672.13	650.29061
672.573	744.66264
673.015	670.42934
673.457	674.29291
673.899	736.56486
674.341	685.46548
674.783	640.37117
675.225	704.53049
675.666	674.43602
676.108	657.26479
676.549	745.5452
676.991	705.36386
677.432	758.29326
677.873	710.44665
678.314	752.57049
678.755	692.49354
679.196	666.35442
679.637	697.51301
680.078	739.51774
680.518	793.60317
680.959	711.50478
681.399	742.61931
681.839	767.6326
682.28	728.58404
682.72	774.5365
683.16	740.62311
683.6	779.5432
684.039	739.33711
684.479	773.65748
684.919	754.51275
685.358	838.84278
685.798	807.84893
686.237	830.7343
686.676	859.70506
687.115	851.71271
687.554	819.67921
687.993	869.62883
688.432	867.68499
688.871	840.62818
689.309	904.8299
689.748	921.60045
690.186	944.8979
690.625	931.83357
691.063	899.83096
691.501	939.96351
691.939	935.97407
692.377	998.02521
692.815	1004.98907
693.253	1039.05841
693.69	1047.86321
694.128	1056.09653
694.565	1132.17185
695.003	1166.38916
695.44	1125.12277
695.877	1097.06677
696.314	1215.01912
696.751	1232.19057
697.188	1262.23953
697.625	1337.33484
698.061	1287.39401
698.498	1323.47086
698.934	1315.44386
699.371	1310.36571
699.807	1357.44041
700.243	1416.5618
700.679	1456.41767
701.115	1461.54986
701.551	1506.59535
701.987	1544.48274
702.422	1536.65015
702.858	1637.76414
703.294	1617.57142
703.729	1603.8311
704.164	1684.84791
704.599	1680.56371
705.035	1666.5644
705.47	1703.90256
705.904	1850.85795
706.339	1890.89206
706.774	1829.86501
707.209	1835.8059
707.643	1921.03938
708.078	1964.13022
708.512	1868.16594
708.946	1920.0335
709.38	2024.05321
709.814	2071.92683
710.248	2067.20969
710.682	2040.07598
711.116	2026.07238
711.549	2109.51951
711.983	2021.93971
712.416	2128.10835
712.85	2133.36111
713.283	2186.13955
713.716	2177.43353
714.149	2182.17754
714.582	2210.91088
715.015	2203.43243
715.448	2143.42459
715.881	2206.80317
716.313	2114.05411
716.746	2190.11295
717.178	2174.20562
717.61	2183.48179
718.043	2144.36829
718.475	2129.22118
718.907	2260.52589
719.339	2048.86765
719.77	2073.07643
720.202	2121.42279
720.634	2046.17927
721.065	2087.09028
721.497	2034.21084
721.928	1977.17323
722.359	1963.07709
722.79	1931.02621
723.221	1967.28695
723.652	2016.45
724.083	1797.69113
724.514	1872.81927
724.945	1872.90906
725.375	1862.84364
725.806	1791.09798
726.236	1749.16701
726.666	1779.86688
727.096	1716.95353
727.526	1644.01392
727.956	1607.56402
728.386	1636.88748
728.816	1566.91129
729.246	1619.81405
729.675	1535.77175
730.105	1529.7706
730.534	1488.54931
730.964	1476.80669
731.393	1497.77099
731.822	1455.81513
732.251	1398.71804
732.68	1474.56129
733.109	1322.52038
733.537	1314.4462
733.966	1332.55777
734.395	1257.24611
734.823	1371.31353
735.251	1220.3165
735.68	1239.46112
736.108	1236.48517
736.536	1262.31331
736.964	1126.09007
737.392	1132.29863
737.82	1165.23264
738.247	1125.17129
738.675	1118.15724
739.102	1092.23033
739.53	983.10266
739.957	1112.34266
740.384	1015.08263
740.811	1002.12634
741.238	930.91856
741.665	909.77511
742.092	926.8668
742.519	869.84426
742.945	861.77016
743.372	873.85355
743.798	853.89887
744.225	836.70909
744.651	795.74271
745.077	817.76993
745.503	773.65036
745.929	774.62076
746.355	830.79085
746.781	714.56998
747.207	655.37103
747.632	651.42205
748.058	711.57612
748.483	715.44926
748.908	652.45571
749.334	645.42436
749.759	599.27743
750.184	586.26614
750.609	630.39671
751.033	627.33491
751.458	634.27285
751.883	613.37616
752.307	576.23176
752.732	501.1575
753.156	572.289
753.58	551.19727
754.005	549.28061
754.429	560.19956
754.853	497.14006
755.277	523.13779
755.7	480.10693
756.124	490.12734
756.548	389.87254
756.971	516.16217
757.394	420.01886
757.818	460.10606
758.241	451.07022
758.664	425.00841
759.087	364.7709
759.51	380.89825
759.933	401.9109
760.356	358.87595
760.778	404.93831
761.201	359.83267
761.623	406.93065
762.046	425.94857
762.468	392.89208
762.89	361.84955
763.312	375.87011
763.734	309.71559
764.156	302.71861
764.578	351.77016
765	314.73652
765.421	309.75455
765.843	318.80171
766.264	354.81604
766.686	305.73813
767.107	255.60061
767.528	227.55929
767.949	291.71457
768.37	264.62868
768.791	292.68199
769.212	225.55171
769.632	229.52066
770.053	268.68436
770.473	273.643
770.894	241.58831
771.314	252.5858
771.734	217.49498
772.154	263.65536
772.575	243.54868
772.994	207.46091
773.414	269.62618
773.834	220.53775
774.254	236.56309
774.673	211.50355
775.093	178.43381
775.512	155.37769
775.931	234.57834
776.351	206.5011
776.77	169.40749
777.189	178.41722
777.607	175.44021
778.026	201.49086
778.445	129.32043
778.864	192.48375
779.282	173.41034
779.701	161.40078
780.119	151.37725
780.537	138.34134
780.955	178.44591
781.373	127.31212
781.791	149.3315
782.209	178.40414
782.627	134.34989
783.045	166.37674
783.462	138.34932
783.88	138.35354
784.297	127.31718
784.715	57.14698
785.132	143.34284
785.549	122.3032
785.966	180.44506
786.383	115.28148
786.8	141.32461
787.217	101.23901
787.633	112.27805
788.05	173.40495
788.466	197.45552
788.883	103.26161
789.299	114.27327
789.715	100.24254
790.131	131.32302
790.547	152.375
790.963	137.33682
791.379	127.31844
791.795	204.45527
792.21	109.25395
792.626	112.26458
793.041	119.29181
793.457	128.31382
793.872	99.23228
794.287	31.07472
794.702	112.27459
795.117	113.27905
795.532	79.19795
795.947	144.34294
796.362	146.3449
796.776	162.37437
797.191	102.24878
797.605	77.18095
798.02	110.26629
798.434	122.27002
798.848	96.23572
799.262	65.16163
799.676	135.32625
800.09	77.18959
800.504	158.37801
800.918	85.19694
801.331	111.28929
801.745	89.20433
802.158	128.31707
802.572	119.28672
802.985	132.31617
803.398	113.26793
803.811	129.32869
804.224	119.29408
804.637	59.14113
805.05	90.2084
805.462	108.264
805.875	81.20959
806.288	85.20472
806.7	80.20092
807.112	92.21295
807.525	119.29148
807.937	74.18297
808.349	90.2249
808.761	99.24259
809.173	100.24135
809.584	107.26306
809.996	75.18364
810.408	40.10377
810.819	66.15561
811.231	8.02089
811.642	19.04578
812.053	92.21809
812.464	106.2506
812.875	110.27924
813.286	90.2309
813.697	157.36173
814.108	112.27184
814.519	132.29118
814.929	92.23388
815.34	93.22484
815.75	83.21044
816.16	118.29177
816.571	112.28884
816.981	125.29248
817.391	97.23327
817.801	37.09248
818.211	106.25128
818.62	85.20418
819.03	89.21752
819.44	59.1544
819.849	94.23591
820.259	86.21956
820.668	74.1819
821.077	64.15912
821.486	86.2067
821.895	101.24831
822.304	110.28938
822.713	87.20517
823.122	51.12774
823.531	78.18476
823.939	64.15616
824.348	128.30799
824.756	93.23202
825.164	114.28466
825.573	39.09839
825.981	118.29016
826.389	128.31823
826.797	59.14805
827.205	35.08093
827.612	126.30777
828.02	105.24492
828.428	101.25571
828.835	87.22814
829.243	109.25794
829.65	82.20335
830.057	75.18187
830.464	76.18495
830.871	129.30551
831.278	64.15487
831.685	126.27817
832.092	96.23388
832.499	106.2303
832.905	113.28375
833.312	135.30409
833.718	115.28409
834.124	115.26052
834.531	62.15644
834.937	79.20229
835.343	92.22104
835.749	112.25955
836.155	73.19084
836.561	69.16964
836.966	95.23114
837.372	78.19808
837.777	74.18405
838.183	72.16009
838.588	84.20785
838.993	107.25859
839.399	102.24766
839.804	23.05648
840.209	35.08953
840.613	68.15132
841.018	91.22933
841.423	59.15145
841.828	77.19426
842.232	111.2727
842.637	119.2779
843.041	66.16903
843.445	100.24916
843.849	73.1804
844.253	73.17329
844.657	43.10864
845.061	118.26498
845.465	81.19501
845.869	112.2579
846.272	81.19657
846.676	95.22846
847.079	54.13747
847.483	106.26239
847.886	120.28896
848.289	37.09909
848.692	63.15951
849.095	67.16082
849.498	102.25673
849.901	95.21661
850.304	93.22102
850.707	71.18072
851.109	100.25133
851.512	84.20557
851.914	56.1412
852.316	91.22892
852.718	32.08299
853.121	17.042
853.523	90.20923
853.925	43.11245
854.326	85.21152
854.728	87.22262
855.13	43.11119
855.531	50.11972
855.933	84.20082
856.334	58.14462
856.736	112.2483
857.137	57.13264
857.538	53.13338
857.939	44.109
858.34	118.28447
858.741	90.23396
859.142	83.19854
859.542	79.20765
859.943	123.30206
860.343	11.02747
860.744	90.21836
861.144	127.30588
861.544	29.07009
861.945	69.1755
862.345	55.13462
862.745	73.18093
863.145	124.29281
863.544	81.20384
863.944	68.16039
864.344	96.23685
864.743	124.30401
865.143	72.18446
865.542	63.14603
865.941	80.19723
866.34	112.26561
866.74	81.2165
867.139	39.09372
867.537	88.223
867.936	56.13485
868.335	73.18522
868.734	71.18097
869.132	64.14855
869.531	91.21876
869.929	51.11643
870.327	80.19096
870.726	105.25958
871.124	112.25903
871.522	88.22292
871.92	124.3021
872.318	75.18276
872.715	115.28169
873.113	70.17016
873.511	87.21555
873.908	29.07355
874.306	70.17366
874.703	86.21405
875.1	83.21134
875.497	48.11528
875.894	19.04687
876.291	108.26253
876.688	78.20039
877.085	96.22863
877.482	96.23859
877.878	66.15857
878.275	62.15734
878.671	131.28734
879.068	89.21354
879.464	61.14731
879.86	48.1137
880.256	101.24721
880.652	68.17256
881.048	78.19251
881.444	129.30279
881.84	68.17244
882.236	103.25678
882.631	119.28867
883.027	84.20235
883.422	96.2437
883.817	62.1556
884.213	74.18925
884.608	72.176
885.003	62.1493
885.398	103.25557
885.793	75.18759
886.188	44.10959
886.582	103.26198
886.977	107.25145
887.371	113.28283
887.766	53.13184
888.16	83.20609
888.554	124.30277
888.949	92.22948
889.343	121.29198
889.737	54.14388
890.131	51.12802
890.525	100.25368
890.918	88.22014
891.312	99.23491
891.706	76.19865
892.099	65.1651
892.492	76.16329
892.886	92.22355
893.279	74.18786
893.672	62.15762
894.065	70.1748
894.458	100.24944
894.851	83.20233
895.244	57.14549
895.637	93.22238
896.029	68.16585
896.422	65.15851
896.814	88.21743
897.206	45.10736
897.599	94.23081
897.991	58.14014
898.383	86.20198
898.775	67.15086
899.167	26.06097
899.559	102.25599
899.951	98.22908
900.342	105.26461
900.734	8.02001
901.125	60.15726
901.517	65.15922
901.908	106.25167
902.299	68.16579
902.69	84.19705
903.082	114.27295
903.473	37.08888
903.863	88.22316
904.254	65.15054
904.645	102.25147
905.036	56.13552
905.426	83.18895
905.817	57.13978
906.207	60.14278
906.597	30.07049
906.987	63.16301
907.378	87.2187
907.768	72.18973
908.158	72.17495
908.547	47.12153
908.937	93.23697
909.327	70.16946
909.717	146.36457
910.106	54.12969
910.495	102.25239
910.885	91.22892
911.274	60.14977
911.663	91.22941
912.052	110.26859
912.441	78.19745
912.83	94.21403
913.219	107.27743
913.608	76.18537
913.997	12.0303
914.385	106.2507
914.774	84.20335
915.162	55.13101
915.55	80.19257
915.939	48.12125
916.327	97.24015
916.715	45.11482
917.103	130.31541
917.491	106.25969
917.878	67.1643
918.266	88.22679
918.654	96.24336
919.041	14.03678
919.429	34.08054
919.816	102.25627
920.203	79.19063
920.591	77.19008
920.978	88.21407
921.365	64.16757
921.752	61.14519
922.139	99.21284
922.525	56.13439
922.912	75.18214
923.299	85.20998
923.685	82.2128
924.072	106.24184
924.458	77.18987
924.844	64.15802
925.231	44.10257
925.617	35.08928
926.003	87.22097
926.389	65.16357
926.774	70.17682
927.16	81.2001
927.546	39.09976
927.931	85.21083
928.317	92.21024
928.702	98.2298
929.088	85.19975
929.473	63.15996
929.858	36.08728
930.243	92.2191
930.628	73.17689
931.013	89.21905
931.398	130.29432
931.783	89.23283
932.167	100.24226
932.552	75.18711
932.937	141.34422
933.321	73.18245
933.705	34.08598
934.09	107.26772
934.474	92.21683
934.858	76.19627
935.242	70.16164
935.626	28.07196
936.009	53.14091
936.393	77.19502
936.777	84.21385
937.16	63.16358
937.544	80.18745
937.927	61.1545
938.311	133.31972
938.694	107.2803
939.077	79.18811
939.46	119.28856
939.843	80.16588
940.226	56.14352
940.609	123.2783
940.991	90.2275
941.374	58.14157
941.757	101.24694
942.139	73.16322
942.522	95.22264
942.904	53.12736
943.286	108.27163
943.668	48.12439
944.05	76.18633
944.432	69.1697
944.814	88.21527
945.196	40.09767
945.578	31.07396
945.959	110.25481
946.341	114.27659
946.722	73.17061
947.104	96.22749
947.485	65.15084
947.866	26.06579
948.247	76.19088
948.628	108.26066
949.009	55.14074
949.39	97.23945
949.771	113.25963
950.152	47.11543
950.532	-6.01491
950.913	118.28102
951.293	20.05429
951.674	78.18769
952.054	63.15575
952.434	77.19022
952.814	109.25645
953.194	94.24419
953.574	81.19841
953.954	66.15628
954.334	106.26152
954.714	46.1122
955.093	136.3291
955.473	46.11512
955.853	82.21111
956.232	69.18855
956.611	104.24692
956.99	62.15549
957.37	67.17024
957.749	95.22473
958.128	43.10848
958.506	55.14256
958.885	81.20332
959.264	24.0591
959.643	85.19209
960.021	63.15575
960.4	99.22218
960.778	92.22489
961.156	57.14272
961.535	111.25565
961.913	81.18842
962.291	49.12573
962.669	67.16921
963.047	65.16545
963.424	67.17048
963.802	51.12539
964.18	99.24833
964.557	109.24813
964.935	95.22316
965.312	46.11987
965.69	86.21397
966.067	38.09275
966.444	91.22257
966.821	58.14932
967.198	74.17874
967.575	112.27225
967.952	117.27215
968.329	78.18882
968.705	114.24113
969.082	36.09255
969.458	55.13182
969.835	100.24117
970.211	87.22183
970.587	81.20054
970.963	67.17138
971.339	78.2027
971.715	64.15941
972.091	93.22721
972.467	118.2907
972.843	62.15353
973.219	122.28899
973.594	42.11001
973.97	126.29557
974.345	41.0983
974.721	79.19027
975.096	58.14014
975.471	95.22342
975.846	75.17934
976.221	70.17713
976.596	69.1648
976.971	91.22298
977.346	98.22602
977.72	63.16013
978.095	80.20567
978.469	71.1688
978.844	107.26627
979.218	43.10321
979.593	128.30214
979.967	54.13146
980.341	125.28352
980.715	55.13846
981.089	60.14993
981.463	53.12163
981.837	66.1608
982.21	116.26647
982.584	76.18266
982.957	29.07269
983.331	100.23413
983.704	73.17861
984.078	58.14273
984.451	115.28388
984.824	45.1097
985.197	118.28296
985.57	54.13533
985.943	79.19408
986.316	87.21231
986.688	152.35949
987.061	120.27742
987.434	43.11218
987.806	82.19768
988.179	52.12265
988.551	63.15945
988.923	60.14749
989.295	94.23302
989.667	38.09099
990.039	88.21591
990.411	73.16726
990.783	78.17861
991.155	33.07954
991.527	97.2368
991.898	75.18603
992.27	89.21857
992.641	120.29726
993.012	100.23302
993.384	40.09559
993.755	48.12241
994.126	96.22889
994.497	55.13487
994.868	62.14208
995.239	60.14514
995.61	36.09081
995.98	53.12867
996.351	19.04732
996.722	54.12514
997.092	61.14413
997.462	14.03293
997.833	89.20939
998.203	94.22601
998.573	72.17855
998.943	93.21624
999.313	67.16002
999.683	57.13661
1000.053	114.25894
1000.423	59.14312
1000.792	86.22148
1001.162	54.13279
1001.531	87.21303
1001.901	77.19099
1002.27	72.16022
1002.639	77.19578
1003.009	61.14475
1003.378	75.1909
1003.747	90.21096
1004.116	51.122
1004.485	114.2691
1004.853	88.22141
1005.222	69.17339
1005.591	97.22821
1005.959	68.15264
1006.328	44.09913
1006.696	69.16581
1007.064	92.22965
1007.433	57.14226
1007.801	108.26223
1008.169	113.28212
1008.537	92.20192
1008.905	78.18069
1009.273	57.1406
1009.64	60.14284
1010.008	67.15917
1010.375	69.16694
1010.743	115.26211
1011.11	87.20437
1011.478	79.19444
1011.845	97.22599
1012.212	57.12881
1012.579	90.21927
1012.946	59.14016
1013.313	102.2403
1013.68	117.25933
1014.047	83.19649
1014.414	80.18781
1014.78	42.1045
1015.147	118.28167
1015.513	38.09175
1015.88	115.29064
1016.246	102.24934
1016.612	114.25757
1016.978	91.22125
1017.344	100.24481
1017.71	117.28169
1018.076	133.30852
1018.442	99.25243
1018.808	32.08023
1019.174	79.19709
1019.539	129.29224
1019.905	79.18521
1020.27	40.09887
1020.636	51.12223
1021.001	109.25794
1021.366	64.15324
1021.731	76.1945
1022.096	37.09351
1022.461	47.11127
1022.826	68.16101
1023.191	66.17263
1023.556	82.19093
1023.92	131.31718
1024.285	123.29602
1024.649	90.21886
1025.014	78.19216
1025.378	54.13562
1025.742	82.20238
1026.107	84.18863
1026.471	100.2311
1026.835	70.17283
1027.199	22.05322
1027.562	105.24135
1027.926	85.20643
1028.29	73.1839
1028.654	81.18514
1029.017	77.18826
1029.381	126.2965
1029.744	54.13757
1030.107	105.24569
1030.471	47.11256
1030.834	108.24272
1031.197	129.30598
1031.56	88.20603
1031.923	42.10869
1032.286	108.25067
1032.648	83.19718
1033.011	60.13739
1033.374	114.2645
1033.736	31.08173
1034.099	118.28382
1034.461	43.10871
1034.823	35.08735
1035.185	69.17302
1035.548	80.19352
1035.91	73.17402
1036.272	89.20088
1036.634	68.16573
1036.995	76.17766
1037.357	71.17198
1037.719	81.19575
1038.08	61.14447
1038.442	71.16776
1038.803	60.14372
1039.165	53.13361
1039.526	64.15417
1039.887	84.19959
1040.248	46.11337
1040.609	83.20376
1040.97	54.13181
1041.331	45.11397
1041.692	52.12127
1042.053	100.2253
1042.413	68.15783
1042.774	95.22898
1043.134	108.25414
1043.495	91.22695
1043.855	85.20472
1044.215	49.12158
1044.576	49.11712
1044.936	82.18671
1045.296	110.27139
1045.656	78.19031
1046.016	109.26004
1046.375	69.16669
1046.735	30.06825
1047.095	45.10538
1047.454	129.26849
1047.814	40.09629
1048.173	98.23187
1048.533	69.15739
1048.892	70.16729
1049.251	84.20945
1049.61	103.25098
1049.969	86.20119
1050.328	77.1659
1050.687	70.16958
1051.046	58.14094
1051.405	32.07982
1051.763	76.17375
1052.122	41.10236
1052.48	56.1371
1052.839	82.19161
1053.197	82.19168
1053.555	129.28926
1053.914	97.23504
1054.272	106.25341
1054.63	60.14634
1054.988	71.16789
1055.345	60.12886
1055.703	90.21483
1056.061	53.13619
1056.419	67.17282
1056.776	77.18567
1057.134	74.1704
1057.491	88.21871
1057.848	97.23927
1058.206	89.2076
1058.563	86.18804
1058.92	63.14475
1059.277	74.18163
1059.634	100.23284
1059.991	63.15047
1060.348	47.10621
1060.704	50.11908
1061.061	123.28148
1061.418	44.10676
1061.774	92.22523
1062.131	27.07162
1062.487	66.15374
1062.843	105.25901
1063.199	82.20261
1063.555	37.0859
1063.911	55.13871
1064.267	77.15955
1064.623	80.19308
1064.979	160.37078
1065.335	113.26668
1065.691	96.22793
1066.046	77.16825
1066.402	50.11352
1066.757	102.25488
1067.112	89.21671
1067.468	23.05456
1067.823	54.12964
1068.178	90.2159
1068.533	102.24469
1068.888	76.18058
1069.243	70.172
1069.598	55.13342
1069.952	29.06554
1070.307	66.16277
1070.662	49.11627
1071.016	84.18677
1071.371	59.13388
1071.725	83.19718
1072.079	86.20529
1072.434	67.16216
1072.788	43.10247
1073.142	92.22439
1073.496	69.16297
1073.85	59.13648
1074.203	119.28476
1074.557	32.08529
1074.911	136.31903
1075.265	74.17108
1075.618	121.29132
1075.971	116.27222
1076.325	29.07392
1076.678	50.11426
1077.031	46.1041
1077.385	71.1556
1077.738	101.22545
1078.091	54.12261
1078.444	63.14579
1078.796	84.20465
1079.149	61.1513
1079.502	57.13437
1079.855	58.13494
1080.207	104.25347
1080.56	45.11632
1080.912	95.22915
1081.264	75.17961
1081.617	64.15546
1081.969	73.18324
1082.321	64.15575
1082.673	42.09594
1083.025	71.16763
1083.377	-120.26681
1083.728	80.18539
1084.08	38.09499
1084.432	39.09418
1084.783	95.22046
1085.135	54.13514
1085.486	77.17508
1085.838	81.19819
1086.189	69.16675
1086.54	101.23864
1086.891	13.03307
1087.242	46.11199
1087.593	102.24571
1087.944	57.12871
1088.295	77.17394
1088.646	50.12109
1088.996	74.17732
1089.347	74.18062
1089.698	35.08289
1090.048	76.19634
1090.398	78.17975
1090.749	43.10294
1091.099	12.03036
1091.449	56.13923
1091.799	80.19904
1092.149	12.02944
1092.499	78.18911
1092.849	77.1946
1093.199	76.18943
1093.548	46.11052
1093.898	69.17189
1094.248	89.22693
1094.597	-1.00257
1094.947	35.09352
1095.296	64.15749
1095.645	89.22973
1095.994	71.16971
1096.343	85.21237
1096.692	45.1182
1097.041	27.07331
1097.39	79.19695
1097.739	49.12727
1098.088	141.37174
1098.437	18.0475
1098.785	90.24083
1099.134	66.17463
1099.482	57.15645
1099.83	93.24238
1100.179	41.107
1100.527	78.2061
1100.875	23.06103
1101.223	60.15891
1101.571	87.2388
1101.919	21.05509
1102.267	39.10989
1102.615	3.00965
1102.962	19.06111
1103.31	1.00321
1103.658	17.05472
