Data from N2 R11 sample 1_Subt2__5__14-45-42-143.txt Node

Date: Mon Sep 01 14:45:42 PDT 2025
User: uwsun
Spectrometer: HDX01956
Trigger mode: 0
Integration Time (sec): 5.000000E-1
Scans to average: 1
Nonlinearity correction enabled: true
Boxcar width: 0
Storing dark spectrum: false
XAxis mode: Wavelengths
Number of Pixels in Spectrum: 2068
>>>>>Begin Spectral Data<<<<<
194.03	-60.16995
194.578	-62.19755
195.127	-67.21055
195.676	-62.1953
196.225	-7.01859
196.773	-34.09372
197.321	-72.19552
197.87	-50.12485
198.418	-85.21091
198.966	-107.2681
199.513	-155.37388
200.061	-113.27484
200.609	-76.19389
201.156	-140.296
201.704	-116.28071
202.251	-97.2462
202.798	-101.25179
203.345	-63.14932
203.892	-119.28878
204.438	-93.21411
204.985	-137.31187
205.532	-125.31647
206.078	-75.17611
206.624	-151.35857
207.17	-69.15339
207.716	-151.35456
208.262	-145.28014
208.808	-166.39411
209.354	-118.27583
209.899	-68.16511
210.445	-128.30542
210.99	-144.33476
211.535	-79.17831
212.08	-99.2219
212.625	-119.28769
213.17	-103.25136
213.715	-174.37497
214.259	-84.18816
214.804	-84.19967
215.348	-81.17819
215.892	-95.21932
216.436	-78.17422
216.98	-62.13195
217.524	-139.31873
218.068	-105.25519
218.612	-40.09614
219.155	-119.27112
219.698	-59.13458
220.242	-96.2317
220.785	-81.18253
221.328	-87.20906
221.871	-49.11936
222.414	-46.10993
222.956	-158.37049
223.499	-46.09917
224.041	-114.25925
224.583	-47.09813
225.126	-58.12295
225.668	-103.24186
226.21	-86.20803
226.751	-109.2305
227.293	-63.13877
227.835	-94.22111
228.376	-39.08652
228.918	-79.1925
229.459	-94.2249
230	-117.27001
230.541	-72.15996
231.082	-117.27462
231.622	-61.13521
232.163	-125.29317
232.704	-130.31197
233.244	-83.19771
233.784	-75.17735
234.324	-142.30193
234.864	-77.16782
235.404	-53.1209
235.944	-72.16427
236.484	-78.18733
237.023	-72.16288
237.563	-125.27949
238.102	-55.12419
238.641	-78.18911
239.18	-132.29788
239.719	-94.22687
240.258	-94.20396
240.797	-73.16679
241.335	-77.18088
241.874	-76.14032
242.412	-123.28509
242.95	-155.35812
243.488	-79.17291
244.026	-109.2415
244.564	-70.13813
245.102	-59.12608
245.64	-97.22528
246.177	-72.15443
246.715	-18.04094
247.252	-56.12281
247.789	-50.09065
248.326	-125.28755
248.863	-128.27062
249.4	-40.08628
249.936	-127.25279
250.473	-123.27558
251.009	-95.20767
251.546	-80.16818
252.082	-78.16318
252.618	-79.16743
253.154	-99.22674
253.69	-103.2222
254.226	-96.21858
254.761	-77.16462
255.297	-122.25636
255.832	-121.27422
256.367	-63.14063
256.903	-120.25271
257.438	-75.16769
257.972	-87.18463
258.507	-174.38414
259.042	-120.25004
259.576	-129.2649
260.111	-102.22547
260.645	-71.14606
261.179	-108.23973
261.713	-95.20081
262.247	-103.22659
262.781	-119.23808
263.315	-160.37562
263.849	-144.34412
264.382	-101.22144
264.915	-176.39619
265.449	-184.42808
265.982	-103.22335
266.515	-76.17466
267.048	-42.08319
267.58	-59.12203
268.113	-125.25704
268.646	-120.28084
269.178	-114.24113
269.71	-83.17152
270.243	-116.25234
270.775	-122.29422
271.307	-97.22171
271.838	-63.14144
272.37	-130.30377
272.902	-92.19801
273.433	-100.2067
273.965	-108.24849
274.496	-88.20668
275.027	-133.31279
275.558	-134.30807
276.089	-198.46337
276.62	-108.26017
277.15	-126.29534
277.681	-145.30126
278.211	-126.29326
278.741	-127.26374
279.272	-143.30903
279.802	-143.33879
280.332	-116.25706
280.861	-69.15498
281.391	-135.28886
281.921	-126.28724
282.45	-84.19674
282.98	-136.33467
283.509	-115.24309
284.038	-81.17204
284.567	-30.06493
285.096	-85.19162
285.625	-154.33016
286.153	-168.37198
286.682	-144.30965
287.21	-123.27672
287.739	-139.30822
288.267	-131.29616
288.795	-103.25304
289.323	-174.38189
289.851	-116.25352
290.378	-130.27281
290.906	-193.43881
291.433	-134.31176
291.961	-136.28653
292.488	-148.34433
293.015	-131.28564
293.542	-155.36481
294.069	-150.34264
294.596	-113.25953
295.122	-133.2943
295.649	-152.31319
296.175	-165.3744
296.702	-143.3229
297.228	-92.20609
297.754	-120.24837
298.28	-138.28895
298.806	-143.31709
299.332	-182.37332
299.857	-169.35331
300.383	-121.28257
300.908	-205.46005
301.433	-143.31828
301.958	-144.30779
302.483	-202.46606
303.008	-121.27422
303.533	-128.30612
304.058	-131.2837
304.582	-183.39665
305.107	-199.47727
305.631	-138.28883
306.155	-173.36793
306.679	-187.39943
307.203	-197.41933
307.727	-186.40444
308.251	-169.38129
308.775	-225.48768
309.298	-222.48498
309.822	-197.45443
310.345	-157.33623
310.868	-202.43923
311.391	-171.38202
311.914	-177.39967
312.437	-135.27698
312.96	-155.32649
313.482	-192.40967
314.005	-228.51912
314.527	-218.51616
315.049	-155.35099
315.571	-211.41744
316.093	-173.38105
316.615	-220.4743
317.137	-213.41349
317.659	-222.48518
318.18	-208.44901
318.702	-220.45453
319.223	-233.42491
319.744	-206.40592
320.265	-256.54835
320.786	-248.53879
321.307	-271.59714
321.828	-228.4516
322.348	-244.5023
322.869	-267.54878
323.389	-516.79143
323.909	-267.53591
324.43	-201.42114
324.95	-251.49448
325.47	-276.58454
325.989	-273.55175
326.509	-354.67329
327.029	-280.53435
327.548	-323.61836
328.067	-277.56189
328.587	-274.57929
329.106	-321.6181
329.625	-280.63157
330.144	-313.60502
330.662	-343.66555
331.181	-352.69264
331.7	-311.60403
332.218	-276.48562
332.736	-308.59264
333.255	-369.71019
333.773	-374.73143
334.291	-318.65375
334.808	-401.73097
335.326	-351.63948
335.844	-413.77232
336.361	-435.89245
336.879	-395.73135
337.396	-387.7391
337.913	-399.72216
338.43	-392.6876
338.947	-389.7224
339.464	-441.73002
339.981	-479.89001
340.497	-464.90358
341.014	-424.79584
341.53	-490.8492
342.046	-454.853
342.562	-423.80826
343.078	-465.83049
343.594	-437.78531
344.11	-473.84871
344.626	-487.92741
345.141	-503.85255
345.657	-424.70516
346.172	-477.84929
346.687	-485.81001
347.202	-510.82821
347.717	-470.80976
348.232	-505.9234
348.747	-553.9191
349.261	-535.80678
349.776	-519.86588
350.29	-612.08069
350.805	-502.88526
351.319	-557.91555
351.833	-630.99859
352.347	-565.92303
352.861	-570.91325
353.374	-548.87197
353.888	-595.00119
354.401	-541.83497
354.915	-639.95634
355.428	-633.07747
355.941	-589.90594
356.454	-587.88158
356.967	-614.97543
357.48	-568.85635
357.993	-614.01106
358.505	-677.10552
359.018	-574.91129
359.53	-597.9188
360.042	-636.9006
360.554	-622.97457
361.066	-713.13331
361.578	-664.90356
362.09	-630.94769
362.602	-637.85115
363.113	-700.0123
363.625	-670.91234
364.136	-656.86351
364.647	-819.15107
365.158	-702.98235
365.669	-681.98006
366.18	-741.05423
366.691	-677.85569
367.201	-732.03515
367.712	-829.10915
368.222	-782.02623
368.733	-773.9107
369.243	-804.96733
369.753	-789.0087
370.263	-815.08383
370.773	-844.16944
371.282	-837.0594
371.792	-973.13212
372.301	-922.14796
372.811	-926.28618
373.32	-995.96203
373.829	-1038.15904
374.338	-1052.03794
374.847	-1010.97546
375.356	-1106.11052
375.865	-1176.89522
376.373	-1178.95865
376.882	-1150.14676
377.39	-1242.10195
377.898	-1400.16691
378.407	-1444.92987
378.915	-1396.73205
379.423	-1431.82269
379.93	-1472.67908
380.438	-1738.88142
380.946	-1701.60613
381.453	-1828.57881
381.96	-1943.40356
382.468	-2181.18961
382.975	-2028.07985
383.482	-2128.83484
383.989	-2317.13195
384.495	-2368.67515
385.002	-2544.24546
385.509	-2679.28496
386.015	-2827.85846
386.521	-2949.8745
387.028	-3072.72356
387.534	-3225.62153
388.04	-3247.64908
388.546	-3651.5289
389.051	-3930.58398
389.557	-4110.73917
390.063	-3937.88032
390.568	-4311.14132
391.073	-4615.86171
391.578	-4764.10483
392.084	-5050.38337
392.589	-5608.44013
393.093	-6172.26655
393.598	-6455.21808
394.103	-6983.16609
394.607	-7551.5458
395.112	-7976.11264
395.616	-8402.67243
396.12	-9546.73605
396.624	-10780.0838
397.128	-11383.47102
397.632	-12222.94649
398.136	-13523.68539
398.639	-15856.83243
399.143	-18422.98174
399.646	-20216.59845
400.15	-22615.03989
400.653	-25761.21186
401.156	-29762.71957
401.659	-35360.26075
402.162	-34142.70133
402.664	-24701.61317
403.167	-10352.19783
403.67	-1658.06609
404.172	0
404.674	0
405.176	0
405.678	0
406.18	0
406.682	0
407.184	0
407.686	0
408.187	0
408.688	0
409.19	-1161.19425
409.691	-13491.0668
410.192	-20618.86564
410.693	-25789.63367
411.194	-29018.80274
411.694	-26957.88992
412.195	-24498.71424
412.696	-23894.56135
413.196	-24488.54206
413.696	-25332.54467
414.196	-23747.61011
414.696	-20726.5467
415.196	-17415.65024
415.696	-11889.7171
416.196	-9568.87792
416.695	-9876.84966
417.195	-10520.9183
417.694	-9891.08251
418.194	-8954.55835
418.693	-9033.45135
419.192	-8727.2475
419.691	-8650.14419
420.19	-8206.70578
420.688	-7664.30929
421.187	-7251.32054
421.685	-6412.33992
422.184	-5454.79356
422.682	-4719.5877
423.18	-4652.75763
423.678	-4411.28463
424.176	-4107.15397
424.674	-3837.45958
425.172	-3385.88328
425.669	-3105.64411
426.167	-2692.71367
426.664	-2610.77275
427.161	-2519.93247
427.659	-2414.26186
428.156	-2300.18622
428.652	-2164.73044
429.149	-2091.76521
429.646	-1937.73573
430.143	-1751.04085
430.639	-1770.19268
431.135	-1736.48415
431.632	-1635.40592
432.128	-1502.56604
432.624	-1578.87839
433.12	-1628.64383
433.616	-1490.56104
434.111	-1572.84025
434.607	-1436.86808
435.103	-1343.70216
435.598	-1232.63627
436.093	-1246.00013
436.588	-1124.88053
437.083	-1098.94176
437.578	-1030.95069
438.073	-1161.28084
438.568	-972.10292
439.062	-952.86757
439.557	-937.07613
440.051	-1011.129
440.546	-960.07435
441.04	-1001.26771
441.534	-920.27289
442.028	-853.10302
442.522	-927.23124
443.015	-847.98006
443.509	-853.1892
444.002	-871.2253
444.496	-817.98198
444.989	-845.21273
445.482	-879.30833
445.975	-901.1782
446.468	-871.07527
446.961	-802.97539
447.454	-790.04936
447.947	-814.14583
448.439	-854.30369
448.931	-809.08584
449.424	-797.2796
449.916	-790.20706
450.408	-861.21193
450.9	-844.30745
451.392	-856.41636
451.884	-805.19483
452.375	-821.32648
452.867	-716.04389
453.358	-804.17635
453.849	-748.00921
454.341	-750.09703
454.832	-742.02815
455.323	-800.31759
455.814	-726.11287
456.304	-719.11025
456.795	-693.05867
457.285	-605.89772
457.776	-626.97572
458.266	-715.1684
458.756	-684.14791
459.247	-735.22131
459.737	-748.25562
460.226	-652.00558
460.716	-705.19906
461.206	-679.16905
461.695	-683.25382
462.185	-642.09018
462.674	-641.07117
463.163	-628.00554
463.653	-561.83285
464.142	-649.15364
464.63	-628.14889
465.119	-665.14732
465.608	-605.03081
466.096	-621.0195
466.585	-532.92105
467.073	-566.03315
467.561	-539.98758
468.05	-570.01895
468.538	-520.98377
469.026	-483.88227
469.513	-558.9047
470.001	-555.97749
470.489	-547.00773
470.976	-497.89454
471.463	-491.96731
471.951	-503.00642
472.438	-524.98116
472.925	-509.9453
473.412	-438.86512
473.899	-494.92132
474.385	-468.93565
474.872	-464.87351
475.359	-523.05376
475.845	-438.73167
476.331	-430.76856
476.817	-456.92603
477.303	-385.731
477.789	-411.82074
478.275	-449.9324
478.761	-434.88135
479.247	-410.77335
479.732	-468.98853
480.218	-453.00694
480.703	-438.93125
481.188	-437.80064
481.673	-434.8528
482.158	-477.86822
482.643	-382.84046
483.128	-423.82942
483.612	-417.84625
484.097	-366.77819
484.581	-306.61007
485.066	-417.88719
485.55	-396.75538
486.034	-366.68662
486.518	-358.72768
487.002	-405.86953
487.486	-325.68907
487.969	-389.8377
488.453	-391.88063
488.936	-340.67344
489.42	-338.66196
489.903	-315.70368
490.386	-813.36245
490.869	-291.56114
491.352	-306.67072
491.835	-289.53079
492.318	-363.73633
492.8	-355.66319
493.283	-363.83128
493.765	-374.83356
494.247	-280.58912
494.73	-347.69648
495.212	-276.60242
495.694	-318.66819
496.175	-410.88766
496.657	-284.60859
497.139	-292.46712
497.62	-388.84075
498.102	-370.84101
498.583	-297.67716
499.064	-356.72659
499.545	-314.65455
500.026	-334.68602
500.507	-334.71325
500.988	-310.70579
501.469	-355.81785
501.949	-308.70067
502.43	-307.66426
502.91	-320.60832
503.39	-304.70248
503.87	-305.65626
504.35	-306.66931
504.83	-324.65587
505.31	-343.77001
505.79	-326.71968
506.269	-293.63316
506.749	-348.73895
507.228	-303.65477
507.707	-279.56879
508.187	-282.62438
508.666	-317.71954
509.145	-349.76061
509.623	-337.73851
510.102	-301.67713
510.581	-258.57672
511.059	-305.70689
511.538	-279.66962
512.016	-258.56934
512.494	-274.61779
512.972	-320.7147
513.45	-364.78909
513.928	-297.66895
514.406	-343.76843
514.884	-300.71741
515.361	-284.63247
515.839	-316.67452
516.316	-282.63114
516.793	-295.69939
517.27	-282.64076
517.747	-283.67534
518.224	-292.63464
518.701	-274.57092
519.178	-356.83143
519.654	-262.58397
520.131	-306.71075
520.607	-264.61297
521.083	-320.69105
521.56	-272.60123
522.036	-252.5183
522.512	-250.57748
522.987	-273.60382
523.463	-281.62696
523.939	-285.65871
524.414	-227.48991
524.89	-262.58324
525.365	-256.54337
525.84	-330.73977
526.315	-267.60262
526.79	-214.44927
527.265	-250.53481
527.74	-252.57469
528.215	-271.60165
528.689	-271.5658
529.164	-269.55364
529.638	-277.67189
530.112	-277.61446
530.587	-258.517
531.061	-260.58766
531.534	-232.52801
532.008	-278.63013
532.482	-242.52374
532.956	-294.70629
533.429	-242.55121
533.903	-214.44491
534.376	-247.51546
534.849	-268.58893
535.322	-227.50313
535.795	-210.48027
536.268	-234.52804
536.741	-286.65405
537.213	-219.47609
537.686	-232.52929
538.158	-253.53361
538.631	-224.51331
539.103	-277.58859
539.575	-197.38645
540.047	-235.48846
540.519	-191.42758
540.991	-204.46898
541.463	-226.51519
541.934	-192.41091
542.406	-205.45665
542.877	-214.45403
543.348	-156.35031
543.82	-204.46992
544.291	-168.36639
544.762	-180.39655
545.233	-199.46471
545.703	-223.4629
546.174	-186.40324
546.645	-203.44919
547.115	-183.40882
547.585	-193.41368
548.056	-194.43098
548.526	-165.35565
548.996	-144.31791
549.466	-129.28902
549.935	-178.38557
550.405	-127.25231
550.875	-83.17645
551.344	-78.16831
551.814	-70.1443
552.283	-22.04255
552.752	-52.10715
553.221	-23.0438
553.69	-25.04893
554.159	17.03631
554.628	11.02133
555.096	37.0815
555.565	121.22973
556.033	186.37221
556.502	147.30623
556.97	181.34214
557.438	249.49932
557.906	310.61776
558.374	360.68403
558.842	380.75162
559.31	459.83248
559.777	501.97448
560.245	642.18048
560.712	639.1564
561.18	774.27252
561.647	774.29514
562.114	922.51417
562.581	952.71951
563.048	1052.70844
563.514	1069.85552
563.981	1196.84936
564.448	1374.95956
564.914	1439.12607
565.381	1635.2085
565.847	1750.37668
566.313	1810.39032
566.779	1977.35219
567.245	2074.53077
567.711	2295.6976
568.176	2389.41995
568.642	2581.96781
569.108	2784.88116
569.573	3039.65774
570.038	3128.05723
570.504	3346.26512
570.969	3535.87134
571.434	3733.97787
571.899	3983.34041
572.363	4152.99225
572.828	4239.99493
573.293	4573.79944
573.757	4829.66
574.222	4958.39537
574.686	5132.32164
575.15	5447.51879
575.614	5526.2812
576.078	5660.34888
576.542	5910.11132
577.006	6110.00009
577.469	6212.52264
577.933	6319.91847
578.396	6495.23003
578.86	6503.1826
579.323	6611.21616
579.786	6655.79733
580.249	6617.00387
580.712	6523.38349
581.175	6504.42311
581.637	6629.09897
582.1	6662.89363
582.563	6625.80819
583.025	6479.3321
583.487	6394.5313
583.95	6269.76219
584.412	6324.69922
584.874	6224.39506
585.336	6153.278
585.797	5954.86617
586.259	5777.40191
586.721	5642.39475
587.182	5675.41445
587.643	5493.30079
588.105	5354.60136
588.566	5320.99018
589.027	5038.84714
589.488	4801.68103
589.949	4806.05566
590.41	4589.95974
590.87	4474.89567
591.331	4352.64998
591.791	4101.12554
592.252	4023.09797
592.712	3980.45467
593.172	3828.13406
593.632	3738.06081
594.092	3502.23728
594.552	3417.08952
595.011	3311.43403
595.471	3241.34806
595.931	3049.37742
596.39	2963.74856
596.849	2820.62909
597.308	2675.33006
597.768	2648.07471
598.227	2535.80054
598.685	2472.58951
599.144	2361.62886
599.603	2296.67663
600.062	2165.1517
600.52	2219.38921
600.978	2198.65034
601.437	1986.43863
601.895	1943.13967
602.353	1932.3027
602.811	1898.28036
603.269	1813.5044
603.727	1684.41737
604.184	1647.1832
604.642	1664.47973
605.099	1549.21618
605.557	1536.36359
606.014	1528.97348
606.471	1405.29113
606.928	1367.834
607.385	1365.16262
607.842	1351.00082
608.299	1383.08949
608.755	1279.07047
609.212	1288.8679
609.668	1194.76149
610.125	1227.03026
610.581	1287.07652
611.037	1214.90474
611.493	1189.95845
611.949	1077.8537
612.405	1110.50816
612.861	1102.85817
613.316	1031.78653
613.772	1046.72814
614.227	957.66932
614.683	992.54045
615.138	964.66436
615.593	919.59528
616.048	872.51548
616.503	952.765
616.958	899.71828
617.412	845.53477
617.867	868.44262
618.321	897.3838
618.776	849.43538
619.23	843.52648
619.684	819.43628
620.138	857.54165
620.592	766.47747
621.046	779.44836
621.5	727.41924
621.954	756.35507
622.407	679.2252
622.861	706.3909
623.314	656.22321
623.768	630.2101
624.221	640.02248
624.674	630.19905
625.127	586.14818
625.58	634.20258
626.033	649.1865
626.485	535.08837
626.938	606.21207
627.39	580.13961
627.843	588.14884
628.295	576.12908
628.747	515.05523
629.199	546.06108
629.651	533.03848
630.103	514.01635
630.555	522.95233
631.006	477.98126
631.458	477.98745
631.909	502.01021
632.361	472.9712
632.812	457.93293
633.263	430.82542
633.714	482.90963
634.165	411.89723
634.616	419.89532
635.067	455.90186
635.518	438.93855
635.968	442.79327
636.419	392.77317
636.869	410.88387
637.319	403.84398
637.769	345.70781
638.219	433.93684
638.669	375.81761
639.119	407.90503
639.569	366.81067
640.019	404.85262
640.468	344.71007
640.918	409.90079
641.367	359.74286
641.816	350.72407
642.265	390.82777
642.714	349.74802
643.163	312.67031
643.612	306.68485
644.061	368.71628
644.51	294.62811
644.958	341.69581
645.406	354.78507
645.855	350.79813
646.303	351.76399
646.751	282.6043
647.199	397.83104
647.647	347.74277
648.095	375.79507
648.543	350.66892
648.99	360.79904
649.438	368.80524
649.885	353.81552
650.333	338.61252
650.78	318.72137
651.227	331.75466
651.674	337.71887
652.121	329.75162
652.568	358.8111
653.015	342.8122
653.461	346.76989
653.908	378.81978
654.354	342.76698
654.801	296.65674
655.247	299.62287
655.693	343.84067
656.139	308.69869
656.585	398.8874
657.031	329.72098
657.477	286.58717
657.922	337.72979
658.368	353.8194
658.813	406.87975
659.259	320.7262
659.704	320.70525
660.149	381.82963
660.594	400.88485
661.039	303.65645
661.484	375.84184
661.929	380.83325
662.373	300.72015
662.818	354.82805
663.262	296.67937
663.707	336.80654
664.151	390.89363
664.595	381.86232
665.039	361.84856
665.483	374.89671
665.927	398.87896
666.371	318.69879
666.814	380.85498
667.258	357.7965
667.701	476.94812
668.145	423.98533
668.588	373.86445
669.031	332.74119
669.474	404.91306
669.917	423.87606
670.36	376.88088
670.803	452.01406
671.245	422.83117
671.688	399.91699
672.13	348.74057
672.573	423.00674
673.015	412.92924
673.457	440.89272
673.899	420.9554
674.341	416.94285
674.783	405.9129
675.225	379.88183
675.666	384.8707
676.108	373.76802
676.549	438.97172
676.991	418.86513
677.432	380.715
677.873	472.01294
678.314	456.01383
678.755	435.99171
679.196	452.96519
679.637	507.14443
680.078	459.00128
680.518	464.00772
680.959	458.02207
681.399	431.00143
681.839	461.04551
682.28	435.00438
682.72	349.76222
683.16	461.06958
683.6	473.00309
684.039	462.89584
684.479	432.99539
684.919	431.93012
685.358	505.18706
685.798	436.07196
686.237	506.13218
686.676	508.08988
687.115	489.06505
687.554	514.12551
687.993	540.09332
688.432	492.04051
688.871	520.08399
689.309	505.11438
689.748	564.07165
690.186	572.24745
690.625	523.12766
691.063	492.09356
691.501	550.24795
691.939	558.27431
692.377	546.22181
692.815	501.10784
693.253	571.25447
693.69	600.19007
694.128	584.28656
694.565	593.28484
695.003	590.3653
695.44	617.30847
695.877	586.24183
696.314	617.19335
696.751	676.37416
697.188	583.21582
697.625	615.27697
698.061	677.44897
698.498	698.50393
698.934	679.46014
699.371	621.31753
699.807	672.41936
700.243	677.45397
700.679	696.39623
701.115	735.52648
701.551	711.48314
701.987	753.4805
702.422	709.49073
702.858	734.54098
703.294	779.53386
703.729	744.60587
704.164	751.58882
704.599	755.46633
705.035	791.52906
705.47	740.58565
705.904	778.57747
706.339	864.72018
706.774	770.57402
707.209	769.54466
707.643	785.6449
708.078	827.74289
708.512	783.71352
708.946	849.75173
709.38	857.74139
709.814	874.69982
710.248	863.80768
710.682	896.81039
711.116	858.75094
711.549	837.87936
711.983	845.67256
712.416	893.79651
712.85	853.83619
713.283	935.86299
713.716	950.02109
714.149	938.88583
714.582	861.64474
715.015	939.99633
715.448	863.87756
715.881	930.69933
716.313	878.75213
716.746	855.72313
717.178	864.77992
717.61	874.90992
718.043	881.88514
718.475	868.80416
718.907	908.96839
719.339	834.61731
719.77	843.71525
720.202	825.81457
720.634	794.6817
721.065	835.70434
721.497	811.72782
721.928	777.66893
722.359	762.60755
722.79	765.60154
723.221	778.72009
723.652	795.80179
724.083	728.43968
724.514	687.40068
724.945	704.46495
725.375	665.37418
725.806	664.48985
726.236	692.5876
726.666	689.45054
727.096	667.46686
727.526	646.47963
727.956	642.30495
728.386	618.37803
728.816	618.41714
729.246	577.27722
729.675	540.22077
730.105	559.26095
730.534	558.1927
730.964	573.3267
731.393	602.36111
731.822	534.25849
732.251	553.28944
732.68	556.19919
733.109	490.12105
733.537	499.11534
733.966	436.01606
734.395	473.01488
734.823	514.06814
735.251	428.97004
735.68	470.09931
736.108	449.06465
736.536	454.00018
736.964	455.98653
737.392	454.06306
737.82	468.04658
738.247	427.96287
738.675	439.98587
739.102	369.87782
739.53	351.85421
739.957	381.93204
740.384	421.98067
740.811	389.93674
741.238	359.83596
741.665	381.83773
742.092	377.85639
742.519	299.71379
742.945	333.76657
743.372	291.69656
743.798	331.81697
744.225	262.60568
744.651	318.7677
745.077	318.76277
745.503	282.66664
745.929	328.75521
746.355	344.82009
746.781	288.69056
747.207	232.53164
747.632	211.50432
748.058	288.69529
748.483	249.55901
748.908	280.67394
749.334	286.67976
749.759	240.5524
750.184	213.49759
750.609	259.61926
751.033	258.59406
751.458	266.58011
751.883	268.64506
752.307	208.48086
752.732	172.42403
753.156	228.55067
753.58	245.56785
754.005	225.55906
754.429	184.42673
754.853	188.45869
755.277	207.4813
755.7	181.44301
756.124	173.4239
756.548	182.4256
756.971	213.51026
757.394	198.50136
757.818	181.45906
758.241	186.46477
758.664	186.46259
759.087	142.31533
759.51	143.35351
759.933	149.35573
760.356	174.44029
760.778	199.48091
761.201	158.38104
761.623	198.4728
762.046	190.44465
762.468	198.46827
762.89	194.47139
763.312	182.43842
763.734	136.32575
764.156	130.31955
764.578	156.35634
765	149.36076
765.421	116.29343
765.843	140.36418
766.264	196.46605
766.686	149.37118
767.107	123.29714
767.528	87.21988
767.949	147.37058
768.37	107.26248
768.791	176.42043
769.212	99.24842
769.632	95.22185
770.053	98.25772
770.473	149.3594
770.894	161.39888
771.314	131.3118
771.734	123.28589
772.154	160.40616
772.575	127.29355
772.994	88.20077
773.414	154.36661
773.834	71.17835
774.254	100.24481
774.673	124.30086
775.093	111.27391
775.512	101.24859
775.931	137.34463
776.351	98.2432
776.77	116.2825
777.189	112.26591
777.607	85.21727
778.026	101.25124
778.445	46.11599
778.864	115.29374
779.282	114.27347
779.701	152.379
780.119	60.15237
780.537	88.21966
780.955	113.2864
781.373	84.20808
781.791	94.21152
782.209	149.34029
782.627	44.11665
783.045	108.24799
783.462	93.2373
783.88	58.15067
784.297	73.1841
784.715	96.24586
785.132	96.23222
785.549	90.22498
785.966	82.20639
786.383	109.26709
786.8	102.23666
787.217	69.1643
787.633	63.1578
788.05	187.43652
788.466	165.38395
788.883	66.16873
789.299	81.19538
789.715	84.20434
790.131	89.22115
790.547	105.26129
790.963	110.27179
791.379	89.22469
791.795	108.24581
792.21	117.27215
792.626	77.18313
793.041	104.25574
793.457	105.25853
793.872	71.1675
794.287	59.14146
794.702	119.29138
795.117	96.23781
795.532	58.14588
795.947	105.25193
796.362	127.30112
796.776	115.26824
797.191	82.20075
797.605	24.05698
798.02	114.27576
798.434	134.29583
798.848	81.19944
799.262	40.09992
799.676	155.37317
800.09	80.19687
800.504	96.2324
800.918	49.11434
801.331	130.3377
801.745	88.20207
802.158	72.18018
802.572	123.29613
802.985	135.32317
803.398	90.21434
803.811	107.27369
804.224	82.20402
804.637	56.13403
805.05	111.25595
805.462	68.16746
805.875	67.17378
806.288	51.12362
806.7	54.13626
807.112	85.19702
807.525	93.2289
807.937	37.09211
808.349	90.2249
808.761	87.21366
809.173	70.1699
809.584	89.21954
809.996	43.10591
810.408	44.11407
810.819	77.18116
811.231	15.03912
811.642	42.10076
812.053	50.11949
812.464	135.31737
812.875	82.2092
813.286	49.12661
813.697	153.3528
814.108	93.22653
814.519	108.23943
814.929	126.31838
815.34	66.16038
815.75	56.14267
816.16	99.24564
816.571	102.26351
816.981	96.2259
817.391	98.23563
817.801	43.10736
818.211	105.24896
818.62	78.18761
819.03	119.28921
819.44	97.2522
819.849	113.28263
820.259	108.27465
820.668	25.06201
821.077	67.16649
821.486	70.16876
821.895	103.25314
822.304	84.22195
822.713	88.20748
823.122	77.19196
823.531	70.16607
823.939	69.1682
824.348	47.11483
824.756	101.25161
825.164	77.19356
825.573	71.1781
825.981	108.26606
826.389	124.30851
826.797	90.22457
827.205	53.12212
827.612	62.15325
828.02	69.16209
828.428	103.26068
828.835	97.25393
829.243	120.28337
829.65	46.11482
830.057	71.1723
830.464	75.18255
830.871	115.27309
831.278	107.25683
831.685	85.18927
832.092	93.2267
832.499	78.17047
832.905	63.15962
833.312	102.23131
833.718	115.28409
834.124	102.23168
834.531	135.33618
834.937	71.18206
835.343	116.27742
835.749	143.32935
836.155	85.22176
836.561	56.13801
836.966	113.27401
837.372	83.21059
837.777	79.1963
838.183	101.22321
838.588	72.17855
838.993	79.19193
839.399	56.13715
839.804	17.0418
840.209	97.24541
840.613	59.13154
841.018	87.21941
841.423	94.23981
841.828	65.16434
842.232	116.28472
842.637	67.15806
843.041	48.12332
843.445	79.19759
843.849	63.15598
844.253	54.12865
844.657	49.12366
845.061	71.16098
845.465	29.07051
845.869	93.21496
846.272	42.10267
846.676	95.22846
847.079	62.15762
847.483	86.21366
847.886	107.25829
848.289	49.13097
848.692	49.12437
849.095	98.23384
849.498	126.31577
849.901	102.23225
850.304	100.23733
850.707	93.23579
851.109	100.25133
851.512	62.15235
851.914	44.11118
852.316	66.16677
852.718	24.06233
853.121	81.19774
853.523	117.27054
853.925	72.18736
854.326	27.0679
854.728	62.15934
855.13	31.08032
855.531	76.18107
855.933	80.1914
856.334	42.10503
856.736	77.17195
857.137	79.18304
857.538	56.14085
857.939	35.08684
858.34	85.20619
858.741	87.22628
859.142	102.2431
859.542	37.09795
859.943	79.19559
860.343	43.10677
860.744	56.13674
861.144	76.18481
861.544	40.09647
861.945	87.22058
862.345	93.22602
862.745	31.07742
863.145	112.26509
863.544	58.14656
863.944	78.18362
864.344	61.15147
864.743	120.29442
865.143	95.2424
865.542	70.16203
865.941	65.16069
866.34	115.27256
866.74	60.16093
867.139	85.20247
867.537	119.29989
867.936	58.13961
868.335	97.24506
868.734	45.11523
869.132	66.15313
869.531	123.29388
869.929	52.11869
870.327	71.16977
870.726	81.20113
871.124	125.28835
871.522	74.18792
871.92	110.26869
872.318	94.22824
872.715	107.26248
873.113	69.16776
873.511	41.10244
873.908	-11.0281
874.306	56.13928
874.703	75.18704
875.1	93.23638
875.497	54.12954
875.894	39.09585
876.291	79.19308
876.688	70.18009
877.085	81.19346
877.482	52.13027
877.878	75.17988
878.275	92.23222
878.671	75.16645
879.068	110.26287
879.464	82.19724
879.86	55.13011
880.256	102.24961
880.652	83.21007
881.048	134.32731
881.444	124.29134
881.84	75.18995
882.236	67.16812
882.631	64.15685
883.027	97.23309
883.422	95.24121
883.817	33.08325
884.213	61.15636
884.608	42.10324
885.003	33.0799
885.398	32.08043
885.793	122.30254
886.188	52.12933
886.582	99.25199
886.977	119.27899
887.371	59.14911
887.766	14.03507
888.16	86.21343
888.554	118.28845
888.949	92.22948
889.343	120.28962
889.737	36.09621
890.131	90.22433
890.525	96.2437
890.918	104.25941
891.312	104.24654
891.706	84.21926
892.099	122.30673
892.492	61.13148
892.886	31.07619
893.279	80.20287
893.672	25.06397
894.065	107.26539
894.458	96.23963
894.851	128.30939
895.244	51.13032
895.637	99.23645
896.029	71.17307
896.422	97.23513
896.814	29.07243
897.206	44.10499
897.599	132.32183
897.991	89.21379
898.383	56.13229
898.775	85.19068
899.167	16.03759
899.559	124.30997
899.951	118.27475
900.342	88.22244
900.734	38.09455
901.125	102.26543
901.517	51.12525
901.908	104.24702
902.299	48.11747
902.69	69.16234
903.082	103.24713
903.473	46.11031
903.863	66.16802
904.254	72.16652
904.645	78.19315
905.036	46.11153
905.426	92.20905
905.817	86.20976
906.207	39.09318
906.597	52.12165
906.987	102.26214
907.378	36.09132
907.768	77.20274
908.158	64.15575
908.547	54.13946
908.937	87.22191
909.327	74.17901
909.717	99.24931
910.106	95.22638
910.495	129.31762
910.885	107.26839
911.274	66.16457
911.663	113.28375
912.052	77.18917
912.441	52.13224
912.83	95.21626
913.219	128.33068
913.608	64.15645
913.997	22.05545
914.385	106.2507
914.774	61.14831
915.162	76.1803
915.55	96.23038
915.939	70.17612
916.327	98.24258
916.715	62.15773
917.103	101.24639
917.491	80.19694
917.878	81.19811
918.266	66.17074
918.654	86.2184
919.041	40.10463
919.429	94.22008
919.816	80.20179
920.203	84.20251
920.591	70.17302
920.978	97.23557
921.365	85.22176
921.752	85.20138
922.139	126.26931
922.525	78.1864
922.912	87.21081
923.299	81.20025
923.685	88.22813
924.072	143.32382
924.458	65.16063
924.844	67.16533
925.231	42.09795
925.617	41.10447
926.003	61.15565
926.389	40.10111
926.774	69.17432
927.16	113.27751
927.546	54.13776
927.931	81.20105
928.317	97.22144
928.702	89.20907
929.088	51.12064
929.473	83.20999
929.858	28.06799
930.243	67.16033
930.628	79.19121
931.013	83.20451
931.398	86.19645
931.783	94.2457
932.167	98.23751
932.552	85.21167
932.937	88.21695
933.321	37.09308
933.705	60.15102
934.09	113.28242
934.474	85.2006
934.858	58.15026
935.242	46.10673
935.626	95.24129
936.009	43.11451
936.393	87.21996
936.777	40.10262
937.16	55.143
937.544	100.23339
937.927	47.11934
938.311	126.3033
938.694	90.23644
939.077	50.11972
939.46	129.31222
939.843	96.19834
940.226	96.24431
940.609	47.10799
940.991	54.13738
941.374	58.14157
941.757	117.2852
942.139	72.16102
942.522	70.16485
942.904	64.15347
943.286	95.2395
943.668	67.17306
944.05	115.27991
944.432	69.1697
944.814	131.3179
945.196	27.06609
945.578	62.14703
945.959	53.12416
946.341	134.3239
946.722	95.22107
947.104	93.22051
947.485	55.12789
947.866	89.22268
948.247	57.14365
948.628	92.22271
949.009	80.20381
949.39	70.17366
949.771	79.18275
950.152	53.13002
950.532	17.04207
950.913	90.21549
951.293	35.09478
951.674	82.19716
952.054	90.22139
952.434	87.21453
952.814	98.23106
953.194	112.29005
953.574	81.19841
953.954	67.15861
954.334	81.20076
954.714	33.08068
955.093	116.28176
955.473	66.16457
955.853	81.20857
956.232	93.25315
956.611	133.31401
956.99	78.19505
957.37	87.22027
957.749	84.19913
958.128	84.21036
958.506	78.20137
958.885	76.19095
959.264	79.19258
959.643	71.16091
960.021	79.19473
960.4	85.19131
960.778	102.24887
961.156	83.20684
961.535	114.2624
961.913	107.24762
962.291	39.10025
962.669	73.18417
963.047	80.20309
963.424	51.13013
963.802	65.15939
964.18	99.24833
964.557	127.28806
964.935	76.17919
965.312	63.16369
965.69	104.25791
966.067	77.18658
966.444	79.19365
966.821	63.16205
967.198	127.30367
967.575	96.23406
967.952	114.26533
968.329	57.13853
968.705	128.26991
969.082	88.22419
969.458	10.02417
969.835	71.17217
970.211	45.11559
970.587	79.19566
970.963	95.24181
971.339	53.13832
971.715	102.2523
972.091	80.19592
972.467	96.23746
972.843	67.16576
973.219	79.18868
973.594	46.1204
973.97	122.28641
974.345	72.1716
974.721	94.22576
975.096	85.20433
975.471	96.22573
975.846	76.18169
976.221	47.11942
976.596	43.10321
976.971	99.24223
977.346	108.24859
977.72	100.25251
978.095	101.25871
978.469	121.2849
978.844	106.26383
979.218	42.10083
979.593	84.19997
979.967	66.16032
980.341	90.20559
980.715	61.1534
981.089	78.19428
981.463	71.16235
981.837	70.17041
982.21	97.22367
982.584	84.20159
982.957	62.15448
983.331	119.27757
983.704	63.15443
984.078	38.09386
984.451	92.22806
984.824	48.11694
985.197	111.26653
985.57	128.31649
985.943	84.20618
986.316	131.31706
986.688	38.09185
987.061	92.21388
987.434	44.11477
987.806	118.28253
988.179	80.18767
988.551	94.23659
988.923	62.15235
989.295	119.29365
989.667	35.08385
990.039	52.12844
990.411	92.20999
990.783	107.24358
991.155	70.16754
991.527	102.24878
991.898	39.09737
992.27	29.07201
992.641	99.24618
993.012	77.18024
993.384	110.25935
993.755	63.16024
994.126	71.1701
994.497	44.10812
994.868	81.18492
995.239	86.20701
995.61	60.15069
995.98	42.10217
996.351	37.09184
996.722	49.11367
997.092	66.15579
997.462	46.10753
997.833	42.09972
998.203	93.22365
998.573	81.20054
998.943	56.13116
999.313	82.19529
999.683	40.09618
1000.053	88.20094
1000.423	109.26193
1000.792	80.20625
1001.162	67.16436
1001.531	42.1037
1001.901	59.14682
1002.27	91.2017
1002.639	75.19077
1003.009	74.17515
1003.378	42.10753
1003.747	83.19482
1004.116	68.16213
1004.485	77.18306
1004.853	115.28794
1005.222	83.20805
1005.591	92.21666
1005.959	46.10372
1006.328	52.11696
1006.696	88.2107
1007.064	106.26392
1007.433	92.22815
1007.801	74.18082
1008.169	77.19349
1008.537	77.16953
1008.905	64.14867
1009.273	115.28064
1009.64	30.07183
1010.008	83.19657
1010.375	126.30157
1010.743	140.31748
1011.11	62.14635
1011.478	66.16283
1011.845	86.2008
1012.212	83.18658
1012.579	106.25747
1012.946	89.21021
1013.313	120.28172
1013.68	97.2159
1014.047	84.19882
1014.414	61.14374
1014.78	45.1119
1015.147	132.31424
1015.513	65.15614
1015.88	117.29559
1016.246	92.22531
1016.612	96.2177
1016.978	92.22364
1017.344	44.10884
1017.71	108.26046
1018.076	97.22661
1018.442	122.30981
1018.808	59.14719
1019.174	63.15763
1019.539	135.30545
1019.905	65.15281
1020.27	60.14776
1020.636	88.20942
1021.001	107.25331
1021.366	47.1129
1021.731	102.25985
1022.096	45.11357
1022.461	91.2136
1022.826	77.18201
1023.191	72.18813
1023.556	78.18176
1023.92	78.19074
1024.285	94.22747
1024.649	103.24986
1025.014	83.20429
1025.378	65.16293
1025.742	74.18291
1026.107	138.30645
1026.471	91.21067
1026.835	73.18014
1027.199	55.13222
1027.562	78.18026
1027.926	86.20882
1028.29	90.22604
1028.654	49.11272
1029.017	120.29104
1029.381	68.16182
1029.744	73.18535
1030.107	104.2434
1030.471	84.19974
1030.834	114.25589
1031.197	115.27351
1031.56	97.2267
1031.923	79.20314
1032.286	72.16831
1032.648	105.24838
1033.011	48.11018
1033.374	109.25315
1033.736	62.16261
1034.099	81.1962
1034.461	83.20834
1034.823	38.09479
1035.185	111.27622
1035.548	102.24571
1035.91	88.20917
1036.272	112.25161
1036.634	110.26599
1036.995	78.18226
1037.357	68.1648
1037.719	79.19099
1038.08	76.17947
1038.442	50.11862
1038.803	91.21668
1039.165	106.26469
1039.526	86.20631
1039.887	80.19023
1040.248	17.04212
1040.609	116.28303
1040.97	92.22297
1041.331	75.18894
1041.692	95.21967
1042.053	117.26268
1042.413	82.1898
1042.774	107.25732
1043.134	100.23568
1043.495	59.14799
1043.855	105.25193
1044.215	92.22648
1044.576	50.11949
1044.936	69.15752
1045.296	94.2326
1045.656	108.26204
1046.016	65.15638
1046.375	58.14041
1046.735	65.14683
1047.095	70.16312
1047.454	112.23399
1047.814	90.21459
1048.173	135.31712
1048.533	55.12581
1048.892	48.11519
1049.251	56.14034
1049.61	82.2006
1049.969	78.18276
1050.328	52.11264
1050.687	92.22196
1051.046	115.27645
1051.405	75.18562
1051.763	29.06693
1052.122	46.11474
1052.48	79.19258
1052.839	83.19391
1053.197	62.1455
1053.555	124.27834
1053.914	49.1198
1054.272	95.22759
1054.63	19.0467
1054.988	47.11165
1055.345	83.17737
1055.703	112.26622
1056.061	74.18945
1056.419	55.14216
1056.776	101.24243
1057.134	69.15904
1057.491	121.29891
1057.848	94.232
1058.206	61.14307
1058.563	67.14708
1058.92	70.16061
1059.277	102.24906
1059.634	114.26471
1059.991	138.32486
1060.348	37.08379
1060.704	96.22661
1061.061	108.2479
1061.418	71.17139
1061.774	93.22763
1062.131	42.11113
1062.487	40.09365
1062.843	106.26142
1063.199	110.27039
1063.555	39.0905
1063.911	77.19342
1064.267	130.26617
1064.623	68.16449
1064.979	138.32119
1065.335	70.16658
1065.691	100.23724
1066.046	77.16825
1066.402	53.12026
1066.757	96.24015
1067.112	123.29759
1067.468	62.14595
1067.823	87.20755
1068.178	58.13998
1068.533	101.24234
1068.888	106.25041
1069.243	67.16472
1069.598	75.18125
1069.952	37.08348
1070.307	48.11877
1070.662	89.20956
1071.016	85.18895
1071.371	108.24262
1071.725	92.21818
1072.079	66.15815
1072.434	32.07796
1072.788	86.20324
1073.142	97.23636
1073.496	75.17694
1073.85	70.16158
1074.203	126.30111
1074.557	68.18016
1074.911	100.23623
1075.265	50.11615
1075.618	111.26775
1075.971	94.22154
1076.325	65.16463
1076.678	29.06655
1077.031	95.21285
1077.385	93.20287
1077.738	74.16611
1078.091	58.13158
1078.444	80.18451
1078.796	63.15409
1079.149	106.26075
1079.502	23.05458
1079.855	48.1119
1080.207	109.26541
1080.56	58.14958
1080.912	107.25751
1081.264	93.22195
1081.617	56.13623
1081.969	65.1634
1082.321	83.20127
1082.673	21.04817
1083.025	104.24397
1083.377	-136.30339
1083.728	115.26465
1084.08	59.14693
1084.432	99.23636
1084.783	96.22273
1085.135	63.1574
1085.486	29.06658
1085.838	74.1813
1086.189	70.16914
1086.54	59.14054
1086.891	69.17376
1087.242	100.24099
1087.593	113.27164
1087.944	87.19525
1088.295	124.27742
1088.646	70.16888
1088.996	81.19383
1089.347	71.1734
1089.698	58.13675
1090.048	67.17336
1090.398	86.19787
1090.749	87.20652
1091.099	59.14799
1091.449	82.2029
1091.799	60.14983
1092.149	26.06363
1092.499	106.25564
1092.849	74.18712
1093.199	104.25791
1093.548	94.22378
1093.898	71.17681
1094.248	100.25449
1094.597	14.03593
1094.947	94.24871
1095.296	84.20595
1095.645	103.26522
1095.994	79.18854
1096.343	81.20252
1096.692	40.10516
1097.041	70.18873
1097.39	97.24103
1097.739	100.25745
1098.088	125.33045
1098.437	51.13383
1098.785	73.19589
1099.134	123.32232
1099.482	104.28332
1099.83	99.25775
1100.179	59.15351
1100.527	74.19566
1100.875	77.20246
1101.223	95.25013
1101.571	65.17904
1101.919	42.10978
1102.267	63.17686
1102.615	8.02571
1102.962	31.09957
1103.31	8.0257
1103.658	17.05472
