Data from N2 R11 sample 3_Subt2__1__14-41-52-148.txt Node

Date: Mon Sep 01 14:41:52 PDT 2025
User: uwsun
Spectrometer: HDX01956
Trigger mode: 0
Integration Time (sec): 5.000000E-1
Scans to average: 1
Nonlinearity correction enabled: true
Boxcar width: 0
Storing dark spectrum: false
XAxis mode: Wavelengths
Number of Pixels in Spectrum: 2068
>>>>>Begin Spectral Data<<<<<
194.03	-68.19285
194.578	-75.23934
195.127	-83.26134
195.676	-79.24936
196.225	-22.05858
196.773	-34.09372
197.321	-108.29497
197.87	-44.10975
198.418	-102.25387
198.966	-122.30651
199.513	-175.42371
200.061	-168.4128
200.609	-106.27185
201.156	-134.28294
201.704	-183.4484
202.251	-126.32144
202.798	-163.41091
203.345	-116.27774
203.892	-136.33108
204.438	-97.22349
204.985	-151.34472
205.532	-142.3606
206.078	-108.25523
206.624	-169.4027
207.17	-112.2512
207.716	-96.223
208.262	-94.17938
208.808	-199.47546
209.354	-133.31181
209.899	-91.22191
210.445	-175.42132
210.99	-128.29662
211.535	-99.22437
212.08	-111.24941
212.625	-99.23844
213.17	-100.2439
213.715	-236.51534
214.259	-98.22016
214.804	-82.19484
215.348	-113.25026
215.892	-124.28792
216.436	-58.12901
216.98	-107.22994
217.524	-113.25776
218.068	-105.25519
218.612	-103.25051
219.155	-97.22001
219.698	-108.24879
220.242	-48.1148
220.785	-122.27722
221.328	-101.24335
221.871	-72.17613
222.414	-57.1365
222.956	-154.36083
223.499	-106.23147
224.041	-75.16921
224.583	-47.09813
225.126	-104.22268
225.668	-104.24425
226.21	-56.1347
226.751	-116.24568
227.293	-120.26748
227.835	-91.21393
228.376	-7.01543
228.918	-72.17522
229.459	-117.28115
230	-106.24408
230.541	-103.2303
231.082	-83.19353
231.622	-72.15996
232.163	-111.25962
232.704	-72.17088
233.244	-110.26338
233.784	-75.17735
234.324	-154.32831
234.864	-95.20785
235.404	-58.13244
235.944	-65.14809
236.484	-88.21175
237.023	-115.26243
237.563	-117.26117
238.102	-120.27456
238.641	-120.29323
239.18	-140.31645
239.719	-73.17549
240.258	-114.24841
240.797	-75.17143
241.335	-92.21675
241.874	-64.11781
242.412	-125.28984
242.95	-147.3391
243.488	-79.17291
244.026	-141.31448
244.564	-102.20279
245.102	-108.23324
245.64	-70.1617
246.177	-85.18282
246.715	-56.12833
247.252	-100.22133
247.789	-49.08881
248.326	-136.31354
248.863	-113.23813
249.4	-132.29032
249.936	-46.08983
250.473	-128.28708
251.009	-118.2592
251.546	-136.28943
252.082	-80.16744
252.618	-132.28299
253.154	-128.29486
253.69	-124.26871
254.226	-87.19773
254.761	-77.16462
255.297	-132.27798
255.832	-120.2719
256.367	-113.25484
256.903	-112.23545
257.438	-85.19044
257.972	-91.19328
258.507	-160.3522
259.042	-112.23296
259.576	-137.28184
260.111	-98.21645
260.645	-41.08378
261.179	-153.3428
261.713	-118.25069
262.247	-108.23784
262.781	-116.23191
263.315	-112.26047
263.849	-138.32941
264.382	-109.23938
264.915	-137.30594
265.449	-175.40642
265.982	-102.22113
266.515	-128.29721
267.048	-113.22754
267.58	-108.22584
268.113	-127.26127
268.646	-110.25693
269.178	-160.34184
269.71	-98.2032
270.243	-108.23454
270.775	-112.2696
271.307	-100.2287
271.838	-96.21699
272.37	-147.34463
272.902	-97.20899
273.433	-160.33517
273.965	-144.3337
274.496	-114.2691
275.027	-85.19803
275.558	-147.33883
276.089	-213.49994
276.62	-132.31942
277.15	-106.24749
277.681	-100.20568
278.211	-126.29326
278.741	-159.33256
279.272	-152.32911
279.802	-134.31692
280.332	-160.35781
280.861	-122.277
281.391	-162.34866
281.921	-139.31771
282.45	-139.32906
282.98	-147.36247
283.509	-135.28661
284.038	-176.38156
284.567	-96.2107
285.096	-137.31213
285.625	-169.36349
286.153	-146.32179
286.682	-156.33632
287.21	-156.35333
287.739	-138.30594
288.267	-176.40154
288.795	-123.30329
289.323	-159.34787
289.851	-122.26697
290.378	-149.31399
290.906	-199.453
291.433	-167.39106
291.961	-167.35424
292.488	-153.35631
293.015	-166.36464
293.542	-118.27573
294.069	-165.37804
294.596	-150.34705
295.122	-154.34226
295.649	-130.26654
296.175	-113.2537
296.702	-112.2513
297.228	-110.24732
297.754	-138.28678
298.28	-167.35192
298.806	-207.46511
299.332	-188.38615
299.857	-164.34248
300.383	-135.31613
300.908	-183.40882
301.433	-190.427
301.958	-173.37209
302.483	-207.47807
303.008	-187.42947
303.533	-156.37508
304.058	-103.22173
304.582	-201.43734
305.107	-225.54229
305.631	-171.36051
306.155	-204.43678
306.679	-229.49359
307.203	-234.5021
307.727	-187.4067
308.251	-186.4211
308.775	-248.54017
309.298	-274.60515
309.822	-219.50739
310.345	-195.42103
310.868	-200.4347
311.391	-176.39359
311.914	-215.48923
312.437	-179.3709
312.96	-256.55119
313.482	-214.45879
314.005	-221.50247
314.527	-233.55327
315.049	-246.56734
315.571	-274.55008
316.093	-225.50099
316.615	-231.49919
317.137	-196.37895
317.659	-192.41696
318.18	-244.53078
318.702	-229.47408
319.223	-240.43846
319.744	-244.4851
320.265	-284.612
320.786	-307.67533
321.307	-276.6088
321.828	-259.51673
322.348	-270.55908
322.869	-284.58596
323.389	-302.43381
323.909	-279.56154
324.43	-240.50719
324.95	-293.58293
325.47	-309.65915
325.989	-277.56034
326.509	-385.73778
327.029	-347.67299
327.548	-358.69118
328.067	-321.65768
328.587	-336.72001
329.106	-323.62225
329.625	-294.66504
330.144	-359.70159
330.662	-374.73108
331.181	-383.75915
331.7	-363.71378
332.218	-316.56184
332.736	-340.65926
333.255	-389.75229
333.773	-413.81517
334.291	-372.77406
334.808	-405.73901
335.326	-377.69139
335.844	-416.77851
336.361	-459.94679
336.879	-425.7928
337.396	-415.79797
337.913	-441.80675
338.43	-441.78354
338.947	-477.90527
339.464	-478.79941
339.981	-519.97395
340.497	-475.92742
341.014	-496.94753
341.53	-506.88067
342.046	-519.99076
342.562	-505.98413
343.078	-513.92761
343.594	-513.93993
344.11	-493.88916
344.626	-542.04378
345.141	-523.89128
345.657	-435.72566
346.172	-562.02066
346.687	-517.87108
347.202	-538.88061
347.717	-554.97599
348.232	-585.08922
348.747	-571.95375
349.261	-626.97003
349.776	-593.00759
350.29	-677.21598
350.805	-578.03754
351.319	-610.01561
351.833	-656.04573
352.347	-642.06962
352.861	-586.94319
353.374	-590.95017
353.888	-656.12243
354.401	-647.0281
354.915	-672.01403
355.428	-662.13576
355.941	-666.04597
356.454	-671.03164
356.967	-649.03956
357.48	-653.00802
357.993	-728.23728
358.505	-722.19404
359.018	-667.08549
359.53	-739.1835
360.042	-685.98521
360.554	-717.15273
361.066	-696.10083
361.578	-761.06715
362.09	-707.08653
362.602	-722.99237
363.113	-710.03001
363.625	-752.05011
364.136	-733.99024
364.647	-838.18501
365.158	-774.10658
365.669	-765.12835
366.18	-763.09318
366.691	-824.09404
367.201	-821.19432
367.712	-836.12116
368.222	-864.16582
368.733	-882.0801
369.243	-894.10973
369.753	-825.06806
370.263	-854.15073
370.773	-917.30101
371.282	-912.18504
371.792	-1019.20641
372.301	-1018.31129
372.811	-1053.52342
373.32	-1062.05593
373.829	-1154.34766
374.338	-1090.0933
374.847	-1170.2092
375.356	-1139.15992
375.865	-1256.99769
376.373	-1321.15291
376.882	-1289.3632
377.39	-1325.22239
377.898	-1547.38567
378.407	-1511.0126
378.915	-1501.84872
379.423	-1564.9819
379.93	-1611.82936
380.438	-1810.96883
380.946	-1783.68957
381.453	-1963.719
381.96	-2165.61999
382.468	-2327.31511
382.975	-2272.26971
383.482	-2267.91741
383.989	-2492.2849
384.495	-2561.7891
385.002	-2785.33148
385.509	-2918.3922
386.015	-3008.87996
386.521	-3216.93507
387.028	-3330.75234
387.534	-3468.62836
388.04	-3511.67535
388.546	-3828.52392
389.051	-4162.5565
389.557	-4391.68569
390.063	-4227.79104
390.568	-4557.06325
391.073	-4971.72391
391.578	-5075.98027
392.084	-5413.20955
392.589	-5934.27051
393.093	-6559.05605
393.598	-6943.94225
394.103	-7439.91928
394.607	-8118.30092
395.112	-8491.95418
395.616	-9045.62794
396.12	-10226.96608
396.624	-11428.6255
397.128	-12268.7075
397.632	-13109.25998
398.136	-14723.97796
398.639	-17096.14461
399.143	-19896.46686
399.646	-21573.89915
400.15	-24128.20185
400.653	-27450.33502
401.156	-31679.78626
401.659	-37717.43737
402.162	-36889.62854
402.664	-28043.63905
403.167	-15486.22386
403.67	-2117.54234
404.172	0
404.674	0
405.176	0
405.678	0
406.18	0
406.682	0
407.184	0
407.686	0
408.187	0
408.688	0
409.19	-6341.38344
409.691	-17789.27007
410.192	-24509.9784
410.693	-29104.21911
411.194	-31778.5106
411.694	-29459.36777
412.195	-26946.52392
412.696	-26216.93051
413.196	-26757.72419
413.696	-27441.28751
414.196	-25807.01136
414.696	-22849.32875
415.196	-19232.74299
415.696	-13716.09437
416.196	-10876.52592
416.695	-10959.85591
417.195	-11548.76555
417.694	-10843.25323
418.194	-9781.56189
418.693	-9924.66945
419.192	-9498.87623
419.691	-9371.52859
420.19	-9043.01911
420.688	-8302.18283
421.187	-7811.02783
421.685	-6912.64361
422.184	-5885.84456
422.682	-5183.45772
423.18	-5128.49358
423.678	-4832.05309
424.176	-4489.95655
424.674	-4110.3281
425.172	-3662.76951
425.669	-3422.56082
426.167	-3011.63539
426.664	-2912.73878
427.161	-2750.94227
427.659	-2586.31096
428.156	-2485.2169
428.652	-2368.84375
429.149	-2346.9112
429.646	-2163.84359
430.143	-1991.19923
430.639	-1897.28665
431.135	-1847.58905
431.632	-1758.51331
432.128	-1716.78477
432.624	-1647.96171
433.12	-1795.82324
433.616	-1512.58164
434.111	-1731.03263
434.607	-1632.114
435.103	-1422.78723
435.598	-1341.74937
436.093	-1318.09759
436.588	-1187.96092
437.083	-1188.06268
437.578	-1183.1679
438.073	-1233.39937
438.568	-1161.41468
439.062	-1061.01473
439.557	-1003.18122
440.051	-1096.265
440.546	-1011.15414
441.04	-1007.27801
441.534	-986.39376
442.028	-918.21394
442.522	-1027.4105
443.015	-887.04044
443.509	-890.25575
444.002	-941.35377
444.496	-952.19976
444.989	-942.39366
445.482	-963.47042
445.975	-982.32
446.468	-935.18104
446.961	-894.12224
447.454	-874.19413
447.947	-907.31516
448.439	-859.3133
448.931	-899.24327
449.424	-814.31328
449.916	-794.21463
450.408	-873.23359
450.9	-897.41142
451.392	-928.56639
451.884	-785.15796
452.375	-913.51391
452.867	-755.11422
453.358	-831.22611
453.849	-787.07573
454.341	-827.2388
454.832	-861.23966
455.323	-837.39285
455.814	-753.16361
456.304	-788.24183
456.795	-755.17492
457.285	-718.10057
457.776	-651.02028
458.266	-742.2218
458.756	-704.18801
459.247	-763.27773
459.737	-758.27592
460.226	-716.1254
460.716	-723.23572
461.206	-699.20998
461.695	-699.2884
462.185	-740.29029
462.674	-685.15869
463.163	-636.0207
463.653	-660.0078
464.142	-678.21435
464.63	-631.15527
465.119	-615.04676
465.608	-632.08475
466.096	-590.96203
466.585	-571.99886
467.073	-603.11112
467.561	-604.12272
468.05	-626.13542
468.538	-568.08503
469.026	-595.11556
469.513	-601.9863
470.001	-604.07542
470.489	-612.14609
470.976	-524.94969
471.463	-531.05372
471.951	-522.04909
472.438	-557.04932
472.925	-541.01063
473.412	-484.9663
473.899	-454.8383
474.385	-501.00704
474.872	-454.85258
475.359	-511.02671
475.845	-487.82452
476.331	-434.77651
476.817	-483.98689
477.303	-465.90015
477.789	-464.93797
478.275	-480.00134
478.761	-493.01234
479.247	-418.78999
479.732	-503.06823
480.218	-458.01913
480.703	-455.97097
481.188	-431.78845
481.673	-394.76689
482.158	-449.81144
482.643	-380.83571
483.128	-426.83589
483.612	-422.85737
484.097	-386.82428
484.581	-347.69841
485.066	-405.85941
485.55	-397.75747
486.034	-423.80473
486.518	-425.87705
487.002	-387.82767
487.486	-454.98961
487.969	-436.94837
488.453	-354.79128
488.936	-403.81
489.42	-359.70658
489.903	-342.76824
490.386	-805.34606
490.869	-300.57975
491.352	-343.75767
491.835	-324.60032
492.318	-338.6817
492.8	-339.63079
493.283	-358.81901
493.765	-384.85761
494.247	-281.59136
494.73	-320.63828
495.212	-303.66513
495.694	-380.80936
496.175	-372.79886
496.657	-316.68183
497.139	-239.37654
497.62	-397.8619
498.102	-336.75848
498.583	-330.75739
499.064	-301.60666
499.545	-328.68586
500.026	-296.60276
500.507	-318.67673
500.988	-289.65519
501.469	-357.82279
501.949	-265.59762
502.43	-330.71753
502.91	-345.65984
503.39	-303.70003
503.87	-314.67694
504.35	-238.5131
504.83	-320.64718
505.31	-342.76761
505.79	-306.6727
506.269	-264.56695
506.749	-329.69572
507.228	-311.6732
507.707	-300.61452
508.187	-273.60332
508.666	-346.78997
509.145	-323.70007
509.623	-294.63845
510.102	-280.62718
510.581	-251.56026
511.059	-297.68726
511.538	-264.63182
512.016	-269.59497
512.494	-232.5186
512.972	-241.52949
513.45	-298.63693
513.928	-267.5977
514.406	-316.70402
514.884	-253.5996
515.361	-266.59018
515.839	-242.50828
516.316	-213.46994
516.793	-190.44134
517.27	-188.41904
517.747	-231.54578
518.224	-193.41064
518.701	-165.33546
519.178	-253.57894
519.654	-156.34008
520.131	-218.49756
520.607	-179.40863
521.083	-215.45386
521.56	-240.52696
522.036	-180.36421
522.512	-202.46216
522.987	-205.44699
523.463	-195.42735
523.939	-186.42144
524.414	-159.33815
524.89	-236.52254
525.365	-259.5501
525.84	-269.59547
526.315	-221.49412
526.79	-205.42952
527.265	-210.44535
527.74	-221.50084
528.215	-232.51089
528.689	-216.44546
529.164	-251.5145
529.638	-238.57308
530.112	-228.50061
530.587	-252.50428
531.061	-255.57577
531.534	-171.38438
532.008	-295.67097
532.482	-232.50103
532.956	-307.73933
533.429	-222.50362
533.903	-201.41667
534.376	-257.53752
534.849	-236.51512
535.322	-248.55208
535.795	-240.55218
536.268	-235.5304
536.741	-229.51771
537.213	-260.57015
537.686	-272.62554
538.158	-285.60532
538.631	-253.58313
539.103	-282.59986
539.575	-226.44638
540.047	-216.44706
540.519	-225.50721
540.991	-191.43796
541.463	-233.5319
541.934	-184.39311
542.406	-250.56207
542.877	-209.44294
543.348	-201.45552
543.82	-191.43884
544.291	-203.446
544.762	-215.47713
545.233	-199.46471
545.703	-295.62219
546.174	-225.49184
546.645	-262.58687
547.115	-183.40882
547.585	-172.367
548.056	-241.54061
548.526	-211.45929
548.996	-191.42581
549.466	-181.40986
549.935	-206.44888
550.405	-183.36833
550.875	-184.39975
551.344	-174.38318
551.814	-150.31477
552.283	-101.19907
552.752	-135.28336
553.221	-171.33735
553.69	-115.22986
554.159	-162.35944
554.628	-139.27925
555.096	-81.18283
555.565	-56.11092
556.033	21.04363
556.502	-6.01292
556.97	38.07435
557.438	75.15645
557.906	125.25982
558.374	131.26281
558.842	196.4044
559.31	194.37562
559.777	206.42885
560.245	395.77232
560.712	343.66841
561.18	389.70873
561.647	451.82213
562.114	503.923
562.581	564.11854
563.048	641.16003
563.514	742.39825
563.981	869.47088
564.448	937.51715
564.914	1001.67404
565.381	1170.81736
565.847	1152.86533
566.313	1302.00405
566.779	1490.07599
567.245	1565.24354
567.711	1673.39765
568.176	1830.2591
568.642	1895.70973
569.108	2091.73423
569.573	2258.63225
570.038	2396.17375
570.504	2521.41469
570.969	2779.99389
571.434	2961.26218
571.899	3108.66342
572.363	3349.3607
572.828	3512.34731
573.293	3748.23857
573.757	3915.16344
574.222	4148.84871
574.686	4344.75786
575.15	4493.03687
575.614	4631.74786
576.078	4998.67325
576.542	5158.42928
577.006	5272.30498
577.469	5494.80115
577.933	5529.1305
578.396	5625.46672
578.86	5730.36915
579.323	5749.40513
579.786	5992.82873
580.249	5951.08749
580.712	5921.52612
581.175	5852.59387
581.637	5917.20792
582.1	5858.97842
582.563	5855.88073
583.025	5839.49415
583.487	5668.62576
583.95	5564.93134
584.412	5625.83954
584.874	5543.64141
585.336	5452.53756
585.797	5287.11014
586.259	5218.6602
586.721	5040.69066
587.182	5078.70512
587.643	4918.59196
588.105	4566.03392
588.566	4567.38317
589.027	4366.22563
589.488	4237.99868
589.949	4160.41312
590.41	4027.27714
590.87	3947.18131
591.331	3769.96282
591.791	3739.30429
592.252	3547.32084
592.712	3473.66695
593.172	3392.32118
593.632	3217.27055
594.092	3229.33517
594.552	3018.22174
595.011	2933.52571
595.471	2823.44108
595.931	2714.43046
596.39	2668.76229
596.849	2570.6324
597.308	2484.33563
597.768	2342.00414
598.227	2389.77529
598.685	2345.57116
599.144	2182.58411
599.603	2160.63581
600.062	2143.1479
600.52	2049.34374
600.978	2018.58131
601.437	2005.44641
601.895	1977.15042
602.353	1921.29819
602.811	1892.27779
603.269	1781.48438
603.727	1743.45805
604.184	1750.24407
604.642	1737.5338
605.099	1655.29265
605.557	1622.43513
606.014	1636.03826
606.471	1582.45636
606.928	1558.96409
607.385	1531.31406
607.842	1593.19282
608.299	1531.21454
608.755	1551.32524
609.212	1565.08226
609.668	1523.0295
610.125	1551.34462
610.581	1615.37349
611.037	1607.24494
611.493	1525.28447
611.949	1483.28324
612.405	1510.79556
612.861	1576.32597
613.316	1533.31301
613.772	1563.22541
614.227	1473.22945
614.683	1524.01284
615.138	1582.29698
615.593	1478.19684
616.048	1408.10935
616.503	1496.40626
616.958	1450.40895
617.412	1403.19552
617.867	1420.01246
618.321	1451.88837
618.776	1399.02274
619.23	1334.11976
619.684	1402.09276
620.138	1383.16024
620.592	1266.15323
621.046	1282.09102
621.5	1216.1021
621.954	1222.93393
622.407	1207.89097
622.861	1095.96292
623.314	1136.87127
623.768	1028.78837
624.221	1067.50285
624.674	1016.75535
625.127	1004.77591
625.58	1121.87859
626.033	1030.70536
626.485	951.75396
626.938	1019.84596
627.39	935.68573
627.843	926.66649
628.295	908.64236
628.747	869.64004
629.199	859.54683
629.651	741.37348
630.103	792.46565
630.555	817.37888
631.006	819.55382
631.458	764.47854
631.909	829.54456
632.361	685.34029
632.812	749.42632
633.263	744.31915
633.714	749.32012
634.165	690.4154
634.616	653.32282
635.067	687.28651
635.518	643.315
635.968	696.16683
636.419	711.29616
636.869	623.2798
637.319	588.17927
637.769	606.1684
638.219	648.33572
638.669	583.21312
639.119	618.31201
639.569	550.16949
640.019	592.19606
640.468	574.12197
640.918	582.23334
641.367	524.04246
641.816	600.17011
642.265	567.15516
642.714	532.09332
643.163	506.03979
643.612	461.99869
644.061	526.98539
644.51	516.0475
644.958	515.00762
645.406	517.10565
645.855	564.22842
646.303	531.10966
646.751	474.97356
647.199	544.09993
647.647	532.09135
648.095	488.00724
648.543	514.94342
648.99	466.0095
649.438	540.13672
649.885	501.1212
650.333	517.89435
650.78	508.1058
651.227	497.09303
651.674	505.0361
652.121	482.06509
652.568	437.97414
653.015	518.18616
653.461	460.99928
653.908	503.05987
654.354	458.00058
654.801	429.92541
655.247	480.95964
655.693	487.15934
656.139	462.01316
656.585	522.132
657.031	390.84364
657.477	412.82178
657.922	456.96234
658.368	469.06153
658.813	474.01025
659.259	450.99418
659.704	485.02993
660.149	464.99253
660.594	454.99296
661.039	474.98936
661.484	487.06607
661.929	441.95455
662.373	411.96567
662.818	456.04314
663.262	407.91328
663.707	432.0158
664.151	512.14233
664.595	393.8873
665.039	490.12061
665.483	440.03946
665.927	476.03208
666.371	454.96904
666.814	454.00394
667.258	439.9628
667.701	498.98687
668.145	474.0909
668.588	453.03107
669.031	404.88848
669.474	413.93169
669.917	443.91338
670.36	467.07241
670.803	459.02832
671.245	468.91181
671.688	446.01327
672.13	407.85499
672.573	484.13873
673.015	397.89816
673.457	389.79844
673.899	461.03789
674.341	413.93663
674.783	377.85466
675.225	444.01767
675.666	358.81604
676.108	407.83161
676.549	429.95354
676.991	397.82553
677.432	344.65299
677.873	414.90129
678.314	384.86823
678.755	414.94784
679.196	353.76998
679.637	409.94335
680.078	364.81161
680.518	413.90846
680.959	355.81067
681.399	358.8456
681.839	400.92021
682.28	368.86282
682.72	350.76424
683.16	349.8293
683.6	393.84959
684.039	348.69316
684.479	370.8631
684.919	294.65311
685.358	362.87619
685.798	367.91575
686.237	353.81616
686.676	382.84328
687.115	357.80078
687.554	338.76891
687.993	407.85047
688.432	303.66849
688.871	330.71814
689.309	289.66769
689.748	378.75186
690.186	368.83849
690.625	310.70008
691.063	353.80871
691.501	327.77674
691.939	346.82517
692.377	323.75719
692.815	315.72485
693.253	360.82722
693.69	287.61169
694.128	283.66369
694.565	313.71967
695.003	305.74673
695.44	306.69387
695.877	320.71854
696.314	361.74198
696.751	364.79346
697.188	326.71968
697.625	382.83552
698.061	326.75151
698.498	367.84785
698.934	281.65669
699.371	273.62395
699.807	319.72672
700.243	307.71265
700.679	320.69845
701.115	295.67341
701.551	321.72832
701.987	314.68187
702.422	312.71408
702.858	281.64947
703.294	323.70485
703.729	301.71196
704.164	292.68038
704.599	275.59579
705.035	264.57526
705.47	257.60861
705.904	248.56419
706.339	312.70144
706.774	278.63218
707.209	273.61163
707.643	256.59956
708.078	289.68147
708.512	254.61831
708.946	252.58996
709.38	250.57863
709.814	233.52267
710.248	274.64899
710.682	273.63073
711.116	216.5053
711.549	249.62678
711.983	245.55342
712.416	313.71421
712.85	262.63587
713.283	238.5513
713.716	255.62503
714.149	310.71377
714.582	248.54452
715.015	260.63457
715.448	273.66865
715.881	275.58612
716.313	247.56544
716.746	224.51722
717.178	194.46005
717.61	260.64212
718.043	218.53346
718.475	236.55986
718.907	313.76488
719.339	188.42112
719.77	193.45105
720.202	212.52647
720.634	211.50413
721.065	226.52537
721.497	217.52222
721.928	217.52262
722.359	156.37308
722.79	173.40986
723.221	184.45745
723.652	251.63204
724.083	161.36102
724.514	202.45769
724.945	182.42309
725.375	144.33264
725.806	207.50852
726.236	240.60099
726.666	202.47125
727.096	196.4741
727.526	167.41964
727.956	176.39619
728.386	248.59602
728.816	170.42526
729.246	147.35498
729.675	120.29486
730.105	181.44038
730.534	178.41232
730.964	191.47632
731.393	216.52739
731.822	170.42955
732.251	153.38529
732.68	223.51604
733.109	168.4099
733.537	162.38788
733.966	149.36753
734.395	155.35599
734.823	190.42402
735.251	156.37308
735.68	195.48152
736.108	158.39638
736.536	174.40657
736.964	142.32841
737.392	163.40413
737.82	148.35341
738.247	169.40116
738.675	193.4553
739.102	109.27223
739.53	129.32695
739.957	104.26747
740.384	167.40844
740.811	162.40686
741.238	122.29734
741.665	96.2237
742.092	131.3124
742.519	126.31075
742.945	120.28798
743.372	123.30385
743.798	135.34519
744.225	133.31534
744.651	134.33472
745.077	136.3375
745.503	166.40124
745.929	127.30414
746.355	161.39728
746.781	129.31867
747.207	63.14926
747.632	122.29656
748.058	156.386
748.483	145.33249
748.908	73.18258
749.334	139.33971
749.759	86.20403
750.184	113.26917
750.609	120.29453
751.033	158.37107
751.458	157.35031
751.883	111.27511
752.307	101.23846
752.732	66.16588
753.156	124.30536
753.58	124.29429
754.005	123.3113
754.429	73.17302
754.853	106.26258
755.277	77.18363
755.7	113.28007
756.124	59.14762
756.548	60.14366
756.971	118.2878
757.394	107.27533
757.818	110.2825
758.241	45.11531
758.664	80.2028
759.087	83.18658
759.51	87.21728
759.933	85.20542
760.356	121.30907
760.778	83.20496
761.201	153.36933
761.623	156.3755
762.046	129.30551
762.468	143.3418
762.89	140.34362
763.312	132.32099
763.734	93.22458
764.156	72.17888
764.578	120.2761
765	73.17928
765.421	46.11781
765.843	111.29018
766.264	127.30599
766.686	93.23403
767.107	71.1732
767.528	32.08167
767.949	84.21415
768.37	104.25526
768.791	95.23045
769.212	40.10144
769.632	24.05683
770.053	65.17189
770.473	81.19789
770.894	113.28242
771.314	142.33727
771.734	40.09449
772.154	107.27417
772.575	97.22554
772.994	87.19853
773.414	135.32255
773.834	66.16594
774.254	64.15773
774.673	77.18847
775.093	100.24726
775.512	60.14879
775.931	72.18323
776.351	66.16475
776.77	50.12327
777.189	88.2099
777.607	83.21223
778.026	43.10809
778.445	-1.00254
778.864	62.15984
779.282	63.1526
779.701	86.217
780.119	64.16241
780.537	68.17036
780.955	90.22904
781.373	87.21539
781.791	116.25985
782.209	116.26668
782.627	33.08765
783.045	87.20061
783.462	78.19955
783.88	72.18659
784.297	70.17663
784.715	87.22316
785.132	47.11474
785.549	57.14334
785.966	87.21878
786.383	85.20921
786.8	117.27065
787.217	68.16195
787.633	18.04545
788.05	90.21409
788.466	118.27713
788.883	69.17631
789.299	84.20251
789.715	73.17795
790.131	70.17454
790.547	102.25396
790.963	105.25967
791.379	46.11702
791.795	59.13562
792.21	68.15971
792.626	56.13373
793.041	57.14138
793.457	67.16612
793.872	102.23918
794.287	22.05312
794.702	97.23848
795.117	27.06773
795.532	41.10344
795.947	118.28242
796.362	108.25701
796.776	115.26824
797.191	80.19592
797.605	-7.01672
798.02	60.14661
798.434	127.28079
798.848	24.05971
799.262	57.14195
799.676	93.22653
800.09	77.18959
800.504	117.28211
800.918	57.1328
801.331	71.18631
801.745	55.12713
802.158	84.20975
802.572	124.29848
802.985	80.19352
803.398	143.33709
803.811	92.23595
804.224	105.26015
804.637	58.13877
805.05	31.07262
805.462	57.14066
805.875	42.10941
806.288	100.24016
806.7	57.14375
807.112	63.14666
807.525	90.22164
807.937	27.06734
808.349	119.2958
808.761	78.19187
809.173	38.09279
809.584	71.17572
809.996	51.12543
810.408	25.06502
810.819	26.06178
811.231	17.04432
811.642	12.02895
812.053	47.11238
812.464	84.19944
812.875	56.14352
813.286	110.28122
813.697	186.42607
814.108	97.2361
814.519	118.26106
814.929	117.29612
815.34	94.22721
815.75	51.13004
816.16	88.21879
816.571	86.22279
816.981	104.24435
817.391	72.17397
817.801	56.13948
818.211	102.24199
818.62	57.13765
819.03	102.24869
819.44	103.26752
819.849	105.263
820.259	70.17921
820.668	32.07927
821.077	53.13203
821.486	97.23265
821.895	113.2772
822.304	104.27387
822.713	49.11641
823.122	58.14509
823.531	58.13792
823.939	77.18742
824.348	92.22288
824.756	113.28089
825.164	99.24788
825.573	74.18552
825.981	68.16876
826.389	86.21545
826.797	55.13811
827.205	32.07404
827.612	82.20194
828.02	84.19674
828.428	78.19829
828.835	46.12146
829.243	100.23706
829.65	76.18868
830.057	98.23661
830.464	41.10043
830.871	74.17711
831.278	68.16443
831.685	74.16515
832.092	60.14716
832.499	93.20261
832.905	97.24427
833.312	58.1327
833.718	80.1989
834.124	113.25609
834.531	88.22101
834.937	83.21238
835.343	108.25869
835.749	105.24366
836.155	90.2346
836.561	74.18177
836.966	118.28587
837.372	64.16293
837.777	51.12737
838.183	113.24911
838.588	56.13928
838.993	91.22058
839.399	53.12987
839.804	66.1608
840.209	44.11237
840.613	74.16447
841.018	112.28119
841.423	70.17934
841.828	50.12675
842.232	132.32303
842.637	72.16969
843.041	65.1665
843.445	87.21728
843.849	59.14618
844.253	72.17095
844.657	13.03302
845.061	118.26498
845.465	35.085
845.869	62.14419
846.272	49.11962
846.676	77.18581
847.079	57.14503
847.483	101.25024
847.886	86.20842
848.289	32.08577
848.692	54.13694
849.095	118.28048
849.498	140.34996
849.901	109.24783
850.304	66.15767
850.707	73.18574
851.109	128.32008
851.512	91.22241
851.914	36.0911
852.316	47.11917
852.718	-1.00261
853.121	101.24565
853.523	60.14031
853.925	58.15129
854.326	24.06039
854.728	39.10063
855.13	51.13169
855.531	47.1126
855.933	64.15359
856.334	44.10999
856.736	58.13003
857.137	52.12113
857.538	62.15577
857.939	65.1604
858.34	116.27975
858.741	92.23908
859.142	61.14653
859.542	34.09005
859.943	51.12691
860.343	33.08209
860.744	77.18728
861.144	95.23019
861.544	48.11559
861.945	48.12254
862.345	72.17568
862.745	66.16379
863.145	113.26741
863.544	52.13154
863.944	62.14641
864.344	83.20527
864.743	132.32315
865.143	69.17687
865.542	67.15517
865.941	80.19723
866.34	55.13187
866.74	98.2612
867.139	37.08895
867.537	67.17042
867.936	71.17049
868.335	72.18271
868.734	56.14312
869.132	63.14626
869.531	62.14986
869.929	98.2216
870.327	38.09144
870.726	106.262
871.124	69.16095
871.522	60.15275
871.92	94.23029
872.318	86.20913
872.715	106.26008
873.113	81.19649
873.511	101.2496
873.908	-4.0102
874.306	47.11709
874.703	113.27987
875.1	80.20381
875.497	58.13903
875.894	43.1056
876.291	60.14716
876.688	70.18009
877.085	81.19346
877.482	73.18219
877.878	35.08459
878.275	79.19987
878.671	116.25524
879.068	101.24178
879.464	54.13058
879.86	69.16278
880.256	70.17232
880.652	56.14241
881.048	83.20466
881.444	35.08366
881.84	68.17244
882.236	70.17556
882.631	77.18826
883.027	52.12602
883.422	79.20115
883.817	13.03291
884.213	75.19178
884.608	25.06165
885.003	69.16594
885.398	13.03279
885.793	63.15791
886.188	57.14164
886.582	115.29188
886.977	98.2307
887.371	93.23361
887.766	31.07742
888.16	104.25725
888.554	107.26209
888.949	88.21966
889.343	108.26125
889.737	12.0322
890.131	67.1677
890.525	38.09746
890.918	40.10093
891.312	119.28128
891.706	61.15985
892.099	121.30427
892.492	91.19488
892.886	100.24263
893.279	66.16778
893.672	54.13747
894.065	86.21413
894.458	116.2885
894.851	73.17828
895.244	52.13285
895.637	80.19177
896.029	56.13689
896.422	86.20889
896.814	50.1244
897.206	59.14038
897.599	127.30993
897.991	54.13058
898.383	79.18579
898.775	89.19949
899.167	46.10745
899.559	103.25845
899.951	114.26565
900.342	109.27449
900.734	18.04495
901.125	73.19091
901.517	48.11795
901.908	105.24934
902.299	48.11747
902.69	35.08289
903.082	98.23536
903.473	35.08411
903.863	62.15795
904.254	56.12993
904.645	93.22966
905.036	14.03415
905.426	122.27554
905.817	43.10572
906.207	42.10029
906.597	64.14937
906.987	103.26466
907.378	66.16654
907.768	46.12175
908.158	9.02213
908.547	60.15479
908.937	75.19171
909.327	76.18377
909.717	119.2986
910.106	68.16288
910.495	112.27663
910.885	78.19667
911.274	67.16703
911.663	73.18463
912.052	103.25183
912.441	90.22734
912.83	101.22964
913.219	83.2161
913.608	95.23088
913.997	53.13285
914.385	96.22749
914.774	43.1049
915.162	73.17329
915.55	109.26093
915.939	52.13126
916.327	104.25715
916.715	66.16778
917.103	103.25117
917.491	107.26209
917.878	95.23175
918.266	83.21409
918.654	89.22589
919.041	19.04987
919.429	83.19474
919.816	90.22661
920.203	56.13572
920.591	106.26027
920.978	73.17808
921.365	56.14682
921.752	70.16633
922.139	71.15357
922.525	57.13676
922.912	67.16296
923.299	66.16361
923.685	69.17946
924.072	59.13589
924.458	47.11653
924.844	56.13847
925.231	91.21017
925.617	73.18496
926.003	91.23097
926.389	81.20325
926.774	103.25864
927.16	109.26788
927.546	30.07686
927.931	79.19616
928.317	57.13118
928.702	137.3188
929.088	32.07598
929.473	77.19502
929.858	8.0195
930.243	85.2027
930.628	52.1265
931.013	53.13131
931.398	134.30313
931.783	81.21219
932.167	80.19454
932.552	65.16246
932.937	106.26046
933.321	49.123
933.705	39.09853
934.09	126.31417
934.474	119.27899
934.858	57.14769
935.242	52.12051
935.626	78.19871
936.009	69.18296
936.393	58.1474
936.777	72.18368
937.16	86.22241
937.544	76.17822
937.927	92.23172
938.311	110.26559
938.694	71.18713
939.077	85.20216
939.46	74.18096
939.843	97.20036
940.226	52.13336
940.609	38.08747
940.991	68.17256
941.374	69.16807
941.757	64.15755
942.139	26.0587
942.522	98.22953
942.904	105.24982
943.286	94.23702
943.668	98.25177
944.05	51.12562
944.432	96.23493
944.814	85.20805
945.196	48.11703
945.578	54.12826
945.959	96.223
946.341	124.30029
946.722	122.28238
947.104	83.19718
947.485	106.24399
947.866	61.1534
948.247	32.081
948.628	73.17735
949.009	24.06175
949.39	67.1663
949.771	117.26861
950.152	55.13487
950.532	34.08388
950.913	42.10148
951.293	58.15648
951.674	0
952.054	48.11899
952.434	77.19022
952.814	89.21021
953.194	105.27225
953.574	79.19358
953.954	64.1516
954.334	71.1763
954.714	21.05146
955.093	104.25318
955.473	67.16703
955.853	87.22379
956.232	79.21553
956.611	115.27246
956.99	48.12068
957.37	99.25011
957.749	79.18746
958.128	32.08089
958.506	83.21409
958.885	66.16612
959.264	38.09334
959.643	111.24952
960.021	74.18257
960.4	105.23535
960.778	80.19599
961.156	37.09298
961.535	69.16025
961.913	49.1147
962.291	48.12319
962.669	45.1141
963.047	40.10226
963.424	62.15789
963.802	57.13998
964.18	91.22859
964.557	90.20567
964.935	100.23468
965.312	44.1147
965.69	55.13761
966.067	72.17463
966.444	81.19848
966.821	29.07504
967.198	114.27327
967.575	118.28651
967.952	90.21047
968.329	81.19598
968.705	112.237
969.082	68.17385
969.458	34.08181
969.835	93.22458
970.211	68.17397
970.587	79.19566
970.963	111.28173
971.339	63.16414
971.715	46.11495
972.091	94.22961
972.467	90.22286
972.843	50.12409
973.219	89.21216
973.594	34.08917
973.97	94.22189
974.345	55.13151
974.721	78.1879
975.096	79.19013
975.471	109.25565
975.846	89.21224
976.221	47.11942
976.596	40.09607
976.971	70.1722
977.346	71.16463
977.72	66.16767
978.095	90.23098
978.469	79.18753
978.844	125.31004
979.218	76.18128
979.593	94.22335
979.967	96.23187
980.341	88.2011
980.715	69.17327
981.089	98.2432
981.463	54.1239
981.837	49.11976
982.21	141.32228
982.584	45.10879
982.957	25.06271
983.331	104.2433
983.704	81.19789
984.078	85.20813
984.451	115.28388
984.824	37.09033
985.197	60.14547
985.57	90.22409
985.943	128.31161
986.316	144.34767
986.688	131.31108
987.061	50.1172
987.434	88.22782
987.806	92.22137
988.179	91.21301
988.551	84.2118
988.923	86.21038
989.295	123.30329
989.667	5.01205
990.039	54.13333
990.411	89.20326
990.783	106.24135
991.155	46.1106
991.527	96.23441
991.898	92.22748
992.27	49.12123
992.641	78.1947
993.012	105.24443
993.384	72.17101
993.755	43.10976
994.126	56.13454
994.497	54.13244
994.868	99.22519
995.239	84.20228
995.61	57.14324
995.98	45.10941
996.351	67.16539
996.722	46.10677
997.092	67.15812
997.462	8.01884
997.833	130.30341
998.203	100.24016
998.573	105.25881
998.943	49.11492
999.313	84.19997
999.683	65.15554
1000.053	81.18521
1000.423	130.31114
1000.792	74.19098
1001.162	90.21984
1001.531	92.22506
1001.901	60.14928
1002.27	70.15584
1002.639	59.15049
1003.009	97.22857
1003.378	67.17078
1003.747	68.16008
1004.116	41.09826
1004.485	55.13131
1004.853	85.21398
1005.222	97.24252
1005.591	77.18187
1005.959	38.08582
1006.328	72.16128
1006.696	68.16344
1007.064	106.26392
1007.433	107.26462
1007.801	94.22884
1008.169	82.20587
1008.537	84.18467
1008.905	60.13949
1009.273	104.25432
1009.64	36.0861
1010.008	84.1989
1010.375	162.38506
1010.743	143.32408
1011.11	52.12299
1011.478	64.15796
1011.845	56.13152
1012.212	71.15999
1012.579	95.23123
1012.946	92.21717
1013.313	92.21717
1013.68	71.15888
1014.047	67.15911
1014.414	35.08289
1014.78	59.14634
1015.147	81.19472
1015.513	108.25731
1015.88	89.22597
1016.246	73.17941
1016.612	104.23546
1016.978	80.1949
1017.344	109.2664
1017.71	87.21065
1018.076	111.25861
1018.442	107.27244
1018.808	47.11751
1019.174	39.098
1019.539	148.33398
1019.905	66.15513
1020.27	36.08905
1020.636	84.20005
1021.001	113.2672
1021.366	56.13429
1021.731	95.24232
1022.096	20.0507
1022.461	98.22971
1022.826	74.17502
1023.191	97.25237
1023.556	76.17717
1023.92	75.18351
1024.285	102.24646
1024.649	66.16122
1025.014	92.22606
1025.378	44.11071
1025.742	86.2121
1026.107	95.21285
1026.471	88.20385
1026.835	89.21897
1027.199	40.09643
1027.562	77.17798
1027.926	94.2279
1028.29	78.19632
1028.654	83.18963
1029.017	88.21471
1029.381	33.07906
1029.744	75.19036
1030.107	124.28906
1030.471	90.21376
1030.834	77.17415
1031.197	132.31291
1031.56	62.1459
1031.923	79.20314
1032.286	105.24386
1032.648	67.15966
1033.011	79.1802
1033.374	77.17996
1033.736	31.08173
1034.099	72.17469
1034.461	43.10871
1034.823	76.18826
1035.185	93.23219
1035.548	113.27164
1035.91	78.18576
1036.272	52.11826
1036.634	103.24939
1036.995	71.16613
1037.357	65.15762
1037.719	83.20051
1038.08	65.15382
1038.442	97.22804
1038.803	45.1081
1039.165	86.21553
1039.526	110.26267
1039.887	89.21127
1040.248	34.08398
1040.609	114.27825
1040.97	48.11729
1041.331	76.19143
1041.692	42.09814
1042.053	96.21646
1042.413	47.10954
1042.774	106.25496
1043.134	76.17996
1043.495	80.19991
1043.855	74.1786
1044.215	115.2819
1044.576	45.10764
1044.936	120.27113
1045.296	113.27864
1045.656	105.2549
1046.016	72.17299
1046.375	58.14041
1046.735	54.12226
1047.095	82.19063
1047.454	61.12889
1047.814	79.18876
1048.173	96.22722
1048.533	94.21334
1048.892	14.03382
1049.251	89.22172
1049.61	49.1206
1049.969	75.17584
1050.328	119.25408
1050.687	34.08293
1051.046	78.18882
1051.405	82.20268
1051.763	39.08982
1052.122	38.09492
1052.48	78.19017
1052.839	68.15933
1053.197	54.12692
1053.555	102.22999
1053.914	80.19447
1054.272	44.10644
1054.63	49.11976
1054.988	46.1093
1055.345	52.11187
1055.703	84.20074
1056.061	65.16667
1056.419	45.11652
1056.776	76.18329
1057.134	77.1772
1057.491	87.21626
1057.848	112.27551
1058.206	50.11752
1058.563	68.14925
1058.92	73.16739
1059.277	104.25385
1059.634	113.26244
1059.991	117.27655
1060.348	34.07704
1060.704	76.18009
1061.061	93.21411
1061.418	67.16186
1061.774	58.14289
1062.131	57.15043
1062.487	67.15604
1062.843	73.18113
1063.199	79.1953
1063.555	75.17281
1063.911	119.29666
1064.267	86.17784
1064.623	33.08035
1064.979	128.2985
1065.335	87.20636
1065.691	109.25814
1066.046	87.1897
1066.402	63.14266
1066.757	88.22046
1067.112	80.19512
1067.468	64.1506
1067.823	90.21459
1068.178	68.16381
1068.533	104.24939
1068.888	110.25965
1069.243	40.09883
1069.598	61.14781
1069.952	51.11474
1070.307	72.17738
1070.662	102.23956
1071.016	68.1517
1071.371	77.17408
1071.725	84.19951
1072.079	74.17705
1072.434	54.13102
1072.788	78.18462
1073.142	81.19797
1073.496	76.17926
1073.85	88.20239
1074.203	81.19524
1074.557	14.03743
1074.911	120.28238
1075.265	97.22323
1075.618	108.26066
1075.971	75.17742
1076.325	62.15711
1076.678	32.07339
1077.031	90.20185
1077.385	46.10134
1077.738	62.13951
1078.091	38.08656
1078.444	97.22296
1078.796	56.13715
1079.149	65.1611
1079.502	77.18081
1079.855	77.17848
1080.207	92.22472
1080.56	87.22324
1080.912	113.27164
1081.264	92.21961
1081.617	85.20565
1081.969	73.18324
1082.321	103.24883
1082.673	56.12756
1083.025	78.18391
1083.377	-140.31257
1083.728	93.21496
1084.08	54.1346
1084.432	51.12288
1084.783	96.22273
1085.135	72.17959
1085.486	67.15265
1085.838	83.203
1086.189	56.13567
1086.54	108.25483
1086.891	43.10879
1087.242	74.17921
1087.593	99.23862
1087.944	91.20405
1088.295	88.19834
1088.646	61.14742
1088.996	25.06046
1089.347	78.19024
1089.698	46.10871
1090.048	101.2598
1090.398	105.24067
1090.749	70.16671
1091.099	69.17277
1091.449	48.11951
1091.799	88.21863
1092.149	11.02699
1092.499	74.17954
1092.849	94.23685
1093.199	119.29429
1093.548	43.10337
1093.898	87.21602
1094.248	95.24198
1094.597	48.12246
1094.947	75.19907
1095.296	62.15263
1095.645	95.24496
1095.994	89.212
1096.343	83.20744
1096.692	65.17016
1097.041	47.1272
1097.39	77.19203
1097.739	69.1786
1098.088	98.26024
1098.437	46.12081
1098.785	79.21178
1099.134	82.21638
1099.482	73.19986
1099.83	37.09735
1100.179	70.18178
1100.527	65.17212
1100.875	52.13731
1101.223	60.15891
1101.571	58.15993
1101.919	-1.00263
1102.267	32.09026
1102.615	3.00965
1102.962	17.05469
1103.31	5.01607
1103.658	24.07718
