Data from N2 R11 sample 6_Subt2__4__14-39-49-155.txt Node

Date: Mon Sep 01 14:39:49 PDT 2025
User: uwsun
Spectrometer: HDX01956
Trigger mode: 0
Integration Time (sec): 5.000000E-1
Scans to average: 1
Nonlinearity correction enabled: true
Boxcar width: 0
Storing dark spectrum: false
XAxis mode: Wavelengths
Number of Pixels in Spectrum: 2068
>>>>>Begin Spectral Data<<<<<
194.03	-61.17281
194.578	-56.1783
195.127	-62.19472
195.676	-63.19847
196.225	10.02649
196.773	-27.07435
197.321	-28.07549
197.87	-40.0997
198.418	-84.20839
198.966	-87.21721
199.513	-143.34415
200.061	-107.25995
200.609	-47.11929
201.156	-144.30472
201.704	-126.30548
202.251	-129.32927
202.798	-103.25687
203.345	-83.19748
203.892	-157.3837
204.438	-47.10721
204.985	-168.38484
205.532	-106.26746
206.078	-105.248
206.624	-102.23993
207.17	-78.17372
207.716	-117.27291
208.262	-91.17353
208.808	-143.33801
209.354	-103.24006
209.899	-52.12588
210.445	-130.31031
210.99	-157.36592
211.535	-42.09408
212.08	-51.11318
212.625	-71.1701
213.17	-70.16978
213.715	-161.34599
214.259	-69.15409
214.804	-81.19242
215.348	-71.15586
215.892	-71.16313
216.436	-31.06857
216.98	-40.08472
217.524	-94.2136
218.068	-46.11056
218.612	-81.1962
219.155	-80.18083
219.698	-73.16699
220.242	-65.15596
220.785	-57.12782
221.328	-88.21151
221.871	-40.09727
222.414	-35.08347
222.956	-137.31993
223.499	-75.1627
224.041	-41.09186
224.583	-53.1108
225.126	-81.17257
225.668	-77.17989
226.21	-88.21295
226.751	-126.26745
227.293	-17.03708
227.835	-99.2331
228.376	-49.10893
228.918	-54.13097
229.459	-94.2249
230	-86.19724
230.541	-60.13296
231.082	-45.10414
231.622	-55.12176
232.163	-83.19307
232.704	-91.21676
233.244	-90.21467
233.784	-24.05619
234.324	-108.22794
234.864	-79.17226
235.404	-39.08871
235.944	-35.07926
236.484	-59.14119
237.023	-93.21128
237.563	-94.20883
238.102	-57.12876
238.641	-84.20388
239.18	-97.21733
239.719	-86.20725
240.258	-59.12706
240.797	-68.15521
241.335	-83.1952
241.874	-85.15729
242.412	-81.18618
242.95	-85.19366
243.488	-76.16624
244.026	-87.19187
244.564	-49.09621
245.102	-56.11959
245.64	-56.129
246.177	-75.16097
246.715	-15.03409
247.252	-70.15396
247.789	9.01607
248.326	-108.2476
248.863	-95.1994
249.4	-18.03864
249.936	-53.10367
250.473	-107.23894
251.009	-126.27724
251.546	-73.15322
252.082	-110.23175
252.618	-58.12236
253.154	-111.25483
253.69	-125.27094
254.226	-97.22091
254.761	-75.16027
255.297	-101.21125
255.832	-98.22106
256.367	-97.21805
256.903	-49.10158
257.438	-72.16089
257.972	-95.20196
258.507	-107.23291
259.042	-100.20744
259.576	-132.27125
260.111	-24.05219
260.645	-105.21767
261.179	-69.15192
261.713	-90.19003
262.247	-98.21536
262.781	-115.22986
263.315	-108.25097
263.849	-92.21767
264.382	-69.15026
264.915	-109.242
265.449	-150.34664
265.982	-68.14635
266.515	-54.12355
267.048	-100.20076
267.58	-48.09904
268.113	-117.24015
268.646	-104.24263
269.178	-169.36177
269.71	-54.11087
270.243	-92.19911
270.775	-87.20843
271.307	-56.12694
271.838	-48.10743
272.37	-100.23229
272.902	-48.10233
273.433	-110.22788
273.965	-86.197
274.496	-101.23781
275.027	-80.1862
275.558	-99.22601
276.089	-188.43911
276.62	-129.31199
277.15	-73.16934
277.681	-75.15339
278.211	-73.16813
278.741	-160.33472
279.272	-146.31571
279.802	-89.20866
280.332	-133.29578
280.861	-106.23989
281.391	-113.24064
281.921	-80.18068
282.45	-96.22538
282.98	-126.30949
283.509	-122.25828
284.038	-117.25046
284.567	-111.24439
285.096	-106.23999
285.625	-118.25101
286.153	-110.24061
286.682	-117.25013
287.21	-139.31374
287.739	-152.33796
288.267	-186.42521
288.795	-68.16598
289.323	-197.43446
289.851	-14.02994
290.378	-133.27929
290.906	-186.4223
291.433	-141.3285
291.961	-140.29522
292.488	-124.28713
293.015	-138.30135
293.542	-120.28051
294.069	-154.35206
294.596	-112.25718
295.122	-143.31709
295.649	-80.16217
296.175	-113.2537
296.702	-105.23525
297.228	-117.26343
297.754	-150.31255
298.28	-132.27602
298.806	-158.35145
299.332	-146.29704
299.857	-136.28224
300.383	-108.25157
300.908	-215.48348
301.433	-160.35737
301.958	-106.2247
302.483	-180.41348
303.008	-117.26494
303.533	-135.32329
304.058	-141.30601
304.582	-166.3585
305.107	-172.4104
305.631	-84.1737
306.155	-178.37897
306.679	-136.28729
307.203	-167.35316
307.727	-160.34598
308.251	-135.30247
308.775	-183.39309
309.298	-232.50789
309.822	-198.45683
310.345	-148.31634
310.868	-203.4415
311.391	-120.26526
311.914	-180.40669
312.437	-153.31518
312.96	-213.45438
313.482	-187.39857
314.005	-206.46695
314.527	-193.45477
315.049	-166.37674
315.571	-232.46124
316.093	-197.4361
316.615	-173.36921
317.137	-194.3749
317.659	-161.34733
318.18	-171.36621
318.702	-170.34729
319.223	-169.30319
319.744	-203.39973
320.265	-224.47649
320.786	-236.51141
321.307	-231.50474
321.828	-194.3812
322.348	-221.4526
322.869	-257.52704
323.389	-379.55765
323.909	-204.4035
324.43	-157.32575
324.95	-302.60209
325.47	-264.55766
325.989	-267.53888
326.509	-270.50301
327.029	-309.59385
327.548	-297.56501
328.067	-281.57052
328.587	-228.47718
329.106	-280.53383
329.625	-221.49249
330.144	-311.60086
330.662	-318.61336
331.181	-329.64388
331.7	-287.55423
332.218	-289.51023
332.736	-305.58644
333.255	-303.5739
333.773	-343.66587
334.291	-339.70022
334.808	-371.67113
335.326	-313.56475
335.844	-371.68656
336.361	-369.74576
336.879	-408.75788
337.396	-373.70995
337.913	-412.74817
338.43	-386.67601
338.947	-421.78807
339.464	-433.71518
339.981	-424.77702
340.497	-411.79027
341.014	-414.77515
341.53	-420.71432
342.046	-422.78662
342.562	-442.84845
343.078	-408.71793
343.594	-418.74749
344.11	-452.80664
344.626	-482.91677
345.141	-445.74235
345.657	-408.67555
346.172	-485.86533
346.687	-456.75549
347.202	-461.73826
347.717	-469.80783
348.232	-453.81741
348.747	-495.80949
349.261	-551.83493
349.776	-517.86207
350.29	-577.00946
350.805	-465.81206
351.319	-505.81801
351.833	-553.85703
352.347	-505.81109
352.861	-584.93943
353.374	-476.7417
353.888	-550.91587
354.401	-543.83855
354.915	-554.8077
355.428	-527.87296
355.941	-568.86819
356.454	-497.72606
356.967	-520.80371
357.48	-526.78296
357.993	-581.94973
358.505	-601.96215
359.018	-542.85253
359.53	-568.86664
360.042	-584.81324
360.554	-589.91396
361.066	-604.93151
361.578	-609.81365
362.09	-554.81419
362.602	-562.73204
363.113	-633.89777
363.625	-646.87268
364.136	-630.82195
364.647	-773.07026
365.158	-603.81688
365.669	-654.93319
366.18	-639.88114
366.691	-618.7649
367.201	-658.91005
367.712	-727.94089
368.222	-678.85964
368.733	-775.91374
369.243	-760.89959
369.753	-715.89196
370.263	-810.07535
370.773	-815.11854
371.282	-746.91544
371.792	-904.0243
372.301	-863.05178
372.811	-900.23945
373.32	-912.84949
373.829	-955.03161
374.338	-933.87429
374.847	-985.94078
375.356	-1035.00756
375.865	-1019.71043
376.373	-1086.84235
376.882	-1087.05443
377.39	-1082.88847
377.898	-1296.0239
378.407	-1279.73967
378.915	-1316.64948
379.423	-1361.74506
379.93	-1364.57364
380.438	-1553.67743
380.946	-1566.48101
381.453	-1665.4299
381.96	-1823.30354
382.468	-2018.06975
382.975	-1980.04804
383.482	-1977.76143
383.989	-2056.95002
384.495	-2194.59605
385.002	-2445.22151
385.509	-2557.2457
386.015	-2518.86542
386.521	-2689.85791
387.028	-2925.72455
387.534	-2960.65039
388.04	-2969.66421
388.546	-3300.58595
389.051	-3691.6388
389.557	-3809.8335
390.063	-3608.01697
390.568	-3923.30534
391.073	-4290.01854
391.578	-4412.27628
392.084	-4718.56282
392.589	-5297.61377
393.093	-5815.46877
393.598	-6122.39462
394.103	-6516.37672
394.607	-6989.67358
395.112	-7479.14929
395.616	-7842.50503
396.12	-8972.26065
396.624	-10085.06846
397.128	-10648.81451
397.632	-11591.7118
398.136	-12863.51863
398.639	-15169.99541
399.143	-17429.57543
399.646	-19154.09974
400.15	-21334.19115
400.653	-24559.40216
401.156	-28328.15354
401.659	-33646.84097
402.162	-32389.11268
402.664	-22240.07143
403.167	-7222.53145
403.67	-1274.29617
404.172	0
404.674	0
405.176	0
405.678	0
406.18	0
406.682	0
407.184	0
407.686	0
408.187	0
408.688	0
409.19	0
409.691	-9454.87625
410.192	-17092.40671
410.693	-22858.08867
411.194	-25982.38475
411.694	-24061.49669
412.195	-21842.13839
412.696	-21229.15858
413.196	-22054.43945
413.696	-22722.83198
414.196	-21501.38605
414.696	-18343.89773
415.196	-14991.84864
415.696	-9559.17525
416.196	-7571.28329
416.695	-8473.14845
417.195	-9528.8706
417.694	-8973.9031
418.194	-7949.69369
418.693	-8057.90718
419.192	-7860.58452
419.691	-7648.22558
420.19	-7339.53461
420.688	-6841.54969
421.187	-6264.27882
421.685	-5579.3476
422.184	-4741.423
422.682	-4126.60137
423.18	-4153.99719
423.678	-3941.5493
424.176	-3788.33222
424.674	-3454.66591
425.172	-3116.01365
425.669	-2743.78468
426.167	-2421.81132
426.664	-2366.83154
427.161	-2242.95909
427.659	-2122.22192
428.156	-1936.18489
428.652	-1930.6377
429.149	-1899.6867
429.646	-1743.67194
430.143	-1530.93377
430.639	-1606.08992
431.135	-1556.33556
431.632	-1415.24421
432.128	-1411.48465
432.624	-1403.68558
433.12	-1457.48449
433.616	-1369.4549
434.111	-1485.74358
434.607	-1352.77239
435.103	-1131.49992
435.598	-1120.53048
436.093	-990.69171
436.588	-994.72566
437.083	-916.71632
437.578	-935.82542
438.073	-1027.07286
438.568	-840.90596
439.062	-852.74054
439.557	-829.91419
440.051	-901.96422
440.546	-899.98352
441.04	-863.03976
441.534	-852.15256
442.028	-777.97987
442.522	-803.02176
443.015	-749.83445
443.509	-767.0394
444.002	-786.0754
444.496	-754.88526
444.989	-797.12642
445.482	-784.13289
445.975	-763.95209
446.468	-755.89463
446.961	-747.8903
447.454	-748.98106
447.947	-815.1476
448.439	-735.08195
448.931	-768.01659
449.424	-688.07002
449.916	-715.06786
450.408	-691.92106
450.9	-769.16478
451.392	-784.27115
451.884	-743.08174
452.375	-763.21235
452.867	-632.8989
453.358	-755.08776
453.849	-711.94906
454.341	-643.91083
454.832	-686.9348
455.323	-694.10901
455.814	-647.97009
456.304	-620.93094
456.795	-634.95315
457.285	-598.88543
457.776	-588.90627
458.266	-632.00851
458.756	-630.04151
459.247	-681.11455
459.737	-672.10438
460.226	-618.94528
460.716	-625.03979
461.206	-618.0465
461.695	-594.06577
462.185	-600.00715
462.674	-518.8379
463.163	-548.85899
463.653	-543.80168
464.142	-579.01031
464.63	-572.03148
465.119	-554.92914
465.608	-553.93076
466.096	-515.82199
466.585	-517.8915
467.073	-534.9688
467.561	-519.94613
468.05	-498.87545
468.538	-483.90549
469.026	-471.85773
469.513	-475.75203
470.001	-477.82293
470.489	-476.8631
470.976	-493.88643
471.463	-450.87798
471.951	-410.8045
472.438	-515.96216
472.925	-494.91401
473.412	-429.84556
473.899	-411.75072
474.385	-402.79141
474.872	-446.8359
475.359	-416.81935
475.845	-421.69998
476.331	-362.63564
476.817	-389.77789
477.303	-390.7414
477.789	-383.75986
478.275	-410.84401
478.761	-343.68209
479.247	-358.66664
479.732	-412.85958
480.218	-375.82212
480.703	-353.73666
481.188	-362.65067
481.673	-400.77968
482.158	-401.71578
482.643	-348.7602
483.128	-393.76513
483.612	-366.7341
484.097	-323.68034
484.581	-310.61862
485.066	-321.66869
485.55	-360.6807
486.034	-345.64387
486.518	-336.67954
487.002	-407.8742
487.486	-384.82463
487.969	-354.75661
488.453	-351.78409
488.936	-307.60338
489.42	-298.57809
489.903	-266.58822
490.386	-786.30738
490.869	-262.5017
491.352	-276.60115
491.835	-253.46045
492.318	-303.6062
492.8	-307.56669
493.283	-325.73859
493.765	-330.72881
494.247	-273.57351
494.73	-296.58711
495.212	-270.58858
495.694	-340.71788
496.175	-393.84777
496.657	-247.52507
497.139	-194.30165
497.62	-350.75227
498.102	-322.72481
498.583	-290.66026
499.064	-315.63692
499.545	-313.65232
500.026	-299.60928
500.507	-285.60215
500.988	-295.66961
501.469	-319.72965
501.949	-286.64774
502.43	-305.65965
502.91	-289.54524
503.39	-269.61728
503.87	-311.67004
504.35	-237.51084
504.83	-276.55256
505.31	-320.715
505.79	-268.58447
506.269	-260.55788
506.749	-314.66182
507.228	-311.6732
507.707	-263.53422
508.187	-242.53135
508.666	-285.64271
509.145	-296.63786
509.623	-313.68245
510.102	-253.56356
510.581	-237.52748
511.059	-314.72904
511.538	-256.61174
512.016	-281.62307
512.494	-253.56799
512.972	-256.56421
513.45	-346.74719
513.928	-304.6857
514.406	-367.82625
514.884	-283.67457
515.361	-271.6019
515.839	-282.59751
516.316	-268.59808
516.793	-287.67938
517.27	-233.52417
517.747	-303.72583
518.224	-256.55214
518.701	-224.46155
519.178	-305.70521
519.654	-250.55584
520.131	-339.79251
520.607	-263.61052
521.083	-264.56329
521.56	-305.67881
522.036	-216.44065
522.512	-241.5557
522.987	-294.65311
523.463	-257.57057
523.939	-265.61006
524.414	-231.49897
524.89	-276.61619
525.365	-302.64743
525.84	-297.66128
526.315	-260.58598
526.79	-246.5201
527.265	-242.5168
527.74	-266.60832
528.215	-244.53867
528.689	-262.54591
529.164	-248.50801
529.638	-263.63626
530.112	-272.60274
530.587	-293.5919
531.061	-289.65706
531.534	-202.45695
532.008	-277.62774
532.482	-229.49423
532.956	-281.6734
533.429	-216.48941
533.903	-208.43186
534.376	-249.51987
534.849	-220.47857
535.322	-238.52872
535.795	-182.41389
536.268	-273.62094
536.741	-279.63715
537.213	-177.38135
537.686	-255.58446
538.158	-248.52249
538.631	-208.47512
539.103	-247.52141
539.575	-153.29702
540.047	-171.35036
540.519	-209.4696
540.991	-231.53392
541.463	-192.43468
541.934	-198.4243
542.406	-204.45432
542.877	-202.42745
543.348	-176.39684
543.82	-144.32774
544.291	-140.30351
544.762	-205.454
545.233	-151.3493
545.703	-169.34657
546.174	-129.27626
546.645	-214.47462
547.115	-133.29406
547.585	-170.36257
548.056	-170.37578
548.526	-147.31563
548.996	-121.26585
549.466	-108.24093
549.935	-147.31631
550.405	-137.27282
550.875	-121.25936
551.344	-69.1486
551.814	-28.05717
552.283	-14.02703
552.752	-46.09465
553.221	-15.02851
553.69	-36.07064
554.159	-1.00214
554.628	53.10176
555.096	9.01994
555.565	91.17404
556.033	176.35301
556.502	205.42154
556.97	223.4172
557.438	201.40754
557.906	309.61591
558.374	283.54781
558.842	333.66591
559.31	422.77257
559.777	386.77136
560.245	528.99988
560.712	574.05573
561.18	557.97179
561.647	694.18635
562.114	681.1925
562.581	783.47458
563.048	914.54101
563.514	952.70291
563.981	1051.69297
564.448	1121.72313
564.914	1219.91979
565.381	1313.95669
565.847	1446.15265
566.313	1492.1727
566.779	1663.19463
567.245	1701.33951
567.711	1779.46904
568.176	1953.31274
568.642	1986.7633
569.108	2186.77315
569.573	2357.65555
570.038	2439.17439
570.504	2511.41442
570.969	2724.99137
571.434	2884.2781
571.899	2949.69019
572.363	3131.42663
572.828	3369.40011
573.293	3431.37068
573.757	3521.34127
574.222	3710.07405
574.686	3860.0188
575.15	3935.33477
575.614	4035.07863
576.078	4113.16703
576.542	4303.90398
577.006	4280.84849
577.469	4424.38878
577.933	4434.70179
578.396	4538.04154
578.86	4481.0164
579.323	4447.08184
579.786	4545.47147
580.249	4407.83244
580.712	4483.26066
581.175	4417.34204
581.637	4308.01067
582.1	4352.71183
582.563	4325.61665
583.025	4217.33927
583.487	4135.37625
583.95	4083.701
584.412	4010.66593
584.874	3961.49088
585.336	3870.38718
585.797	3702.96061
586.259	3695.47105
586.721	3606.44616
587.182	3618.47461
587.643	3445.35316
588.105	3333.61358
588.566	3239.05375
589.027	3161.72905
589.488	3113.47802
589.949	3017.82127
590.41	2940.78075
590.87	2898.54444
591.331	2802.29417
591.791	2686.58147
592.252	2690.52571
592.712	2664.79678
593.172	2599.47705
593.632	2614.38145
594.092	2579.44192
594.552	2503.29014
595.011	2442.54005
595.471	2401.44662
595.931	2400.42695
596.39	2339.71832
596.849	2383.6112
597.308	2472.33531
597.768	2354.00807
598.227	2420.78178
598.685	2436.58532
599.144	2444.6426
599.603	2599.72458
600.062	2533.17221
600.52	2538.4252
600.978	2674.73002
601.437	2790.56299
601.895	2850.18477
602.353	2929.39362
602.811	2932.38188
603.269	3017.75054
603.727	3112.73186
604.184	3386.30875
604.642	3372.79761
605.099	3516.43849
605.557	3739.64704
606.014	3907.83292
606.471	3987.63934
606.928	4197.62275
607.385	4272.29887
607.842	4556.8091
608.299	4784.8115
608.755	4969.89647
609.212	5062.35542
609.668	5248.21561
610.125	5507.65301
610.581	5736.50877
611.037	5854.24573
611.493	6014.37768
611.949	6088.42071
612.405	6335.54324
612.861	6425.28728
613.316	6510.31521
613.772	6642.13291
614.227	6723.25699
614.683	6811.88907
615.138	6935.24811
615.593	6899.21783
616.048	6970.19109
616.503	7024.53768
616.958	6998.61236
617.412	7085.35827
617.867	6986.03914
618.321	6971.83869
618.776	6865.04887
619.23	6779.29435
619.684	6767.13932
620.138	6708.27798
620.592	6417.52271
621.046	6355.366
621.5	6265.56999
621.954	6196.19691
622.407	5940.20321
622.861	5759.76912
623.314	5785.39117
623.768	5599.59424
624.221	5420.80905
624.674	5238.72017
625.127	5163.86733
625.58	5142.75754
626.033	4988.65996
626.485	4647.31534
626.938	4621.32431
627.39	4560.21469
627.843	4355.30632
628.295	4187.39906
628.747	4095.62865
629.199	3958.42498
629.651	3861.46831
630.103	3841.5361
630.555	3575.22685
631.006	3542.82448
631.458	3477.88199
631.909	3442.77417
632.361	3265.89803
632.812	3153.85944
633.263	3104.52239
633.714	3027.51802
634.165	2899.19521
634.616	2799.08561
635.067	2715.75015
635.518	2598.09983
635.968	2577.31097
636.419	2462.64501
636.869	2408.05525
637.319	2294.87995
637.769	2248.72067
638.219	2210.02114
638.669	2229.00836
639.119	2106.06629
639.569	2024.96462
640.019	2003.78661
640.468	2000.64575
640.918	1925.91484
641.367	1886.60645
641.816	1797.54344
642.265	1827.68818
642.714	1754.63907
643.163	1736.60545
643.612	1638.6662
644.061	1654.26289
644.51	1544.41615
644.958	1540.30239
645.406	1573.60843
645.855	1502.62794
646.303	1480.45378
646.751	1481.35994
647.199	1496.37933
647.647	1402.32107
648.095	1365.27241
648.543	1466.06286
648.99	1359.38953
649.438	1371.36583
649.885	1351.4974
650.333	1304.79631
650.78	1285.33976
651.227	1276.35073
651.674	1248.13722
652.121	1218.28034
652.568	1254.32039
653.015	1250.44233
653.461	1194.18716
653.908	1161.09623
654.354	1222.24198
654.801	1129.06823
655.247	1188.98865
655.693	1090.29327
656.139	1093.08028
656.585	1073.05493
657.031	1006.88844
657.477	1095.83983
657.922	1053.9309
658.368	1048.09314
658.813	1073.99326
659.259	925.83879
659.704	914.76173
660.149	974.85245
660.594	961.87503
661.039	923.73363
661.484	993.94394
661.929	900.75544
662.373	870.85799
662.818	891.86144
663.262	840.71495
663.707	819.7818
664.151	816.70728
664.595	827.69944
665.039	838.78345
665.483	813.78294
665.927	771.56789
666.371	743.48482
666.814	769.59007
667.258	703.45411
667.701	797.46795
668.145	722.58028
668.588	687.49065
669.031	613.28696
669.474	689.46452
669.917	701.36
670.36	662.46163
670.803	702.4951
671.245	650.2102
671.688	659.43348
672.13	610.22234
672.573	685.54925
673.015	643.37968
673.457	633.22611
673.899	637.38323
674.341	581.27058
674.783	566.23174
675.225	563.26017
675.666	566.23382
676.108	590.15385
676.549	598.28053
676.991	592.17582
677.432	553.9964
677.873	554.16829
678.314	568.234
678.755	557.23648
679.196	571.18601
679.637	550.23078
680.078	541.16005
680.518	566.20304
680.959	535.17527
681.399	472.08802
681.839	532.18946
682.28	430.99591
682.72	431.92494
683.16	489.12839
683.6	526.10283
684.039	491.94548
684.479	464.0602
684.919	404.87691
685.358	483.14012
685.798	460.12608
686.237	437.99345
686.676	480.0359
687.115	433.95604
687.554	461.02051
687.993	468.9647
688.432	457.97566
688.871	419.89454
689.309	443.992
689.748	492.95265
690.186	493.09284
690.625	402.89076
691.063	434.97805
691.501	464.07082
691.939	427.00031
692.377	411.94683
692.815	342.78272
693.253	409.93057
693.69	388.80879
694.128	401.91864
694.565	411.92642
695.003	435.03694
695.44	390.86921
695.877	375.8325
696.314	435.87915
696.751	447.95721
697.188	416.90103
697.625	464.99725
698.061	396.90009
698.498	431.98299
698.934	391.89394
699.371	361.81041
699.807	423.94333
700.243	399.90929
700.679	480.01021
701.115	430.95477
701.551	436.96608
701.987	466.97913
702.422	400.89923
702.858	399.90048
703.294	451.95743
703.729	454.0398
704.164	428.97044
704.599	446.93092
705.035	430.9039
705.47	422.96731
705.904	421.92411
706.339	462.00465
706.774	429.94562
707.209	438.94786
707.643	496.10475
708.078	426.97765
708.512	406.96005
708.946	436.98376
709.38	470.03809
709.814	479.01805
710.248	490.10982
710.682	459.01903
711.116	379.85814
711.549	427.03801
711.983	437.94832
712.416	472.04035
712.85	479.11273
713.283	396.88842
713.716	512.19255
714.149	515.13506
714.582	487.0135
715.015	465.08908
715.448	476.11945
715.881	508.02607
716.313	443.97402
716.746	439.97009
717.178	465.04264
717.61	457.08532
718.043	459.07039
718.475	457.03558
718.907	499.17476
719.339	419.89377
719.77	409.91513
720.202	446.05773
720.634	433.99033
721.065	485.06749
721.497	457.04732
721.928	419.97025
722.359	374.85698
722.79	378.85988
723.221	393.93956
723.652	431.04775
724.083	392.83709
724.514	401.8717
724.945	315.71297
725.375	355.78549
725.806	393.93202
726.236	403.97924
726.666	436.9701
727.096	384.89574
727.526	357.86621
727.956	363.78575
728.386	358.84233
728.816	293.71655
729.246	318.74299
729.675	328.77476
730.105	344.81129
730.534	310.69923
730.964	380.9149
731.393	403.94946
731.822	363.88538
732.251	330.80447
732.68	364.81866
733.109	306.72728
733.537	294.68612
733.966	272.65568
734.395	317.70435
734.823	326.70702
735.251	269.62939
735.68	321.77421
736.108	320.77922
736.536	229.52929
736.964	263.59359
737.392	243.59363
737.82	306.7085
738.247	303.70058
738.675	293.67773
739.102	243.59209
739.53	244.60571
739.957	237.5953
740.384	277.66356
740.811	273.67187
741.238	233.55604
741.665	181.4147
742.092	267.62005
742.519	178.43478
742.945	220.51788
743.372	213.51745
743.798	254.63581
744.225	214.49944
744.651	244.5973
745.077	192.47159
745.503	201.48262
745.929	193.45636
746.355	240.58358
746.781	230.55759
747.207	143.33355
747.632	151.36505
748.058	206.50504
748.483	162.3702
748.908	174.42722
749.334	191.46227
749.759	218.50397
750.184	183.43003
750.609	208.50218
751.033	220.51041
751.458	209.46131
751.883	149.36672
752.307	155.36211
752.732	105.26205
753.156	115.28367
753.58	190.44517
754.005	196.48958
754.429	155.36154
754.853	168.41142
755.277	125.29535
755.7	168.41219
756.124	126.31143
756.548	114.27014
756.971	151.36602
757.394	133.34067
757.818	142.36264
758.241	141.3552
758.664	146.36575
759.087	107.23934
759.51	112.27845
759.933	126.30215
760.356	108.27649
760.778	120.29432
761.201	150.36229
761.623	158.38017
762.046	197.4604
762.468	178.4226
762.89	167.40784
763.312	149.36117
763.734	134.32108
764.156	136.33393
764.578	171.38943
765	143.34663
765.421	69.176
765.843	122.31834
766.264	163.39005
766.686	114.2858
767.107	116.2806
767.528	75.18995
767.949	135.34106
768.37	73.1802
768.791	152.36477
769.212	75.18901
769.632	84.19659
770.053	117.3067
770.473	109.26491
770.894	80.20114
771.314	172.40616
771.734	104.24263
772.154	113.28924
772.575	114.26418
772.994	66.15125
773.414	107.25702
773.834	130.32309
774.254	109.2664
774.673	114.27711
775.093	83.20587
775.512	65.16105
775.931	95.24078
776.351	110.27239
776.77	103.25145
777.189	137.3237
777.607	41.10561
778.026	91.22678
778.445	42.10598
778.864	99.25359
779.282	84.20266
779.701	86.217
780.119	88.22236
780.537	84.20983
780.955	124.31366
781.373	69.17139
781.791	111.2489
782.209	115.26444
782.627	86.2264
783.045	110.25249
783.462	94.23981
783.88	109.28067
784.297	55.13915
784.715	67.17246
785.132	60.14612
785.549	113.2813
785.966	101.25334
786.383	94.23098
786.8	100.23211
787.217	105.24829
787.633	20.05048
788.05	142.33441
788.466	108.25414
788.883	74.18892
789.299	47.1141
789.715	83.20195
790.131	101.25042
790.547	107.26617
790.963	81.2012
791.379	109.2742
791.795	84.19211
792.21	82.19206
792.626	103.24374
793.041	57.14138
793.457	72.17836
793.872	83.19535
794.287	67.16039
794.702	50.12399
795.117	62.15454
795.532	51.12843
795.947	96.23073
796.362	116.27562
796.776	146.33847
797.191	110.26789
797.605	38.08998
798.02	41.10054
798.434	107.23756
798.848	80.19701
799.262	54.13455
799.676	105.25519
800.09	75.18473
800.504	96.2324
800.918	85.19694
801.331	117.30461
801.745	72.16586
802.158	73.18265
802.572	122.29378
802.985	123.29512
803.398	74.17678
803.811	97.24855
804.224	63.15729
804.637	44.10555
805.05	99.22883
805.462	92.22556
805.875	17.04447
806.288	43.10439
806.7	73.18357
807.112	81.1879
807.525	67.1657
807.937	67.16588
808.349	100.24944
808.761	105.257
809.173	42.10248
809.584	120.29432
809.996	44.10836
810.408	48.12435
810.819	47.11122
811.231	24.0625
811.642	5.01208
812.053	56.13368
812.464	67.1596
812.875	105.26679
813.286	72.1853
813.697	138.31916
814.108	86.20976
814.519	126.27829
814.929	108.27378
815.34	69.16757
815.75	61.15527
816.16	85.21144
816.571	82.21258
816.981	88.2074
817.391	92.22146
817.801	59.14687
818.211	82.19529
818.62	30.07282
819.03	84.20549
819.44	69.18026
819.849	84.2112
820.259	71.18174
820.668	37.09157
821.077	52.12957
821.486	138.3284
821.895	67.16576
822.304	59.15655
822.713	77.18194
823.122	115.28471
823.531	60.14262
823.939	38.09317
824.348	92.22288
824.756	112.27845
825.164	100.25034
825.573	68.17066
825.981	109.26848
826.389	97.24252
826.797	56.1406
827.205	51.11756
827.612	94.23098
828.02	60.14119
828.428	74.18825
828.835	32.0847
829.243	55.13151
829.65	45.11235
830.057	66.16032
830.464	34.08339
830.871	94.22412
831.278	87.20962
831.685	60.13429
832.092	88.21471
832.499	61.1338
832.905	75.18962
833.312	89.20236
833.718	102.25258
834.124	100.22723
834.531	61.15395
834.937	92.23504
835.343	114.27275
835.749	112.25955
836.155	58.15202
836.561	52.12825
836.966	76.18557
837.372	82.20809
837.777	65.16193
838.183	77.17103
838.588	58.1442
838.993	96.23248
839.399	-3.00743
839.804	-6.01481
840.209	33.08444
840.613	95.21022
841.018	60.15205
841.423	89.22725
841.828	30.07632
842.232	122.29911
842.637	95.2229
843.041	27.06962
843.445	83.20744
843.849	57.14128
844.253	132.30977
844.657	62.15611
845.061	66.14979
845.465	93.2234
845.869	87.20133
846.272	30.0735
846.676	47.11406
847.079	81.20522
847.483	101.25024
847.886	110.26538
848.289	66.17591
848.692	84.21188
849.095	74.17739
849.498	135.33777
849.901	41.09451
850.304	69.16474
850.707	65.16562
851.109	105.26366
851.512	95.23201
851.914	29.07348
852.316	77.19419
852.718	9.02343
853.121	81.19774
853.523	33.07758
853.925	32.08384
854.326	43.10782
854.728	72.18472
855.13	18.04674
855.531	45.10785
855.933	64.15359
856.334	47.11743
856.736	26.05867
857.137	53.12343
857.538	-5.01271
857.939	40.09916
858.34	98.23715
858.741	58.1516
859.142	40.09647
859.542	25.06631
859.943	87.21508
860.343	39.09691
860.744	109.26352
861.144	65.15839
861.544	25.06046
861.945	87.22058
862.345	88.21407
862.745	66.16379
863.145	132.31122
863.544	82.20632
863.944	83.1952
864.344	98.24169
864.743	108.26557
865.143	64.1642
865.542	84.19389
865.941	31.07712
866.34	92.21902
866.74	74.19802
867.139	43.10325
867.537	96.24292
867.936	74.17759
868.335	83.21022
868.734	61.15576
869.132	81.18737
869.531	79.19034
869.929	73.16591
870.327	45.10814
870.726	91.22554
871.124	78.18162
871.522	75.19043
871.92	75.18439
872.318	94.22824
872.715	97.23839
873.113	49.11958
873.511	69.17152
873.908	19.04828
874.306	94.23217
874.703	54.13518
875.1	95.24138
875.497	101.24012
875.894	65.15898
876.291	62.15201
876.688	81.20799
877.085	84.20051
877.482	98.24347
877.878	88.21054
878.275	45.11454
878.671	124.27238
879.068	99.23709
879.464	64.15447
879.86	70.16511
880.256	64.15773
880.652	61.15499
881.048	78.19251
881.444	95.22447
881.84	72.18245
882.236	92.22981
882.631	76.18585
883.027	87.20946
883.422	46.11781
883.817	46.11578
884.213	65.1665
884.608	47.11543
885.003	28.06786
885.398	32.08043
885.793	73.18265
886.188	57.14164
886.582	117.29685
886.977	138.32233
887.371	42.10647
887.766	57.14169
888.16	87.21587
888.554	87.21389
888.949	103.25641
889.343	96.23275
889.737	16.0429
890.131	80.19977
890.525	111.28103
890.918	71.17816
891.312	84.1999
891.706	58.15207
892.099	92.23255
892.492	100.21374
892.886	95.23071
893.279	30.07675
893.672	52.13243
894.065	92.22881
894.458	68.1706
894.851	90.2191
895.244	60.15307
895.637	77.18468
896.029	98.23769
896.422	58.14162
896.814	69.17108
897.206	40.09552
897.599	137.3337
897.991	49.1186
898.383	63.14863
898.775	74.16638
899.167	58.13516
899.559	95.23872
899.951	54.12732
900.342	105.26461
900.734	-17.04272
901.125	68.17798
901.517	44.1082
901.908	99.23537
902.299	71.17301
902.69	80.18781
903.082	60.14514
903.473	40.09603
903.863	44.11245
904.254	43.10002
904.645	98.24178
905.036	46.11153
905.426	98.22242
905.817	51.1252
906.207	19.04557
906.597	45.10542
906.987	96.24698
907.378	71.17899
907.768	52.13749
908.158	59.14371
908.547	38.09841
908.937	56.14362
909.327	83.20044
909.717	89.22453
910.106	36.08676
910.495	108.26694
910.885	118.2954
911.274	71.17688
911.663	88.22197
912.052	97.23742
912.441	68.17244
912.83	103.2341
913.219	98.25449
913.608	77.18777
913.997	31.07801
914.385	66.1573
914.774	98.23661
915.162	87.20596
915.55	102.2445
915.939	41.10369
916.327	98.24258
916.715	68.17281
917.103	99.2416
917.491	73.17994
917.878	97.23654
918.266	66.17074
918.654	85.21589
919.041	44.11501
919.429	93.21778
919.816	87.21917
920.203	71.17159
920.591	67.1657
920.978	118.28544
921.365	20.05276
921.752	74.17569
922.139	130.27762
922.525	59.14151
922.912	96.23222
923.299	38.09468
923.685	63.16403
924.072	113.25745
924.458	62.1533
924.844	51.12622
925.231	53.12333
925.617	62.15739
926.003	58.14807
926.389	73.18344
926.774	54.13679
927.16	100.24617
927.546	67.17054
927.931	86.21327
928.317	61.14027
928.702	87.20445
929.088	21.04997
929.473	57.14488
929.858	32.07764
930.243	89.21208
930.628	41.09994
931.013	77.18994
931.398	97.22108
931.783	104.27137
932.167	82.19933
932.552	93.23126
932.937	80.19752
933.321	64.16022
933.705	35.08849
934.09	130.32391
934.474	74.17502
934.858	108.27737
935.242	54.12509
935.626	72.18362
936.009	49.13036
936.393	88.22244
936.777	27.06943
937.16	42.10944
937.544	131.30388
937.927	72.182
938.311	132.31738
938.694	78.20534
939.077	63.15047
939.46	105.25528
939.843	86.17808
940.226	105.26679
940.609	88.20053
940.991	95.23992
941.374	32.07849
941.757	112.27327
942.139	61.13673
942.522	71.16717
942.904	129.30551
943.286	91.22958
943.668	95.24419
944.05	57.14024
944.432	93.22772
944.814	71.17424
945.196	14.03435
945.578	56.13296
945.959	63.1473
946.341	111.26947
946.722	84.1959
947.104	83.19718
947.485	116.26647
947.866	47.11849
948.247	102.25498
948.628	82.19888
949.009	81.20632
949.39	79.19566
949.771	105.24164
950.152	36.08859
950.532	-1.00248
950.913	105.25069
951.293	47.12703
951.674	56.13531
952.054	26.06471
952.434	86.2121
952.814	15.03594
953.194	82.21346
953.574	96.23449
953.954	46.10934
954.334	61.15174
954.714	37.0904
955.093	64.15697
955.473	50.12504
955.853	65.16784
956.232	83.2263
956.611	93.22127
956.99	82.20491
957.37	79.2003
957.749	87.20612
958.128	75.18813
958.506	61.15795
958.885	71.17854
959.264	39.09578
959.643	91.2054
960.021	62.1533
960.4	66.14912
960.778	134.32499
961.156	57.14272
961.535	89.20588
961.913	87.20213
962.291	23.05929
962.669	44.11158
963.047	45.11495
963.424	74.18806
963.802	63.15455
964.18	80.20136
964.557	122.277
964.935	86.20237
965.312	52.13536
965.69	102.25304
966.067	97.23415
966.444	74.18156
966.821	110.28063
967.198	90.21672
967.575	107.26034
967.952	90.21047
968.329	93.2245
968.705	98.20801
969.082	43.11042
969.458	20.04825
969.835	83.20081
970.211	61.15625
970.587	104.2564
970.963	85.21673
971.339	70.18216
971.715	68.16925
972.091	63.15478
972.467	134.32914
972.843	73.1804
973.219	73.17455
973.594	59.15408
973.97	105.24732
974.345	89.21143
974.721	83.19975
975.096	46.1114
975.471	78.18405
975.846	64.15336
976.221	67.16963
976.596	37.08891
976.971	84.2061
977.346	92.21244
977.72	76.19273
978.095	72.18536
978.469	83.19687
978.844	90.22466
979.218	75.17893
979.593	79.18825
979.967	75.18187
980.341	120.27246
980.715	35.08843
981.089	57.14251
981.463	85.19381
981.837	69.16801
982.21	111.25524
982.584	51.12316
982.957	6.0151
983.331	98.22953
983.704	67.16412
984.078	59.14516
984.451	101.24996
984.824	39.09518
985.197	90.21697
985.57	75.18725
985.943	116.28303
986.316	120.29104
986.688	81.1942
987.061	82.19101
987.434	47.12254
987.806	107.25673
988.179	55.12965
988.551	109.27361
988.923	78.19109
989.295	61.15213
989.667	15.03607
990.039	71.17475
990.411	56.12875
990.783	91.20783
991.155	41.09867
991.527	71.17417
991.898	51.12705
992.27	52.12858
992.641	83.20699
993.012	105.24443
993.384	79.18738
993.755	78.19787
994.126	83.19839
994.497	38.09348
994.868	88.20061
995.239	71.17139
995.61	72.18044
995.98	68.16462
996.351	18.04483
996.722	34.0791
997.092	90.21146
997.462	12.02824
997.833	86.20245
998.203	84.20235
998.573	66.16385
998.943	74.17271
999.313	77.18356
999.683	43.10333
1000.053	91.20766
1000.423	89.21468
1000.792	66.17057
1001.162	68.16678
1001.531	69.16952
1001.901	102.25184
1002.27	97.21473
1002.639	41.10491
1003.009	95.22394
1003.378	79.20094
1003.747	63.14845
1004.116	53.12673
1004.485	46.11001
1004.853	97.24366
1005.222	69.17339
1005.591	103.24205
1005.959	46.10372
1006.328	75.1679
1006.696	41.09905
1007.064	80.20013
1007.433	107.26462
1007.801	136.32848
1008.169	90.22563
1008.537	143.31048
1008.905	71.1647
1009.273	84.20618
1009.64	12.02883
1010.008	81.19191
1010.375	125.29923
1010.743	90.20617
1011.11	34.08069
1011.478	46.11391
1011.845	110.25562
1012.212	42.09521
1012.579	98.2384
1012.946	127.29775
1013.313	150.35008
1013.68	149.32805
1014.047	49.11676
1014.414	57.13442
1014.78	122.29911
1015.147	70.16863
1015.513	91.21751
1015.88	118.29806
1016.246	93.22772
1016.612	107.2421
1016.978	93.22602
1017.344	81.199
1017.71	82.19873
1018.076	106.2472
1018.442	97.24742
1018.808	82.20372
1019.174	55.13781
1019.539	135.30545
1019.905	120.27908
1020.27	61.15019
1020.636	113.26762
1021.001	131.30868
1021.366	62.14851
1021.731	61.15653
1022.096	43.10856
1022.461	72.16963
1022.826	105.24684
1023.191	60.1571
1023.556	59.138
1023.92	92.22439
1024.285	110.26538
1024.649	117.28307
1025.014	69.17027
1025.378	46.1157
1025.742	50.12413
1026.107	141.31292
1026.471	135.30981
1026.835	54.13372
1027.199	46.11077
1027.562	74.17115
1027.926	86.20882
1028.29	88.22109
1028.654	29.06698
1029.017	73.17861
1029.381	37.08857
1029.744	39.09962
1030.107	102.23881
1030.471	81.19272
1030.834	123.27558
1031.197	121.28745
1031.56	54.12727
1031.923	75.19299
1032.286	66.15446
1032.648	108.25533
1033.011	78.17796
1033.374	125.28939
1033.736	40.1053
1034.099	61.14831
1034.461	60.15123
1034.823	117.28765
1035.185	55.13826
1035.548	77.18637
1035.91	46.11022
1036.272	84.18979
1036.634	110.26599
1036.995	81.18916
1037.357	68.1648
1037.719	77.18623
1038.08	112.26263
1038.442	65.15376
1038.803	80.19089
1039.165	53.13361
1039.526	85.20395
1039.887	74.17617
1040.248	70.17175
1040.609	117.28542
1040.97	77.18714
1041.331	128.31939
1041.692	55.12819
1042.053	84.18987
1042.413	70.16241
1042.774	84.20289
1043.134	155.3614
1043.495	99.24654
1043.855	104.24958
1044.215	100.24581
1044.576	76.18072
1044.936	107.2424
1045.296	90.22286
1045.656	67.16381
1046.016	70.16824
1046.375	53.12842
1046.735	51.11554
1047.095	63.14701
1047.454	106.22175
1047.814	89.21224
1048.173	81.19228
1048.533	43.0986
1048.892	46.11043
1049.251	107.26568
1049.61	85.20782
1049.969	67.15733
1050.328	44.09547
1050.687	55.13362
1051.046	76.18405
1051.405	93.22941
1051.763	42.09668
1052.122	66.16403
1052.48	69.16851
1052.839	109.25335
1053.197	97.22608
1053.555	123.27615
1053.914	88.21359
1054.272	129.30704
1054.63	63.15357
1054.988	81.19116
1055.345	97.20666
1055.703	134.31716
1056.061	84.21468
1056.419	78.20081
1056.776	71.17139
1057.134	99.22683
1057.491	65.16222
1057.848	87.215
1058.206	39.09186
1058.563	57.12539
1058.92	116.26369
1059.277	82.20097
1059.634	109.25335
1059.991	117.27655
1060.348	35.07929
1060.704	49.11672
1061.061	133.30375
1061.418	96.23065
1061.774	69.16964
1062.131	40.10587
1062.487	80.18583
1062.843	111.2735
1063.199	88.21719
1063.555	53.12265
1063.911	56.1412
1064.267	109.22424
1064.623	46.11174
1064.979	123.28713
1065.335	119.28052
1065.691	71.16938
1066.046	54.11857
1066.402	54.12251
1066.757	84.21059
1067.112	51.12506
1067.468	42.09926
1067.823	72.17226
1068.178	48.11607
1068.533	65.15703
1068.888	116.2735
1069.243	67.16472
1069.598	56.13582
1069.952	54.12141
1070.307	34.08435
1070.662	58.13739
1071.016	84.18677
1071.371	113.25359
1071.725	121.28534
1072.079	86.20529
1072.434	94.22636
1072.788	83.19626
1073.142	90.21959
1073.496	45.10678
1073.85	81.18656
1074.203	108.25898
1074.557	74.19586
1074.911	128.30074
1075.265	114.26146
1075.618	107.25829
1075.971	95.22386
1076.325	76.19211
1076.678	45.10294
1077.031	74.16652
1077.385	52.11442
1077.738	65.14617
1078.091	38.08656
1078.444	78.17997
1078.796	52.12744
1079.149	88.21719
1079.502	62.14601
1079.855	22.05155
1080.207	62.15229
1080.56	76.19539
1080.912	62.15049
1081.264	59.14173
1081.617	62.15066
1081.969	92.23015
1082.321	35.08564
1082.673	-8.01846
1083.025	54.12791
1083.377	-163.36565
1083.728	59.1373
1084.08	53.13213
1084.432	63.15145
1084.783	112.25903
1085.135	62.15493
1085.486	12.02764
1085.838	65.15951
1086.189	62.15003
1086.54	67.15935
1086.891	40.10126
1087.242	43.10474
1087.593	114.27399
1087.944	74.16652
1088.295	113.25339
1088.646	62.14981
1088.996	60.14415
1089.347	73.17821
1089.698	48.11339
1090.048	88.22687
1090.398	101.23169
1090.749	86.20418
1091.099	32.08066
1091.449	102.25147
1091.799	107.26491
1092.149	35.08551
1092.499	60.14596
1092.849	74.18712
1093.199	114.28219
1093.548	76.18155
1093.898	74.18418
1094.248	80.20431
1094.597	6.01542
1094.947	73.19383
1095.296	94.23004
1095.645	93.23989
1095.994	84.20028
1096.343	74.18525
1096.692	18.0475
1097.041	31.08411
1097.39	83.20677
1097.739	46.11954
1098.088	123.32527
1098.437	33.08686
1098.785	89.23819
1099.134	76.20075
1099.482	85.23227
1099.83	77.20123
1100.179	60.15608
1100.527	57.15114
1100.875	40.10583
1101.223	81.21377
1101.571	33.09135
1101.919	50.13051
1102.267	37.10428
1102.615	0
1102.962	10.0322
1103.31	2.00643
1103.658	10.03221
