Data from N2 R11 sample 11_Subt2__2__14-33-30-159.txt Node

Date: Mon Sep 01 14:33:30 PDT 2025
User: uwsun
Spectrometer: HDX01956
Trigger mode: 0
Integration Time (sec): 5.000000E-1
Scans to average: 1
Nonlinearity correction enabled: true
Boxcar width: 0
Storing dark spectrum: false
XAxis mode: Wavelengths
Number of Pixels in Spectrum: 2068
>>>>>Begin Spectral Data<<<<<
194.03	-22.06196
194.578	-26.08248
195.127	-35.10955
195.676	-36.11303
196.225	31.08182
196.773	16.04376
197.321	1.00268
197.87	44.108
198.418	-1.00244
198.966	-26.06419
199.513	-71.16854
200.061	-64.15423
200.609	7.0176
201.156	-17.03497
201.704	-28.06663
202.251	-7.01748
202.798	3.00734
203.345	0
203.892	14.03312
204.438	4.00903
204.985	-52.11634
205.532	-1.00248
206.078	-4.00926
206.624	-38.08827
207.17	27.05882
207.716	-25.05726
208.262	15.02787
208.808	-66.15368
209.354	-19.04355
209.899	8.01915
210.445	-37.08675
210.99	-40.09108
211.535	24.05303
212.08	36.07845
212.625	19.04474
213.17	14.03342
213.715	-18.03749
214.259	54.11752
214.804	26.06049
215.348	12.02588
215.892	41.09209
216.436	32.06985
216.98	63.13042
217.524	-22.04926
218.068	38.08987
218.612	-8.01911
219.155	-11.02451
219.698	6.01351
220.242	35.08238
220.785	-4.00887
221.328	18.04239
221.871	70.16671
222.414	36.08468
222.956	-54.12405
223.499	-10.02139
224.041	66.14461
224.583	54.11021
225.126	32.0665
225.668	-34.07876
226.21	-19.04538
226.751	-28.05816
227.293	-15.03271
227.835	-5.01156
228.376	24.05254
228.918	33.07873
229.459	-14.03298
230	-1.00225
230.541	-12.02633
231.082	7.01603
231.622	38.08249
232.163	5.01143
232.704	3.00702
233.244	-10.02349
233.784	74.16992
234.324	-4.00825
234.864	0
235.404	14.0315
235.944	37.08256
236.484	36.08458
237.023	-13.02905
237.563	16.03473
238.102	-5.01117
238.641	39.09247
239.18	-12.02642
239.719	16.03781
240.258	25.05287
240.797	-14.03161
241.335	30.069
241.874	0
242.412	-11.02493
242.95	-106.24252
243.488	35.07476
244.026	-18.03912
244.564	68.12983
245.102	4.00843
245.64	44.09933
246.177	-12.0254
246.715	35.07874
247.252	11.02378
247.789	58.10226
248.326	-38.08589
248.863	-9.01853
249.4	31.06584
249.936	-18.03492
250.473	-30.06593
251.009	-15.03224
251.546	10.0206
252.082	9.01847
252.618	39.08052
253.154	-27.06094
253.69	-38.08084
254.226	35.07758
254.761	1.0021
255.297	8.01633
255.832	-30.06673
256.367	5.011
256.903	13.02658
257.438	4.0088
257.972	26.05381
258.507	-73.15776
259.042	27.05442
259.576	-2.00399
260.111	4.00865
260.645	15.03026
261.179	-28.06112
261.713	1.00207
262.247	25.05352
262.781	-14.02733
263.315	-40.0917
263.849	-28.06543
264.382	21.04486
264.915	-31.06771
265.449	-56.12699
265.982	16.03381
266.515	-14.03177
267.048	13.02542
267.58	-6.01226
268.113	-40.08068
268.646	-22.0505
269.178	-21.04351
269.71	45.09032
270.243	20.04225
270.775	-13.0307
271.307	26.05795
271.838	27.0595
272.37	10.02272
272.902	14.02944
273.433	-4.00809
273.965	-1.00225
274.496	-8.0185
275.027	-11.02525
275.558	-39.08796
276.089	-58.13201
276.62	9.0212
277.15	-37.08522
277.681	-3.00604
278.211	49.1101
278.741	-15.03037
279.272	-9.01889
279.802	11.02528
280.332	-42.09164
280.861	-22.04894
281.391	-12.02499
281.921	-1.00222
282.45	8.0184
282.98	27.06444
283.509	-42.08736
284.038	35.07246
284.567	5.01074
285.096	-15.03333
285.625	-42.08786
286.153	-19.04076
286.682	-29.06082
287.21	-26.05733
287.739	-26.0563
288.267	-55.12242
288.795	28.06712
289.323	-24.05101
289.851	-62.13396
290.378	-16.03273
290.906	-17.03727
291.433	-23.05234
291.961	-22.04519
292.488	-18.0408
293.015	-8.01699
293.542	-26.05966
294.069	-67.15049
294.596	53.11767
295.122	19.04071
295.649	48.09445
296.175	3.00657
296.702	-2.00439
297.228	27.059
297.754	-27.05472
298.28	-67.13808
298.806	-20.04321
299.332	-30.05942
299.857	-13.02624
300.383	-21.04808
300.908	-85.18605
301.433	-56.12239
301.958	4.00828
302.483	-63.14133
303.008	-9.01993
303.533	-34.07985
304.058	10.021
304.582	-78.16527
305.107	-51.11887
305.631	14.02831
306.155	-48.0993
306.679	-42.08689
307.203	10.02033
307.727	-16.03353
308.251	-72.15922
308.775	-69.14457
309.298	-76.1609
309.822	-61.1369
310.345	-13.02697
310.868	-32.06706
311.391	-13.02809
311.914	-67.14789
312.437	9.01786
312.96	-36.07384
313.482	-56.11596
314.005	-59.12974
314.527	-14.03184
315.049	-52.11528
315.571	-120.23234
316.093	-31.06625
316.615	-42.08709
317.137	-114.21607
317.659	2.00416
318.18	-39.08114
318.702	-37.0733
319.223	-57.09931
319.744	-69.13158
320.265	-62.12723
320.786	-111.23412
321.307	-73.15417
321.828	-41.07765
322.348	-72.14248
322.869	-110.21808
323.389	-125.16961
323.909	-45.08569
324.43	-32.06454
324.95	-89.16865
325.47	-108.22033
325.989	-60.11534
326.509	-136.24493
327.029	-103.18812
327.548	-126.22972
328.067	-94.1827
328.587	-71.14343
329.106	-117.21423
329.625	-12.02558
330.144	-118.21742
330.662	-111.20345
331.181	-84.15485
331.7	-136.25311
332.218	-154.26229
332.736	-62.11223
333.255	-186.34221
333.773	-141.26052
334.291	-89.17352
334.808	-124.21017
335.326	-104.17761
335.844	-167.29328
336.361	-173.33392
336.879	-135.23372
337.396	-140.25136
337.913	-122.20521
338.43	-128.20896
338.947	-110.19009
339.464	-170.26031
339.981	-207.35858
340.497	-149.26841
341.014	-188.33233
341.53	-193.30811
342.046	-213.37643
342.562	-129.22893
343.078	-187.31
343.594	-157.26185
344.11	-157.25882
344.626	-180.3172
345.141	-124.18863
345.657	-186.28904
346.172	-216.35858
346.687	-206.31769
347.202	-196.29018
347.717	-189.3012
348.232	-157.26185
348.747	-199.29849
349.261	-256.3537
349.776	-246.37962
350.29	-268.43166
350.805	-178.28733
351.319	-192.28356
351.833	-235.33025
352.347	-273.40952
352.861	-242.35152
353.374	-194.27742
353.888	-255.39015
354.401	-226.31649
354.915	-275.36634
355.428	-206.31096
355.941	-255.35357
356.454	-147.19162
356.967	-232.32822
357.48	-203.27257
357.993	-232.34223
358.505	-331.48908
359.018	-215.3062
359.53	-250.3454
360.042	-215.26397
360.554	-273.38441
361.066	-289.40436
361.578	-199.22975
362.09	-227.30016
362.602	-283.33366
363.113	-277.34866
363.625	-308.36974
364.136	-285.32835
364.647	-390.47408
365.158	-290.35243
365.669	-260.32507
366.18	-263.31856
366.691	-287.31358
367.201	-301.36831
367.712	-347.39085
368.222	-324.36031
368.733	-335.33109
369.243	-296.29088
369.753	-307.3281
370.263	-285.31286
370.773	-329.38109
371.282	-399.42895
371.792	-433.40354
372.301	-410.41936
372.811	-378.43349
373.32	-439.32297
373.829	-475.41654
374.338	-449.33071
374.847	-512.3881
375.356	-587.46193
375.865	-548.28112
376.373	-542.30296
376.882	-461.32796
377.39	-554.3369
377.898	-732.41333
378.407	-676.23785
378.915	-617.1486
379.423	-647.18379
379.93	-685.12425
380.438	-795.13349
380.946	-771.03298
381.453	-945.02075
381.96	-951.90375
382.468	-1162.75945
382.975	-1020.75514
383.482	-996.64709
383.989	-1130.69396
384.495	-1117.53381
385.002	-1314.3367
385.509	-1361.31938
386.015	-1445.21652
386.521	-1368.25505
387.028	-1626.14232
387.534	-1585.21701
388.04	-1542.22004
388.546	-1895.22361
389.051	-2039.44276
389.557	-2172.68134
390.063	-1781.97736
390.568	-2033.28786
391.073	-2390.97601
391.578	-2407.25414
392.084	-2693.43484
392.589	-3055.38803
393.093	-3596.05903
393.598	-3612.27886
394.103	-3802.29472
394.607	-4143.86881
395.112	-4299.65386
395.616	-4585.64116
396.12	-5505.79193
396.624	-6029.51245
397.128	-6357.2444
397.632	-6710.35909
398.136	-7636.94302
398.639	-9750.16288
399.143	-11345.38749
399.646	-12360.19225
400.15	-13905.3833
400.653	-16287.53641
401.156	-19063.70981
401.659	-23011.78661
402.162	-19251.12296
402.664	-5269.24237
403.167	-973.58866
403.67	0
404.172	0
404.674	0
405.176	0
405.678	0
406.18	0
406.682	0
407.184	0
407.686	0
408.187	0
408.688	0
409.19	0
409.691	0
410.192	0
410.693	-5497.20436
411.194	-10487.18397
411.694	-9013.59192
412.195	-7544.63939
412.696	-8583.6769
413.196	-10271.77141
413.696	-11365.88001
414.196	-9562.34826
414.696	-6448.11961
415.196	-3531.34233
415.696	672.55615
416.196	850.5294
416.695	-2143.08091
417.195	-3850.31823
417.694	-3733.30599
418.194	-2983.88721
418.693	-3692.35222
419.192	-3340.4773
419.691	-3402.08992
420.19	-2985.7973
420.688	-2519.06589
421.187	-2213.93036
421.685	-1757.42728
422.184	-1376.70502
422.682	-1142.29305
423.18	-1649.37709
423.678	-1819.0058
424.176	-1582.10305
424.674	-1503.52272
425.172	-1261.96058
425.669	-1069.67605
426.167	-851.63973
426.664	-876.55242
427.161	-963.46534
427.659	-824.55318
428.156	-843.53789
428.652	-763.66998
429.149	-856.66052
429.646	-808.68279
430.143	-610.82954
430.639	-612.86565
431.135	-689.96135
431.632	-660.96042
432.128	-661.05931
432.624	-754.19057
433.12	-777.07891
433.616	-683.06842
434.111	-783.19183
434.607	-730.24684
435.103	-542.12603
435.598	-520.13407
436.093	-551.2902
436.588	-402.20044
437.083	-457.27356
437.578	-422.28411
438.073	-626.54785
438.568	-463.42467
439.062	-461.32687
439.557	-425.39501
440.051	-437.38133
440.546	-498.45915
441.04	-536.56999
441.534	-477.56648
442.028	-421.46491
442.522	-499.56886
443.015	-448.44094
443.509	-400.47752
444.002	-451.55051
444.496	-397.40452
444.989	-473.60068
445.482	-451.58504
445.975	-481.54041
446.468	-460.48584
446.961	-421.44188
447.454	-442.51965
447.947	-525.67193
448.439	-409.54282
448.931	-470.56081
449.424	-412.59009
449.916	-436.59715
450.408	-474.5859
450.9	-482.66841
451.392	-485.72121
451.884	-430.56634
452.375	-498.73224
452.867	-327.42029
453.358	-467.61327
453.849	-451.54972
454.341	-475.63687
454.832	-445.55841
455.323	-469.70248
455.814	-401.55651
456.304	-407.57177
456.795	-413.57947
457.285	-390.54071
457.776	-404.58881
458.266	-430.64772
458.756	-399.61856
459.247	-465.7163
459.737	-446.68802
460.226	-396.56573
460.716	-402.62888
461.206	-405.64742
461.695	-414.70982
462.185	-383.60595
462.674	-321.49029
463.163	-303.44112
463.653	-325.44777
464.142	-460.779
464.63	-368.63025
465.119	-373.59454
465.608	-388.6236
466.096	-343.52048
466.585	-282.45576
467.073	-355.61467
467.561	-350.61069
468.05	-324.54356
468.538	-354.6425
469.026	-356.62937
469.513	-310.46743
470.001	-333.55239
470.489	-337.5894
470.976	-292.49791
471.463	-327.61936
471.951	-287.54678
472.438	-315.55934
472.925	-349.6223
473.412	-310.5939
473.899	-312.5556
474.385	-279.53335
474.872	-299.54004
475.359	-329.63473
475.845	-271.43191
476.331	-278.47736
476.817	-314.61699
477.303	-273.50418
477.789	-282.54627
478.275	-310.62379
478.761	-276.54028
479.247	-200.3578
479.732	-295.59949
480.218	-255.54491
480.703	-285.58578
481.188	-278.48888
481.673	-277.52413
482.158	-315.54975
482.643	-198.4188
483.128	-290.55075
483.612	-262.51287
484.097	-220.4529
484.581	-244.47944
485.066	-233.47588
485.55	-255.46975
486.034	-267.48865
486.518	-229.45178
487.002	-307.64522
487.486	-269.56336
487.969	-286.60228
488.453	-229.49868
488.936	-226.43569
489.42	-234.44699
489.903	-237.52092
490.386	-692.12093
490.869	-195.36734
491.352	-190.40628
491.835	-178.31778
492.318	-226.44408
492.8	-179.31981
493.283	-260.58311
493.765	-265.57731
494.247	-185.3811
494.73	-191.36954
495.212	-184.39379
495.694	-232.47824
496.175	-264.55375
496.657	-164.34233
497.139	-135.20628
497.62	-249.52356
498.102	-234.51724
498.583	-212.47507
499.064	-238.47273
499.545	-143.28676
500.026	-201.40045
500.507	-148.3033
500.988	-122.2672
501.469	-194.43259
501.949	-94.20457
502.43	-206.43611
502.91	-87.156
503.39	-95.21039
503.87	-99.20357
504.35	-50.10344
504.83	-45.08527
505.31	-36.07571
505.79	-13.02682
506.269	22.04433
506.749	18.03517
507.228	15.0302
507.707	107.19899
508.187	112.22755
508.666	83.17306
509.145	88.17397
509.623	211.40883
510.102	290.57306
510.581	344.67307
511.059	353.71081
511.538	476.97678
512.016	572.04097
512.494	597.1039
512.972	632.13178
513.45	664.12277
513.928	791.38271
514.406	839.42072
514.884	958.73389
515.361	1026.66511
515.839	1154.68657
516.316	1218.88689
516.793	1244.06702
517.27	1382.08611
517.747	1392.25029
518.224	1449.00086
518.701	1526.94029
519.178	1598.30777
519.654	1743.30382
520.131	1598.32336
520.607	1697.42507
521.083	1587.05797
521.56	1590.16975
522.036	1594.95653
522.512	1582.33071
522.987	1421.04353
523.463	1485.1169
523.939	1463.21024
524.414	1374.962
524.89	1246.91147
525.365	1251.79427
525.84	1134.77854
526.315	1069.75414
526.79	1107.65366
527.265	991.55369
527.74	929.61099
528.215	840.43279
528.689	816.29426
529.164	857.31952
529.638	759.47691
530.112	695.22793
530.587	626.99965
531.061	607.12691
531.534	659.22668
532.008	548.03106
532.482	601.06481
532.956	448.92306
533.429	502.97062
533.903	462.81597
534.376	443.78301
534.849	417.78405
535.322	365.70892
535.795	336.68359
536.268	365.72245
536.741	335.66991
537.213	330.63345
537.686	265.54369
538.158	268.50053
538.631	282.58026
539.103	229.43288
539.575	362.61664
540.047	241.44775
540.519	248.50479
540.991	223.46868
541.463	185.38659
541.934	231.44908
542.406	158.32541
542.877	167.32481
543.348	203.42213
543.82	172.36636
544.291	189.38093
544.762	141.28968
545.233	143.31141
545.703	148.28175
546.174	152.30572
546.645	113.23352
547.115	158.32805
547.585	153.3034
548.056	114.23701
548.526	137.27612
548.996	158.32673
549.466	206.42961
549.935	167.33504
550.405	209.38269
550.875	192.38368
551.344	180.36688
551.814	298.56346
552.283	307.54712
552.752	250.48011
553.221	298.52324
553.69	340.60798
554.159	336.66801
554.628	379.67056
555.096	380.77662
555.565	461.80295
556.033	522.96342
556.502	558.05455
556.97	586.99845
557.438	637.16158
557.906	729.31025
558.374	770.31661
558.842	839.48068
559.31	919.47286
559.777	965.67006
560.245	1136.83518
560.712	1132.79689
561.18	1311.84381
561.647	1314.8837
562.114	1553.11918
562.581	1644.46124
563.048	1794.33444
563.514	1868.58597
563.981	2121.44907
564.448	2407.41786
564.914	2480.60453
565.381	2746.50753
565.847	2888.63595
566.313	3155.55521
566.779	3367.318
567.245	3566.44688
567.711	3893.44004
568.176	4178.89185
568.642	4415.45872
569.108	4712.16236
569.573	5124.69113
570.038	5396.92136
570.504	5791.05855
570.969	6179.60059
571.434	6570.83699
571.899	6910.24767
572.363	7415.26712
572.828	7736.52645
573.293	8226.04984
573.757	8698.77967
574.222	9096.59008
574.686	9555.76507
575.15	9963.86648
575.614	10374.39905
576.078	10725.70686
576.542	10975.94245
577.006	11518.722
577.469	11729.11831
577.933	12040.80578
578.396	12251.49768
578.86	12260.64014
579.323	12502.1135
579.786	12611.84787
580.249	12642.52338
580.712	12650.77781
581.175	12648.69323
581.637	12834.64061
582.1	12686.11231
582.563	12636.98371
583.025	12435.47561
583.487	12633.68976
583.95	12333.00617
584.412	12267.71492
584.874	12209.03141
585.336	11929.58288
585.797	11774.42163
586.259	11423.83773
586.721	11066.17061
587.182	11025.95476
587.643	10782.04717
588.105	10538.87259
588.566	10267.26994
589.027	9914.67332
589.488	9827.50725
589.949	9431.33154
590.41	9253.15415
590.87	8948.25899
591.331	8682.72734
591.791	8337.21794
592.252	8193.00558
592.712	7883.81
593.172	7603.38169
593.632	7441.20406
594.092	7131.08175
594.552	6963.8956
595.011	6664.07166
595.471	6435.97636
595.931	6276.96823
596.39	6166.34527
596.849	5956.25929
597.308	5769.97352
597.768	5516.98033
598.227	5445.68024
598.685	5222.52731
599.144	5080.67704
599.603	4943.83938
600.062	4930.14605
600.52	4784.54551
600.978	4626.02189
601.437	4568.85043
601.895	4466.46562
602.353	4329.8054
602.811	4234.84537
603.269	4157.33258
603.727	4042.38887
604.184	3997.0334
604.642	3809.63864
605.099	3868.28556
605.557	3826.60973
606.014	3671.95078
606.471	3612.79731
606.928	3551.95519
607.385	3516.64694
607.842	3523.33548
608.299	3484.47315
608.755	3525.63347
609.212	3488.18652
609.668	3285.21978
610.125	3394.7127
610.581	3479.6445
611.037	3405.45407
611.493	3313.66651
611.949	3328.72699
612.405	3230.84276
612.861	3158.70554
613.316	3148.7463
613.772	3177.54495
614.227	3096.69914
614.683	3164.22874
615.138	2957.68452
615.593	3057.64036
616.048	3071.58829
616.503	2951.99552
616.958	2924.08173
617.412	2910.77971
617.867	2852.4328
618.321	2820.18399
618.776	2799.48762
619.23	2680.77135
619.684	2711.61097
620.138	2686.75848
620.592	2529.94883
621.046	2566.80842
621.5	2498.95564
621.954	2386.61171
622.407	2371.56006
622.861	2256.90565
623.314	2273.64383
623.768	2225.721
624.221	2186.07695
624.674	2051.62035
625.127	2040.68419
625.58	2121.63989
626.033	2024.48331
626.485	1921.71725
626.938	1937.72335
627.39	1888.60927
627.843	1846.5711
628.295	1774.52673
628.747	1836.67324
629.199	1763.46812
629.651	1705.42764
630.103	1674.43836
630.555	1740.23398
631.006	1616.48658
631.458	1624.51355
631.909	1626.44845
632.361	1561.43671
632.812	1511.35793
633.263	1537.18246
633.714	1493.13639
634.165	1480.50333
634.616	1362.31866
635.067	1387.15905
635.518	1331.30372
635.968	1354.87551
636.419	1324.04771
636.869	1278.2424
637.319	1231.10741
637.769	1236.02898
638.219	1205.17597
638.669	1146.08846
639.119	1178.19768
639.569	1167.1509
640.019	1187.07502
640.468	1078.85986
640.918	1122.09908
641.367	1090.8876
641.816	1083.87396
642.265	1059.91957
642.714	1111.98964
643.163	1011.84443
643.612	987.89675
644.061	934.57399
644.51	949.73892
644.958	991.72426
645.406	942.8314
645.855	971.93391
646.303	964.82365
646.751	913.68878
647.199	951.74609
647.647	907.7052
648.095	903.69268
648.543	910.50435
648.99	860.70824
649.438	919.77519
649.885	899.84835
650.333	914.41551
650.78	793.62292
651.227	812.66896
651.674	835.5873
652.121	814.67533
652.568	786.62344
653.015	844.8071
653.461	830.6593
653.908	782.54807
654.354	808.63614
654.801	756.51467
655.247	800.47975
655.693	755.70558
656.139	722.49778
656.585	749.5466
657.031	676.37104
657.477	725.33976
657.922	708.40988
658.368	708.5255
658.813	732.47396
659.259	719.49719
659.704	683.38872
660.149	646.32562
660.594	693.43723
661.039	716.41261
661.484	658.38915
661.929	640.32452
662.373	605.3654
662.818	625.38188
663.262	611.3115
663.707	599.36338
664.151	583.28194
664.595	551.20184
665.039	583.30874
665.483	570.31323
665.927	580.23016
666.371	493.04149
666.814	573.23617
667.258	548.1723
667.701	636.21812
668.145	596.33877
668.588	536.1999
669.031	549.16862
669.474	520.14538
669.917	527.06428
670.36	500.14076
670.803	531.17233
671.245	470.91527
671.688	526.17603
672.13	461.95689
672.573	453.07209
673.015	458.02123
673.457	434.88175
673.899	492.1008
674.341	413.93663
674.783	408.91909
675.225	424.97774
675.666	396.89572
676.108	398.81489
676.549	445.98581
676.991	420.86888
677.432	401.75062
677.873	375.82315
678.314	399.89938
678.755	408.93523
679.196	331.72536
679.637	364.8471
680.078	376.83628
680.518	384.84982
680.959	369.84026
681.399	361.85219
681.839	331.77199
682.28	316.74845
682.72	280.62046
683.16	348.82708
683.6	338.73929
684.039	321.6434
684.479	264.62868
684.919	239.53701
685.358	345.83773
685.798	311.78392
686.237	301.70314
686.676	307.68836
687.115	266.60783
687.554	297.68125
687.993	293.62774
688.432	261.5809
688.871	241.53438
689.309	275.63712
689.748	280.56966
690.186	318.7319
690.625	280.63621
691.063	257.60014
691.501	236.57042
691.939	236.57471
692.377	241.57403
692.815	221.51811
693.253	305.70857
693.69	255.54727
694.128	209.49725
694.565	256.59533
695.003	260.64188
695.44	208.48105
695.877	221.50634
696.314	278.58208
696.751	223.50065
697.188	220.49645
697.625	267.59819
698.061	186.44074
698.498	256.60449
698.934	251.59004
699.371	193.44822
699.807	243.56209
700.243	198.46954
700.679	199.44548
701.115	212.49205
701.551	219.50719
701.987	241.53149
702.422	211.49273
702.858	192.45162
703.294	164.36993
703.729	208.50085
704.164	221.52215
704.599	199.43814
705.035	169.37568
705.47	186.44652
705.904	194.44617
706.339	221.50613
706.774	167.3883
707.209	145.33342
707.643	181.43014
708.078	164.39611
708.512	143.35533
708.946	233.54752
709.38	172.40426
709.814	146.33337
710.248	191.45966
710.682	219.51141
711.116	113.26968
711.549	138.35428
711.983	152.34986
712.416	176.4127
712.85	196.48159
713.283	181.42401
713.716	188.46654
714.149	231.54028
714.582	158.35349
715.015	203.50072
715.448	180.44848
715.881	173.3769
716.313	172.39969
716.746	142.33324
717.178	162.38654
717.61	172.43166
718.043	160.39575
718.475	162.3898
718.907	213.53021
719.339	111.25258
719.77	104.2473
720.202	128.32274
720.634	133.32251
721.065	170.39956
721.497	187.45259
721.928	138.33733
722.359	108.26066
722.79	110.26378
723.221	155.38739
723.652	178.45409
724.083	121.27356
724.514	136.31229
724.945	121.28468
725.375	102.23759
725.806	141.35061
726.236	165.41878
726.666	113.26824
727.096	181.43906
727.526	110.27924
727.956	131.29761
728.386	151.36959
728.816	103.26078
729.246	73.17875
729.675	61.15152
730.105	139.34085
730.534	155.36069
730.964	156.39151
731.393	165.4067
731.822	106.2709
732.251	111.28163
732.68	156.3658
733.109	104.25677
733.537	122.29433
733.966	104.25866
734.395	175.40031
734.823	138.31129
735.251	106.25593
735.68	169.41932
736.108	126.31793
736.536	81.19272
736.964	134.31041
737.392	128.31939
737.82	129.30916
738.247	107.25702
738.675	163.38677
739.102	117.29178
739.53	112.28472
739.957	122.31277
740.384	159.38946
740.811	95.24146
741.238	50.1235
741.665	111.25789
742.092	128.30542
742.519	47.1176
742.945	159.37873
743.372	91.22612
743.798	134.34269
744.225	120.28524
744.651	106.26613
745.077	159.39292
745.503	95.2327
745.929	155.3692
746.355	155.3829
746.781	106.26296
747.207	46.10934
747.632	88.21527
748.058	115.28669
748.483	72.16751
748.908	83.20722
749.334	146.35636
749.759	88.20869
750.184	91.21768
750.609	107.26326
751.033	126.29777
751.458	151.33734
751.883	125.30902
752.307	84.19898
752.732	61.15345
753.156	87.21571
753.58	142.33584
754.005	116.29395
754.429	93.21957
754.853	68.16962
755.277	52.1246
755.7	72.17979
756.124	75.18711
756.548	86.20489
756.971	121.29495
757.394	122.3131
757.818	74.19124
758.241	98.24878
758.664	77.1953
759.087	74.16665
759.51	125.31004
759.933	110.26458
760.356	130.33153
760.778	92.22681
761.201	109.26531
761.623	129.3121
762.046	136.32165
762.468	100.24099
762.89	128.31487
763.312	84.2061
763.734	132.31641
764.156	114.28105
764.578	99.22874
765	103.25155
765.421	64.16339
765.843	81.21284
766.264	142.34116
766.686	129.32253
767.107	69.16839
767.528	26.06642
767.949	118.29902
768.37	74.18264
768.791	130.31328
769.212	50.12657
769.632	57.13411
770.053	78.20582
770.473	127.30761
770.894	95.23821
771.314	111.26521
771.734	32.07571
772.154	120.30678
772.575	99.2301
772.994	69.15803
773.414	157.37354
773.834	52.13107
774.254	109.2664
774.673	125.30322
775.093	52.12971
775.512	79.19523
775.931	95.24078
776.351	80.19919
776.77	68.16709
777.189	74.17698
777.607	62.15912
778.026	57.14293
778.445	47.11849
778.864	102.26113
779.282	81.19553
779.701	52.13201
780.119	74.18746
780.537	95.23683
780.955	120.30376
781.373	100.24699
781.791	93.20931
782.209	107.24644
782.627	57.15079
783.045	83.19154
783.462	82.20964
783.88	71.18403
784.297	74.18659
784.715	94.24082
785.132	75.18214
785.549	103.25687
785.966	73.18403
786.383	87.21405
786.8	83.1933
787.217	70.16665
787.633	10.02529
788.05	129.30456
788.466	124.29088
788.883	94.23913
789.299	90.21672
789.715	109.26392
790.131	100.24799
790.547	81.20245
790.963	93.2305
791.379	44.11198
791.795	63.14469
792.21	84.19667
792.626	108.25533
793.041	40.09952
793.457	111.273
793.872	73.17215
794.287	81.19339
794.702	93.22881
795.117	82.20365
795.532	37.09341
795.947	114.27306
796.362	127.30112
796.776	135.31365
797.191	80.19592
797.605	23.05462
798.02	24.05904
798.434	97.21581
798.848	75.18487
799.262	57.14195
799.676	91.22174
800.09	96.23554
800.504	129.31034
800.918	56.13049
801.331	44.11599
801.745	93.21334
802.158	81.20237
802.572	117.28201
802.985	138.33016
803.398	75.17913
803.811	141.3585
804.224	81.20157
804.637	50.11981
805.05	91.21067
805.462	89.21833
805.875	40.10423
806.288	57.13801
806.7	82.20587
807.112	88.20385
807.525	57.14122
807.937	63.15609
808.349	111.27632
808.761	75.1846
809.173	80.19381
809.584	103.25342
809.996	49.12056
810.408	55.14231
810.819	69.16259
811.231	22.05731
811.642	-23.05586
812.053	81.19242
812.464	138.32423
812.875	100.25431
813.286	87.22332
813.697	148.34161
814.108	88.21455
814.519	70.15642
814.929	102.25884
815.34	74.17954
815.75	95.24035
816.16	100.24808
816.571	65.169
816.981	81.19116
817.391	92.22146
817.801	56.13948
818.211	102.24199
818.62	77.18524
819.03	97.23672
819.44	103.26752
819.849	116.28997
820.259	56.14372
820.668	76.18675
821.077	68.16894
821.486	93.22323
821.895	107.26277
822.304	83.21935
822.713	76.17961
823.122	74.18458
823.531	65.15436
823.939	85.20658
824.348	113.27267
824.756	67.16794
825.164	106.26507
825.573	75.18799
825.981	139.34047
826.389	111.27682
826.797	119.29537
827.205	86.19685
827.612	74.1825
828.02	25.05923
828.428	95.24078
828.835	70.18409
829.243	93.22076
829.65	57.142
830.057	88.21287
830.464	46.11257
830.871	119.28237
831.278	77.18588
831.685	75.16735
832.092	79.19308
832.499	74.16187
832.905	91.22941
833.312	87.19789
833.718	92.22823
834.124	95.21609
834.531	94.23583
834.937	82.20986
835.343	136.32401
835.749	104.24139
836.155	49.12862
836.561	75.18419
836.966	92.22397
837.372	125.31478
837.777	42.10507
838.183	99.21889
838.588	83.20542
838.993	114.27514
839.399	57.13957
839.804	30.07358
840.209	81.20552
840.613	44.0984
841.018	86.21692
841.423	101.25735
841.828	64.16184
842.232	107.26306
842.637	112.26191
843.041	44.11312
843.445	70.17537
843.849	62.15353
844.253	108.25464
844.657	17.04315
845.061	57.1296
845.465	53.12828
845.869	89.20588
846.272	48.1172
846.676	90.21664
847.079	51.1299
847.483	93.23075
847.886	117.2819
848.289	67.17855
848.692	88.22181
849.095	76.18211
849.498	148.36943
849.901	130.29432
850.304	77.18356
850.707	102.2582
851.109	135.33716
851.512	91.22241
851.914	59.14869
852.316	85.21406
852.718	-2.00522
853.121	69.16883
853.523	55.12874
853.925	67.1745
854.326	67.16727
854.728	97.24777
855.13	47.12144
855.531	34.08166
855.933	97.23132
856.334	56.13969
856.736	42.09447
857.137	94.21714
857.538	20.05063
857.939	82.20171
858.34	85.20619
858.741	62.16195
859.142	83.19854
859.542	48.12683
859.943	64.15889
860.343	27.06724
860.744	118.28479
861.144	81.19679
861.544	24.05806
861.945	95.24052
862.345	90.21886
862.745	68.16869
863.145	123.29051
863.544	80.20136
863.944	88.20676
864.344	90.22229
864.743	122.29922
865.143	59.1515
865.542	38.08852
865.941	95.23356
866.34	111.26329
866.74	70.18744
867.139	68.16251
867.537	66.1679
867.936	74.17759
868.335	64.16264
868.734	105.26603
869.132	86.19874
869.531	95.2282
869.929	79.17933
870.327	79.18861
870.726	97.24015
871.124	71.16555
871.522	45.11486
871.92	104.25432
872.318	108.26154
872.715	146.35556
873.113	66.16056
873.511	85.21067
873.908	1.00255
874.306	57.14174
874.703	73.18212
875.1	104.26382
875.497	60.14377
875.894	55.13477
876.291	87.21231
876.688	68.17501
877.085	61.14625
877.482	87.21658
877.878	75.17988
878.275	87.2198
878.671	149.32558
879.068	106.25351
879.464	78.18776
879.86	69.16278
880.256	93.22797
880.652	56.14241
881.048	114.2795
881.444	77.18257
881.84	88.22236
882.236	80.20027
882.631	52.12773
883.027	104.24958
883.422	60.15329
883.817	69.17295
884.213	88.2245
884.608	49.12029
885.003	42.10152
885.398	82.20424
885.793	62.15544
886.188	53.13179
886.582	120.3043
886.977	90.2122
887.371	85.21383
887.766	31.07742
888.16	105.25967
888.554	109.26689
888.949	80.19998
889.343	93.2256
889.737	33.08823
890.131	80.19977
890.525	92.23371
890.918	56.1409
891.312	99.23491
891.706	49.12867
892.099	91.23007
892.492	98.20956
892.886	59.14425
893.279	70.17783
893.672	58.14755
894.065	95.23615
894.458	75.18793
894.851	102.24776
895.244	41.10495
895.637	97.23176
896.029	60.14656
896.422	120.28962
896.814	52.12933
897.206	67.15917
897.599	93.22839
897.991	55.13297
898.383	63.14863
898.775	132.29325
899.167	40.09354
899.559	99.2486
899.951	114.26565
900.342	115.28929
900.734	25.06235
901.125	79.20639
901.517	53.13011
901.908	129.30492
902.299	66.16098
902.69	101.23614
903.082	101.24243
903.473	46.11031
903.863	107.27042
904.254	91.20967
904.645	88.21751
905.036	48.11633
905.426	88.20013
905.817	92.22414
906.207	41.09793
906.597	65.15168
906.987	67.17324
907.378	74.18646
907.768	98.25711
908.158	61.14853
908.547	77.19806
908.937	50.12837
909.327	77.18616
909.717	123.30842
910.106	71.16997
910.495	75.1865
910.885	88.22149
911.274	53.13247
911.663	93.23437
912.052	106.25902
912.441	61.15488
912.83	71.16241
913.219	104.26979
913.608	75.18296
913.997	42.10549
914.385	99.23446
914.774	108.26026
915.162	58.13808
915.55	89.21387
915.939	68.17115
916.327	101.24987
916.715	45.11482
917.103	97.2368
917.491	91.22356
917.878	77.18847
918.266	62.16051
918.654	61.15559
919.041	36.09423
919.429	47.11105
919.816	75.18935
920.203	39.09482
920.591	72.1779
920.978	106.25699
921.365	89.23203
921.752	103.24318
922.139	82.17694
922.525	64.15336
922.912	106.25593
923.299	61.15136
923.685	64.1666
924.072	71.16313
924.458	52.12881
924.844	32.07947
925.231	78.18061
925.617	32.08167
926.003	75.1909
926.389	56.14115
926.774	75.18928
927.16	71.17572
927.546	27.06921
927.931	110.27159
928.317	72.1652
928.702	65.1534
929.088	13.03098
929.473	94.23736
929.858	53.12809
930.243	80.19096
930.628	59.14334
931.013	69.17046
931.398	124.28108
931.783	86.22509
932.167	62.15128
932.552	70.1748
932.937	79.19509
933.321	66.16517
933.705	53.13357
934.09	118.29465
934.474	74.17502
934.858	55.14256
935.242	74.17074
935.626	74.18865
936.009	56.14881
936.393	63.15996
936.777	51.13059
937.16	74.19177
937.544	111.2585
937.927	50.12688
938.311	103.24901
938.694	92.24162
939.077	30.07211
939.46	152.36629
939.843	91.18822
940.226	69.17643
940.609	83.18933
940.991	63.16002
941.374	43.10525
941.757	71.17456
942.139	36.08111
942.522	84.19728
942.904	81.19361
943.286	90.22709
943.668	109.27949
944.05	69.16939
944.432	81.19878
944.814	124.30131
945.196	49.11945
945.578	70.16575
945.959	116.26839
946.341	126.30502
946.722	104.24158
947.104	51.1219
947.485	101.23271
947.866	33.0834
948.247	77.19335
948.628	107.25829
949.009	59.15086
949.39	66.16385
949.771	134.30659
950.152	94.22884
950.532	35.08634
950.913	104.24835
951.293	12.03262
951.674	65.15679
952.054	81.19958
952.434	72.17803
952.814	94.2218
953.194	84.21859
953.574	89.21768
953.954	84.19821
954.334	80.19832
954.714	31.07582
955.093	117.28414
955.473	67.16703
955.853	98.2516
956.232	70.19125
956.611	80.19082
956.99	74.18519
957.37	69.17526
957.749	53.12639
958.128	51.12848
958.506	67.1733
958.885	71.17854
959.264	65.15886
959.643	35.0799
960.021	94.23106
960.4	66.14912
960.778	144.34859
961.156	81.20193
961.535	99.22856
961.913	91.21126
962.291	83.21171
962.669	53.13419
963.047	64.16293
963.424	64.16293
963.802	72.17633
964.18	100.25079
964.557	74.16965
964.935	82.19311
965.312	64.16626
965.69	92.22865
966.067	70.16984
966.444	120.29192
966.821	97.24803
967.198	100.24035
967.575	94.22927
967.952	101.23568
968.329	89.21501
968.705	72.15369
969.082	75.19151
969.458	12.029
969.835	89.21509
970.211	47.12069
970.587	109.26848
970.963	101.2568
971.339	74.19243
971.715	67.16679
972.091	82.20075
972.467	74.18378
972.843	110.26999
973.219	119.28204
973.594	69.17989
973.97	96.22652
974.345	58.13861
974.721	86.20686
975.096	80.1925
975.471	46.10922
975.846	102.24264
976.221	45.11438
976.596	76.18128
976.971	116.28292
977.346	98.22602
977.72	76.19273
978.095	82.21074
978.469	120.2826
978.844	113.28089
979.218	35.08414
979.593	68.16238
979.967	66.16032
980.341	55.12652
980.715	53.13347
981.089	119.29419
981.463	95.21618
981.837	41.10035
982.21	67.15542
982.584	82.19686
982.957	48.1199
983.331	114.26617
983.704	91.22191
984.078	90.22017
984.451	143.35118
984.824	59.14345
985.197	77.18609
985.57	119.29472
985.943	130.31636
986.316	117.28393
986.688	101.24123
987.061	83.1933
987.434	90.23291
987.806	63.15243
988.179	81.18998
988.551	100.25142
988.923	101.24639
989.295	92.22815
989.667	25.06001
990.039	30.0744
990.411	47.10825
990.783	115.26137
991.155	38.09151
991.527	154.37195
991.898	87.21532
992.27	54.13347
992.641	78.1947
993.012	75.17563
993.384	75.17803
993.755	56.14261
994.126	51.12265
994.497	25.06165
994.868	124.28062
995.239	67.16186
995.61	74.18539
995.98	57.13827
996.351	51.12627
996.722	64.14802
997.092	20.04763
997.462	5.01178
997.833	76.17926
998.203	96.23073
998.573	77.19078
998.943	54.12653
999.313	65.15531
999.683	40.09618
1000.053	54.12415
1000.423	64.15511
1000.792	107.27456
1001.162	54.13279
1001.531	77.18889
1001.901	71.1763
1002.27	67.14925
1002.639	79.2008
1003.009	41.09766
1003.378	59.1506
1003.747	83.19482
1004.116	74.17624
1004.485	62.14783
1004.853	80.20157
1005.222	69.17339
1005.591	72.17022
1005.959	49.11042
1006.328	63.14139
1006.696	64.15394
1007.064	72.18038
1007.433	107.26462
1007.801	102.24794
1008.169	48.12125
1008.537	84.18467
1008.905	18.04219
1009.273	86.21101
1009.64	21.05037
1010.008	95.22447
1010.375	128.30624
1010.743	116.26434
1011.11	55.13
1011.478	82.20171
1011.845	71.16626
1012.212	78.17552
1012.579	47.11543
1012.946	77.18229
1013.313	128.30003
1013.68	130.28736
1014.047	61.14502
1014.414	59.13908
1014.78	65.16105
1015.147	124.29565
1015.513	45.10851
1015.88	82.20846
1016.246	74.18183
1016.612	77.17529
1016.978	65.1588
1017.344	69.16989
1017.71	122.29344
1018.076	83.19444
1018.442	85.21727
1018.808	56.13979
1019.174	52.13037
1019.539	157.35364
1019.905	43.10152
1020.27	42.10377
1020.636	74.17657
1021.001	56.13388
1021.366	65.1556
1021.731	79.20207
1022.096	54.13606
1022.461	67.158
1022.826	98.2307
1023.191	88.22931
1023.556	106.24564
1023.92	90.21959
1024.285	78.18932
1024.649	85.20689
1025.014	91.22365
1025.378	82.20491
1025.742	93.22907
1026.107	79.17758
1026.471	87.20157
1026.835	96.23589
1027.199	68.16306
1027.562	68.15746
1027.926	73.17768
1028.29	61.154
1028.654	92.20982
1029.017	65.15928
1029.381	53.12649
1029.744	52.13252
1030.107	116.27084
1030.471	82.19506
1030.834	110.24712
1031.197	136.32215
1031.56	95.22211
1031.923	66.1701
1032.286	84.1959
1032.648	90.21352
1033.011	86.1959
1033.374	153.35224
1033.736	66.17298
1034.099	89.21525
1034.461	47.11874
1034.823	57.14169
1035.185	80.2002
1035.548	30.07325
1035.91	123.2904
1036.272	63.14295
1036.634	125.3014
1036.995	66.15458
1037.357	44.10712
1037.719	122.29255
1038.08	72.17015
1038.442	67.15843
1038.803	76.18148
1039.165	100.24998
1039.526	54.13033
1039.887	77.1832
1040.248	-2.00497
1040.609	85.20859
1040.97	51.12455
1041.331	76.19143
1041.692	32.07492
1042.053	87.19653
1042.413	78.18069
1042.774	60.14558
1043.134	120.28172
1043.495	101.25143
1043.855	47.11401
1044.215	63.15592
1044.576	43.1029
1044.936	118.26672
1045.296	96.23746
1045.656	89.21671
1046.016	105.25069
1046.375	89.21419
1046.735	50.11329
1047.095	53.12392
1047.454	104.21767
1047.814	78.1864
1048.173	113.26658
1048.533	77.17536
1048.892	48.11519
1049.251	121.29968
1049.61	42.10351
1049.969	72.1689
1050.328	125.26654
1050.687	55.13362
1051.046	67.16253
1051.405	71.17585
1051.763	69.15797
1052.122	65.16158
1052.48	86.20936
1052.839	47.11058
1053.197	87.20317
1053.555	154.34354
1053.914	61.14881
1054.272	127.3024
1054.63	47.11491
1054.988	72.17022
1055.345	84.17947
1055.703	93.22187
1056.061	48.12345
1056.419	42.10881
1056.776	84.20228
1057.134	75.17267
1057.491	65.16222
1057.848	64.15883
1058.206	81.18923
1058.563	109.23717
1058.92	74.16965
1059.277	106.25863
1059.634	117.27151
1059.991	91.21618
1060.348	52.11739
1060.704	20.04791
1061.061	127.2904
1061.418	24.05845
1061.774	85.20836
1062.131	50.13211
1062.487	72.16751
1062.843	87.21532
1063.199	59.14639
1063.555	43.09971
1063.911	118.29423
1064.267	93.19201
1064.623	73.17642
1064.979	133.30986
1065.335	115.2713
1065.691	83.19756
1066.046	130.28087
1066.402	81.18275
1066.757	107.26714
1067.112	73.17828
1067.468	38.08987
1067.823	73.17462
1068.178	117.27923
1068.533	95.2282
1068.888	119.28041
1069.243	67.16472
1069.598	80.19315
1069.952	7.01589
1070.307	32.07941
1070.662	36.08564
1071.016	16.03608
1071.371	71.16071
1071.725	107.25301
1072.079	103.24506
1072.434	40.09731
1072.788	97.22875
1073.142	94.22918
1073.496	52.12322
1073.85	79.18202
1074.203	72.17384
1074.557	46.12232
1074.911	103.24318
1075.265	77.17791
1075.618	91.22033
1075.971	56.13296
1076.325	84.21203
1076.678	48.10973
1077.031	75.16873
1077.385	76.16638
1077.738	64.14395
1078.091	78.17624
1078.444	84.19358
1078.796	65.15892
1079.149	83.20504
1079.502	39.09226
1079.855	60.13954
1080.207	66.162
1080.56	46.11888
1080.912	86.2078
1081.264	73.17489
1081.617	29.0709
1081.969	70.17581
1082.321	71.17256
1082.673	42.09594
1083.025	68.16064
1083.377	119.25143
1083.728	102.23534
1084.08	55.13707
1084.432	109.25974
1084.783	107.24771
1085.135	79.1968
1085.486	17.03912
1085.838	25.0618
1086.189	59.14286
1086.54	97.22937
1086.891	61.15384
1087.242	91.21967
1087.593	100.24099
1087.944	77.17316
1088.295	96.21602
1088.646	35.085
1088.996	41.09886
1089.347	85.20705
1089.698	-23.05508
1090.048	67.17336
1090.398	83.19109
1090.749	79.18782
1091.099	82.20483
1091.449	46.11458
1091.799	44.11019
1092.149	24.05876
1092.499	82.19866
1092.849	70.17713
1093.199	130.32085
1093.548	36.08666
1093.898	71.17681
1094.248	65.16644
1094.597	57.14519
1094.947	82.21739
1095.296	89.218
1095.645	88.22719
1095.994	75.17913
1096.343	84.20991
1096.692	6.01586
1097.041	64.17273
1097.39	106.26296
1097.739	54.14014
1098.088	112.29673
1098.437	12.0317
1098.785	88.23556
1099.134	93.24495
1099.482	52.14284
1099.83	80.20896
1100.179	27.07063
1100.527	61.16164
1100.875	72.18948
1101.223	65.17201
1101.571	45.12434
1101.919	10.02628
1102.267	58.16294
1102.615	4.01286
1102.962	20.06432
1103.31	8.0257
1103.658	28.09
