Data from N2 R11 sample 10_Subt2__0__14-34-41-157.txt Node

Date: Mon Sep 01 14:34:41 PDT 2025
User: uwsun
Spectrometer: HDX01956
Trigger mode: 0
Integration Time (sec): 5.000000E-1
Scans to average: 1
Nonlinearity correction enabled: true
Boxcar width: 0
Storing dark spectrum: false
XAxis mode: Wavelengths
Number of Pixels in Spectrum: 2068
>>>>>Begin Spectral Data<<<<<
194.03	224.60684
194.578	224.68851
195.127	189.57464
195.676	217.6594
196.225	284.71729
196.773	310.80739
197.321	402.00417
197.87	531.18259
198.418	512.1282
198.966	523.15753
199.513	470.99841
200.061	492.05776
200.609	521.18516
201.156	500.90894
201.704	495.05669
202.251	468.06506
202.798	523.15224
203.345	503.05894
203.892	505.07854
204.438	501.01399
204.985	459.9183
205.532	454.02731
206.078	556.1417
206.624	510.05368
207.17	579.1117
207.716	481.98905
208.262	546.88124
208.808	500.0316
209.354	511.04418
209.899	597.26489
210.445	508.06128
210.99	523.0528
211.535	569.11191
212.08	542.05229
212.625	563.18236
213.17	517.11232
213.715	480.88899
214.259	584.1259
214.804	595.22604
215.348	575.08861
215.892	568.13542
216.436	582.12043
216.98	557.02414
217.524	515.02333
218.068	570.20629
218.612	547.16486
219.155	533.05178
219.698	523.05038
220.242	518.10181
220.785	471.941
221.328	502.06819
221.871	478.04655
222.414	490.04803
222.956	442.91398
223.499	510.96815
224.041	515.01953
224.583	561.01186
225.126	486.90774
225.668	483.00159
226.21	448.97363
226.751	445.82683
227.293	429.84715
227.835	453.95119
228.376	539.04969
228.918	531.14298
229.459	452.9677
230	479.9734
230.541	465.91738
231.082	474.98321
231.622	468.92264
232.163	483.99718
232.704	465.98843
233.244	478.01305
233.784	506.05896
234.324	424.79035
234.864	477.91719
235.404	513.03405
235.944	536.07035
236.484	543.14681
237.023	556.09443
237.563	478.93528
238.102	477.95961
238.641	502.08115
239.18	444.88356
239.719	494.0566
240.258	474.90375
240.797	464.94485
241.335	517.0708
241.874	454.72767
242.412	508.02748
242.95	481.96989
243.488	476.91946
244.026	486.94283
244.564	523.88887
245.102	454.86224
245.64	553.11637
246.177	493.92834
246.715	581.1585
247.252	502.97108
247.789	570.87177
248.326	495.99674
248.863	484.88611
249.4	526.99658
249.936	478.81784
250.473	535.03398
251.009	465.89584
251.546	509.93119
252.082	538.97209
252.618	486.9028
253.154	501.00658
253.69	501.94063
254.226	455.91999
254.761	510.95164
255.297	528.9506
255.832	491.97368
256.367	515.01
256.903	556.99694
257.438	582.12258
257.972	538.986
258.507	485.9227
259.042	547.97096
259.576	497.87667
260.111	540.03144
260.645	591.03347
261.179	514.99287
261.713	479.88514
262.247	530.00887
262.781	469.81085
263.315	511.03946
263.849	501.04639
264.382	520.9905
264.915	502.97248
265.449	481.97122
265.982	602.10734
266.515	501.01584
267.048	503.86966
267.58	542.97032
268.113	581.00367
268.646	514.05056
269.178	549.99274
269.71	524.93567
270.243	562.04449
270.775	579.20746
271.307	559.10629
271.838	560.09404
272.37	558.12467
272.902	554.02499
273.433	551.97298
273.965	543.0841
274.496	539.10798
275.027	543.10568
275.558	558.1025
276.089	506.01781
276.62	575.20229
277.15	593.19123
277.681	559.9794
278.211	559.1223
278.741	535.94718
279.272	545.00253
279.802	545.11631
280.332	583.10163
280.861	570.10992
281.391	518.95173
281.921	558.09373
282.45	584.18581
282.98	561.19886
283.509	553.99793
284.038	562.0248
284.567	634.17567
285.096	614.18385
285.625	533.97314
286.153	582.08496
286.682	595.07442
287.21	559.07942
287.739	561.06049
288.267	538.04799
288.795	597.2726
289.323	542.00825
289.851	652.19169
290.378	636.10797
290.906	575.10135
291.433	640.25831
291.961	642.12022
292.488	621.22233
293.015	571.05783
293.542	613.22355
294.069	587.13902
294.596	622.21539
295.122	606.13203
295.649	613.04503
296.175	627.1913
296.702	633.20039
297.228	666.25663
297.754	625.077
298.28	626.08821
298.806	618.15108
299.332	613.03099
299.857	673.14389
300.383	709.38209
300.908	553.04534
301.433	579.09352
301.958	715.24299
302.483	626.20298
303.008	632.21045
303.533	686.38121
304.058	666.19526
304.582	643.1465
305.107	610.23361
305.631	680.16485
306.155	656.1423
306.679	666.15853
307.203	663.1463
307.727	686.21357
308.251	709.31014
308.775	616.094
309.298	673.19021
309.822	741.38646
310.345	715.24168
310.868	744.29114
311.391	754.36049
311.914	728.3376
312.437	826.32819
312.96	716.2188
313.482	753.27678
314.005	734.34324
314.527	746.43264
315.049	750.38294
315.571	721.11661
316.093	788.38432
316.615	797.34285
317.137	737.10881
317.659	872.46441
318.18	784.332
318.702	860.34869
319.223	727.0076
319.744	811.21912
320.265	840.37372
320.786	774.31497
321.307	882.47321
321.828	881.29705
322.348	872.34705
322.869	838.29584
323.389	949.85427
323.909	909.33439
324.43	970.50964
324.95	904.3031
325.47	858.36813
325.989	975.41343
326.509	951.2457
327.029	905.23874
327.548	974.29108
328.067	937.37907
328.587	981.50778
329.106	981.30866
329.625	1020.68874
330.144	928.26917
330.662	906.24213
331.181	1001.35325
331.7	1005.35068
332.218	1025.20738
332.736	1024.35153
333.255	1018.31934
333.773	1063.3861
334.291	1120.56758
334.808	1070.24571
335.326	1142.31874
335.844	1095.30587
336.361	1161.5396
336.879	1156.33809
337.396	1125.38207
337.913	1196.31645
338.43	1220.27202
338.947	1205.37953
339.464	1233.14372
339.981	1222.34447
340.497	1260.4786
341.014	1180.36724
341.53	1204.19051
342.046	1203.36896
342.562	1339.50566
343.078	1334.32733
343.594	1371.37355
344.11	1363.34608
344.626	1397.49155
345.141	1430.2307
345.657	1441.23989
346.172	1424.35189
346.687	1333.17773
347.202	1425.13672
347.717	1471.29867
348.232	1517.4322
348.747	1455.16731
349.261	1375.97156
349.776	1527.21285
350.29	1426.25944
350.805	1512.34528
351.319	1583.16732
351.833	1459.02765
352.347	1437.12046
352.861	1587.10408
353.374	1603.10475
353.888	1591.20207
354.401	1585.04321
354.915	1592.9232
355.428	1659.21474
355.941	1638.01038
356.454	1763.96114
356.967	1677.06575
357.48	1715.98298
357.993	1719.15422
358.505	1650.08928
359.018	1798.09268
359.53	1781.0071
360.042	1875.79391
360.554	1757.03117
361.066	1695.00824
361.578	1766.71541
362.09	1873.92729
362.602	1804.69212
363.113	1872.7996
363.625	1838.70092
364.136	1894.63406
364.647	1789.68002
365.158	1913.71935
365.669	2051.76184
366.18	1939.7256
366.691	1969.52626
367.201	1934.72013
367.712	1923.5504
368.222	2019.51636
368.733	2064.31117
369.243	2092.31654
369.753	2148.41795
370.263	2192.46141
370.773	2081.56369
371.282	2161.36223
371.792	2103.15434
372.301	2305.21466
372.811	2254.45149
373.32	2283.78839
373.829	2362.92679
374.338	2560.63364
374.847	2614.59781
375.356	2626.58882
375.865	2733.19234
376.373	2852.18431
376.882	2866.41835
377.39	2867.23127
377.898	2859.10137
378.407	3072.80298
378.915	3264.65985
379.423	3352.64996
379.93	3602.54027
380.438	3468.55291
380.946	3918.57453
381.453	3898.62452
381.96	3950.79284
382.468	4166.30338
382.975	4623.81513
383.482	4898.8579
383.989	4827.39043
384.495	4920.61197
385.002	5104.78168
385.509	5455.95732
386.015	5856.53979
386.521	6143.96003
387.028	6222.1894
387.534	6497.75607
388.04	6727.66397
388.546	6747.09208
389.051	7043.33586
389.557	7520.82696
390.063	8804.39659
390.568	8758.91936
391.073	8749.86227
391.578	9295.48483
392.084	9329.73004
392.589	9219.37686
393.093	9811.7009
393.598	11054.6267
394.103	12017.7861
394.607	13283.49009
395.112	14281.87173
395.616	15012.56981
396.12	16086.91508
396.624	17596.61649
397.128	19297.10575
397.632	21944.76754
398.136	23688.60213
398.639	23094.0474
399.143	24856.06814
399.646	27297.5337
400.15	24471.64775
400.653	20124.16724
401.156	13866.23708
401.659	5169.95759
402.162	1054.15589
402.664	0
403.167	0
403.67	0
404.172	0
404.674	0
405.176	0
405.678	0
406.18	0
406.682	0
407.184	0
407.686	0
408.187	0
408.688	0
409.19	0
409.691	0
410.192	0
410.693	0
411.194	435.30976
411.694	4082.94878
412.195	8864.71461
412.696	12089.80453
413.196	12760.96929
413.696	12863.67595
414.196	13703.56671
414.696	17261.84252
415.196	21764.24417
415.696	29583.19008
416.196	36460.31858
416.695	36536.82679
417.195	29851.03628
417.694	28233.38614
418.194	27002.19545
418.693	24625.21451
419.192	23851.12646
419.691	23626.55146
420.19	23413.48743
420.688	22751.94728
421.187	21901.44376
421.685	21049.6271
422.184	19378.71025
422.682	16772.75082
423.18	13568.02436
423.678	11961.41186
424.176	11038.07894
424.674	10295.90829
425.172	10088.60411
425.669	9588.96516
426.167	9196.87291
426.664	8238.28973
427.161	7699.63938
427.659	6902.05148
428.156	6444.15009
428.652	6005.13788
429.149	5670.84304
429.646	5604.52498
430.143	5353.75309
430.639	4922.75066
431.135	4677.06224
431.632	4483.90214
432.128	4114.56832
432.624	3746.53082
433.12	3583.53596
433.616	3490.54547
434.111	3341.60791
434.607	3092.76756
435.103	3111.72908
435.598	3147.73866
436.093	3025.04818
436.588	2910.1433
437.083	2750.33327
437.578	2599.53817
438.073	2379.82529
438.568	2416.96617
439.062	2259.75269
439.557	2321.05601
440.051	2099.07005
440.546	2065.11819
441.04	1896.35484
441.534	2001.53463
442.028	1935.46918
442.522	1851.49523
443.015	1870.30717
443.509	1927.61352
444.002	1783.65076
444.496	1650.44177
444.989	1653.72213
445.482	1664.77027
445.975	1661.52643
446.468	1618.46111
446.961	1590.47898
447.454	1614.6221
447.947	1490.71465
448.439	1488.83595
448.931	1548.63554
449.424	1480.96437
449.916	1616.87743
450.408	1382.68911
450.9	1391.8599
451.392	1312.95965
451.884	1372.80382
452.375	1261.92164
452.867	1336.81577
453.358	1252.76518
453.849	1300.67704
454.341	1194.77925
454.832	1284.7174
455.323	1198.94661
455.814	1233.87265
456.304	1188.87559
456.795	1228.88191
457.285	1208.86995
457.776	1194.93388
458.266	1185.9697
458.756	1100.99374
459.247	1041.92723
459.737	1005.91942
460.226	1029.84706
460.716	993.95099
461.206	969.96654
461.695	978.07213
462.185	889.91062
462.674	993.95099
463.163	925.85753
463.653	881.76137
464.142	866.9564
464.63	988.09671
465.119	840.89024
465.608	840.89523
466.096	884.86945
466.585	910.99216
467.073	795.96649
467.561	852.02679
468.05	850.98172
468.538	803.03659
469.026	802.99993
469.513	756.78717
470.001	729.86368
470.489	735.93056
470.976	714.89478
471.463	677.97185
471.951	692.00753
472.438	658.87841
472.925	600.81147
473.412	657.96791
473.899	647.87087
474.385	592.89527
474.872	564.79695
475.359	600.90195
475.845	583.70692
476.331	586.77739
476.817	582.90388
477.303	584.84993
477.789	483.76559
478.275	449.74615
478.761	505.80694
479.247	559.80669
479.732	455.76697
480.218	503.89839
480.703	493.83605
481.188	449.64091
481.673	464.72003
482.158	404.57281
482.643	448.81356
483.128	398.62987
483.612	415.68277
484.097	457.79766
484.581	437.72139
485.066	417.72628
485.55	403.62073
486.034	325.50645
486.518	329.56419
487.002	314.5696
487.486	315.57447
487.969	296.54351
488.453	342.65426
488.936	341.56817
489.42	280.46844
489.903	341.6582
490.386	-156.21509
490.869	360.58615
491.352	401.74765
491.835	333.5165
492.318	348.5915
492.8	353.54464
493.283	292.58026
493.765	281.54108
494.247	372.67036
494.73	284.48714
495.212	315.60129
495.694	262.48011
496.175	230.42976
496.657	410.74681
497.139	394.50875
497.62	250.46783
498.102	280.55226
498.583	349.69143
499.064	304.52761
499.545	381.67164
500.026	305.53623
500.507	393.70694
500.988	381.74565
501.469	390.76417
501.949	428.82792
502.43	408.74769
502.91	447.69221
503.39	493.95755
503.87	527.93107
504.35	619.08767
504.83	630.99859
505.31	684.20939
505.79	751.28301
506.269	828.36007
506.749	880.37061
507.228	963.5192
507.707	1078.5295
508.187	1211.85143
508.666	1239.92689
509.145	1353.89868
509.623	1503.03674
510.102	1668.26189
510.581	1820.36114
511.059	1921.52119
511.538	2152.80991
512.016	2324.48249
512.494	2582.5975
512.972	2718.49863
513.45	2922.26837
513.928	3186.49249
514.406	3377.34605
514.884	3670.70937
515.361	3960.12776
515.839	4182.70957
516.316	4438.90262
516.793	4707.12868
517.27	4902.73982
517.747	5076.98477
518.224	5222.27625
518.701	5277.03191
519.178	5319.60288
519.654	5468.3503
520.131	5420.5822
520.607	5464.61442
521.083	5298.16672
521.56	5200.41551
522.036	5141.05309
522.512	5022.82846
522.987	4931.56104
523.463	4667.75407
523.939	4564.04329
524.414	4460.73406
524.89	4202.0263
525.365	3934.88669
525.84	3809.18426
526.315	3621.39148
526.79	3531.07094
527.265	3283.22756
527.74	3159.62594
528.215	2949.49362
528.689	2840.19744
529.164	2748.14763
529.638	2640.99716
530.112	2453.5052
530.587	2379.07126
531.061	2177.55496
531.534	2219.62504
532.008	1997.4859
532.482	1982.32214
532.956	1808.61425
533.429	1803.43668
533.903	1713.08101
534.376	1645.03337
534.849	1600.15974
535.322	1581.20391
535.795	1455.21756
536.268	1370.08379
536.741	1327.05179
537.213	1381.9936
537.686	1254.0031
538.158	1191.7256
538.631	1185.94645
539.103	1074.61615
539.575	1095.5046
540.047	1086.60017
540.519	998.68585
540.991	1006.74998
541.463	975.68118
541.934	948.53029
542.406	846.4725
542.877	850.38548
543.348	843.50247
543.82	831.5154
544.291	897.51431
544.762	831.44138
545.233	775.45948
545.703	715.17362
546.174	767.32377
546.645	712.27276
547.115	713.29587
547.585	724.24373
548.056	712.28193
548.526	678.19564
548.996	712.28848
549.466	799.44591
549.935	686.21041
550.405	734.16646
550.875	685.21148
551.344	668.20931
551.814	665.14366
552.283	728.15623
552.752	692.18673
553.221	711.11333
553.69	717.1573
554.159	708.28448
554.628	679.10693
555.096	707.33642
555.565	756.21391
556.033	690.21876
556.502	685.25497
556.97	682.13083
557.438	720.28577
557.906	771.37103
558.374	667.1716
558.842	682.25229
559.31	679.16158
559.777	666.24312
560.245	735.32039
560.712	756.32797
561.18	767.26343
561.647	783.30703
562.114	784.33631
562.581	815.52293
563.048	882.4998
563.514	900.63117
563.981	950.5733
564.448	1007.59895
564.914	1043.72459
565.381	1128.77316
565.847	1210.92795
566.313	1266.96972
566.779	1297.9164
567.245	1375.08468
567.711	1430.20025
568.176	1451.02288
568.642	1514.41502
569.108	1599.42514
569.573	1731.39365
570.038	1809.05118
570.504	1941.29642
570.969	1987.7708
571.434	2070.25503
571.899	2162.61813
572.363	2308.47206
572.828	2378.52004
573.293	2489.52633
573.757	2645.53537
574.222	2673.37839
574.686	2778.38353
575.15	2885.67251
575.614	3058.46519
576.078	3080.57468
576.542	3246.38939
577.006	3241.32906
577.469	3349.85716
577.933	3360.23363
578.396	3492.55351
578.86	3484.50334
579.323	3407.57281
579.786	3490.0257
580.249	3409.32229
580.712	3492.72717
581.175	3482.77168
581.637	3399.43886
582.1	3486.15075
582.563	3392.08517
583.025	3376.70303
583.487	3269.80941
583.95	3173.11768
584.412	3224.03151
584.874	3109.78763
585.336	3043.66876
585.797	2990.22646
586.259	2904.69325
586.721	2826.64643
587.182	2810.67658
587.643	2720.51785
588.105	2539.70502
588.566	2567.20031
589.027	2361.73524
589.488	2349.5175
589.949	2336.78439
590.41	2262.8873
590.87	2199.506
591.331	2145.27544
591.791	2084.48666
592.252	1956.39231
592.712	1947.60009
593.172	1861.31038
593.632	1923.263
594.092	1844.27525
594.552	1696.08686
595.011	1688.2688
595.471	1651.17995
595.931	1546.09657
596.39	1605.35433
596.849	1541.22235
597.308	1518.01143
597.768	1408.36933
598.227	1445.25013
598.685	1409.09135
599.144	1253.97819
599.603	1308.06989
600.062	1251.71096
600.52	1289.88605
600.978	1296.05895
601.437	1255.93271
601.895	1210.70321
602.353	1170.77415
602.811	1163.7619
603.269	1190.96821
603.727	1208.98715
604.184	1148.77057
604.642	1114.93236
605.099	1158.8562
605.557	1104.91193
606.014	1101.62488
606.471	1102.94775
606.928	1033.536
607.385	1120.89783
607.842	1174.83103
608.299	1312.02311
608.755	1163.94397
609.212	1176.76323
609.668	1122.69083
610.125	1273.08029
610.581	1321.11147
611.037	1278.96895
611.493	1130.89116
611.949	1099.88066
612.405	1121.51777
612.861	1196.96623
613.316	1134.91234
613.772	1186.88521
614.227	1139.89333
614.683	1218.76992
615.138	1134.87106
615.593	1156.88337
616.048	1144.84816
616.503	1161.04104
616.958	1133.04342
617.412	1150.93
617.867	1089.70219
618.321	1140.63642
618.776	1096.73152
619.23	1076.83478
619.684	1110.80104
620.138	1179.9494
620.592	1059.90113
621.046	1069.84672
621.5	991.81514
621.954	1074.77068
622.407	1031.69622
622.861	979.80661
623.314	1017.72966
623.768	981.72748
624.221	894.32713
624.674	967.69213
625.127	883.61044
625.58	908.60902
626.033	926.57654
626.485	790.5151
626.938	793.5183
627.39	830.53611
627.843	832.53293
628.295	763.43051
628.747	753.46105
629.199	742.37568
629.651	688.29188
630.103	722.35917
630.555	729.25936
631.006	661.3018
631.458	658.30531
631.909	695.33743
632.361	625.24003
632.812	533.06755
633.263	601.10466
633.714	611.1152
634.165	638.32391
634.616	552.14368
635.067	545.05586
635.518	551.15
635.968	587.01298
636.419	547.03802
636.869	522.09636
637.319	470.96969
637.769	490.97237
638.219	472.01077
638.669	382.83164
639.119	499.08641
639.569	435.94961
640.019	465.96821
640.468	399.81342
640.918	462.00422
641.367	428.87194
641.816	411.83864
642.265	412.87026
642.714	436.91691
643.163	441.9211
643.612	333.74112
644.061	336.65898
644.51	348.73477
644.958	388.78326
645.406	336.74795
645.855	356.81083
646.303	385.83194
646.751	308.65631
647.199	385.80807
647.647	327.70299
648.095	349.74415
648.543	388.73473
648.99	331.73911
649.438	363.79514
649.885	301.70259
650.333	375.67317
650.78	324.73408
651.227	318.72693
651.674	292.62897
652.121	328.74948
652.568	286.65747
653.015	339.80554
653.461	282.63582
653.908	302.66558
654.354	287.65093
654.801	251.56211
655.247	284.59359
655.693	270.67072
656.139	329.74314
656.585	277.63309
657.031	214.48034
657.477	260.53693
657.922	275.60342
658.368	257.6079
658.813	326.71847
659.259	264.60593
659.704	223.50147
660.149	261.58282
660.594	301.67962
661.039	251.54983
661.484	318.72225
661.929	221.50084
662.373	224.54549
662.818	248.59217
663.262	229.53266
663.707	221.54211
664.151	269.63136
664.595	232.54102
665.039	221.53366
665.483	230.56658
665.927	229.52361
666.371	197.44391
666.814	199.46434
667.258	195.44964
667.701	292.60652
668.145	217.52598
668.588	217.51846
669.031	216.49379
669.474	209.49113
669.917	219.47427
670.36	233.56115
670.803	225.52934
671.245	231.47543
671.688	212.50545
672.13	143.31788
672.573	237.58543
673.015	189.44569
673.457	229.48702
673.899	248.58378
674.341	196.46408
674.783	180.42439
675.225	197.47482
675.666	164.38847
676.108	195.4176
676.549	236.54558
676.991	210.45488
677.432	176.34779
677.873	194.44207
678.314	218.50957
678.755	206.49133
679.196	201.45256
679.637	206.49434
680.078	202.4655
680.518	237.54059
680.959	187.44149
681.399	192.4681
681.839	204.48768
682.28	163.39748
682.72	177.40064
683.16	170.41787
683.6	240.53582
684.039	186.38446
684.479	192.46355
684.919	133.30534
685.358	197.49163
685.798	171.44183
686.237	187.44662
686.676	201.46052
687.115	198.45865
687.554	160.37709
687.993	192.42033
688.432	187.42259
688.871	150.33891
689.309	171.40434
689.748	208.43012
690.186	183.43255
690.625	153.35659
691.063	165.39227
691.501	209.50773
691.939	121.30099
692.377	129.31387
692.815	148.35192
693.253	174.4147
693.69	168.36732
694.128	176.42139
694.565	157.37225
695.003	150.3778
695.44	150.35091
695.877	104.24387
696.314	196.41784
696.751	185.41858
697.188	185.42046
697.625	203.4608
698.061	117.28094
698.498	191.45669
698.934	185.44049
699.371	139.32626
699.807	168.3944
700.243	140.33572
700.679	182.40886
701.115	180.42043
701.551	174.40657
701.987	192.42778
702.422	159.3751
702.858	150.35572
703.294	146.33054
703.729	144.35095
704.164	130.31257
704.599	171.3787
705.035	141.31526
705.47	90.22
705.904	135.31415
706.339	179.41341
706.774	150.34995
707.209	140.32224
707.643	152.36324
708.078	149.3609
708.512	64.16132
708.946	161.38364
709.38	126.29881
709.814	144.32893
710.248	147.35672
710.682	140.332
711.116	110.26267
711.549	164.41911
711.983	132.30504
712.416	166.39001
712.85	131.32575
713.283	172.40363
713.716	165.41118
714.149	159.37713
714.582	158.35349
715.015	160.39778
715.448	146.36602
715.881	177.38528
716.313	132.30916
716.746	167.38999
717.178	109.26272
717.61	176.44138
718.043	152.37652
718.475	117.28393
718.907	216.53738
719.339	115.26147
719.77	132.31219
720.202	112.28321
720.634	138.33432
721.065	101.24058
721.497	141.34422
721.928	97.23892
722.359	91.22033
722.79	123.29422
723.221	149.3728
723.652	210.53269
724.083	59.13507
724.514	84.19489
724.945	113.26627
725.375	125.28984
725.806	117.29221
726.236	141.35939
726.666	131.30988
727.096	152.37072
727.526	113.2867
727.956	87.19941
728.386	147.36007
728.816	47.12018
729.246	98.23884
729.675	78.19315
730.105	157.3837
730.534	125.2926
730.964	149.37441
731.393	159.39234
731.822	138.35069
732.251	132.33366
732.68	131.30868
733.109	101.24951
733.537	112.27072
733.966	132.32662
734.395	92.21396
734.823	129.29152
735.251	99.23934
735.68	164.40728
736.108	122.30805
736.536	136.32015
736.964	139.32167
737.392	141.351
737.82	160.38119
738.247	127.30391
738.675	143.34062
739.102	103.25752
739.53	87.22215
739.957	150.38267
740.384	190.4627
740.811	121.30613
741.238	85.20859
741.665	55.1292
742.092	151.35871
742.519	61.15224
742.945	108.25977
743.372	136.33516
743.798	96.24715
744.225	68.16325
744.651	125.31275
745.077	98.24489
745.503	139.33769
745.929	127.30414
746.355	203.49704
746.781	131.32349
747.207	51.12111
747.632	80.19599
748.058	92.23031
748.483	128.29451
748.908	78.19491
749.334	59.14634
749.759	105.24819
750.184	43.1038
750.609	119.29213
751.033	130.30698
751.458	129.2895
751.883	106.26296
752.307	86.20363
752.732	60.15096
753.156	114.28126
753.58	141.33354
754.005	99.25163
754.429	109.25655
754.853	95.2358
755.277	99.23509
755.7	110.27278
756.124	71.17726
756.548	67.16021
756.971	115.28064
757.394	101.26016
757.818	102.26232
758.241	99.25127
758.664	143.35843
759.087	55.12434
759.51	114.28332
759.933	71.17204
760.356	113.28904
760.778	82.20253
761.201	110.26769
761.623	150.36147
762.046	113.26844
762.468	163.38811
762.89	122.30044
763.312	118.28769
763.734	81.19605
764.156	85.21067
764.578	112.25811
765	108.26351
765.421	77.19613
765.843	108.28248
766.264	139.33414
766.686	114.2858
767.107	110.26639
767.528	67.16993
767.949	99.25172
768.37	90.22147
768.791	120.28973
769.212	66.1666
769.632	72.1689
770.053	78.20582
770.473	91.22191
770.894	124.3093
771.314	165.39016
771.734	82.19213
772.154	104.26663
772.575	85.19811
772.994	79.18057
773.414	112.26878
773.834	110.27438
774.254	58.1431
774.673	111.26997
775.093	57.14205
775.512	73.1806
775.931	103.26068
776.351	86.21389
776.77	100.24426
777.189	118.27983
777.607	56.14387
778.026	127.31442
778.445	67.1683
778.864	106.27118
779.282	83.20028
779.701	114.28621
780.119	77.19495
780.537	39.09821
780.955	128.32355
781.373	54.1345
781.791	63.14266
782.209	129.2958
782.627	96.25229
783.045	89.20514
783.462	94.23981
783.88	90.23251
784.297	97.24357
784.715	68.17501
785.132	102.24646
785.549	61.15329
785.966	61.15411
786.383	67.16545
786.8	125.2887
787.217	79.18775
787.633	76.18992
788.05	138.32524
788.466	150.35008
788.883	78.19899
789.299	70.1692
789.715	80.19476
790.131	95.2358
790.547	72.18025
790.963	87.21587
791.379	95.23958
791.795	138.31218
792.21	123.28577
792.626	54.129
793.041	83.20489
793.457	130.3186
793.872	69.16284
794.287	82.19574
794.702	150.36516
795.117	72.17914
795.532	41.10344
795.947	127.30344
796.362	132.31267
796.776	133.30913
797.191	134.32487
797.605	48.11344
798.02	70.17073
798.434	127.28079
798.848	96.23572
799.262	58.14441
799.676	134.3239
800.09	85.20898
800.504	99.23952
800.918	68.15808
801.331	125.32499
801.745	91.20883
802.158	109.27095
802.572	123.29613
802.985	113.27164
803.398	137.32332
803.811	151.38325
804.224	143.35183
804.637	71.16945
805.05	97.2243
805.462	142.34491
805.875	79.20448
806.288	65.15715
806.7	94.23549
807.112	68.15815
807.525	106.26027
807.937	111.2726
808.349	83.20767
808.761	98.24018
809.173	99.23898
809.584	120.29432
809.996	26.06424
810.408	72.18575
810.819	85.19967
811.231	92.23677
811.642	104.24654
812.053	148.34704
812.464	184.42842
812.875	238.59038
813.286	132.33616
813.697	192.43928
814.108	122.29556
814.519	174.38044
814.929	81.20632
815.34	122.29333
815.75	82.20794
816.16	87.21634
816.571	97.25081
816.981	83.19581
817.391	100.24035
817.801	69.17146
818.211	123.29062
818.62	65.15673
819.03	109.26541
819.44	134.34618
819.849	99.24824
820.259	91.23212
820.668	66.16248
821.077	76.18854
821.486	115.27488
821.895	159.38671
822.304	95.25055
822.713	87.20517
823.122	99.24582
823.531	62.14732
823.939	81.19701
824.348	106.25612
824.756	100.24916
825.164	114.28466
825.573	105.26176
825.981	116.28535
826.389	119.29634
826.797	96.23928
827.205	97.22153
827.612	78.19223
828.02	69.16209
828.428	89.22581
828.835	96.25135
829.243	101.23938
829.65	96.23746
830.057	92.22238
830.464	81.19693
830.871	114.27077
831.278	69.16682
831.685	99.2198
832.092	123.29815
832.499	112.24302
832.905	104.26157
833.312	140.31503
833.718	114.28167
834.124	140.31554
834.531	104.26045
834.937	99.25261
835.343	131.3124
835.749	144.33158
836.155	106.27555
836.561	59.14532
836.966	120.2906
837.372	107.27033
837.777	88.21831
838.183	115.25341
838.588	141.34524
838.993	135.32453
839.399	98.23813
839.804	71.17282
840.209	62.15784
840.613	118.25986
841.018	67.16957
841.423	90.22977
841.828	92.23148
842.232	127.31108
842.637	90.21137
843.041	98.24957
843.445	104.25894
843.849	79.19502
844.253	133.31206
844.657	57.14365
845.061	104.23421
845.465	87.20922
845.869	70.16254
846.272	56.13653
846.676	108.25908
847.079	66.16767
847.483	130.32038
847.886	126.30307
848.289	90.23892
848.692	102.25645
849.095	77.18447
849.498	152.37913
849.901	81.18521
850.304	113.26751
850.707	76.19327
851.109	140.34933
851.512	78.19109
851.914	32.08103
852.316	60.15178
852.718	46.119
853.121	71.17366
853.523	92.21379
853.925	43.11245
854.326	57.14257
854.728	84.21505
855.13	70.18015
855.531	70.16697
855.933	108.25701
856.334	74.18398
856.736	101.22443
857.137	67.1556
857.538	79.19788
857.939	40.09916
858.34	98.23715
858.741	120.31033
859.142	97.23141
859.542	97.25419
859.943	57.14169
860.343	48.11908
860.744	145.34817
861.144	71.17282
861.544	40.09647
861.945	48.12254
862.345	73.17808
862.745	84.20778
863.145	136.3204
863.544	75.18894
863.944	94.2206
864.344	74.18331
864.743	64.15865
865.143	77.1971
865.542	53.12309
865.941	91.22389
866.34	142.3348
866.74	88.23494
867.139	63.1507
867.537	72.18297
867.936	115.27382
868.335	109.27479
868.734	63.16081
869.132	91.21009
869.531	125.29855
869.929	43.09832
870.327	95.22612
870.726	89.22067
871.124	97.22501
871.522	88.22292
871.92	138.33532
872.318	59.1442
872.715	131.31992
873.113	64.15575
873.511	28.07012
873.908	7.01782
874.306	98.24187
874.703	114.28229
875.1	103.26133
875.497	95.22612
875.894	47.11534
876.291	93.2267
876.688	92.23578
877.085	93.22161
877.482	114.28239
877.878	71.17042
878.275	60.15232
878.671	141.30862
879.068	125.29786
879.464	72.17351
879.86	45.10666
880.256	108.264
880.652	44.11213
881.048	102.25063
881.444	84.1989
881.84	57.14483
882.236	118.29337
882.631	128.30998
883.027	155.36835
883.422	75.1911
883.817	56.1407
884.213	98.24957
884.608	35.08615
885.003	81.19435
885.398	7.01767
885.793	87.21713
886.188	42.10465
886.582	131.33155
886.977	123.28814
887.371	132.32925
887.766	53.13184
888.16	119.29354
888.554	152.3692
888.949	102.25396
889.343	134.32255
889.737	38.10152
890.131	44.11059
890.525	96.2437
890.918	66.16576
891.312	75.17879
891.706	92.23981
892.099	95.24001
892.492	105.22419
892.886	96.2331
893.279	82.20787
893.672	104.26242
894.065	88.21903
894.458	118.29337
894.851	115.27865
895.244	91.23089
895.637	115.27382
896.029	70.17067
896.422	95.23037
896.814	81.20039
897.206	53.12625
897.599	118.28845
897.991	83.1996
898.383	97.22732
898.775	114.25421
899.167	67.15585
899.559	143.35623
899.951	96.2245
900.342	124.31143
900.734	20.04992
901.125	125.32399
901.517	116.28145
901.908	130.30722
902.299	118.28501
902.69	72.1693
903.082	84.20228
903.473	40.09603
903.863	79.20065
904.254	79.18246
904.645	118.29005
905.036	60.14509
905.426	126.28434
905.817	77.18812
906.207	36.08607
906.597	62.14476
906.987	86.22164
907.378	68.17152
907.768	90.23644
908.158	66.16056
908.547	82.21074
908.937	71.18161
909.327	101.24307
909.717	122.30596
910.106	81.19354
910.495	106.2621
910.885	90.22644
911.274	97.2405
911.663	124.31075
912.052	125.30436
912.441	46.11711
912.83	93.2118
913.219	117.30284
913.608	117.28318
913.997	43.10798
914.385	114.2692
914.774	104.25081
915.162	55.13101
915.55	92.22095
915.939	43.10871
916.327	82.20357
916.715	82.20787
917.103	143.3461
917.491	82.20179
917.878	97.23654
918.266	86.22171
918.654	84.21339
919.041	71.18473
919.429	58.13675
919.816	116.29071
920.203	77.18588
920.591	95.23374
920.978	101.2451
921.365	51.13383
921.752	111.26166
922.139	61.13222
922.525	97.23097
922.912	91.22033
923.299	56.13908
923.685	78.20256
924.072	88.2015
924.458	88.21655
924.844	56.13847
925.231	73.1692
925.617	45.11458
926.003	122.30794
926.389	51.12866
926.774	82.20669
927.16	108.26547
927.546	59.15039
927.931	97.24006
928.317	82.18777
928.702	91.21368
929.088	49.11596
929.473	64.16247
929.858	57.13765
930.243	71.16977
930.628	60.14574
931.013	77.18994
931.398	97.22108
931.783	78.20443
932.167	69.16814
932.552	65.16246
932.937	81.19995
933.321	80.19969
933.705	64.16097
934.09	132.32877
934.474	111.26064
934.858	86.22171
935.242	36.08369
935.626	66.1685
936.009	88.2326
936.393	105.26461
936.777	68.1736
937.16	100.25799
937.544	71.16665
937.927	45.1143
938.311	157.37569
938.694	124.32389
939.077	80.19045
939.46	103.25051
939.843	116.23859
940.226	60.15366
940.609	100.22732
940.991	55.13989
941.374	71.17288
941.757	83.20361
942.139	65.14557
942.522	127.29576
942.904	81.19361
943.286	89.22461
943.668	102.26187
944.05	114.27753
944.432	55.13562
944.814	75.18392
945.196	39.09525
945.578	45.10707
945.959	92.21388
946.341	141.34036
946.722	96.22335
947.104	96.22749
947.485	49.11407
947.866	42.10598
948.247	65.16357
948.628	60.14612
949.009	65.16603
949.39	89.22002
949.771	127.29098
950.152	88.21447
950.532	16.03961
950.913	80.19191
951.293	66.17783
951.674	68.16393
952.054	77.18987
952.434	102.25082
952.814	121.28401
953.194	91.23652
953.574	91.22249
953.954	50.11876
954.334	53.13203
954.714	41.10009
955.093	120.29126
955.473	72.17933
955.853	93.23897
956.232	75.20475
956.611	96.22828
956.99	41.10321
957.37	100.2526
957.749	90.2131
958.128	46.11599
958.506	95.24453
958.885	52.13121
959.264	54.13225
959.643	100.2253
960.021	97.2383
960.4	77.17359
960.778	96.23449
961.156	89.22156
961.535	65.15108
961.913	107.24762
962.291	67.17138
962.669	41.10403
963.047	81.20559
963.424	80.20309
963.802	84.20526
964.18	118.29497
964.557	90.20567
964.935	99.23237
965.312	22.05756
965.69	114.28219
966.067	108.26017
966.444	76.1864
966.821	72.18491
967.198	104.24977
967.575	76.18599
967.952	123.28577
968.329	113.27175
968.705	150.31477
969.082	72.18394
969.458	38.09137
969.835	77.18651
970.211	62.15879
970.587	104.2564
970.963	74.18905
971.339	59.15382
971.715	116.28619
972.091	91.22241
972.467	111.27381
972.843	42.10438
973.219	138.32587
973.594	58.1515
973.97	124.291
974.345	92.21843
974.721	91.21868
975.096	60.14492
975.471	83.19566
975.846	110.26127
976.221	87.21948
976.596	68.16244
976.971	58.14299
977.346	83.192
977.72	61.1551
978.095	60.15479
978.469	152.35573
978.844	110.27358
979.218	-5.01211
979.593	98.23267
979.967	75.18187
980.341	52.11969
980.715	82.20543
981.089	75.18691
981.463	77.17586
981.837	49.11976
982.21	144.32893
982.584	68.16369
982.957	22.05521
983.331	91.21343
983.704	55.13502
984.078	47.11589
984.451	125.308
984.824	62.15066
985.197	80.19323
985.57	94.23387
985.943	106.25911
986.316	125.30288
986.688	64.15394
987.061	49.11488
987.434	85.22016
987.806	81.19531
988.179	88.20611
988.551	84.2118
988.923	87.21279
989.295	125.30811
989.667	40.09574
990.039	50.12354
990.411	77.17628
990.783	114.25915
991.155	83.19816
991.527	186.44652
991.898	58.14431
992.27	83.20406
992.641	83.20699
993.012	64.15019
993.384	67.15929
993.755	83.21037
994.126	73.17482
994.497	95.23123
994.868	91.20733
995.239	80.19279
995.61	58.14572
995.98	86.20748
996.351	70.1727
996.722	67.15487
997.092	74.17441
997.462	49.11448
997.833	90.2117
998.203	139.33135
998.573	69.17121
998.943	85.19795
999.313	79.18825
999.683	67.16027
1000.053	62.14231
1000.423	82.19806
1000.792	104.267
1001.162	80.19578
1001.531	67.16466
1001.901	60.14928
1002.27	102.22557
1002.639	80.2033
1003.009	46.10947
1003.378	64.16322
1003.747	105.2454
1004.116	60.14328
1004.485	104.24597
1004.853	76.19163
1005.222	111.27682
1005.591	86.20277
1005.959	49.11042
1006.328	56.12586
1006.696	75.18002
1007.064	85.21244
1007.433	95.23546
1007.801	118.28598
1008.169	80.20092
1008.537	114.24905
1008.905	92.21252
1009.273	99.24232
1009.64	62.14754
1010.008	111.26146
1010.375	128.30624
1010.743	112.25543
1011.11	74.17427
1011.478	66.16283
1011.845	110.25562
1012.212	88.19761
1012.579	72.176
1012.946	96.22643
1013.313	84.19859
1013.68	121.26797
1014.047	78.18483
1014.414	47.11105
1014.78	84.2074
1015.147	112.26765
1015.513	67.16088
1015.88	121.30547
1016.246	94.23012
1016.612	131.29496
1016.978	98.23795
1017.344	75.18446
1017.71	154.36816
1018.076	107.24948
1018.442	101.25744
1018.808	102.25248
1019.174	58.14525
1019.539	170.3819
1019.905	36.08511
1020.27	55.13557
1020.636	76.18128
1021.001	69.16455
1021.366	96.22845
1021.731	119.30225
1022.096	36.091
1022.461	98.22971
1022.826	73.17269
1023.191	90.23444
1023.556	71.16568
1023.92	82.20037
1024.285	102.24646
1024.649	124.29961
1025.014	107.26219
1025.378	55.13811
1025.742	107.26287
1026.107	83.18642
1026.471	97.2243
1026.835	78.1923
1027.199	26.06285
1027.562	66.15289
1027.926	122.29422
1028.29	118.29487
1028.654	38.08761
1029.017	116.28155
1029.381	65.15477
1029.744	63.16024
1030.107	103.2411
1030.471	112.26489
1030.834	52.11821
1031.197	88.21038
1031.56	100.23358
1031.923	54.13946
1032.286	122.28238
1032.648	162.37898
1033.011	54.1238
1033.374	115.26676
1033.736	69.18075
1034.099	88.21287
1034.461	49.12375
1034.823	75.18582
1035.185	110.27378
1035.548	88.21255
1035.91	74.17637
1036.272	108.24282
1036.634	121.29198
1036.995	93.21667
1037.357	76.18391
1037.719	67.16235
1038.08	70.16549
1038.442	53.12567
1038.803	141.3325
1039.165	76.19081
1039.526	96.22986
1039.887	124.29236
1040.248	34.08398
1040.609	105.25672
1040.97	77.18714
1041.331	90.22612
1041.692	78.18097
1042.053	86.19431
1042.413	97.22385
1042.774	78.18861
1043.134	152.35461
1043.495	102.25387
1043.855	139.33135
1044.215	101.24822
1044.576	54.12895
1044.936	107.2424
1045.296	119.29311
1045.656	75.1831
1046.016	111.26471
1046.375	81.19524
1046.735	68.15352
1047.095	95.22028
1047.454	134.27859
1047.814	72.17226
1048.173	175.40786
1048.533	52.11902
1048.892	22.05306
1049.251	90.22417
1049.61	77.18854
1049.969	78.18276
1050.328	80.17225
1050.687	102.24562
1051.046	115.27645
1051.405	68.16851
1051.763	92.20965
1052.122	32.08002
1052.48	85.20697
1052.839	92.21455
1053.197	69.16171
1053.555	139.31104
1053.914	97.23504
1054.272	93.22289
1054.63	70.17041
1054.988	48.11401
1055.345	65.13944
1055.703	87.20779
1056.061	62.15906
1056.419	69.17792
1056.776	89.21411
1057.134	28.06507
1057.491	91.22604
1057.848	39.09723
1058.206	89.2076
1058.563	70.15357
1058.92	85.19444
1059.277	99.24187
1059.634	104.24196
1059.991	118.27886
1060.348	57.12855
1060.704	58.13792
1061.061	121.27701
1061.418	61.14753
1061.774	89.218
1062.131	59.15566
1062.487	80.18583
1062.843	127.312
1063.199	77.19043
1063.555	75.17281
1063.911	75.18847
1064.267	89.18392
1064.623	53.12857
1064.979	115.26887
1065.335	99.23428
1065.691	96.22793
1066.046	76.1661
1066.402	50.11352
1066.757	92.23031
1067.112	66.1614
1067.468	44.10394
1067.823	94.22395
1068.178	81.19465
1068.533	70.16895
1068.888	87.20628
1069.243	95.23235
1069.598	121.28988
1069.952	17.03851
1070.307	40.09912
1070.662	70.16543
1071.016	54.12081
1071.371	104.23383
1071.725	80.19016
1072.079	104.2474
1072.434	44.10696
1072.788	89.21021
1073.142	102.24831
1073.496	100.23477
1073.85	90.20691
1074.203	84.20235
1074.557	67.17754
1074.911	121.28468
1075.265	105.24125
1075.618	117.2819
1075.971	70.16575
1076.325	44.11186
1076.678	54.1233
1077.031	79.17758
1077.385	103.22421
1077.738	62.13951
1078.091	40.09108
1078.444	84.19358
1078.796	73.17821
1079.149	81.20017
1079.502	40.0946
1079.855	57.13264
1080.207	127.30819
1080.56	54.13936
1080.912	117.28104
1081.264	60.1441
1081.617	60.14585
1081.969	46.11603
1082.321	87.21081
1082.673	53.1208
1083.025	69.16297
1083.377	100.21217
1083.728	78.18083
1084.08	69.17152
1084.432	86.20584
1084.783	124.2861
1085.135	65.16234
1085.486	43.09844
1085.838	77.18854
1086.189	97.23318
1086.54	91.21543
1086.891	73.1837
1087.242	76.18398
1087.593	107.25751
1087.944	82.18421
1088.295	106.23803
1088.646	73.17602
1088.996	17.04118
1089.347	107.25956
1089.698	25.05932
1090.048	82.21162
1090.398	105.24067
1090.749	94.22283
1091.099	40.10068
1091.449	88.21751
1091.799	84.20884
1092.149	48.11699
1092.499	93.22484
1092.849	54.13704
1093.199	93.23109
1093.548	99.23546
1093.898	31.07776
1094.248	93.23697
1094.597	13.03337
1094.947	49.13062
1095.296	73.17934
1095.645	99.2551
1095.994	102.24236
1096.343	83.20744
1096.692	62.16239
1097.041	56.15133
1097.39	97.24103
1097.739	81.20922
1098.088	100.26547
1098.437	31.08162
1098.785	106.28289
1099.134	111.29147
1099.482	91.24842
1099.83	100.26031
1100.179	72.18691
1100.527	80.21131
1100.875	5.01331
1101.223	77.20335
1101.571	63.17358
1101.919	10.02628
1102.267	38.10708
1102.615	12.03855
1102.962	18.0579
1103.31	14.04494
1103.658	22.07077
