Data from N2 R11 sample 9_Subt2__1__14-35-07-657.txt Node

Date: Mon Sep 01 14:35:07 PDT 2025
User: uwsun
Spectrometer: HDX01956
Trigger mode: 0
Integration Time (sec): 5.000000E-1
Scans to average: 1
Nonlinearity correction enabled: true
Boxcar width: 0
Storing dark spectrum: false
XAxis mode: Wavelengths
Number of Pixels in Spectrum: 2068
>>>>>Begin Spectral Data<<<<<
194.03	120.33057
194.578	115.35849
195.127	99.30461
195.676	94.29032
196.225	180.46307
196.773	182.48442
197.321	226.58382
197.87	315.7341
198.418	337.77113
198.966	277.64556
199.513	239.53326
200.061	247.55999
200.609	304.72309
201.156	231.44865
201.704	238.53728
202.251	272.64475
202.798	277.64277
203.345	312.6856
203.892	294.65772
204.438	325.68545
204.985	264.55204
205.532	255.60154
206.078	328.70924
206.624	277.6032
207.17	315.64422
207.716	310.662
208.262	327.56046
208.808	271.58888
209.354	323.68931
209.899	347.77643
210.445	321.69959
210.99	263.56201
211.535	363.74508
212.08	324.66278
212.625	266.59607
213.17	324.72722
213.715	229.45071
214.259	333.68165
214.804	337.73571
215.348	351.7019
215.892	314.6656
216.436	350.71239
216.98	353.68332
217.524	299.62508
218.068	323.72155
218.612	322.72035
219.155	316.65637
219.698	277.58884
220.242	301.67158
220.785	245.51515
221.328	287.64034
221.871	281.64197
222.414	271.60815
222.956	235.50848
223.499	276.55384
224.041	326.67503
224.583	355.67502
225.126	297.5807
225.668	279.606
226.21	266.60049
226.751	253.49255
227.293	288.58754
227.835	260.56918
228.376	336.68701
228.918	289.65546
229.459	265.59029
230	296.62663
230.541	308.63005
231.082	293.63234
231.622	279.57448
232.163	268.58001
232.704	238.53092
233.244	271.6014
233.784	287.63081
234.324	246.47881
234.864	279.56206
235.404	288.61156
235.944	302.63681
236.484	317.70376
237.023	303.63288
237.563	271.55625
238.102	331.6883
238.641	278.6286
239.18	259.53762
239.719	285.63825
240.258	325.64207
240.797	294.62185
241.335	304.66072
241.874	323.53699
242.412	316.66838
242.95	264.55889
243.488	295.59457
244.026	293.59461
244.564	319.57204
245.102	271.53765
245.64	319.6796
246.177	254.5064
246.715	316.66984
247.252	344.69061
247.789	328.53763
248.326	260.55186
248.863	298.57119
249.4	305.60907
249.936	307.54938
250.473	283.58088
251.009	305.6102
251.546	291.56168
252.082	348.6593
252.618	282.55045
253.154	269.57034
253.69	255.5078
254.226	261.55121
254.761	280.55226
255.297	302.57522
255.832	226.47593
256.367	310.63845
256.903	307.58574
257.438	316.64934
257.972	327.63117
258.507	254.5104
259.042	287.54385
259.576	249.46769
260.111	341.6838
260.645	322.60377
261.179	352.70635
261.713	275.53411
262.247	333.66529
262.781	339.60634
263.315	315.67049
263.849	266.58551
264.382	307.61505
264.915	344.69157
265.449	246.52352
265.982	335.65841
266.515	280.59742
267.048	301.54838
267.58	297.56528
268.113	301.55952
268.646	253.5486
269.178	277.53569
269.71	345.64451
270.243	365.71264
270.775	299.66325
271.307	355.73721
271.838	373.76215
272.37	286.6134
272.902	323.63303
273.433	348.64705
273.965	298.62976
274.496	336.72343
275.027	309.66373
275.558	302.63345
276.089	265.56358
276.62	351.77145
277.15	311.6663
277.681	307.57351
278.211	298.63527
278.741	325.60684
279.272	284.55752
279.802	360.76943
280.332	294.59569
280.861	372.75959
281.391	296.57421
281.921	375.76797
282.45	321.69188
282.98	329.7395
283.509	379.71435
284.038	292.5697
284.567	346.68853
285.096	338.6958
285.625	323.62106
286.153	327.64906
286.682	322.62286
287.21	299.61427
287.739	330.66006
288.267	324.66428
288.795	362.81216
289.323	303.59805
289.851	364.71457
290.378	315.59604
290.906	280.57537
291.433	345.72636
291.961	407.75508
292.488	346.72606
293.015	326.64178
293.542	313.66913
294.069	350.71856
294.596	364.75573
295.122	346.68886
295.649	399.72032
296.175	352.71451
296.702	373.75316
297.228	386.77923
297.754	339.62953
298.28	358.66731
298.806	338.67418
299.332	331.60029
299.857	331.61529
300.383	379.79758
300.908	295.59375
301.433	347.69358
301.958	389.73536
302.483	359.7352
303.008	351.71882
303.533	392.84362
304.058	399.76609
304.582	339.65276
305.107	342.73508
305.631	394.72749
306.155	358.67327
306.679	302.57662
307.203	336.6322
307.727	363.69696
308.251	383.76625
308.775	347.66013
309.298	371.70854
309.822	381.77708
310.345	406.76355
310.868	361.69078
311.391	372.73752
311.914	398.79275
312.437	486.85748
312.96	386.71629
313.482	404.75045
314.005	415.82142
314.527	405.84254
315.049	409.8194
315.571	391.6648
316.093	476.90536
316.615	420.78095
317.137	460.75032
317.659	506.93528
318.18	462.85393
318.702	433.76374
319.223	477.71491
319.744	457.7607
320.265	432.78769
320.786	441.81735
321.307	532.97451
321.828	513.84083
322.348	454.78803
322.869	439.75896
323.389	213.25723
323.909	489.81087
324.43	502.8885
324.95	472.7725
325.47	447.79709
325.989	452.76212
326.509	533.79701
327.029	530.81437
327.548	464.72045
328.067	515.85637
328.587	522.91141
329.106	522.80301
329.625	599.10595
330.144	530.81918
330.662	593.89598
331.181	555.86064
331.7	555.85711
332.218	544.75452
332.736	634.94627
333.255	573.85535
333.773	522.80585
334.291	633.02251
334.808	601.82166
335.326	621.85682
335.844	611.8572
336.361	594.93713
336.879	604.8433
337.396	633.91368
337.913	639.85553
338.43	659.84331
338.947	715.96903
339.464	615.72762
339.981	577.79445
340.497	711.00184
341.014	645.89635
341.53	631.77523
342.046	683.92979
342.562	688.96579
343.078	671.85399
343.594	658.85626
344.11	735.9183
344.626	705.95982
345.141	740.84379
345.657	796.89225
346.172	676.85175
346.687	718.81425
347.202	763.80972
347.717	766.8961
348.232	773.96734
348.747	822.86614
349.261	737.7032
349.776	745.82422
350.29	763.8797
350.805	882.00903
351.319	898.90141
351.833	812.775
352.347	810.83215
352.861	792.79484
353.374	908.86755
353.888	800.85367
354.401	841.7921
354.915	759.67666
355.428	860.89774
355.941	916.81256
356.454	1006.82498
356.967	845.80362
357.48	921.79788
357.993	876.87104
358.505	891.84559
359.018	901.8507
359.53	938.82159
360.042	1007.72941
360.554	921.82649
361.066	923.81394
361.578	959.65509
362.09	924.77314
362.602	930.63526
363.113	1014.73498
363.625	967.65617
364.136	1065.64849
364.647	876.60794
365.158	1034.69668
365.669	1070.75224
366.18	1091.71969
366.691	1061.59187
367.201	1039.70133
367.712	1029.59266
368.222	1074.59737
368.733	1043.47643
369.243	1060.48794
369.753	1080.56493
370.263	1163.61311
370.773	1127.64848
371.282	1091.53547
371.792	1158.39055
372.301	1143.48606
372.811	1217.62771
373.32	1147.2074
373.829	1112.32542
374.338	1279.18008
374.847	1284.17511
375.356	1357.15625
375.865	1402.88525
376.373	1417.9266
376.882	1538.07665
377.39	1489.94415
377.898	1354.88655
378.407	1593.59844
378.915	1590.51731
379.423	1670.50424
379.93	1672.40085
380.438	1723.33141
380.946	1901.14299
381.453	1848.12614
381.96	1859.05898
382.468	1935.99058
382.975	2375.83729
383.482	2451.90467
383.989	2317.87929
384.495	2378.03924
385.002	2347.41424
385.509	2595.52252
386.015	2733.47255
386.521	2982.77961
387.028	2988.39059
387.534	3104.26667
388.04	3385.67097
388.546	3124.61287
389.051	3193.26396
389.557	3599.10922
390.063	4383.51724
390.568	4279.83094
391.073	4043.21814
391.578	4477.06661
392.084	4313.29316
392.589	4180.42436
393.093	4157.51437
393.598	4915.31296
394.103	5475.51293
394.607	6246.19565
395.112	6691.05557
395.616	6920.37574
396.12	6980.20562
396.624	7583.01794
397.128	8612.54892
397.632	9896.84984
398.136	10469.85015
398.639	9668.77727
399.143	9476.98027
399.646	11629.65397
400.15	12500.8184
400.653	12475.55673
401.156	12241.7425
401.659	4596.61222
402.162	1054.15589
402.664	0
403.167	0
403.67	0
404.172	0
404.674	0
405.176	0
405.678	0
406.18	0
406.682	0
407.184	0
407.686	0
408.187	0
408.688	0
409.19	0
409.691	0
410.192	0
410.693	0
411.194	435.30976
411.694	4082.94878
412.195	8864.71461
412.696	12089.80453
413.196	12760.96929
413.696	12863.67595
414.196	13703.56671
414.696	17261.84252
415.196	21764.24417
415.696	29583.19008
416.196	30544.61983
416.695	21106.63508
417.195	15836.00653
417.694	15364.16751
418.194	14851.90508
418.693	13170.4974
419.192	13054.01805
419.691	12779.09942
420.19	12694.74012
420.688	12780.39041
421.187	12128.43187
421.685	11766.0432
422.184	10972.4493
422.682	9485.57264
423.18	7369.68133
423.678	6262.70651
424.176	5688.79978
424.674	5554.13515
425.172	5336.84606
425.669	5215.17363
426.167	5087.14202
426.664	4385.73394
427.161	3928.1457
427.659	3725.51756
428.156	3413.24447
428.652	3195.10786
429.149	2958.96608
429.646	3001.94652
430.143	2915.71393
430.639	2638.73359
431.135	2429.82991
431.632	2262.90939
432.128	2116.08191
432.624	1913.30697
433.12	1726.28284
433.616	1796.26474
434.111	1493.5245
434.607	1570.5801
435.103	1684.48198
435.598	1666.52256
436.093	1595.81653
436.588	1525.87609
437.083	1366.01672
437.578	1357.10828
438.073	1055.27239
438.568	1168.36423
439.062	1095.18379
439.557	1127.39204
440.051	1036.33776
440.546	919.35294
441.04	980.45961
441.534	912.56736
442.028	1023.54351
442.522	875.51243
443.015	981.42536
443.509	945.60963
444.002	881.59267
444.496	845.44726
444.989	820.59933
445.482	817.62523
445.975	724.45863
446.468	775.43656
446.961	770.44206
447.454	745.51208
447.947	705.5381
448.439	653.57082
448.931	666.48094
449.424	690.65893
449.916	689.61154
450.408	652.49861
450.9	583.54051
451.392	626.62685
451.884	620.53901
452.375	513.52694
452.867	619.5465
453.358	527.46794
453.849	548.43789
454.341	527.47967
454.832	586.48024
455.323	545.57333
455.814	551.53735
456.304	533.53091
456.795	488.49315
457.285	610.58214
457.776	560.57989
458.266	506.55313
458.756	566.63545
459.247	395.45729
459.737	396.4624
460.226	370.40391
460.716	351.43077
461.206	427.52342
461.695	393.52996
462.185	433.52699
462.674	433.51603
463.163	384.44238
463.653	412.43505
464.142	375.49333
464.63	367.50601
465.119	376.47288
465.608	355.45192
466.096	329.40058
466.585	347.46232
467.073	384.53582
467.561	349.49776
468.05	337.46431
468.538	320.48194
469.026	316.46162
469.513	300.37064
470.001	283.39038
470.489	312.45324
470.976	256.37256
471.463	268.43411
471.951	254.4205
472.438	226.34526
472.925	220.33489
473.412	251.41588
473.899	265.40184
474.385	292.48129
474.872	175.27793
475.359	204.34334
475.845	245.33335
476.331	261.38396
476.817	197.34053
477.303	236.38054
477.789	167.28882
478.275	152.27333
478.761	184.32102
479.247	180.29056
479.732	124.22791
480.218	145.28296
480.703	146.27091
481.188	169.26255
481.673	109.1868
482.158	99.15397
482.643	156.30436
483.128	78.13486
483.612	139.24629
484.097	207.38516
484.581	108.1946
485.066	44.08421
485.55	79.13335
486.034	88.14664
486.518	64.11757
487.002	25.04869
487.486	30.05867
487.969	74.14348
488.453	78.15876
488.936	116.20527
489.42	84.1481
489.903	70.14391
490.386	-364.53606
490.869	82.14397
491.352	81.16303
491.835	87.1447
492.318	57.10453
492.8	73.12195
493.283	22.04647
493.765	53.10766
494.247	97.18713
494.73	56.10194
495.212	80.16142
495.694	-15.02941
496.175	-22.04368
496.657	60.11901
497.139	68.09766
497.62	-34.0681
498.102	27.05642
498.583	25.05329
499.064	-37.07004
499.545	33.06348
500.026	43.0808
500.507	6.01187
500.988	53.11179
501.469	9.01922
501.949	-5.01068
502.43	-18.03654
502.91	-37.06549
503.39	-14.03048
503.87	-59.12023
504.35	7.0143
504.83	-17.03199
505.31	-44.0927
505.79	-10.02061
506.269	-10.0203
506.749	-72.14368
507.228	-81.16671
507.707	-6.01147
508.187	-12.02507
508.666	-62.13344
509.145	-72.14769
509.623	-37.07595
510.102	-36.07658
510.581	7.01479
511.059	-76.16814
511.538	-30.06858
512.016	-3.00627
512.494	17.03604
512.972	-28.05876
513.45	-85.17329
513.928	-49.10476
514.406	-134.28728
514.884	-89.20424
515.361	-52.11023
515.839	-62.12505
516.316	-28.05938
516.793	-62.14037
517.27	-30.06468
517.747	-29.06583
518.224	-32.0657
518.701	-44.08699
519.178	-73.161
519.654	-32.06792
520.131	-78.173
520.607	-51.11342
521.083	-52.10584
521.56	-55.11606
522.036	-19.03703
522.512	1.00219
522.987	-96.20448
523.463	-41.08693
523.939	-36.07908
524.414	-22.04539
524.89	-55.11718
525.365	-56.11367
525.84	-112.23981
526.315	-63.13626
526.79	-11.02206
527.265	-60.12307
527.74	-110.24366
528.215	-31.06538
528.689	-63.12546
529.164	-65.12763
529.638	-17.03922
530.112	-82.17451
530.587	-63.12055
531.061	-63.13667
531.534	-11.02391
532.008	-71.15416
532.482	-79.16501
532.956	-135.31452
533.429	-39.08518
533.903	-44.08801
534.376	-81.1628
534.849	-61.12821
535.322	-86.18501
535.795	-10.02195
536.268	-46.09981
536.741	-43.09352
537.213	-46.09632
537.686	-69.15224
538.158	-88.17887
538.631	-36.07938
539.103	-88.17928
539.575	-38.07174
540.047	-59.11782
540.519	-7.01508
540.991	-13.02874
541.463	-41.08997
541.934	-115.24202
542.406	-44.09474
542.877	-27.05494
543.348	-22.04804
543.82	-12.02658
544.291	21.04396
544.762	-19.04044
545.233	-37.08365
545.703	-64.12813
546.174	7.01455
546.645	-92.19886
547.115	-1.00215
547.585	-45.09337
548.056	-29.06221
548.526	-22.04596
548.996	35.07437
549.466	59.12706
549.935	34.07031
550.405	19.03646
550.875	29.06014
551.344	48.10077
551.814	76.15152
552.283	100.18778
552.752	41.08271
553.221	30.05639
553.69	86.16388
554.159	129.26885
554.628	76.1451
555.096	99.21522
555.565	107.20385
556.033	93.19012
556.502	147.30623
556.97	122.23395
557.438	116.23977
557.906	158.326
558.374	129.25892
558.842	89.18805
559.31	132.25937
559.777	117.2484
560.245	210.42861
560.712	191.38567
561.18	163.31401
561.647	233.44822
562.114	245.4788
562.581	264.56109
563.048	356.69193
563.514	295.61754
563.981	389.74473
564.448	406.75641
564.914	429.83045
565.381	538.99047
565.847	598.11816
566.313	648.18855
566.779	639.1323
567.245	696.2678
567.711	782.43127
568.176	800.34609
568.642	824.57129
569.108	985.76434
569.573	1016.72471
570.038	1109.58517
570.504	1221.81748
570.969	1254.14983
571.434	1294.82714
571.899	1373.12104
572.363	1521.1191
572.828	1619.21494
573.293	1747.29096
573.757	1806.32691
574.222	1823.21971
574.686	1961.28922
575.15	2095.57425
575.614	2181.46082
576.078	2256.57112
576.542	2409.48283
577.006	2394.43023
577.469	2561.91582
577.933	2568.39273
578.396	2617.7044
578.86	2645.66065
579.323	2712.69776
579.786	2743.24502
580.249	2588.48325
580.712	2755.85642
581.175	2692.88985
581.637	2753.57655
582.1	2722.35535
582.563	2620.27407
583.025	2658.80082
583.487	2612.99199
583.95	2572.23625
584.412	2569.17612
584.874	2483.79927
585.336	2486.68674
585.797	2351.28162
586.259	2385.67487
586.721	2235.59392
587.182	2219.61381
587.643	2227.47604
588.105	2104.60274
588.566	2031.14902
589.027	1892.55378
589.488	1958.40321
589.949	1863.58299
590.41	1775.80801
590.87	1756.31906
591.331	1741.12933
591.791	1639.25859
592.252	1567.17167
592.712	1539.32354
593.172	1508.09609
593.632	1531.05106
594.092	1409.99812
594.552	1355.86313
595.011	1289.95532
595.471	1316.92766
595.931	1213.82072
596.39	1207.98276
596.849	1167.87546
597.308	1197.75255
597.768	1093.99539
598.227	1094.87557
598.685	1093.77581
599.144	1018.71418
599.603	1076.81515
600.062	1012.48961
600.52	948.53029
600.978	935.6377
601.437	947.58862
601.895	935.42916
602.353	985.5746
602.811	932.50775
603.269	899.60499
603.727	858.547
604.184	863.44098
604.642	880.61993
605.099	866.50185
605.557	852.57299
606.014	834.32973
606.471	819.55306
606.928	861.34597
607.385	884.59236
607.842	892.50381
608.299	953.62309
608.755	943.6699
609.212	950.51972
609.668	889.43188
610.125	1022.78631
610.581	1028.77896
611.037	991.65364
611.493	930.64042
611.949	921.65028
612.405	925.33145
612.861	985.71289
613.316	979.71946
613.772	968.63324
614.227	974.69148
614.683	1040.59281
615.138	951.64751
615.593	990.68676
616.048	1013.69603
616.503	1018.85676
616.958	988.84823
617.412	972.70936
617.867	901.48409
618.321	961.45521
618.776	983.60265
619.23	940.66069
619.684	955.61603
620.138	1063.81302
620.592	928.72127
621.046	907.63347
621.5	914.70619
621.954	938.60389
622.407	909.54543
622.861	845.61102
623.314	889.56344
623.768	835.52579
624.221	806.22795
624.674	820.48965
625.127	788.4713
625.58	773.41725
626.033	773.36962
626.485	711.38927
626.938	790.51364
627.39	755.42314
627.843	744.40066
628.295	745.40289
628.747	682.34543
629.199	681.28153
629.651	588.13091
630.103	623.20095
630.555	655.15349
631.006	631.25137
631.458	625.24927
631.909	615.20595
632.361	634.25528
632.812	566.12513
633.263	571.05731
633.714	541.00463
634.165	541.14657
634.616	549.13821
635.067	493.96851
635.518	511.07581
635.968	548.95683
636.419	499.9595
636.869	463.98675
637.319	484.99544
637.769	426.858
638.219	516.09469
638.669	475.01173
639.119	458.00564
639.569	434.94763
640.019	422.88708
640.468	424.85947
640.918	470.01991
641.367	391.80327
641.816	385.79023
642.265	395.83746
642.714	409.86525
643.163	359.76347
643.612	337.7494
644.061	362.70561
644.51	319.67782
644.958	374.75743
645.406	351.77891
645.855	366.83192
646.303	384.82995
646.751	321.68207
647.199	356.75198
647.647	343.73485
648.095	400.84344
648.543	355.67766
648.99	321.71827
649.438	403.8753
649.885	336.77887
650.333	381.68289
650.78	366.82214
651.227	293.67316
651.674	345.73466
652.121	318.7281
652.568	317.72421
653.015	304.72725
653.461	282.63582
653.908	356.7757
654.354	284.64451
654.801	294.65257
655.247	269.56411
655.693	292.72246
656.139	256.58687
656.585	293.6675
657.031	270.59906
657.477	276.56792
657.922	289.63226
658.368	279.65713
658.813	289.64187
659.259	242.55789
659.704	233.52288
660.149	249.55741
660.594	266.60489
661.039	274.5973
661.484	279.63869
661.929	273.61213
662.373	197.48217
662.818	262.62392
663.262	255.59008
663.707	249.60761
664.151	275.64468
664.595	229.53434
665.039	265.63458
665.483	267.65323
665.927	244.55622
666.371	210.47195
666.814	226.52454
667.258	206.47396
667.701	268.55966
668.145	227.54918
668.588	245.58221
669.031	214.48941
669.474	252.58719
669.917	234.50513
670.36	226.54501
670.803	270.62962
671.245	207.42834
671.688	228.54192
672.13	198.43511
672.573	178.44446
673.015	209.49093
673.457	213.45457
673.899	219.51843
674.341	214.50493
674.783	188.44256
675.225	172.41652
675.666	175.41364
676.108	203.43398
676.549	213.49466
676.991	206.44659
677.432	198.38924
677.873	238.5375
678.314	195.45787
678.755	156.37565
679.196	180.40702
679.637	243.57902
680.078	173.40098
680.518	206.47282
680.959	195.45966
681.399	174.42564
681.839	219.52204
682.28	161.39275
682.72	183.41372
683.16	198.48417
683.6	171.38722
684.039	190.39237
684.479	153.37212
684.919	154.35206
685.358	218.54196
685.798	132.34337
686.237	189.45122
686.676	195.44731
687.115	193.44751
687.554	212.49458
687.993	182.39928
688.432	139.31719
688.871	147.33233
689.309	187.4408
689.748	193.40045
690.186	201.47343
690.625	166.3859
691.063	187.44269
691.501	180.43966
691.939	151.37356
692.377	138.3352
692.815	168.39794
693.253	176.4193
693.69	118.26073
694.128	171.40981
694.565	179.4226
695.003	134.33847
695.44	139.32588
695.877	144.33502
696.314	183.39123
696.751	220.49422
697.188	124.2853
697.625	212.48035
698.061	161.38335
698.498	175.41972
698.934	138.33155
699.371	103.24346
699.807	190.44413
700.243	118.28415
700.679	193.43259
701.115	160.37518
701.551	112.26489
701.987	194.43205
702.422	120.28524
702.858	190.44709
703.294	123.27978
703.729	157.3817
704.164	172.41025
704.599	151.33581
705.035	129.28914
705.47	126.30594
705.904	181.41736
706.339	158.36643
706.774	133.31132
707.209	116.26828
707.643	158.37714
708.078	135.32785
708.512	97.24305
708.946	132.31629
709.38	127.30112
709.814	119.2732
710.248	149.36144
710.682	132.31352
711.116	97.23221
711.549	126.32416
711.983	72.16837
712.416	141.33289
712.85	145.35964
713.283	164.38546
713.716	148.36996
714.149	167.3955
714.582	110.24854
715.015	150.3736
715.448	145.36358
715.881	160.34954
716.313	165.38395
716.746	136.31953
717.178	126.30272
717.61	154.38774
718.043	123.3063
718.475	125.30288
718.907	195.487
719.339	127.28806
719.77	138.326
720.202	154.38649
720.634	140.33904
721.065	141.33328
721.497	138.33708
721.928	82.20253
722.359	87.21081
722.79	105.25203
723.221	149.3728
723.652	127.3269
724.083	125.28237
724.514	143.3279
724.945	85.20138
725.375	68.15946
725.806	154.38203
726.236	126.32201
726.666	143.33748
727.096	136.33269
727.526	96.24431
727.956	72.16553
728.386	131.32183
728.816	104.26326
729.246	112.27225
729.675	83.20534
730.105	158.38607
730.534	110.25824
730.964	143.35972
731.393	145.35872
731.822	107.27341
732.251	110.27914
732.68	128.30179
733.109	131.32183
733.537	99.23988
733.966	129.31937
734.395	112.25944
734.823	126.28492
735.251	105.25356
735.68	155.38556
736.108	122.30805
736.536	116.27414
736.964	107.24919
737.392	119.29742
737.82	124.29746
738.247	131.31324
738.675	146.34757
739.102	107.26733
739.53	44.1132
739.957	101.25989
740.384	131.32254
740.811	111.28133
741.238	114.27825
741.665	75.17549
742.092	143.34023
742.519	84.20877
742.945	96.23143
743.372	101.25051
743.798	119.30513
744.225	108.25731
744.651	95.23898
745.077	79.19809
745.503	108.2639
745.929	81.19568
746.355	158.39009
746.781	89.22147
747.207	65.15394
747.632	84.20564
748.058	88.22046
748.483	123.28329
748.908	77.19245
749.334	101.24859
749.759	105.24819
750.184	84.2012
750.609	92.22698
751.033	159.37335
751.458	110.24783
751.883	131.32349
752.307	57.13572
752.732	64.16091
753.156	104.25706
753.58	138.32663
754.005	110.27904
754.429	124.291
754.853	66.16469
755.277	105.24905
755.7	90.224
756.124	96.23859
756.548	120.28403
756.971	122.29734
757.394	122.3131
757.818	82.21162
758.241	70.17858
758.664	86.21778
759.087	61.13774
759.51	103.2565
759.933	57.13848
760.356	88.22608
760.778	94.23166
761.201	139.33642
761.623	129.3121
762.046	108.25681
762.468	154.36732
762.89	135.33166
763.312	89.21816
763.734	93.22458
764.156	101.2496
764.578	146.33417
765	124.30165
765.421	38.09746
765.843	99.25934
766.264	112.27062
766.686	137.34203
767.107	84.20442
767.528	53.13476
767.949	110.27914
768.37	80.19723
768.791	100.24235
769.212	44.1115
769.632	68.15964
770.053	92.24219
770.473	120.29104
770.894	98.2456
771.314	134.31876
771.734	75.17597
772.154	86.22118
772.575	141.325
772.994	85.19405
773.414	109.26173
773.834	60.15102
774.254	62.15285
774.673	127.30796
775.093	91.22538
775.512	87.21468
775.931	85.21582
776.351	96.23833
776.77	53.13059
777.189	65.15572
777.607	94.23989
778.026	77.19238
778.445	64.16085
778.864	83.2132
779.282	127.30391
779.701	106.26651
780.119	54.13728
780.537	85.21229
780.955	109.27646
781.373	92.22756
781.791	67.1516
782.209	102.23516
782.627	70.18477
783.045	106.2435
783.462	84.21468
783.88	68.17634
784.297	74.18659
784.715	58.14953
785.132	101.24409
785.549	90.22498
785.966	102.25581
786.383	92.22615
786.8	103.23893
787.217	107.25292
787.633	51.12802
788.05	161.37775
788.466	122.2863
788.883	52.13327
789.299	77.18588
789.715	107.25917
790.131	124.30615
790.547	87.21721
790.963	115.28388
791.379	111.27913
791.795	77.17635
792.21	98.22881
792.626	89.21119
793.041	74.18297
793.457	79.19545
793.872	107.25066
794.287	66.15803
794.702	79.19487
795.117	86.21343
795.532	52.13093
795.947	93.22365
796.362	162.3815
796.776	194.44546
797.191	97.2368
797.605	52.12279
798.02	109.26392
798.434	107.23756
798.848	75.18487
799.262	53.13208
799.676	95.23132
800.09	128.31219
800.504	131.31503
800.918	118.27161
801.331	89.23283
801.745	104.23804
802.158	81.20237
802.572	160.3825
802.985	95.22915
803.398	97.2307
803.811	135.34361
804.224	82.20402
804.637	88.20934
805.05	81.1879
805.462	116.28313
805.875	52.13522
806.288	66.15953
806.7	86.21576
807.112	89.20613
807.525	101.24822
807.937	75.18541
808.349	106.26411
808.761	99.24259
809.173	122.29322
809.584	114.27991
809.996	26.06424
810.408	36.09346
810.819	82.19274
811.231	76.19614
811.642	78.18583
812.053	130.30591
812.464	230.53065
812.875	169.42451
813.286	124.31623
813.697	172.39511
814.108	91.22174
814.519	123.27183
814.929	114.28868
815.34	107.258
815.75	98.24781
816.16	109.26996
816.571	118.304
816.981	108.25355
817.391	97.23327
817.801	66.16409
818.211	120.2837
818.62	80.19235
819.03	123.29871
819.44	135.3487
819.849	134.33388
820.259	99.25216
820.668	54.13323
821.077	39.0974
821.486	116.27721
821.895	128.31312
822.304	71.18801
822.713	87.20517
823.122	102.25313
823.531	92.21734
823.939	84.20419
824.348	93.22526
824.756	79.19759
825.164	113.28222
825.573	52.13088
825.981	114.28053
826.389	96.24007
826.797	107.26617
827.205	73.16753
827.612	89.21889
828.02	34.08041
828.428	97.24576
828.835	65.17108
829.243	97.23008
829.65	47.1173
830.057	63.15311
830.464	71.17294
830.871	98.23348
831.278	108.25918
831.685	117.25879
832.092	77.18826
832.499	104.22605
832.905	118.29604
833.312	106.24018
833.718	115.28409
834.124	81.18477
834.531	91.22843
834.937	107.27264
835.343	97.23283
835.749	111.25728
836.155	97.25254
836.561	79.19387
836.966	102.24785
837.372	83.21059
837.777	76.18895
838.183	122.26844
838.588	125.30698
838.993	119.28693
839.399	86.20944
839.804	33.08089
840.209	59.15028
840.613	63.14034
841.018	74.18706
841.423	101.25735
841.828	81.2042
842.232	117.28712
842.637	94.2206
843.041	45.11567
843.445	59.1481
843.849	78.19258
844.253	110.25925
844.657	46.11615
845.061	119.26717
845.465	65.15697
845.869	97.22403
846.272	33.0808
846.676	72.1739
847.079	92.23264
847.483	116.28661
847.886	132.31714
848.289	84.22322
848.692	79.19944
849.095	87.20803
849.498	127.31821
849.901	71.16268
850.304	98.23267
850.707	114.28796
851.109	131.32741
851.512	53.13045
851.914	45.11369
852.316	75.18921
852.718	37.09587
853.121	78.19053
853.523	50.11716
853.925	68.17707
854.326	32.0804
854.728	91.23269
855.13	34.08805
855.531	65.15519
855.933	105.25001
856.334	50.12485
856.736	54.12116
857.137	83.19215
857.538	31.07832
857.939	64.15796
858.34	131.31503
858.741	54.14124
859.142	86.2056
859.542	85.2232
859.943	105.25872
860.343	49.12154
860.744	97.23504
861.144	100.24208
861.544	44.10603
861.945	101.25544
862.345	77.1877
862.745	72.17849
863.145	88.20926
863.544	34.08628
863.944	67.15806
864.344	83.20527
864.743	139.33984
865.143	87.2223
865.542	83.19162
865.941	95.23356
866.34	107.25399
866.74	63.16889
867.139	54.12939
867.537	94.23795
867.936	95.22707
868.335	89.22517
868.734	87.22113
869.132	51.11868
869.531	110.26348
869.929	63.14348
870.327	93.22144
870.726	119.29343
871.124	104.24091
871.522	81.20544
871.92	106.25911
872.318	88.21391
872.715	105.25767
873.113	42.10263
873.511	72.17888
873.908	-11.0281
874.306	22.05506
874.703	88.21895
875.1	117.29612
875.497	94.22378
875.894	77.18791
876.291	59.14473
876.688	90.23074
877.085	97.23097
877.482	126.31143
877.878	13.03155
878.275	80.20237
878.671	113.24879
879.068	85.2041
879.464	77.18538
879.86	64.15113
880.256	85.20867
880.652	94.23744
881.048	59.14613
881.444	80.18957
881.84	98.24719
882.236	102.25433
882.631	76.18585
883.027	106.25428
883.422	70.17852
883.817	25.06316
884.213	86.21948
884.608	42.10324
885.003	84.20143
885.398	61.15252
885.793	104.25875
886.188	51.12687
886.582	105.26697
886.977	86.20293
887.371	107.2681
887.766	18.04506
888.16	110.27179
888.554	126.30754
888.949	99.24663
889.343	126.30376
889.737	34.09089
890.131	63.1578
890.525	86.2187
890.918	87.21768
891.312	100.23724
891.706	102.26543
892.099	112.2821
892.492	114.24293
892.886	59.14425
893.279	91.23031
893.672	70.1777
894.065	84.20922
894.458	80.20027
894.851	142.34233
895.244	89.22589
895.637	83.19884
896.029	87.21144
896.422	103.24939
896.814	82.20283
897.206	34.08128
897.599	78.19209
897.991	88.21143
898.383	119.27768
898.775	82.18406
899.167	44.10281
899.559	72.18168
899.951	107.24968
900.342	117.29422
900.734	34.08466
901.125	68.17798
901.517	49.12038
901.908	83.19793
902.299	61.14892
902.69	82.19243
903.082	89.21411
903.473	63.15059
903.863	93.23563
904.254	92.21193
904.645	116.28524
905.036	43.10431
905.426	121.27333
905.817	56.13735
906.207	35.08369
906.597	49.1147
906.987	97.24951
907.378	100.25079
907.768	96.25195
908.158	53.12924
908.547	86.22087
908.937	73.18666
909.327	62.15032
909.717	85.21459
910.106	72.17233
910.495	102.25239
910.885	106.26593
911.274	69.17196
911.663	71.17963
912.052	94.23021
912.441	71.17995
912.83	117.26516
913.219	109.28252
913.608	106.25709
913.997	58.14525
914.385	115.27151
914.774	42.10248
915.162	58.13808
915.55	104.2492
915.939	51.12876
916.327	81.20113
916.715	33.08438
917.103	102.24878
917.491	93.22839
917.878	124.30086
918.266	72.18607
918.654	87.2209
919.041	64.16671
919.429	45.10637
919.816	88.22165
920.203	81.19538
920.591	94.23132
920.978	95.2308
921.365	96.24998
921.752	66.15694
922.139	78.16845
922.525	62.14862
922.912	125.30072
923.299	38.09468
923.685	68.17689
924.072	104.23737
924.458	45.11162
924.844	40.0992
925.231	98.22602
925.617	70.17745
926.003	90.22847
926.389	79.1983
926.774	53.13428
927.16	83.20496
927.546	57.14534
927.931	81.20105
928.317	82.18777
928.702	87.20445
929.088	60.14169
929.473	62.15745
929.858	65.15673
930.243	90.21442
930.628	51.12409
931.013	51.12641
931.398	95.21661
931.783	88.23025
932.167	72.17535
932.552	78.19449
932.937	107.26287
933.321	69.17258
933.705	77.19321
934.09	106.26526
934.474	96.22608
934.858	76.19627
935.242	46.10673
935.626	68.17354
936.009	53.14091
936.393	50.12724
936.777	95.24138
937.16	45.1172
937.544	125.2903
937.927	38.09664
938.311	109.26322
938.694	113.29571
939.077	73.17402
939.46	99.24097
939.843	100.20642
940.226	56.14352
940.609	40.09203
940.991	61.15499
941.374	80.19447
941.757	75.18426
942.139	33.07439
942.522	78.18341
942.904	64.15347
943.286	83.20969
943.668	80.20618
944.05	54.13293
944.432	54.13318
944.814	99.24169
945.196	27.06609
945.578	50.11885
945.959	102.23666
946.341	103.25042
946.722	79.18442
947.104	108.25533
947.485	43.10022
947.866	50.12598
948.247	77.19335
948.628	115.27719
949.009	53.13567
949.39	73.181
949.771	126.28875
950.152	93.22645
950.532	43.10591
950.913	72.17299
951.293	36.09747
951.674	97.23256
952.054	65.16063
952.434	81.19995
952.814	95.22412
953.194	95.24674
953.574	92.22489
953.954	102.23984
954.334	96.23728
954.714	41.10009
955.093	96.23406
955.473	39.09772
955.853	89.22885
956.232	82.2236
956.611	91.2166
956.99	58.14557
957.37	79.2003
957.749	114.26868
958.128	56.14095
958.506	43.11169
958.885	73.18351
959.264	50.12254
959.643	95.21425
960.021	88.21655
960.4	82.18467
960.778	145.35095
961.156	82.20439
961.535	73.16941
961.913	67.15628
962.291	39.10025
962.669	79.19909
963.047	87.22058
963.424	56.14277
963.802	79.19322
964.18	132.32913
964.557	108.24591
964.935	123.28735
965.312	72.18678
965.69	116.28703
966.067	64.15546
966.444	124.30142
966.821	109.27812
967.198	96.23091
967.575	83.20285
967.952	101.23568
968.329	72.1745
968.705	107.22667
969.082	77.19654
969.458	29.06985
969.835	110.26478
970.211	73.1866
970.587	101.24914
970.963	79.20165
971.339	51.13315
971.715	90.22311
972.091	94.22961
972.467	88.21799
972.843	32.07968
973.219	131.30976
973.594	42.11001
973.97	115.27035
974.345	67.15984
974.721	115.27509
975.096	77.18538
975.471	112.26253
975.846	57.13676
976.221	16.04088
976.596	80.19067
976.971	79.19401
977.346	97.22376
977.72	92.23264
978.095	121.30885
978.469	63.15001
978.844	110.27358
979.218	5.01209
979.593	92.21868
979.967	87.21049
980.341	23.05325
980.715	82.20543
981.089	81.20164
981.463	60.1375
981.837	77.18721
982.21	129.29556
982.584	66.15893
982.957	65.16187
983.331	114.26617
983.704	56.13745
984.078	48.11834
984.451	143.35118
984.824	50.12177
985.197	117.28062
985.57	95.23632
985.943	111.27108
986.316	128.30998
986.688	114.2716
987.061	100.23211
987.434	73.18947
987.806	103.24732
988.179	83.19459
988.551	97.24401
988.923	88.21519
989.295	116.2864
989.667	50.11944
990.039	85.20867
990.411	90.2055
990.783	108.24581
991.155	72.17226
991.527	131.31778
991.898	60.14923
992.27	70.17251
992.641	112.27785
993.012	112.26037
993.384	60.14284
993.755	55.14009
994.126	99.23591
994.497	62.15184
994.868	83.18941
995.239	65.15709
995.61	85.21252
995.98	86.20748
996.351	35.08691
996.722	64.14802
997.092	23.05474
997.462	27.06335
997.833	113.26461
998.203	127.30344
998.573	48.11956
998.943	101.23447
999.313	60.1435
999.683	61.14608
1000.053	106.24116
1000.423	68.16468
1000.792	77.19862
1001.162	77.18854
1001.531	118.28726
1001.901	68.16894
1002.27	70.15584
1002.639	94.23829
1003.009	92.217
1003.378	60.15312
1003.747	98.22935
1004.116	16.03853
1004.485	86.20411
1004.853	94.23625
1005.222	94.23515
1005.591	110.25814
1005.959	55.12379
1006.328	79.17671
1006.696	53.12775
1007.064	73.18285
1007.433	77.19147
1007.801	60.147
1008.169	72.18109
1008.537	99.21696
1008.905	56.13029
1009.273	100.24472
1009.64	44.10507
1010.008	96.22678
1010.375	134.32023
1010.743	137.31086
1011.11	74.17427
1011.478	60.1482
1011.845	78.1824
1012.212	69.15555
1012.579	84.20488
1012.946	112.26335
1013.313	109.25645
1013.68	87.19404
1014.047	46.10968
1014.414	65.15305
1014.78	29.07232
1015.147	108.25829
1015.513	50.12045
1015.88	101.2559
1016.246	97.23733
1016.612	103.23324
1016.978	126.30433
1017.344	123.29983
1017.71	118.28404
1018.076	105.24492
1018.442	82.20971
1018.808	66.16445
1019.174	72.17986
1019.539	157.35364
1019.905	15.03561
1020.27	62.15263
1020.636	73.17422
1021.001	74.1763
1021.366	42.10099
1021.731	81.20712
1022.096	18.04565
1022.461	73.17195
1022.826	71.16802
1023.191	69.18038
1023.556	71.16568
1023.92	74.18109
1024.285	105.25356
1024.649	53.12977
1025.014	87.21397
1025.378	86.21475
1025.742	81.19995
1026.107	107.23914
1026.471	103.23789
1026.835	75.18501
1027.199	46.11077
1027.562	86.19843
1027.926	112.27062
1028.29	50.12648
1028.654	74.16938
1029.017	98.23867
1029.381	55.13121
1029.744	90.22782
1030.107	90.21121
1030.471	95.22542
1030.834	79.1786
1031.197	99.23618
1031.56	90.21063
1031.923	45.1164
1032.286	133.30717
1032.648	98.23214
1033.011	80.18245
1033.374	116.26903
1033.736	61.16001
1034.099	46.11215
1034.461	64.1612
1034.823	76.18826
1035.185	99.2469
1035.548	89.21492
1035.91	83.19748
1036.272	63.14295
1036.634	113.27309
1036.995	66.15458
1037.357	62.15043
1037.719	76.18384
1038.08	62.14681
1038.442	45.10686
1038.803	124.29338
1039.165	66.166
1039.526	78.1874
1039.887	81.19257
1040.248	42.10358
1040.609	87.21342
1040.97	63.15352
1041.331	87.2187
1041.692	68.15808
1042.053	76.17207
1042.413	125.28686
1042.774	112.26909
1043.134	81.19161
1043.495	124.30739
1043.855	124.29644
1044.215	63.15592
1044.576	59.14076
1044.936	112.25347
1045.296	114.28105
1045.656	77.18791
1046.016	107.25536
1046.375	71.17146
1046.735	15.03423
1047.095	86.19977
1047.454	113.23603
1047.814	69.16518
1048.173	133.31254
1048.533	70.15964
1048.892	19.04585
1049.251	102.2535
1049.61	65.15951
1049.969	72.1689
1050.328	35.07609
1050.687	66.16001
1051.046	25.06112
1051.405	65.16116
1051.763	83.18948
1052.122	60.14928
1052.48	59.14436
1052.839	52.12222
1053.197	59.13854
1053.555	116.26081
1053.914	124.29893
1054.272	89.21346
1054.63	60.14634
1054.988	61.14452
1055.345	53.114
1055.703	99.23591
1056.061	74.18945
1056.419	83.2135
1056.776	141.33586
1057.134	69.15904
1057.491	64.15976
1057.848	83.20527
1058.206	62.14539
1058.563	81.17729
1058.92	74.16965
1059.277	97.23707
1059.634	94.21913
1059.991	104.24644
1060.348	60.13523
1060.704	56.13321
1061.061	138.31485
1061.418	57.13796
1061.774	96.23484
1062.131	49.12949
1062.487	82.1904
1062.843	102.25174
1063.199	51.12673
1063.555	81.18641
1063.911	100.25016
1064.267	124.25423
1064.623	75.18119
1064.979	140.32572
1065.335	82.19469
1065.691	57.13635
1066.046	106.2302
1066.402	55.12475
1066.757	98.24507
1067.112	91.2215
1067.468	53.12499
1067.823	78.1864
1068.178	79.18991
1068.533	93.22348
1068.888	111.26196
1069.243	76.18654
1069.598	54.13102
1069.952	22.04979
1070.307	66.16277
1070.662	98.23034
1071.016	68.1517
1071.371	59.13388
1071.725	94.22283
1072.079	81.19354
1072.434	56.13582
1072.788	86.20324
1073.142	84.20518
1073.496	102.23937
1073.85	64.1479
1074.203	87.20946
1074.557	71.18801
1074.911	142.33272
1075.265	56.12993
1075.618	104.25119
1075.971	63.14938
1076.325	47.11942
1076.678	48.10973
1077.031	77.17316
1077.385	81.17714
1077.738	75.16832
1078.091	34.07751
1078.444	106.24321
1078.796	80.19505
1079.149	96.23659
1079.502	68.15995
1079.855	38.08876
1080.207	103.25108
1080.56	75.19285
1080.912	100.24099
1081.264	103.24535
1081.617	77.18658
1081.969	70.17581
1082.321	89.21557
1082.673	41.09368
1083.025	79.18623
1083.377	105.22253
1083.728	92.21269
1084.08	70.17397
1084.432	89.21289
1084.783	117.27033
1085.135	100.24817
1085.486	68.15489
1085.838	88.21503
1086.189	86.20717
1086.54	86.20379
1086.891	64.16132
1087.242	99.23862
1087.593	107.25751
1087.944	52.11754
1088.295	105.23583
1088.646	117.27976
1088.996	69.16549
1089.347	81.19745
1089.698	45.10637
1090.048	102.26232
1090.398	84.19335
1090.749	82.19484
1091.099	26.06561
1091.449	77.19071
1091.799	119.29397
1092.149	-7.01724
1092.499	45.10978
1092.849	66.16713
1093.199	101.2506
1093.548	89.21208
1093.898	88.21847
1094.248	86.2194
1094.597	16.04105
1094.947	61.16229
1095.296	66.16236
1095.645	73.18895
1095.994	102.24236
1096.343	49.12322
1096.692	61.1598
1097.041	46.12451
1097.39	106.26296
1097.739	73.18882
1098.088	128.33821
1098.437	53.13903
1098.785	74.19854
1099.134	92.24235
1099.482	100.2726
1099.83	84.21926
1100.179	37.09663
1100.527	78.2061
1100.875	37.09795
1101.223	47.12475
1101.571	51.14079
1101.919	-2.00527
1102.267	80.22399
1102.615	4.01286
1102.962	19.06111
1103.31	16.05135
1103.658	18.05793
