Data from N2 R11 sample 5_Subt2__4__14-38-45-658.txt Node

Date: Mon Sep 01 14:38:45 PDT 2025
User: uwsun
Spectrometer: HDX01956
Trigger mode: 0
Integration Time (sec): 5.000000E-1
Scans to average: 1
Nonlinearity correction enabled: true
Boxcar width: 0
Storing dark spectrum: false
XAxis mode: Wavelengths
Number of Pixels in Spectrum: 2068
>>>>>Begin Spectral Data<<<<<
194.03	111.30622
194.578	106.33082
195.127	108.33191
195.676	109.33599
196.225	167.4306
196.773	181.48184
197.321	231.59621
197.87	341.79062
198.418	296.68291
198.966	237.5567
199.513	210.47137
200.061	208.47531
200.609	284.67812
201.156	221.43025
201.704	249.56085
202.251	253.60192
202.798	270.62739
203.345	316.69381
203.892	240.5429
204.438	310.65597
204.985	232.48857
205.532	252.59481
206.078	278.60756
206.624	281.61139
207.17	291.59838
207.716	296.63403
208.262	332.56827
208.808	266.57863
209.354	277.59705
209.899	327.7347
210.445	282.61969
210.99	279.59413
211.535	357.73376
212.08	331.67602
212.625	293.65292
213.17	311.69991
213.715	280.54447
214.259	355.72306
214.804	310.68064
215.348	339.67979
215.892	282.60195
216.436	382.77186
216.98	351.67978
217.524	337.69859
218.068	354.78573
218.612	307.68893
219.155	300.62537
219.698	283.60081
220.242	303.67576
220.785	284.59201
221.328	261.58547
221.871	328.74224
222.414	277.62085
222.956	229.49614
223.499	272.54632
224.041	298.62092
224.583	283.54755
225.126	287.56248
225.668	268.58348
226.21	222.50566
226.751	192.37923
227.293	297.60466
227.835	251.55053
228.376	297.61264
228.918	261.59533
229.459	213.47957
230	266.56682
230.541	279.57448
231.082	286.61816
231.622	279.57448
232.163	243.52871
232.704	261.57945
233.244	273.60558
233.784	314.68623
234.324	227.44383
234.864	283.56959
235.404	312.65905
235.944	235.50283
236.484	285.63693
237.023	265.55818
237.563	286.58505
238.102	269.5671
238.641	281.63499
239.18	245.51015
239.719	298.66557
240.258	305.60539
240.797	261.55604
241.335	292.63626
241.874	284.47722
242.412	273.58287
242.95	260.5509
243.488	280.56628
244.026	246.50459
244.564	333.595
245.102	272.53951
245.64	299.63976
246.177	327.64087
246.715	335.70716
247.252	253.5186
247.789	326.53465
248.326	228.48732
248.863	290.55693
249.4	339.67162
249.936	283.50957
250.473	228.4738
251.009	239.48547
251.546	301.57959
252.082	268.51766
252.618	295.57405
253.154	285.60215
253.69	286.56542
254.226	287.60266
254.761	333.64862
255.297	293.5593
255.832	284.59043
256.367	284.58833
256.903	281.53951
257.438	280.58004
257.972	271.53011
258.507	229.46282
259.042	305.57542
259.576	240.45179
260.111	316.63733
260.645	297.56033
261.179	280.57122
261.713	288.55763
262.247	276.55871
262.781	252.46085
263.315	252.54375
263.849	284.62277
264.382	346.68693
264.915	267.54631
265.449	244.51949
265.982	314.6202
266.515	295.62738
267.048	283.51794
267.58	363.67982
268.113	250.47061
268.646	262.56702
269.178	215.42196
269.71	337.63081
270.243	290.57629
270.775	283.62985
271.307	277.58525
271.838	353.72455
272.37	284.60937
272.902	272.53951
273.433	282.53294
273.965	303.63962
274.496	300.65092
275.027	268.58075
275.558	319.6666
276.089	246.52534
276.62	317.70171
277.15	339.72189
277.681	298.55794
278.211	352.74158
278.741	281.5304
279.272	315.61385
279.802	292.63329
280.332	291.59001
280.861	322.66496
281.391	309.59757
281.921	315.65386
282.45	318.68585
282.98	288.6528
283.509	272.52614
284.038	306.59503
284.567	334.66651
285.096	331.68247
285.625	291.56384
286.153	250.50515
286.682	312.60496
287.21	282.58157
287.739	330.66006
288.267	319.65477
288.795	309.70081
289.323	241.4826
289.851	315.62553
290.378	298.56622
290.906	283.58114
291.433	298.63389
291.961	311.59078
292.488	311.65766
293.015	303.59973
293.542	270.58259
294.069	337.6939
294.596	382.78992
295.122	360.71439
295.649	386.69916
296.175	391.7866
296.702	353.71605
297.228	377.76263
297.754	325.60564
298.28	343.64172
298.806	311.62422
299.332	360.64807
299.857	390.71434
300.383	392.82258
300.908	255.51797
301.433	341.68254
301.958	372.70615
302.483	339.69739
303.008	387.78609
303.533	368.79606
304.058	348.67638
304.582	338.651
305.107	320.69105
305.631	409.75236
306.155	329.62314
306.679	341.64493
307.203	362.67677
307.727	367.70396
308.251	362.72776
308.775	355.67404
309.298	332.64005
309.822	372.76028
310.345	375.71063
310.868	344.66096
311.391	416.81627
311.914	339.68451
312.437	420.75378
312.96	408.75297
313.482	373.6982
314.005	365.73091
314.527	372.77958
315.049	458.90717
315.571	353.60634
316.093	430.82701
316.615	415.77261
317.137	421.69419
317.659	447.8384
318.18	445.826
318.702	472.82407
319.223	468.70331
319.744	463.76942
320.265	386.71201
320.786	431.80081
321.307	462.8612
321.828	502.82531
322.348	469.81085
322.869	447.77115
323.389	279.32895
323.909	430.72462
324.43	522.9191
324.95	513.83004
325.47	433.77492
325.989	450.75916
326.509	448.68704
327.029	508.7856
327.548	462.71777
328.067	477.80145
328.587	495.8704
329.106	501.77545
329.625	614.12945
330.144	475.74598
330.662	499.77507
331.181	550.85412
331.7	506.79263
332.218	545.75567
332.736	547.83779
333.255	587.87256
333.773	588.89027
334.291	555.91734
334.808	541.75398
335.326	586.8176
335.844	585.82747
336.361	540.86513
336.879	617.8579
337.396	560.82656
337.913	648.86502
338.43	583.76539
338.947	578.81832
339.464	596.71
339.981	624.84622
340.497	678.96629
341.014	594.83889
341.53	614.75885
342.046	675.92127
342.562	660.93467
343.078	722.90295
343.594	686.88432
344.11	726.90988
344.626	640.88967
345.141	650.76607
345.657	690.80442
346.172	703.87755
346.687	725.82004
347.202	692.75493
347.717	754.88592
348.232	740.93659
348.747	695.76923
349.261	705.68187
349.776	753.83054
350.29	653.78353
350.805	847.98226
351.319	786.82528
351.833	728.7198
352.347	764.79944
352.861	716.74104
353.374	822.81414
353.888	805.85733
354.401	774.75006
354.915	786.69225
355.428	753.81959
355.941	852.77756
356.454	878.76411
356.967	826.79192
357.48	830.74909
357.993	871.86785
358.505	858.82574
359.018	925.86442
359.53	863.78166
360.042	924.69844
360.554	927.82966
361.066	900.80189
361.578	925.64364
362.09	906.76447
362.602	830.59825
363.113	913.69687
363.625	972.65775
364.136	978.62653
364.647	890.61298
365.158	954.67126
365.669	939.70662
366.18	1046.70738
366.691	975.57389
367.201	931.66606
367.712	931.56918
368.222	963.5739
368.733	953.4648
369.243	973.47698
369.753	1078.56463
370.263	1086.60185
370.773	1091.64178
371.282	1040.5288
371.792	1082.39135
372.301	1077.48185
372.811	1088.61027
373.32	1123.21091
373.829	1103.32588
374.338	1193.19694
374.847	1238.18475
375.356	1217.18734
375.865	1330.91285
376.373	1356.94907
376.882	1446.10604
377.39	1410.97336
377.898	1333.89462
378.407	1450.67013
378.915	1550.53864
379.423	1582.55123
379.93	1673.40029
380.438	1602.39952
380.946	1748.22916
381.453	1796.15496
381.96	1727.12884
382.468	1937.98974
382.975	2174.89865
383.482	2259.93217
383.989	2358.87019
384.495	2360.03908
385.002	2348.41457
385.509	2499.4766
386.015	2647.37632
386.521	2880.64253
387.028	3071.536
387.534	2932.91604
388.04	3108.05971
388.546	2957.17154
389.051	2998.6242
389.557	3346.03885
390.063	4177.39032
390.568	4029.37572
391.073	3995.91556
391.578	4112.51408
392.084	4169.17488
392.589	3723.59787
393.093	3907.14188
393.598	4560.32065
394.103	5130.15895
394.607	5780.73653
395.112	5972.77502
395.616	6331.8198
396.12	6589.62176
396.624	7253.67896
397.128	7929.53845
397.632	9148.72934
398.136	9969.7619
398.639	8937.96461
399.143	9123.69815
399.646	10440.24444
400.15	11307.05906
400.653	11368.11414
401.156	11749.71062
401.659	4407.62091
402.162	1054.15589
402.664	0
403.167	0
403.67	0
404.172	0
404.674	0
405.176	0
405.678	0
406.18	0
406.682	0
407.184	0
407.686	0
408.187	0
408.688	0
409.19	0
409.691	0
410.192	0
410.693	0
411.194	435.30976
411.694	4082.94878
412.195	8864.71461
412.696	12089.80453
413.196	12760.96929
413.696	12863.67595
414.196	13703.56671
414.696	17261.84252
415.196	21764.24417
415.696	29583.19008
416.196	29158.66873
416.695	19971.68286
417.195	15015.36932
417.694	14567.83843
418.194	14124.86417
418.693	12429.43794
419.192	12223.64846
419.691	11747.23627
420.19	11545.94284
420.688	11962.93932
421.187	11547.26629
421.685	11160.84375
422.184	10539.19588
422.682	8983.43549
423.18	6908.12657
423.678	6074.82081
424.176	5471.94581
424.674	5160.14941
425.172	5209.01825
425.669	5214.16813
426.167	4676.33119
426.664	4307.48116
427.161	3880.03929
427.659	3585.32237
428.156	3290.09996
428.652	3095.06599
429.149	2885.95046
429.646	2867.92025
430.143	2756.7313
430.639	2551.75841
431.135	2313.88296
431.632	2267.90697
432.128	1996.14875
432.624	1901.31377
433.12	1644.32937
433.616	1754.2886
434.111	1620.45568
434.607	1546.59252
435.103	1607.52354
435.598	1684.51289
436.093	1488.86273
436.588	1428.915
437.083	1325.02979
437.578	1265.13207
438.073	1118.2672
438.568	1183.36335
439.062	1139.17678
439.557	1101.39221
440.051	1043.33772
440.546	923.35325
441.04	931.45239
441.534	884.55904
442.028	933.5255
442.522	926.52526
443.015	928.41911
443.509	868.58478
444.002	779.554
444.496	813.4396
444.989	708.54803
445.482	735.58589
445.975	717.45606
446.468	776.43685
446.961	718.42583
447.454	692.48958
447.947	639.50416
448.439	752.62775
448.931	667.48141
449.424	678.65079
449.916	707.62242
450.408	510.41849
450.9	590.54532
451.392	500.52692
451.884	557.49836
452.375	536.54543
452.867	639.55903
453.358	483.43749
453.849	505.41212
454.341	508.4663
454.832	498.42559
455.323	455.4959
455.814	581.55943
456.304	561.55231
456.795	489.49396
457.285	547.53618
457.776	563.58229
458.266	396.45142
458.756	480.5565
459.247	445.50564
459.737	399.46539
460.226	367.4011
460.716	379.46053
461.206	414.50982
461.695	373.50629
462.185	376.46693
462.674	392.47412
463.163	434.49069
463.653	394.41903
464.142	296.39973
464.63	391.53493
465.119	345.43857
465.608	286.37275
466.096	296.36465
466.585	371.49037
467.073	389.54193
467.561	299.43314
468.05	367.50076
468.538	337.50496
469.026	322.46952
469.513	252.31662
470.001	279.38536
470.489	224.33428
470.976	308.44105
471.463	273.44159
471.951	249.4128
472.438	225.34383
472.925	196.30049
473.412	217.36293
473.899	192.2975
474.385	246.41064
474.872	201.31685
475.359	133.22818
475.845	243.33084
476.331	186.27992
476.817	203.35034
477.303	150.24776
477.789	192.32985
478.275	140.25252
478.761	212.36714
479.247	162.26284
479.732	119.21899
480.218	97.19145
480.703	132.24579
481.188	72.11503
481.673	92.15839
482.158	56.08819
482.643	142.27797
483.128	87.15006
483.612	118.21022
484.097	145.27396
484.581	83.15051
485.066	45.08611
485.55	124.20675
486.034	90.14989
486.518	78.14278
487.002	37.07186
487.486	43.08383
487.969	58.11289
488.453	80.16276
488.936	57.10242
489.42	74.13081
489.903	124.25182
490.386	-425.63768
490.869	34.06045
491.352	74.14918
491.835	71.11861
492.318	16.02964
492.8	91.15127
493.283	35.07372
493.765	10.02051
494.247	42.0821
494.73	54.09835
495.212	101.20281
495.694	-55.10886
496.175	-41.08176
496.657	51.10137
497.139	111.15727
497.62	-21.04194
498.102	-1.0021
498.583	-7.01502
499.064	0
499.545	22.04243
500.026	-14.02668
500.507	-10.01985
500.988	20.04249
501.469	0
501.949	-8.01709
502.43	-85.17518
502.91	-49.087
503.39	33.07113
503.87	-3.00604
504.35	10.02041
504.83	-38.07188
505.31	-46.09696
505.79	-2.00412
506.269	8.01617
506.749	-63.12546
507.228	-9.01822
507.707	8.01524
508.187	22.04562
508.666	-16.0341
509.145	-24.04869
509.623	-11.02245
510.102	9.01896
510.581	45.09429
511.059	-32.07015
511.538	26.05877
512.016	51.10525
512.494	40.08439
512.972	2.00417
513.45	-49.09908
513.928	-1.00212
514.406	3.00624
514.884	95.20995
515.361	92.18888
515.839	69.13497
516.316	126.25822
516.793	115.25097
517.27	153.31689
517.747	88.19501
518.224	91.18164
518.701	169.31742
519.178	30.06473
519.654	116.23826
520.131	98.20938
520.607	90.19428
521.083	112.21945
521.56	109.22171
522.036	134.25162
522.512	116.24837
522.987	31.06421
523.463	59.12236
523.939	104.22171
524.414	98.19675
524.89	47.09791
525.365	39.07745
525.84	21.04367
526.315	-19.04071
526.79	42.08319
527.265	45.09011
527.74	-47.10274
528.215	-33.06963
528.689	-4.00786
529.164	1.00193
529.638	19.04352
530.112	-42.0886
530.587	-49.09344
531.061	-32.06896
531.534	11.0238
532.008	-34.07324
532.482	-24.04952
532.956	-69.15866
533.429	-22.04788
533.903	-11.02183
534.376	-75.15054
534.849	-44.09213
535.322	-28.05948
535.795	-44.09726
536.268	-42.09106
536.741	-35.07599
537.213	-42.08786
537.686	-87.19268
538.158	-69.13965
538.631	-20.04395
539.103	-96.19594
539.575	-61.11582
540.047	-24.04754
540.519	-86.18836
540.991	-50.1114
541.463	-58.12773
541.934	-39.0807
542.406	-84.18242
542.877	-85.17526
543.348	-77.1701
543.82	-9.01992
544.291	7.0147
544.762	-69.14847
545.233	-45.1019
545.703	-19.03764
546.174	-30.06287
546.645	-104.22537
547.115	-45.09766
547.585	-38.07872
548.056	-83.18013
548.526	-49.10299
548.996	-14.03007
549.466	7.01524
549.935	5.01041
550.405	4.0077
550.875	39.0807
551.344	27.05695
551.814	1.00203
552.283	51.09692
552.752	15.03044
553.221	16.03018
553.69	42.08089
554.159	42.08923
554.628	79.15072
555.096	63.13801
555.565	91.17404
556.033	65.13372
556.502	21.04497
556.97	53.10333
557.438	39.082
557.906	87.18237
558.374	49.10017
558.842	24.05143
559.31	118.23263
559.777	55.11835
560.245	68.14327
560.712	54.11247
561.18	76.14948
561.647	84.16739
562.114	76.15448
562.581	135.29499
563.048	157.31964
563.514	109.23757
563.981	196.39276
564.448	157.31061
564.914	252.50849
565.381	312.60699
565.847	251.51031
566.313	288.57685
566.779	311.59885
567.245	375.73947
567.711	380.76676
568.176	381.71494
568.642	378.7995
569.108	470.95402
569.573	494.95743
570.038	553.92873
570.504	598.05701
570.969	662.31387
571.434	655.11082
571.899	720.3242
572.363	772.33207
572.828	858.46201
573.293	882.49093
573.757	925.54737
574.222	932.49335
574.686	982.55775
575.15	1113.83778
575.614	1106.75141
576.078	1144.84298
576.542	1198.83628
577.006	1218.82773
577.469	1314.18521
577.933	1347.91768
578.396	1289.03903
578.86	1331.05563
579.323	1369.11235
579.786	1385.86942
580.249	1386.00313
580.712	1380.21207
581.175	1412.26376
581.637	1383.05733
582.1	1430.96685
582.563	1398.88902
583.025	1328.13053
583.487	1362.69438
583.95	1303.79088
584.412	1376.81176
584.874	1300.11116
585.336	1234.97981
585.797	1223.75051
586.259	1209.95536
586.721	1149.86409
587.182	1174.90539
587.643	1079.72359
588.105	1012.72991
588.566	1062.55412
589.027	1017.76312
589.488	920.54276
589.949	988.75116
590.41	906.25099
590.87	902.52896
591.331	966.50427
591.791	807.40927
592.252	773.34337
592.712	844.53722
593.172	754.30024
593.632	813.34611
594.092	699.2119
594.552	736.21323
595.011	642.16037
595.471	671.17618
595.931	602.06853
596.39	626.19316
596.849	600.11804
597.308	598.03558
597.768	567.1714
598.227	549.07733
598.685	548.0255
599.144	537.02148
599.603	513.9983
600.062	488.83406
600.52	494.90031
600.978	474.9314
601.437	494.93183
601.895	435.76406
602.353	459.84436
602.811	453.83248
603.269	439.87747
603.727	428.85727
604.184	375.71063
604.642	439.89822
605.099	373.73206
605.557	455.92421
606.014	404.72394
606.471	379.79653
606.928	330.59619
607.385	375.76415
607.842	455.85888
608.299	500.9561
608.755	459.91575
609.212	450.82301
609.668	395.72587
610.125	458.9199
610.581	541.0561
611.037	501.94897
611.493	463.91686
611.949	335.69134
612.405	399.66924
612.861	455.90271
613.316	343.70339
613.772	405.78849
614.227	388.77895
614.683	458.82284
615.138	376.75137
615.593	426.83668
616.048	406.79326
616.503	450.93927
616.958	373.80429
617.412	415.83681
617.867	315.60392
618.321	449.78452
618.776	407.77127
619.23	435.87028
619.684	481.9191
620.138	433.86427
620.592	379.79969
621.046	410.83299
621.5	375.79402
621.954	465.8967
622.407	341.66926
622.861	348.74411
623.314	349.70114
623.768	358.73365
624.221	363.62652
624.674	323.66148
625.127	340.70591
625.58	317.64861
626.033	377.73747
626.485	309.66201
626.938	340.72291
627.39	327.6818
627.843	311.64844
628.295	344.7123
628.747	281.60723
629.199	257.53466
629.651	276.5715
630.103	267.55942
630.555	260.50582
631.006	286.61367
631.458	235.51283
631.909	306.64468
632.361	197.43045
632.812	229.49169
633.263	238.47803
633.714	219.43997
634.165	219.49752
634.616	217.48398
635.067	255.52908
635.518	209.46999
635.968	263.49374
636.419	195.40243
636.869	213.47859
637.319	182.39978
637.769	134.28803
638.219	221.49982
638.669	155.3537
639.119	181.42135
639.569	147.34045
640.019	183.40494
640.468	136.29384
640.918	153.35505
641.367	148.32072
641.816	148.32004
642.265	123.27626
642.714	145.32447
643.163	137.30543
643.612	81.18968
644.061	117.24135
644.51	144.31765
644.958	136.29044
645.406	115.26771
645.855	141.33509
646.303	143.325
646.751	131.28988
647.199	145.32045
647.647	99.22327
648.095	118.26422
648.543	163.32565
648.99	113.26368
649.438	143.32777
649.885	158.37916
650.333	147.27937
650.78	96.22758
651.227	143.3384
651.674	141.31357
652.121	96.22959
652.568	110.26177
653.015	157.38613
653.461	104.24301
653.908	138.31459
654.354	159.36999
654.801	67.15573
655.247	127.27469
655.693	88.22585
656.139	64.15236
656.585	110.25986
657.031	60.13893
657.477	77.16554
657.922	106.24087
658.368	111.26997
658.813	189.4285
659.259	55.13151
659.704	109.25084
660.149	82.18988
660.594	72.17015
661.039	106.2393
661.484	147.34544
661.929	130.30006
662.373	86.21483
662.818	78.1923
663.262	82.19626
663.707	83.20879
664.151	114.27566
664.595	73.17555
665.039	95.23486
665.483	94.23736
665.927	95.22307
666.371	30.06991
666.814	101.24021
667.258	57.13505
667.701	167.35656
668.145	98.24285
668.588	60.14765
669.031	92.21556
669.474	99.23763
669.917	116.25674
670.36	117.28797
670.803	112.26929
671.245	123.25931
671.688	109.26501
672.13	69.15574
672.573	85.21582
673.015	105.25165
673.457	84.18429
673.899	118.28479
674.341	138.33042
674.783	99.23709
675.225	93.22856
675.666	65.15691
676.108	102.22283
676.549	93.2211
676.991	137.30138
677.432	76.15371
677.873	87.20253
678.314	78.18733
678.755	96.2338
679.196	50.11605
679.637	94.23038
680.078	102.23974
680.518	121.28246
680.959	86.20701
681.399	90.2236
681.839	104.25337
682.28	117.28776
682.72	71.16418
683.16	89.22204
683.6	117.26785
684.039	93.19624
684.479	81.19966
684.919	54.12593
685.358	80.20388
685.798	88.23064
686.237	95.23088
686.676	154.35617
687.115	87.20596
687.554	132.31279
687.993	122.27103
688.432	67.15511
688.871	115.26169
689.309	76.18301
689.748	103.21801
690.186	126.30111
690.625	63.14943
691.063	110.26428
691.501	69.17202
691.939	46.11599
692.377	64.15761
692.815	91.21876
693.253	104.25119
693.69	90.20003
694.128	66.16134
694.565	85.20433
695.003	90.22912
695.44	88.20837
695.877	62.14658
696.314	117.25371
696.751	130.29743
697.188	89.20621
697.625	131.30171
698.061	73.17675
698.498	149.35913
698.934	80.19432
699.371	72.17121
699.807	84.20043
700.243	67.1629
700.679	74.16992
701.115	123.29051
701.551	131.30868
701.987	122.27576
702.422	77.18454
702.858	109.26053
703.294	120.27312
703.729	118.28898
704.164	59.14377
704.599	112.25109
705.035	42.09582
705.47	77.18868
705.904	108.25266
706.339	114.26669
706.774	93.2194
707.209	59.138
707.643	71.1723
708.078	115.28033
708.512	50.12634
708.946	81.19598
709.38	105.25001
709.814	57.13248
710.248	76.18689
710.682	98.23429
711.116	38.09199
711.549	95.24572
711.983	77.17989
712.416	92.21927
712.85	60.15113
713.283	75.17934
713.716	124.31131
714.149	126.30076
714.582	145.32527
715.015	115.28825
715.448	86.21793
715.881	123.27081
716.313	107.25184
716.746	80.19001
717.178	97.23433
717.61	93.23671
718.043	91.22793
718.475	93.2267
718.907	148.37277
719.339	55.12657
719.77	79.18876
720.202	72.18336
720.634	68.1669
721.065	95.22655
721.497	111.2725
721.928	89.21954
722.359	55.13407
722.79	69.16675
723.221	103.25985
723.652	132.33947
724.083	87.19805
724.514	127.29215
724.945	56.13342
725.375	53.12465
725.806	81.20362
726.236	100.25673
726.666	124.29372
727.096	87.21476
727.526	6.01551
727.956	62.14282
728.386	104.25677
728.816	51.13032
729.246	64.15697
729.675	47.11704
730.105	96.23728
730.534	75.17728
730.964	125.31546
731.393	151.37315
731.822	101.25835
732.251	87.22168
732.68	117.27645
733.109	50.12467
733.537	58.14162
733.966	98.244
734.395	80.18649
734.823	107.24289
735.251	104.25119
735.68	141.35163
736.108	80.20352
736.536	64.15277
736.964	102.23778
737.392	95.23847
737.82	100.24099
738.247	107.25702
738.675	148.35219
739.102	72.18103
739.53	62.15901
739.957	78.20151
740.384	110.27189
740.811	86.21894
741.238	81.19892
741.665	88.20539
742.092	118.2821
742.519	23.0578
742.945	56.13603
743.372	78.19428
743.798	93.23955
744.225	89.21281
744.651	77.19433
745.077	129.32054
745.503	93.22789
745.929	64.15511
746.355	142.35162
746.781	76.18957
747.207	38.09047
747.632	55.13537
748.058	74.18585
748.483	90.20865
748.908	107.26598
749.334	76.18792
749.759	83.19702
750.184	92.22003
750.609	65.16116
751.033	115.27235
751.458	151.33734
751.883	124.3066
752.307	81.19198
752.732	39.0985
753.156	81.20105
753.58	82.19619
754.005	98.24913
754.429	66.15664
754.853	71.177
755.277	81.19302
755.7	55.13776
756.124	110.27268
756.548	70.16729
756.971	102.24952
757.394	112.28794
757.818	34.08848
758.241	69.17606
758.664	50.12742
759.087	72.16221
759.51	102.25405
759.933	79.19114
760.356	77.1982
760.778	52.12914
761.201	101.2462
761.623	96.23371
762.046	133.31474
762.468	98.23626
762.89	112.27632
763.312	113.27576
763.734	61.1482
764.156	71.17643
764.578	103.23779
765	87.2131
765.421	49.12543
765.843	87.22837
766.264	155.37147
766.686	48.12177
767.107	49.12003
767.528	89.22485
767.949	83.21164
768.37	35.087
768.791	83.2018
769.212	76.19149
769.632	44.10378
770.053	80.21103
770.473	89.21711
770.894	119.2971
771.314	106.25351
771.734	50.11789
772.154	89.22877
772.575	94.2187
772.994	99.22537
773.414	151.35968
773.834	29.0734
774.254	104.25441
774.673	108.26282
775.093	74.18385
775.512	51.12668
775.931	103.26068
776.351	69.17214
776.77	71.17436
777.189	79.18876
777.607	80.20467
778.026	79.1973
778.445	23.05823
778.864	99.25359
779.282	84.20266
779.701	35.08912
780.119	32.08167
780.537	79.19752
780.955	127.32108
781.373	67.16649
781.791	69.15606
782.209	108.24869
782.627	46.12191
783.045	82.18927
783.462	65.16667
783.88	61.15838
784.297	77.19405
784.715	91.23326
785.132	73.17735
785.549	91.22744
785.966	74.18652
786.383	110.26949
786.8	82.19101
787.217	75.17838
787.633	36.09061
788.05	115.27225
788.466	138.32284
788.883	45.11547
789.299	87.20962
789.715	58.14178
790.131	82.20402
790.547	83.20737
790.963	76.18895
791.379	52.13215
791.795	92.21007
792.21	105.24482
792.626	111.26227
793.041	66.16343
793.457	110.27059
793.872	49.11609
794.287	33.07951
794.702	90.22156
795.117	82.20365
795.532	88.22014
795.947	80.19286
796.362	106.25235
796.776	139.32269
797.191	79.19351
797.605	34.08057
798.02	78.18996
798.434	160.35131
798.848	76.1873
799.262	90.22278
799.676	104.25281
800.09	62.15308
800.504	91.2205
800.918	109.25134
801.331	112.29185
801.745	85.1953
802.158	74.18512
802.572	102.24655
802.985	100.24099
803.398	75.17913
803.811	144.36594
804.224	131.32302
804.637	37.08888
805.05	106.24467
805.462	108.264
805.875	65.16865
806.288	44.1068
806.7	98.24533
807.112	76.17647
807.525	71.17546
807.937	65.16099
808.349	114.28363
808.761	57.14076
809.173	83.20097
809.584	98.24134
809.996	31.07653
810.408	40.10377
810.819	41.09714
811.231	7.01828
811.642	52.12451
812.053	124.29213
812.464	187.43514
812.875	164.41232
813.286	133.33864
813.697	146.33713
814.108	132.31918
814.519	95.21118
814.929	125.31591
815.34	125.30038
815.75	63.1603
816.16	63.15735
816.571	69.17928
816.981	68.16089
817.391	117.2803
817.801	74.18371
818.211	64.15295
818.62	53.12809
819.03	94.22952
819.44	96.24964
819.849	105.263
820.259	114.2896
820.668	100.24463
821.077	36.08996
821.486	81.19487
821.895	109.26759
822.304	93.24536
822.713	86.20285
823.122	68.1698
823.531	72.17075
823.939	69.1682
824.348	127.30564
824.756	82.20498
825.164	80.201
825.573	91.22744
825.981	95.2346
826.389	89.22284
826.797	70.1753
827.205	79.18108
827.612	94.23098
828.02	31.07336
828.428	71.18072
828.835	87.22814
829.243	121.28567
829.65	69.17152
830.057	86.20811
830.464	88.21367
830.871	95.22646
831.278	71.17159
831.685	88.19583
832.092	106.25776
832.499	83.18121
832.905	90.22693
833.312	88.20013
833.718	69.17189
834.124	114.25831
834.531	99.24815
834.937	93.23755
835.343	95.22811
835.749	117.27087
836.155	80.20889
836.561	38.09396
836.966	96.23353
837.372	84.21309
837.777	56.13974
838.183	130.28556
838.588	73.181
838.993	53.12939
839.399	75.18303
839.804	6.01478
840.209	44.11237
840.613	76.16884
841.018	90.22685
841.423	79.20207
841.828	81.2042
842.232	84.2074
842.637	77.1813
843.041	49.12587
843.445	64.16051
843.849	38.09451
844.253	131.30748
844.657	51.12866
845.061	54.12286
845.465	48.11629
845.869	71.16483
846.272	49.11962
846.676	97.23318
847.079	65.16515
847.483	115.28419
847.886	99.23934
848.289	35.09377
848.692	55.13945
849.095	70.16792
849.498	103.2592
849.901	113.25672
850.304	119.28139
850.707	48.12267
851.109	150.3736
851.512	68.1669
851.914	52.13121
852.316	60.15178
852.718	4.01042
853.121	64.15674
853.523	80.18635
853.925	64.16677
854.326	55.13761
854.728	39.10063
855.13	76.19539
855.531	63.15047
855.933	118.28027
856.334	87.21579
856.736	60.13446
857.137	90.20807
857.538	56.14085
857.939	55.13597
858.34	98.23715
858.741	66.17228
859.142	118.28037
859.542	66.17386
859.943	83.20534
860.343	18.0449
860.744	147.35284
861.144	49.11976
861.544	17.04118
861.945	66.16796
862.345	96.23318
862.745	94.23209
863.145	123.29051
863.544	129.32183
863.944	84.19751
864.344	113.27792
864.743	138.33746
865.143	100.25494
865.542	68.15746
865.941	80.19723
866.34	107.25399
866.74	82.21913
867.139	95.22586
867.537	101.25535
867.936	57.13723
868.335	97.24506
868.734	86.21863
869.132	72.16685
869.531	126.30088
869.929	53.12095
870.327	82.19566
870.726	90.22311
871.124	125.28835
871.522	104.2627
871.92	100.24472
872.318	122.29467
872.715	129.31516
873.113	63.15334
873.511	86.21311
873.908	-7.01787
874.306	64.15894
874.703	63.15746
875.1	119.30107
875.497	55.13192
875.894	45.11047
876.291	62.15201
876.688	97.24838
877.085	38.09151
877.482	80.1994
877.878	71.17042
878.275	48.12211
878.671	119.26168
879.068	78.18754
879.464	48.1162
879.86	61.14413
880.256	79.19415
880.652	44.11213
881.048	119.29148
881.444	94.22215
881.84	81.20493
882.236	122.30309
882.631	76.18585
883.027	89.21419
883.422	34.08726
883.817	47.11828
884.213	87.22199
884.608	53.13002
885.003	86.20615
885.398	77.19196
885.793	65.16287
886.188	57.14164
886.582	107.27196
886.977	83.19596
887.371	44.1115
887.766	20.05005
888.16	99.2451
888.554	82.20179
888.949	86.21475
889.343	109.26362
889.737	18.04825
890.131	75.18745
890.525	83.21119
890.918	75.18806
891.312	126.29742
891.706	68.17798
892.099	96.24249
892.492	135.28636
892.886	72.17561
893.279	61.15521
893.672	83.21022
894.065	102.25322
894.458	68.1706
894.851	97.23583
895.244	73.18581
895.637	103.24582
896.029	71.17307
896.422	72.17535
896.814	73.18087
897.206	51.12153
897.599	95.23322
897.991	83.1996
898.383	115.26856
898.775	99.22145
899.167	62.14436
899.559	93.23378
899.951	65.15293
900.342	110.27696
900.734	41.10195
901.125	89.23211
901.517	88.21463
901.908	111.26329
902.299	59.14409
902.69	73.17162
903.082	110.26358
903.473	62.14822
903.863	70.17808
904.254	42.09772
904.645	74.18338
905.036	58.1403
905.426	108.24461
905.817	75.1833
906.207	42.10029
906.597	73.17008
906.987	55.14251
907.378	108.27046
907.768	114.29828
908.158	96.23222
908.547	47.12153
908.937	89.22693
909.327	89.21468
909.717	125.31332
910.106	43.10349
910.495	100.24753
910.885	104.26101
911.274	96.23807
911.663	80.20208
912.052	115.28054
912.441	110.27686
912.83	66.15113
913.219	114.29522
913.608	98.23804
913.997	44.11047
914.385	127.29914
914.774	99.23898
915.162	102.24077
915.55	102.2445
915.939	43.10871
916.327	71.17662
916.715	56.14261
917.103	99.2416
917.491	108.26449
917.878	62.15218
918.266	92.23694
918.654	78.19836
919.041	60.1564
919.429	76.17856
919.816	118.29561
920.203	92.22146
920.591	103.25304
920.978	97.23557
921.365	50.13123
921.752	55.13106
922.139	88.18964
922.525	76.18169
922.912	64.15575
923.299	48.11938
923.685	93.24088
924.072	73.16766
924.458	97.2383
924.844	95.23322
925.231	72.16692
925.617	25.06388
926.003	68.1733
926.389	73.18344
926.774	79.19923
927.16	97.23892
927.546	59.15039
927.931	68.16919
928.317	99.22592
928.702	112.26191
929.088	47.11127
929.473	80.20251
929.858	47.11371
930.243	99.23546
930.628	61.14814
931.013	57.14112
931.398	72.16493
931.783	106.2765
932.167	59.14404
932.552	70.1748
932.937	112.2749
933.321	40.10057
933.705	64.16097
934.09	139.34577
934.474	142.33141
934.858	66.17074
935.242	94.21602
935.626	81.20624
936.009	49.13036
936.393	72.18252
936.777	94.23888
937.16	50.13011
937.544	82.19206
937.927	69.17451
938.311	133.31972
938.694	107.2803
939.077	95.22551
939.46	142.34284
939.843	99.2044
940.226	86.21925
940.609	55.12617
940.991	76.19259
941.374	69.16807
941.757	77.1891
942.139	59.1323
942.522	118.27529
942.904	102.24282
943.286	108.27163
943.668	108.27698
944.05	104.25366
944.432	88.21567
944.814	113.27514
945.196	65.15797
945.578	29.06921
945.959	84.19559
946.341	102.24804
946.722	74.17291
947.104	64.1526
947.485	48.11176
947.866	60.15091
948.247	86.2156
948.628	98.23697
949.009	64.16351
949.39	94.23217
949.771	120.27533
950.152	82.20007
950.532	10.02478
950.913	117.27869
951.293	21.057
951.674	79.19006
952.054	35.08697
952.434	61.15114
952.814	55.13076
953.194	94.24419
953.574	102.24887
953.954	104.24444
954.334	80.19832
954.714	46.1122
955.093	121.29363
955.473	15.03775
955.853	88.22632
956.232	55.15063
956.611	119.28172
956.99	71.17777
957.37	61.15516
957.749	136.31916
958.128	72.1807
958.506	74.19118
958.885	76.19095
959.264	21.05174
959.643	98.22088
960.021	68.16795
960.4	71.16026
960.778	100.24408
961.156	101.25088
961.535	84.19451
961.913	82.1907
962.291	49.12573
962.669	80.20157
963.047	94.23803
963.424	83.21059
963.802	86.21007
964.18	122.30475
964.557	96.21912
964.935	58.13723
965.312	49.12762
965.69	108.26763
966.067	58.14104
966.444	109.2657
966.821	76.19505
967.198	77.18588
967.575	96.23406
967.952	103.24025
968.329	71.1721
968.705	115.24319
969.082	83.21164
969.458	53.12707
969.835	91.21984
970.211	53.13595
970.587	81.20054
970.963	97.24681
971.339	76.19757
971.715	90.22311
972.091	99.2416
972.467	94.2326
972.843	63.15598
973.219	116.27509
973.594	59.15408
973.97	137.32069
974.345	97.23008
974.721	95.22811
975.096	95.22794
975.471	64.15142
975.846	73.17462
976.221	25.06377
976.596	37.08891
976.971	114.27815
977.346	114.26209
977.72	74.18772
978.095	36.09326
978.469	113.26648
978.844	81.20252
979.218	49.11748
979.593	92.21868
979.967	82.19858
980.341	60.13789
980.715	104.25951
981.089	66.16475
981.463	72.1646
981.837	54.13186
982.21	153.34886
982.584	67.16131
982.957	52.1298
983.331	76.17877
983.704	120.29104
984.078	58.14273
984.451	140.344
984.824	39.09518
985.197	80.19323
985.57	113.28017
985.943	121.29495
986.316	131.31706
986.688	127.30182
987.061	110.25481
987.434	80.20739
987.806	93.22374
988.179	39.09222
988.551	103.25883
988.923	80.19592
989.295	97.24033
989.667	37.08861
990.039	53.13088
990.411	71.16274
990.783	111.25248
991.155	59.14151
991.527	107.26073
991.898	61.15169
992.27	84.20648
992.641	88.21926
993.012	110.25582
993.384	92.21767
993.755	64.16276
994.126	103.24525
994.497	70.17118
994.868	114.25852
995.239	98.23536
995.61	88.2199
995.98	77.18609
996.351	37.09184
996.722	43.09987
997.092	63.1488
997.462	56.13065
997.833	91.21401
998.203	97.23309
998.573	63.15649
998.943	40.09398
999.313	54.1293
999.683	71.16971
1000.053	109.24783
1000.423	65.1575
1000.792	46.11929
1001.162	90.21984
1001.531	114.27773
1001.901	95.23486
1002.27	127.27938
1002.639	105.26565
1003.009	55.13066
1003.378	71.18085
1003.747	86.20174
1004.116	53.12673
1004.485	95.22507
1004.853	94.23625
1005.222	67.16842
1005.591	92.21666
1005.959	52.11711
1006.328	94.20961
1006.696	114.2716
1007.064	78.1952
1007.433	120.29606
1007.801	127.30727
1008.169	82.20587
1008.537	123.2682
1008.905	100.23064
1009.273	102.24952
1009.64	53.12634
1010.008	119.27986
1010.375	153.3643
1010.743	151.34166
1011.11	70.16498
1011.478	47.11636
1011.845	108.25107
1012.212	47.10643
1012.579	88.21447
1012.946	116.27254
1013.313	106.24953
1013.68	115.255
1014.047	63.14972
1014.414	68.16002
1014.78	84.2074
1015.147	125.29798
1015.513	74.17745
1015.88	95.24095
1016.246	96.23493
1016.612	111.25095
1016.978	72.17568
1017.344	70.17232
1017.71	111.26754
1018.076	118.27453
1018.442	123.3123
1018.808	61.15213
1019.174	50.1254
1019.539	183.41001
1019.905	43.10152
1020.27	96.23484
1020.636	98.23276
1021.001	98.23241
1021.366	39.09383
1021.731	87.22223
1022.096	19.04817
1022.461	93.21821
1022.826	65.154
1023.191	47.12333
1023.556	74.17257
1023.92	51.12534
1024.285	82.19888
1024.649	76.1853
1025.014	83.20429
1025.378	84.20983
1025.742	72.17803
1026.107	84.18863
1026.471	91.21067
1026.835	95.23348
1027.199	46.11077
1027.562	67.15517
1027.926	57.13915
1028.29	117.29242
1028.654	95.21653
1029.017	78.19067
1029.381	45.10756
1029.744	48.12241
1030.107	99.23192
1030.471	94.22309
1030.834	92.20744
1031.197	110.26187
1031.56	90.21063
1031.923	67.17264
1032.286	115.26655
1032.648	90.21352
1033.011	61.13965
1033.374	119.27582
1033.736	25.06598
1034.099	52.12664
1034.461	37.09365
1034.823	60.14907
1035.185	71.17797
1035.548	104.25044
1035.91	91.21618
1036.272	58.13174
1036.634	104.25176
1036.995	86.20064
1037.357	52.1264
1037.719	85.20527
1038.08	95.22351
1038.442	65.15376
1038.803	64.15318
1039.165	101.25243
1039.526	107.25566
1039.887	70.16677
1040.248	62.15235
1040.609	93.22789
1040.97	81.19671
1041.331	67.16903
1041.692	93.21513
1042.053	124.27799
1042.413	74.17156
1042.774	105.2526
1043.134	103.24261
1043.495	87.21713
1043.855	82.19761
1044.215	93.2289
1044.576	52.12422
1044.936	134.3019
1045.296	89.22043
1045.656	78.19031
1046.016	95.22725
1046.375	67.16192
1046.735	46.10432
1047.095	96.22256
1047.454	126.26243
1047.814	99.23564
1048.173	112.26427
1048.533	91.20666
1048.892	53.12707
1049.251	111.27542
1049.61	84.20541
1049.969	79.18507
1050.328	116.24783
1050.687	79.19106
1051.046	71.1721
1051.405	106.26085
1051.763	46.1058
1052.122	64.15912
1052.48	87.21176
1052.839	80.18701
1053.197	27.0638
1053.555	160.35648
1053.914	80.19447
1054.272	95.22759
1054.63	72.17522
1054.988	45.10694
1055.345	89.18994
1055.703	85.20309
1056.061	63.1616
1056.419	56.14472
1056.776	112.26827
1057.134	81.18626
1057.491	109.26986
1057.848	79.19552
1058.206	90.20989
1058.563	122.26472
1058.92	123.27921
1059.277	99.24187
1059.634	94.21913
1059.991	122.28809
1060.348	39.08828
1060.704	50.11908
1061.061	136.31041
1061.418	69.16663
1061.774	70.17207
1062.131	49.12949
1062.487	84.19497
1062.843	75.18603
1063.199	100.24626
1063.555	76.17507
1063.911	70.17606
1064.267	98.20211
1064.623	58.14057
1064.979	116.27116
1065.335	115.2713
1065.691	95.2256
1066.046	86.18756
1066.402	45.10228
1066.757	78.19576
1067.112	84.20472
1067.468	28.06635
1067.823	83.19816
1068.178	61.14714
1068.533	75.18084
1068.888	118.27811
1069.243	102.24915
1069.598	93.22399
1069.952	41.09243
1070.307	57.14081
1070.662	93.2188
1071.016	32.07192
1071.371	59.13388
1071.725	144.33806
1072.079	51.12256
1072.434	42.10213
1072.788	87.20556
1073.142	114.2769
1073.496	53.12557
1073.85	106.24291
1074.203	93.22365
1074.557	83.21935
1074.911	115.27088
1075.265	86.19835
1075.618	88.21319
1075.971	90.21228
1076.325	50.12697
1076.678	21.04827
1077.031	28.0636
1077.385	88.19217
1077.738	61.13729
1078.091	49.11137
1078.444	92.21168
1078.796	67.16375
1079.149	81.20017
1079.502	31.07345
1079.855	93.21488
1080.207	130.31529
1080.56	56.14447
1080.912	110.26458
1081.264	23.05563
1081.617	51.12418
1081.969	43.10852
1082.321	79.19171
1082.673	22.05046
1083.025	100.23477
1083.377	-165.37029
1083.728	73.16941
1084.08	58.14446
1084.432	60.14432
1084.783	80.1862
1085.135	68.16974
1085.486	24.05515
1085.838	34.08392
1086.189	57.13806
1086.54	119.28019
1086.891	35.08868
1087.242	90.2173
1087.593	94.22678
1087.944	85.19084
1088.295	153.34025
1088.646	75.18077
1088.996	87.20795
1089.347	57.13957
1089.698	82.19243
1090.048	87.22433
1090.398	90.20691
1090.749	86.20418
1091.099	33.08316
1091.449	107.26355
1091.799	80.19904
1092.149	8.01964
1092.499	105.25327
1092.849	66.16713
1093.199	132.32566
1093.548	73.17449
1093.898	57.14231
1094.248	103.26198
1094.597	10.02568
1094.947	62.16492
1095.296	84.20595
1095.645	108.27785
1095.994	91.21668
1096.343	112.27845
1096.692	34.08948
1097.041	47.1272
1097.39	62.15504
1097.739	84.21686
1098.088	88.23408
1098.437	48.12602
1098.785	83.22236
1099.134	115.30176
1099.482	85.23227
1099.83	112.29095
1100.179	43.11218
1100.527	62.16426
1100.875	60.15822
1101.223	55.14579
1101.571	63.17358
1101.919	-5.01317
1102.267	66.18519
1102.615	4.01286
1102.962	27.08676
1103.31	8.0257
1103.658	22.07077
