Data from N2 R11 sample 10_Subt2__2__14-34-43-162.txt Node

Date: Mon Sep 01 14:34:43 PDT 2025
User: uwsun
Spectrometer: HDX01956
Trigger mode: 0
Integration Time (sec): 5.000000E-1
Scans to average: 1
Nonlinearity correction enabled: true
Boxcar width: 0
Storing dark spectrum: false
XAxis mode: Wavelengths
Number of Pixels in Spectrum: 2068
>>>>>Begin Spectral Data<<<<<
194.03	194.52813
194.578	211.64966
195.127	191.58057
195.676	201.61209
196.225	281.7101
196.773	289.75542
197.321	380.95521
197.87	572.26324
198.418	546.19469
198.966	483.07775
199.513	454.96779
200.061	426.93056
200.609	493.1277
201.156	468.85767
201.704	477.02216
202.251	486.10208
202.798	472.05077
203.345	507.06644
203.892	503.07473
204.438	526.05861
204.985	475.94679
205.532	481.08256
206.078	570.16681
206.624	507.04818
207.17	541.0481
207.716	492.00733
208.262	505.82447
208.808	501.03343
209.354	472.97469
209.899	598.26674
210.445	455.96339
210.99	465.95012
211.535	587.14227
212.08	603.15397
212.625	578.20991
213.17	477.03491
213.715	498.91819
214.259	511.00214
214.804	573.18646
215.348	583.10163
215.892	505.02396
216.436	563.08872
216.98	559.02731
217.524	535.05821
218.068	559.18582
218.612	518.10994
219.155	518.02572
219.698	499.00762
220.242	558.17674
220.785	530.04267
221.328	476.01847
221.871	524.13634
222.414	524.11266
222.956	500.01866
223.499	470.9009
224.041	532.04907
224.583	541.98226
225.126	494.92086
225.668	477.99231
226.21	404.88624
226.751	452.83837
227.293	444.87368
227.835	459.96251
228.376	534.04117
228.918	495.07358
229.459	438.94057
230	419.86312
230.541	486.95408
231.082	480.99432
231.622	560.07851
232.163	430.89832
232.704	492.03779
233.244	426.91481
233.784	523.0905
234.324	455.84162
234.864	472.90867
235.404	426.87734
235.944	498.00307
236.484	511.08666
237.023	437.88562
237.563	461.90564
238.102	513.02172
238.641	505.08693
239.18	411.82417
239.719	513.09282
240.258	478.91049
240.797	494.99907
241.335	534.10188
241.874	517.81388
242.412	455.93306
242.95	463.93745
243.488	464.89885
244.026	493.95481
244.564	554.93372
245.102	443.84361
245.64	523.06295
246.177	500.93991
246.715	543.09213
247.252	542.03677
247.789	585.89076
248.326	457.92827
248.863	494.90214
249.4	555.04247
249.936	496.84455
250.473	540.04241
251.009	491.94003
251.546	517.94392
252.082	459.84605
252.618	536.98332
253.154	490.98871
253.69	546.01218
254.226	509.01468
254.761	547.00975
255.297	456.8361
255.832	503.99468
256.367	527.03066
256.903	522.94413
257.438	535.04337
257.972	500.92511
258.507	480.9143
259.042	536.95414
259.576	451.80506
260.111	584.10379
260.645	549.97198
261.179	528.01481
261.713	548.99523
262.247	513.98215
262.781	498.85437
263.315	526.06638
263.849	518.0779
264.382	598.11596
264.915	510.98609
265.449	465.94236
265.982	613.1245
266.515	551.10468
267.048	536.91861
267.58	561.99944
268.113	527.92476
268.646	550.11513
269.178	504.9218
269.71	528.94184
270.243	558.03807
270.775	551.1561
271.307	568.12177
271.838	638.22373
272.37	535.08392
272.902	604.10378
273.433	528.93794
273.965	550.09632
274.496	532.09529
275.027	506.03886
275.558	574.12993
276.089	466.94763
276.62	563.18028
277.15	597.19818
277.681	542.95384
278.211	601.19511
278.741	515.9165
279.272	572.04518
279.802	554.13247
280.332	535.02261
280.861	562.09639
281.391	573.03672
281.921	587.14282
282.45	578.1752
282.98	581.23631
283.509	549.99172
284.038	563.02637
284.567	636.1788
285.096	613.1822
285.625	517.94774
286.153	599.11202
286.682	550.00439
287.21	561.08278
287.739	587.1027
288.267	551.07006
288.795	638.34805
289.323	552.02434
289.851	637.16862
290.378	630.09923
290.906	538.03954
291.433	619.22296
291.961	556.99335
292.488	603.19185
293.015	583.07688
293.542	541.0976
294.069	609.1756
294.596	638.242
295.122	605.13044
295.649	651.09865
296.175	663.24882
296.702	580.11389
297.228	684.28498
297.754	638.09566
298.28	624.0853
298.806	630.16998
299.332	609.02536
299.857	675.14668
300.383	664.30803
300.908	550.04042
301.433	638.18781
301.958	710.23591
302.483	610.17669
303.008	662.25885
303.533	683.37611
304.058	697.24108
304.582	596.07541
305.107	649.30092
305.631	712.20937
306.155	691.19229
306.679	668.1614
307.203	680.17046
307.727	642.14855
308.251	700.29638
308.775	699.21511
309.298	687.2106
309.822	704.32912
310.345	740.27672
310.868	710.24308
311.391	756.36341
311.914	716.31947
312.437	767.25364
312.96	696.19105
313.482	686.18396
314.005	750.36706
314.527	733.41203
315.049	759.39643
315.571	758.16142
316.093	820.42864
316.615	754.28504
317.137	779.15749
317.659	788.35325
318.18	793.34407
318.702	793.26738
319.223	819.10223
319.744	850.26306
320.265	784.3019
320.786	792.33911
321.307	860.44499
321.828	870.28509
322.348	888.36544
322.869	853.31334
323.389	857.80306
323.909	929.35556
324.43	984.5253
324.95	918.31763
325.47	904.42289
325.989	925.36132
326.509	900.19874
327.029	925.25806
327.548	990.30545
328.067	939.38118
328.587	1000.52854
329.106	999.3249
329.625	1011.67792
330.144	987.32458
330.662	1010.33915
331.181	994.3468
331.7	1027.37048
332.218	1047.22362
332.736	1079.3986
333.255	1047.3439
333.773	1062.38525
334.291	1140.58565
334.808	1089.25917
335.326	1166.33479
335.844	1084.29778
336.361	1129.51273
336.879	1154.33674
337.396	1194.43208
337.913	1239.34189
338.43	1208.2654
338.947	1170.35651
339.464	1287.16647
339.981	1230.34922
340.497	1323.51789
341.014	1216.39073
341.53	1226.20145
342.046	1249.39752
342.562	1321.49522
343.078	1298.31025
343.594	1319.34898
344.11	1394.3595
344.626	1360.47251
345.141	1365.20901
345.657	1447.24172
346.172	1439.35764
346.687	1319.17254
347.202	1422.13593
347.717	1532.31666
348.232	1431.39948
348.747	1488.17533
349.261	1397.97584
349.776	1483.20242
350.29	1530.2903
350.805	1563.36005
351.319	1571.16538
351.833	1457.02731
352.347	1548.14328
352.861	1614.10719
353.374	1658.11003
353.888	1579.19999
354.401	1526.03661
354.915	1574.92257
355.428	1653.21395
355.941	1714.01215
356.454	1614.96206
356.967	1702.06676
357.48	1715.98298
357.993	1688.15201
358.505	1693.09195
359.018	1817.09238
359.53	1772.00741
360.042	1858.79665
360.554	1750.03126
361.066	1759.00778
361.578	1784.71264
362.09	1798.93444
362.602	1820.68927
363.113	1893.7961
363.625	1908.68688
364.136	1960.61795
364.647	1877.66302
365.158	1937.71425
365.669	1919.79015
366.18	2024.70576
366.691	1943.53368
367.201	1918.72351
367.712	1975.5359
368.222	1967.53189
368.733	2046.31794
369.243	2134.30011
369.753	2118.42893
370.263	2156.47453
370.773	2165.53607
371.282	2174.35716
371.792	2203.11018
372.301	2234.24595
372.811	2350.41279
373.32	2195.83381
373.829	2374.92065
374.338	2521.65533
374.847	2528.64587
375.356	2566.62247
375.865	2646.24118
376.373	2816.2043
376.882	2868.41721
377.39	2956.18199
377.898	2961.04662
378.407	3066.80568
378.915	3179.69072
379.423	3379.64107
379.93	3527.55282
380.438	3564.53828
380.946	3850.56311
381.453	3864.61598
381.96	3971.80283
382.468	4140.27971
382.975	4744.98522
383.482	4871.80634
383.989	4672.14094
384.495	4924.62099
385.002	5086.72623
385.509	5421.8377
386.015	5734.95819
386.521	6133.90733
387.028	6327.80658
387.534	6502.78904
388.04	6665.24582
388.546	6582.86762
389.051	6898.09931
389.557	7583.43536
390.063	8584.94336
390.568	8722.49598
391.073	8755.93628
391.578	9321.82222
392.084	9027.75133
392.589	9189.97465
393.093	9749.81715
393.598	10939.95979
394.103	11963.01106
394.607	13472.92634
395.112	14503.45118
395.616	14941.82638
396.12	15914.40088
396.624	17635.92885
397.128	19082.22975
397.632	21787.84275
398.136	23656.09487
398.639	23247.5929
399.143	24688.64161
399.646	27369.78486
400.15	24527.85948
400.653	20124.16724
401.156	13866.23708
401.659	5169.95759
402.162	1054.15589
402.664	0
403.167	0
403.67	0
404.172	0
404.674	0
405.176	0
405.678	0
406.18	0
406.682	0
407.184	0
407.686	0
408.187	0
408.688	0
409.19	0
409.691	0
410.192	0
410.693	0
411.194	435.30976
411.694	4082.94878
412.195	8864.71461
412.696	12089.80453
413.196	12760.96929
413.696	12863.67595
414.196	13703.56671
414.696	17261.84252
415.196	21764.24417
415.696	29583.19008
416.196	36460.31858
416.695	36606.76016
417.195	29640.54625
417.694	28190.68981
418.194	26785.04026
418.693	24333.81985
419.192	23660.13508
419.691	23426.54565
420.19	23179.29638
420.688	22636.96322
421.187	22166.59978
421.685	20867.15658
422.184	19460.47758
422.682	16823.36887
423.18	13664.4118
423.678	12029.39232
424.176	11030.98056
424.674	10493.5071
425.172	10130.116
425.669	9644.58646
426.167	9235.26422
426.664	8162.65238
427.161	7589.85846
427.659	6948.30111
428.156	6403.95638
428.652	5993.09746
429.149	5792.19973
429.646	5578.45402
430.143	5412.87125
430.639	4953.79377
431.135	4587.98792
431.632	4416.85688
432.128	4099.56498
432.624	3603.55229
433.12	3596.53513
433.616	3463.54942
434.111	3247.63674
434.607	3074.77538
435.103	3195.69592
435.598	3237.70282
436.093	3078.02052
436.588	2877.16141
437.083	2694.36502
437.578	2639.51556
438.073	2308.86227
438.568	2366.99143
439.062	2330.71489
439.557	2286.07278
440.051	2140.05149
440.546	1951.16526
441.04	1964.33192
441.534	2019.5292
442.028	1960.46159
442.522	1790.51053
443.015	1838.31764
443.509	1775.64619
444.002	1788.64984
444.496	1795.40593
444.989	1691.71813
445.482	1684.76858
445.975	1714.51602
446.468	1718.4393
446.961	1665.4644
447.454	1582.62577
447.947	1554.71247
448.439	1523.83728
448.931	1517.63795
449.424	1527.96942
449.916	1506.87461
450.408	1414.6898
450.9	1383.85889
451.392	1338.96576
451.884	1369.80351
452.375	1286.92795
452.867	1390.82219
453.358	1251.76502
453.849	1275.67501
454.341	1167.77314
454.832	1206.70698
455.323	1180.9405
455.814	1216.86829
456.304	1258.89434
456.795	1196.87321
457.285	1104.83825
457.776	1222.94279
458.266	1207.97751
458.756	1147.0145
459.247	1001.90748
459.737	1003.91839
460.226	1085.86967
460.716	992.95043
461.206	976.97074
461.695	958.05816
462.185	960.95545
462.674	993.95099
463.163	989.89158
463.653	974.80616
464.142	869.95862
464.63	951.0703
465.119	833.88524
465.608	870.91637
466.096	853.84976
466.585	876.96752
467.073	828.99492
467.561	840.01661
468.05	861.99042
468.538	824.05624
469.026	794.99269
469.513	792.81285
470.001	732.8663
470.489	753.94749
470.976	745.92366
471.463	668.96161
471.951	708.02582
472.438	592.80748
472.925	619.83199
473.412	654.96437
473.899	606.82662
474.385	619.9286
474.872	628.86958
475.359	605.90811
475.845	568.69241
476.331	631.82465
476.817	557.87134
477.303	569.83191
477.789	548.85251
478.275	472.77942
478.761	505.80694
479.247	517.75578
479.732	479.80218
480.218	472.84975
480.703	452.775
481.188	481.67973
481.673	466.72271
482.158	404.57281
482.643	426.77793
483.128	382.60733
483.612	415.68277
484.097	419.73865
484.581	469.76737
485.066	364.64284
485.55	356.55591
486.034	381.58406
486.518	377.63821
487.002	335.60445
487.486	308.5627
487.969	281.51791
488.453	378.71684
488.936	359.59521
489.42	375.6111
489.903	371.71095
490.386	-129.1763
490.869	324.53286
491.352	310.59103
491.835	339.52488
492.318	316.54175
492.8	300.47007
493.283	292.58026
493.765	304.58213
494.247	287.52844
494.73	360.60496
495.212	291.55871
495.694	264.48353
496.175	212.3979
496.657	340.63029
497.139	382.49527
497.62	254.47485
498.102	236.47029
498.583	333.6622
499.064	274.47932
499.545	352.62521
500.026	363.62853
500.507	293.54058
500.988	355.69904
501.469	368.72481
501.949	367.72029
502.43	404.74111
502.91	457.70563
503.39	466.91093
503.87	474.84898
504.35	645.12576
504.83	554.8972
505.31	672.19183
505.79	691.19927
506.269	768.28227
506.749	815.29304
507.228	935.48672
507.707	1004.45706
508.187	1109.74564
508.666	1122.80329
509.145	1266.82443
509.623	1446.99551
510.102	1494.13717
510.581	1766.331
511.059	1872.49522
511.538	1962.71718
512.016	2204.45754
512.494	2447.58668
512.972	2613.50201
513.45	2783.29265
513.928	3052.52449
514.406	3210.40016
514.884	3533.75977
515.361	3740.23459
515.839	3896.86368
516.316	4177.04782
516.793	4409.29614
517.27	4656.87864
517.747	4790.14626
518.224	4865.46414
518.701	5031.15256
519.178	5073.73223
519.654	5138.51293
520.131	5110.74207
520.607	5108.79782
521.083	5072.27891
521.56	4902.57438
522.036	4848.20471
522.512	4823.93986
522.987	4649.71905
523.463	4511.84264
523.939	4313.18347
524.414	4179.8913
524.89	4054.1054
525.365	3827.94151
525.84	3557.29675
526.315	3518.43269
526.79	3305.16072
527.265	3145.27143
527.74	3066.64571
528.215	2903.50102
528.689	2726.21575
529.164	2637.16224
529.638	2532.98106
530.112	2345.4917
530.587	2242.06502
531.061	2174.55405
531.534	2062.57025
532.008	1989.48247
532.482	1906.29189
532.956	1773.59025
533.429	1717.38301
533.903	1719.08405
534.376	1572.99162
534.849	1507.09401
535.322	1424.08146
535.795	1441.20506
536.268	1404.1146
536.741	1292.0176
537.213	1312.93347
537.686	1233.9821
538.158	1167.7031
538.631	1120.87232
539.103	1044.58485
539.575	1052.46518
540.047	1007.51887
540.519	1053.75269
540.991	982.7189
541.463	874.54702
541.934	855.41587
542.406	831.45204
542.877	775.28939
543.348	798.43859
543.82	790.45539
544.291	794.37741
544.762	702.25872
545.233	766.44568
545.703	679.12553
546.174	730.27215
546.645	662.19842
547.115	679.24458
547.585	689.19452
548.056	655.19628
548.526	629.12322
548.996	717.2959
549.466	755.38141
549.935	655.16493
550.405	693.11403
550.875	645.15244
551.344	688.23926
551.814	673.15499
552.283	717.14229
552.752	661.14283
553.221	675.06782
553.69	735.18042
554.159	680.24235
554.628	711.14889
555.096	668.27459
555.565	643.06511
556.033	739.28888
556.502	663.22131
556.97	704.16034
557.438	666.20568
557.906	671.22371
558.374	660.1614
558.842	694.27054
559.31	688.17417
559.777	646.21168
560.245	703.27313
560.712	757.32939
561.18	719.19991
561.647	720.22233
562.114	759.30228
562.581	833.54973
563.048	849.45635
563.514	833.53516
563.981	937.55726
564.448	936.51595
564.914	992.66301
565.381	1040.67564
565.847	1087.7917
566.313	1188.88949
566.779	1196.82028
567.245	1272.98714
567.711	1300.07473
568.176	1397.98092
568.642	1443.34704
569.108	1476.31806
569.573	1605.30593
570.038	1681.99415
570.504	1752.20879
570.969	1873.70244
571.434	1918.20568
571.899	1963.53696
572.363	2139.43292
572.828	2343.51457
573.293	2356.51087
573.757	2498.53104
574.222	2516.38231
574.686	2532.3967
575.15	2648.68209
575.614	2747.51179
576.078	2897.60548
576.542	2964.45921
577.006	2966.40002
577.469	3146.90224
577.933	3076.3226
578.396	3173.6491
578.86	3227.58483
579.323	3269.61481
579.786	3225.12798
580.249	3181.39665
580.712	3219.80416
581.175	3159.85587
581.637	3200.50065
582.1	3183.26008
582.563	3104.1847
583.025	3108.76859
583.487	3019.89913
583.95	2904.19102
584.412	2998.10239
584.874	2947.8108
585.336	2702.69998
585.797	2734.27361
586.259	2692.70429
586.721	2554.64804
587.182	2613.67874
587.643	2475.51514
588.105	2356.67696
588.566	2350.20013
589.027	2226.69865
589.488	2230.49349
589.949	2165.72986
590.41	2100.87722
590.87	2086.47144
591.331	2012.23974
591.791	1901.41048
592.252	1922.3775
592.712	1900.57476
593.172	1754.25539
593.632	1797.20728
594.092	1645.16614
594.552	1616.04221
595.011	1510.14429
595.471	1510.08425
595.931	1520.07817
596.39	1436.21214
596.849	1439.13891
597.308	1446.96108
597.768	1314.26637
598.227	1366.17468
598.685	1371.05769
599.144	1320.04385
599.603	1224.98363
600.062	1216.68149
600.52	1140.74274
600.978	1169.92429
601.437	1130.8029
601.895	1186.68181
602.353	1136.73966
602.811	1131.72941
603.269	1070.82744
603.727	1078.83623
604.184	1077.69502
604.642	1095.9088
605.099	1040.72198
605.557	1103.91069
606.014	1079.60286
606.471	988.79739
606.928	998.49939
607.385	1065.83103
607.842	1092.74297
608.299	1171.8798
608.755	1105.87584
609.212	1132.71923
609.668	1087.6549
610.125	1191.99098
610.581	1176.95671
611.037	1139.82507
611.493	1132.89349
611.949	1047.81625
612.405	1114.51167
612.861	1141.90393
613.316	1035.79159
613.772	1105.7964
614.227	1082.82629
614.683	1119.67472
615.138	1095.82587
615.593	1075.79043
616.048	1086.78264
616.503	1137.01115
616.958	1091.98973
617.412	1059.82068
617.867	985.58533
618.321	1062.56078
618.776	1031.65874
619.23	1013.75617
619.684	1082.76916
620.138	1045.79081
620.592	947.74831
621.046	1019.78339
621.5	955.76486
621.954	953.62309
622.407	975.62863
622.861	893.68294
623.314	912.59438
623.768	858.55883
624.221	895.32822
624.674	843.52261
625.127	854.56883
625.58	888.58164
626.033	808.4188
626.485	757.46323
626.938	795.5214
627.39	717.36396
627.843	746.40374
628.295	753.4152
628.747	696.3686
629.199	727.35285
629.651	617.17854
630.103	670.27718
630.555	617.0972
631.006	623.23778
631.458	583.1765
631.909	653.26913
632.361	546.10297
632.812	562.11821
633.263	587.08266
633.714	557.0303
634.165	502.07282
634.616	500.04777
635.067	485.95459
635.518	512.07769
635.968	520.91462
636.419	511.97974
636.869	474.00587
637.319	474.97707
637.769	425.85618
638.219	484.03383
638.669	408.88333
639.119	459.00763
639.569	428.93571
640.019	428.89851
640.468	423.85764
640.918	440.96276
641.367	371.76562
641.816	387.79398
642.265	366.7809
642.714	348.74604
643.163	380.80443
643.612	268.60451
644.061	306.60439
644.51	371.77937
644.958	377.76298
645.406	343.76242
645.855	301.69319
646.303	362.78609
646.751	327.69391
647.199	325.69117
647.647	296.6406
648.095	329.70455
648.543	294.56952
648.99	291.65517
649.438	320.70732
649.885	331.76804
650.333	287.52685
650.78	252.57932
651.227	266.61443
651.674	293.63099
652.121	287.66122
652.568	292.67046
653.015	305.72951
653.461	232.52844
653.908	289.63867
654.354	298.67436
654.801	240.5387
655.247	317.65772
655.693	252.62807
656.139	260.59556
656.585	268.61363
657.031	216.48463
657.477	228.47423
657.922	243.5368
658.368	282.6638
658.813	245.54913
659.259	242.55789
659.704	238.53355
660.149	233.52331
660.594	251.57252
661.039	224.49348
661.484	273.62571
661.929	256.57603
662.373	205.501
662.818	212.50971
663.262	193.45211
663.707	221.54211
664.151	233.55072
664.595	222.51872
665.039	216.52208
665.483	199.49302
665.927	232.53015
666.371	184.41572
666.814	208.48448
667.258	211.48498
667.701	252.52811
668.145	178.43462
668.588	216.51617
669.031	180.41448
669.474	223.52259
669.917	215.46601
670.36	209.50564
670.803	225.52934
671.245	219.45195
671.688	187.44798
672.13	144.32004
672.573	235.58071
673.015	215.50443
673.457	254.53725
673.899	205.48661
674.341	193.45724
674.783	176.41528
675.225	204.49103
675.666	160.37928
676.108	182.39086
676.549	219.50799
676.991	185.40287
677.432	157.31163
677.873	158.36266
678.314	208.48715
678.755	198.47298
679.196	157.35668
679.637	183.44107
680.078	210.48316
680.518	173.39971
680.959	200.47099
681.399	150.36857
681.839	228.54255
682.28	185.44927
682.72	169.38316
683.16	167.41072
683.6	235.5252
684.039	193.3983
684.479	160.38863
684.919	135.30981
685.358	213.53002
685.798	162.41923
686.237	193.46042
686.676	203.46491
687.115	199.46087
687.554	177.41577
687.993	176.3866
688.432	174.39425
688.871	130.29492
689.309	215.50404
689.748	206.42618
690.186	180.4257
690.625	175.4061
691.063	128.30647
691.501	159.38989
691.939	182.44769
692.377	177.42678
692.815	128.30554
693.253	200.47428
693.69	125.27579
694.128	123.29748
694.565	164.38832
695.003	188.47028
695.44	140.32816
695.877	137.31918
696.314	212.45038
696.751	163.37046
697.188	145.33222
697.625	210.47601
698.061	127.30437
698.498	201.47968
698.934	170.40594
699.371	165.38532
699.807	180.42158
700.243	150.35901
700.679	131.29737
701.115	206.47869
701.551	170.39754
701.987	210.46614
702.422	121.28756
702.858	122.29088
703.294	167.37647
703.729	140.34146
704.164	113.27257
704.599	141.31422
705.035	137.30657
705.47	134.32487
705.904	127.296
706.339	184.42453
706.774	138.32271
707.209	144.33119
707.643	125.30026
708.078	145.35147
708.512	101.25289
708.946	153.36514
709.38	128.30343
709.814	131.30002
710.248	144.34964
710.682	114.2717
711.116	106.25332
711.549	90.23299
711.983	144.33198
712.416	133.31449
712.85	173.42689
713.283	142.33519
713.716	160.39909
714.149	160.37943
714.582	153.34265
715.015	145.36148
715.448	121.30471
715.881	176.38319
716.313	146.34102
716.746	125.29432
717.178	121.29098
717.61	131.33119
718.043	162.40055
718.475	137.33121
718.907	160.40212
719.339	111.25258
719.77	80.19111
720.202	124.31288
720.634	85.20797
721.065	121.28711
721.497	137.3347
721.928	130.31825
722.359	78.18932
722.79	105.25203
723.221	132.33128
723.652	165.42189
724.083	129.29117
724.514	142.32567
724.945	96.22696
725.375	126.29211
725.806	149.36997
726.236	144.36684
726.666	147.34665
727.096	152.37072
727.526	99.25181
727.956	130.2954
728.386	206.49904
728.816	118.29795
729.246	139.33617
729.675	110.27079
730.105	101.24941
730.534	113.26513
730.964	131.33025
731.393	157.38755
731.822	145.36802
732.251	120.30398
732.68	125.29489
733.109	98.24223
733.537	126.30376
733.966	89.22196
734.395	122.28205
734.823	182.40684
735.251	120.28896
735.68	160.39764
736.108	118.29817
736.536	98.23241
736.964	109.25375
737.392	133.33156
737.82	117.28104
738.247	146.3481
738.675	153.36374
739.102	121.30154
739.53	112.28472
739.957	122.31277
740.384	147.36087
740.811	142.35791
741.238	142.34478
741.665	132.30541
742.092	112.26806
742.519	84.20877
742.945	92.22196
743.372	102.25295
743.798	125.32018
744.225	78.1869
744.651	138.34447
745.077	140.34718
745.503	103.25192
745.929	108.25957
746.355	140.3468
746.781	96.23859
747.207	87.20517
747.632	25.06187
748.058	112.27937
748.483	120.27654
748.908	109.27085
749.334	90.22196
749.759	105.24819
750.184	117.27848
750.609	133.32565
751.033	166.38925
751.458	132.29605
751.883	137.33794
752.307	94.22223
752.732	85.2129
753.156	135.33178
753.58	113.26875
754.005	118.29891
754.429	98.23115
754.853	97.24068
755.277	107.2537
755.7	131.32361
756.124	62.15504
756.548	77.18377
756.971	133.32348
757.394	111.28542
757.818	102.26232
758.241	106.26871
758.664	110.27736
759.087	71.15999
759.51	99.24672
759.933	86.2078
760.356	138.35143
760.778	129.31586
761.201	106.25815
761.623	124.30029
762.046	171.40168
762.468	125.2998
762.89	122.30044
763.312	134.32573
763.734	110.26478
764.156	110.27139
764.578	134.30745
765	129.31351
765.421	73.18607
765.843	117.30555
766.264	126.30364
766.686	159.39537
767.107	118.28533
767.528	76.19245
767.949	86.21917
768.37	132.32231
768.791	130.31328
769.212	49.12406
769.632	110.25612
770.053	119.31184
770.473	109.26491
770.894	143.35546
771.314	144.34189
771.734	50.11789
772.154	140.35665
772.575	127.29355
772.994	55.12632
773.414	151.35968
773.834	60.15102
774.254	116.28313
774.673	104.25328
775.093	91.22538
775.512	37.09214
775.931	106.26813
776.351	113.27966
776.77	88.21543
777.189	86.20521
777.607	106.26995
778.026	120.29747
778.445	69.17327
778.864	82.21067
779.282	81.19553
779.701	111.27883
780.119	54.13728
780.537	66.1654
780.955	128.32355
781.373	139.34085
781.791	32.07292
782.209	129.2958
782.627	59.15603
783.045	58.13452
783.462	97.24733
783.88	45.11716
784.297	64.16166
784.715	55.14187
785.132	76.18454
785.549	75.18799
785.966	73.18403
786.383	82.20194
786.8	137.31565
787.217	80.19009
787.633	53.13299
788.05	151.35498
788.466	134.31373
788.883	53.13581
789.299	90.21672
789.715	92.22347
790.131	82.20402
790.547	94.23438
790.963	110.27179
791.379	75.18982
791.795	98.2235
792.21	103.24025
792.626	82.19484
793.041	109.26778
793.457	63.15632
793.872	68.16052
794.287	54.12959
794.702	94.23123
795.117	73.18159
795.532	48.12094
795.947	124.29644
796.362	105.25001
796.776	168.38777
797.191	90.22
797.605	23.05462
798.02	64.15627
798.434	124.27433
798.848	62.15319
799.262	86.21304
799.676	200.47739
800.09	102.24998
800.504	92.22288
800.918	79.18326
801.331	132.34278
801.745	102.23356
802.158	97.24165
802.572	136.32662
802.985	148.35341
803.398	90.21434
803.811	134.34113
804.224	119.29408
804.637	42.10079
805.05	120.27621
805.462	116.28313
805.875	48.12491
806.288	75.18098
806.7	100.25025
807.112	101.23336
807.525	98.24098
807.937	67.16588
808.349	84.21013
808.761	84.2064
809.173	91.22
809.584	116.28472
809.996	47.11568
810.408	50.12949
810.819	92.21582
811.231	68.17574
811.642	109.25814
812.053	173.40368
812.464	249.57231
812.875	204.50919
813.286	123.31373
813.697	162.37288
814.108	149.35913
814.519	95.21118
814.929	115.29116
815.34	95.22959
815.75	78.19794
816.16	88.21879
816.571	112.28884
816.981	100.23513
817.391	95.22855
817.801	66.16409
818.211	86.20466
818.62	71.171
819.03	118.28684
819.44	123.31837
819.849	84.2112
820.259	82.20949
820.668	65.16004
821.077	56.13943
821.486	131.31216
821.895	146.35596
822.304	104.27387
822.713	78.18426
823.122	81.20179
823.531	111.26125
823.939	37.09073
824.348	89.21574
824.756	110.27358
825.164	109.27243
825.573	54.13587
825.981	99.2443
826.389	103.25724
826.797	98.24418
827.205	50.11527
827.612	119.29105
828.02	56.13188
828.428	98.24825
828.835	92.24104
829.243	119.28106
829.65	77.19113
830.057	87.21049
830.464	83.20172
830.871	76.18183
831.278	84.20251
831.685	85.18927
832.092	111.26967
832.499	112.24302
832.905	113.28375
833.312	82.18671
833.718	103.25501
834.124	89.20269
834.531	117.29231
834.937	86.21994
835.343	89.21395
835.749	89.20719
836.155	108.28065
836.561	100.24445
836.966	81.1976
837.372	112.2827
837.777	79.1963
838.183	99.21889
838.588	47.11709
838.993	112.27041
839.399	72.17581
839.804	26.06382
840.209	79.20051
840.613	61.13594
841.018	81.20449
841.423	75.19198
841.828	90.22653
842.232	131.32064
842.637	91.21368
843.041	54.13859
843.445	35.08824
843.849	73.1804
844.253	116.27307
844.657	55.13866
845.061	99.22318
845.465	62.14981
845.869	127.29156
846.272	85.20612
846.676	105.25203
847.079	65.16515
847.483	118.29145
847.886	124.29837
848.289	102.27023
848.692	84.21188
849.095	98.23384
849.498	123.30842
849.901	133.30093
850.304	97.23035
850.707	88.22332
851.109	113.28334
851.512	76.18626
851.914	18.04569
852.316	88.22149
852.718	55.14207
853.121	90.21935
853.523	96.22291
853.925	33.08645
854.326	74.18452
854.728	68.17458
855.13	46.11888
855.531	89.21151
855.933	84.20082
856.334	77.19133
856.736	84.18731
857.137	89.2058
857.538	74.18552
857.939	96.23554
858.34	87.21097
858.741	100.25951
859.142	113.26875
859.542	91.23871
859.943	88.21751
860.343	77.19001
860.744	91.22075
861.144	95.23019
861.544	63.15128
861.945	68.17299
862.345	128.30904
862.745	64.15889
863.145	115.27204
863.544	102.25571
863.944	135.31427
864.344	127.31154
864.743	145.35411
865.143	110.27993
865.542	69.15974
865.941	73.1802
866.34	110.26096
866.74	106.28215
867.139	70.16722
867.537	96.24292
867.936	95.22707
868.335	101.25499
868.734	106.26851
869.132	67.15542
869.531	111.26582
869.929	65.14797
870.327	122.28887
870.726	136.3343
871.124	86.19993
871.522	72.18291
871.92	119.29019
872.318	106.2568
872.715	120.29366
873.113	103.24883
873.511	70.17397
873.908	37.09371
874.306	55.13682
874.703	121.29924
875.1	82.20883
875.497	58.13903
875.894	59.14447
876.291	82.2003
876.688	67.17246
877.085	73.17462
877.482	71.17726
877.878	106.25273
878.275	69.17488
878.671	100.22077
879.068	99.23709
879.464	145.34459
879.86	91.21376
880.256	116.28313
880.652	96.24241
881.048	94.23132
881.444	133.31193
881.84	93.23479
882.236	92.22981
882.631	82.2003
883.027	125.29878
883.422	82.20868
883.817	48.12077
884.213	57.14621
884.608	59.14457
885.003	75.18016
885.398	97.24094
885.793	88.21958
886.188	50.1244
886.582	128.32413
886.977	98.2307
887.371	97.24349
887.766	41.10221
888.16	100.24753
888.554	152.3692
888.949	97.24173
889.343	89.21606
889.737	50.13331
890.131	63.1578
890.525	111.28103
890.918	54.13592
891.312	76.18114
891.706	90.23468
892.099	100.25242
892.492	74.15906
892.886	80.19483
893.279	67.1703
893.672	53.13495
894.065	126.31143
894.458	72.18051
894.851	123.29759
895.244	58.14802
895.637	79.18941
896.029	101.24482
896.422	122.29433
896.814	70.17353
897.206	55.13096
897.599	137.3337
897.991	62.1497
898.383	75.17652
898.775	109.24331
899.167	64.14896
899.559	102.25599
899.951	98.22908
900.342	115.28929
900.734	26.06483
901.125	104.27054
901.517	54.13254
901.908	116.27488
902.299	8.01972
902.69	82.19243
903.082	116.27764
903.473	78.1859
903.863	107.27042
904.254	87.20061
904.645	119.29246
905.036	38.09227
905.426	124.27994
905.817	102.24804
906.207	93.21991
906.597	21.04943
906.987	84.21656
907.378	95.23847
907.768	71.18713
908.158	74.17975
908.547	64.165
908.937	117.29685
909.327	94.22653
909.717	107.26907
910.106	93.2217
910.495	136.33442
910.885	83.20909
911.274	80.19897
911.663	94.23685
912.052	132.32099
912.441	87.21988
912.83	57.13076
913.219	117.30284
913.608	112.27133
913.997	77.19217
914.385	87.20652
914.774	123.29557
915.162	45.1074
915.55	97.23274
915.939	83.20834
916.327	77.19133
916.715	51.13
917.103	136.3296
917.491	136.33133
917.878	123.29848
918.266	73.18863
918.654	106.26823
919.041	19.04987
919.429	57.13442
919.816	92.23156
920.203	65.15726
920.591	99.2434
920.978	80.1949
921.365	70.18309
921.752	88.20837
922.139	102.21915
922.525	78.1864
922.912	81.19649
923.299	64.15871
923.685	65.16917
924.072	88.2015
924.458	84.20686
924.844	63.15558
925.231	99.22828
925.617	60.15237
926.003	97.24594
926.389	59.14863
926.774	51.12926
927.16	86.21226
927.546	39.09976
927.931	131.32219
928.317	92.21024
928.702	111.25962
929.088	68.16033
929.473	65.16498
929.858	19.04621
930.243	73.17449
930.628	46.11203
931.013	55.13622
931.398	114.25894
931.783	87.22767
932.167	73.17775
932.552	113.27997
932.937	146.35609
933.321	93.2316
933.705	102.25479
934.09	151.37479
934.474	72.17035
934.858	81.20901
935.242	54.12509
935.626	93.2363
936.009	65.17247
936.393	83.20999
936.777	52.13313
937.16	94.24276
937.544	141.32643
937.927	62.157
938.311	108.26086
938.694	105.27515
939.077	37.08881
939.46	103.25051
939.843	68.14137
940.226	60.15366
940.609	86.19605
940.991	88.22252
941.374	81.19686
941.757	107.26131
942.139	96.21363
942.522	95.22264
942.904	95.22646
943.286	81.20471
943.668	80.20618
944.05	91.22249
944.432	109.2661
944.814	98.23929
945.196	23.05634
945.578	31.07396
945.959	102.23666
946.341	111.26947
946.722	93.2165
947.104	119.28074
947.485	95.21915
947.866	67.1683
948.247	93.23286
948.628	96.23222
949.009	93.23638
949.39	83.20542
949.771	91.21001
950.152	76.18564
950.532	35.08634
950.913	92.2202
951.293	83.22302
951.674	88.21135
952.054	69.17039
952.434	67.16582
952.814	70.16594
953.194	116.3002
953.574	85.20805
953.954	62.14692
954.334	105.2591
954.714	44.10736
955.093	122.296
955.473	60.14977
955.853	70.18059
956.232	85.23167
956.611	145.34154
956.99	81.20245
957.37	90.22774
957.749	98.23169
958.128	73.18318
958.506	54.13999
958.885	87.21815
959.264	61.1492
959.643	68.15421
960.021	85.20929
960.4	109.24412
960.778	112.27276
961.156	70.17486
961.535	113.26015
961.913	89.2067
962.291	54.13844
962.669	84.2115
963.047	114.28765
963.424	92.23305
963.802	111.26987
964.18	137.34129
964.557	88.20118
964.935	124.28963
965.312	80.20725
965.69	144.35448
966.067	78.18897
966.444	99.24178
966.821	118.30061
967.198	83.20013
967.575	109.26511
967.952	127.29483
968.329	80.19359
968.705	100.21217
969.082	45.11551
969.458	51.12232
969.835	80.19366
970.211	98.2494
970.587	78.19322
970.963	82.2092
971.339	68.17701
971.715	87.21579
972.091	66.16206
972.467	92.22773
972.843	65.16087
973.219	141.33276
973.594	55.14374
973.97	154.35928
974.345	75.17865
974.721	131.3124
975.096	103.24676
975.471	64.15142
975.846	75.17934
976.221	64.16212
976.596	77.18363
976.971	111.27098
977.346	111.25534
977.72	73.18522
978.095	57.14713
978.469	92.21784
978.844	125.31004
979.218	70.16716
979.593	100.23733
979.967	105.25318
980.341	62.14243
980.715	78.19555
981.089	73.18199
981.463	85.19381
981.837	75.18241
982.21	108.24849
982.584	119.28368
982.957	82.20357
983.331	75.17645
983.704	80.19549
984.078	60.1476
984.451	118.29112
984.824	60.14585
985.197	92.22171
985.57	93.23143
985.943	164.39655
986.316	113.27442
986.688	79.18948
987.061	103.23893
987.434	98.25327
987.806	126.30122
988.179	105.24511
988.551	119.29817
988.923	133.32251
989.295	104.25734
989.667	20.04805
990.039	70.17232
990.411	68.15596
990.783	120.27246
991.155	41.09867
991.527	112.27266
991.898	51.12705
992.27	95.23305
992.641	113.28027
993.012	101.23531
993.384	82.19439
993.755	57.14514
994.126	102.24292
994.497	72.176
994.868	112.25409
995.239	94.22593
995.61	56.14075
995.98	60.14547
996.351	74.18244
996.722	66.15258
997.092	17.04051
997.462	45.10521
997.833	140.3261
998.203	72.17384
998.573	87.21516
998.943	79.1842
999.313	74.17651
999.683	72.17206
1000.053	54.12415
1000.423	104.25015
1000.792	75.19352
1001.162	90.21984
1001.531	105.25624
1001.901	66.16403
1002.27	111.24501
1002.639	102.2582
1003.009	80.18913
1003.378	87.22097
1003.747	69.1624
1004.116	74.17624
1004.485	77.18306
1004.853	93.23378
1005.222	74.18579
1005.591	92.21666
1005.959	31.07011
1006.328	60.13474
1006.696	108.2576
1007.064	78.1952
1007.433	91.22571
1007.801	119.28834
1008.169	60.15123
1008.537	128.2788
1008.905	96.22159
1009.273	126.30685
1009.64	19.04559
1010.008	78.18491
1010.375	164.38967
1010.743	166.37445
1011.11	81.1905
1011.478	79.19444
1011.845	116.26924
1012.212	45.10194
1012.579	94.22884
1012.946	160.37269
1013.313	143.33421
1013.68	92.20498
1014.047	71.16847
1014.414	86.20166
1014.78	42.1045
1015.147	116.277
1015.513	91.21751
1015.88	80.20345
1016.246	115.28043
1016.612	120.2708
1016.978	107.25937
1017.344	71.17475
1017.71	141.33792
1018.076	81.18983
1018.442	119.30236
1018.808	92.22815
1019.174	81.20201
1019.539	176.39489
1019.905	53.12489
1020.27	80.19629
1020.636	108.25602
1021.001	107.25331
1021.366	69.16505
1021.731	83.21216
1022.096	68.17091
1022.461	80.18818
1022.826	91.21451
1023.191	101.2626
1023.556	111.25698
1023.92	112.27215
1024.285	74.17975
1024.649	37.09087
1025.014	90.22123
1025.378	65.16293
1025.742	97.23874
1026.107	131.29133
1026.471	107.24693
1026.835	55.13617
1027.199	66.15833
1027.562	125.28617
1027.926	121.29187
1028.29	52.13149
1028.654	98.22323
1029.017	96.23388
1029.381	63.15007
1029.744	62.15773
1030.107	128.29815
1030.471	72.1716
1030.834	103.23172
1031.197	102.2432
1031.56	52.1226
1031.923	67.17264
1032.286	124.2869
1032.648	101.2391
1033.011	87.19813
1033.374	111.25769
1033.736	70.18334
1034.099	78.18904
1034.461	39.09867
1034.823	67.16624
1035.185	100.24934
1035.548	85.20542
1035.91	111.26268
1036.272	98.22079
1036.634	113.27309
1036.995	63.14764
1037.357	67.16241
1037.719	89.21476
1038.08	124.29009
1038.442	77.18172
1038.803	94.22369
1039.165	95.23769
1039.526	87.20867
1039.887	77.1832
1040.248	69.16933
1040.609	91.22307
1040.97	43.10517
1041.331	68.17152
1041.692	50.11665
1042.053	73.16538
1042.413	117.26893
1042.774	124.29724
1043.134	122.2863
1043.495	87.21713
1043.855	88.21183
1044.215	41.10188
1044.576	26.06242
1044.936	149.33466
1045.296	96.23746
1045.656	129.31175
1046.016	99.23663
1046.375	76.18336
1046.735	18.04105
1047.095	122.28138
1047.454	82.17246
1047.814	99.23564
1048.173	142.33311
1048.533	73.16638
1048.892	23.05546
1049.251	97.24129
1049.61	90.21984
1049.969	77.18045
1050.328	98.21019
1050.687	53.12881
1051.046	116.2788
1051.405	64.15871
1051.763	52.11945
1052.122	73.1812
1052.48	62.15161
1052.839	64.15008
1053.197	79.18478
1053.555	136.30452
1053.914	115.27771
1054.272	132.314
1054.63	58.14152
1054.988	47.11165
1055.345	131.27703
1055.703	111.26389
1056.061	54.13873
1056.419	64.16517
1056.776	94.22593
1057.134	50.11569
1057.491	103.25529
1057.848	81.20039
1058.206	48.11287
1058.563	81.17729
1058.92	106.24145
1059.277	111.27058
1059.634	103.23968
1059.991	100.23715
1060.348	93.2082
1060.704	23.05506
1061.061	92.21185
1061.418	72.17377
1061.774	77.18903
1062.131	82.2155
1062.487	72.16751
1062.843	121.29759
1063.199	94.23174
1063.555	54.12494
1063.911	63.15865
1064.267	105.2162
1064.623	41.09968
1064.979	131.30532
1065.335	101.23892
1065.691	99.23491
1066.046	66.14455
1066.402	76.17165
1066.757	114.28425
1067.112	96.23345
1067.468	88.20611
1067.823	108.25661
1068.178	97.23238
1068.533	41.0995
1068.888	103.24346
1069.243	58.14283
1069.598	67.16216
1069.952	42.09466
1070.307	35.08681
1070.662	58.13739
1071.016	68.1517
1071.371	107.24043
1071.725	91.21585
1072.079	69.16524
1072.434	53.12862
1072.788	109.25645
1073.142	134.32426
1073.496	75.17694
1073.85	99.22719
1074.203	106.25428
1074.557	57.15129
1074.911	143.33499
1075.265	91.20967
1075.618	93.22509
1075.971	78.18441
1076.325	74.18712
1076.678	55.12556
1077.031	62.13986
1077.385	88.19217
1077.738	40.09041
1078.091	53.12036
1078.444	97.22296
1078.796	23.05667
1079.149	93.22932
1079.502	51.12036
1079.855	29.06786
1080.207	89.21752
1080.56	66.16998
1080.912	101.24335
1081.264	82.19611
1081.617	80.19374
1081.969	55.13851
1082.321	96.23222
1082.673	17.03903
1083.025	68.16064
1083.377	103.21839
1083.728	115.26465
1084.08	70.17397
1084.432	89.21289
1084.783	116.26807
1085.135	115.28461
1085.486	52.11883
1085.838	90.21984
1086.189	80.19294
1086.54	113.26637
1086.891	58.14635
1087.242	88.21255
1087.593	125.2998
1087.944	100.22382
1088.295	140.31218
1088.646	74.1784
1088.996	50.12036
1089.347	101.24528
1089.698	34.08054
1090.048	52.1349
1090.398	139.31643
1090.749	91.21585
1091.099	78.19498
1091.449	83.20534
1091.799	67.16709
1092.149	2.00492
1092.499	75.18194
1092.849	56.14206
1093.199	103.25547
1093.548	80.19096
1093.898	46.11507
1094.248	107.27196
1094.597	26.06659
1094.947	84.22262
1095.296	91.22282
1095.645	89.22973
1095.994	65.15554
1096.343	82.20498
1096.692	57.14942
1097.041	39.10568
1097.39	67.1674
1097.739	58.15041
1098.088	101.26808
1098.437	46.12081
1098.785	88.23556
1099.134	127.33257
1099.482	83.22688
1099.83	76.19865
1100.179	79.20484
1100.527	65.17212
1100.875	61.16083
1101.223	54.14316
1101.571	51.14079
1101.919	32.08379
1102.267	68.19074
1102.615	7.0225
1102.962	19.06111
1103.31	9.02891
1103.658	26.0836
