Data from N2 R11 sample 9_Subt2__3__14-35-09-161.txt Node

Date: Mon Sep 01 14:35:09 PDT 2025
User: uwsun
Spectrometer: HDX01956
Trigger mode: 0
Integration Time (sec): 5.000000E-1
Scans to average: 1
Nonlinearity correction enabled: true
Boxcar width: 0
Storing dark spectrum: false
XAxis mode: Wavelengths
Number of Pixels in Spectrum: 2068
>>>>>Begin Spectral Data<<<<<
194.03	111.30622
194.578	125.38917
195.127	112.34402
195.676	110.33903
196.225	181.46556
196.773	159.42482
197.321	232.59869
197.87	338.78413
198.418	299.68941
198.966	248.58128
199.513	225.50348
200.061	244.55352
200.609	335.79206
201.156	269.51772
201.704	275.61611
202.251	241.57469
202.798	298.68861
203.345	342.74678
203.892	258.58148
204.438	269.57433
204.985	252.52835
205.532	284.66617
206.078	293.63831
206.624	298.64603
207.17	320.65371
207.716	302.64604
208.262	315.54163
208.808	254.55394
209.354	306.65544
209.899	322.72421
210.445	262.57816
210.99	237.5093
211.535	353.72619
212.08	366.74157
212.625	294.65501
213.17	332.74395
213.715	250.48961
214.259	351.71557
214.804	337.73571
215.348	350.70006
215.892	349.73413
216.436	337.68797
216.98	310.60626
217.524	267.56215
218.068	285.64166
218.612	309.69313
219.155	320.66409
219.698	315.66407
220.242	332.73598
220.785	314.65018
221.328	277.61931
221.871	318.72108
222.414	316.70256
222.956	254.54736
223.499	281.56322
224.041	354.72841
224.583	333.63658
225.126	291.56978
225.668	290.62842
226.21	225.51219
226.751	261.50716
227.293	269.55115
227.835	282.61447
228.376	314.64523
228.918	332.74639
229.459	263.58607
230	304.64243
230.541	210.43912
231.082	285.61614
231.622	229.47684
232.163	308.66087
232.704	239.53304
233.244	275.60977
233.784	305.66783
234.324	227.44383
234.864	245.49743
235.404	324.6826
235.944	286.60519
236.484	332.73476
237.023	263.55421
237.563	288.58887
238.102	309.6457
238.641	268.60722
239.18	225.47059
239.719	290.64878
240.258	260.52149
240.797	273.58009
241.335	301.65462
241.874	329.54606
242.412	308.6526
242.95	276.58275
243.488	302.6077
244.026	232.47738
244.564	312.56049
245.102	286.56542
245.64	292.62573
246.177	284.56226
246.715	320.67773
247.252	305.61783
247.789	426.67926
248.326	251.53381
248.863	313.59777
249.4	334.66249
249.936	299.53617
250.473	279.57319
251.009	261.52749
251.546	293.56527
252.082	295.56612
252.618	244.48058
253.154	291.61402
253.69	309.6076
254.226	284.59675
254.761	264.52266
255.297	261.50208
255.832	267.5572
256.367	277.57473
256.903	311.59279
257.438	309.63596
257.972	255.5007
258.507	256.51418
259.042	311.58588
259.576	252.47298
260.111	342.68565
260.645	305.57429
261.179	355.71188
261.713	274.5323
262.247	321.6431
262.781	256.46769
263.315	272.58438
263.849	287.62895
264.382	319.63732
264.915	279.56931
265.449	205.44016
265.982	385.74777
266.515	308.65317
267.048	271.49748
267.58	317.60041
268.113	213.40461
268.646	290.62386
269.178	289.55729
269.71	344.6428
270.243	288.57258
270.775	270.60254
271.307	289.609
271.838	338.69612
272.37	314.66938
272.902	295.58198
273.433	338.63002
273.965	327.68664
274.496	301.65295
275.027	324.6937
275.558	313.65493
276.089	267.56759
276.62	316.69964
277.15	322.68822
277.681	345.63844
278.211	331.70056
278.741	256.48617
279.272	311.60663
279.802	322.69388
280.332	274.55771
280.861	332.68407
281.391	300.58142
281.921	348.71703
282.45	343.7358
282.98	305.68893
283.509	337.64173
284.038	291.56789
284.567	350.69585
285.096	313.64797
285.625	327.62814
286.153	295.58992
286.682	342.65838
287.21	298.61236
287.739	314.63039
288.267	315.64714
288.795	399.88834
289.323	297.58703
289.851	396.77152
290.378	302.57326
290.906	277.56959
291.433	337.71076
291.961	344.64821
292.488	327.68907
293.015	324.63815
293.542	336.71472
294.069	364.74494
294.596	321.67286
295.122	364.72166
295.649	362.6597
296.175	396.79574
296.702	382.76974
297.228	362.73481
297.754	354.65494
298.28	357.66561
298.806	360.71439
299.332	329.59696
299.857	352.65091
300.383	386.81106
300.908	288.58059
301.433	364.72469
301.958	385.72851
302.483	345.70877
303.008	374.76194
303.533	418.89454
304.058	385.7417
304.582	310.60109
305.107	291.63233
305.631	381.70578
306.155	370.69379
306.679	383.71692
307.203	397.73579
307.727	357.68643
308.251	398.79349
308.775	336.64092
309.298	366.69984
309.822	383.7808
310.345	435.81227
310.868	324.62553
311.391	429.8392
311.914	428.84656
312.437	478.84512
312.96	370.68933
313.482	433.79852
314.005	445.87462
314.527	391.81595
315.049	432.86088
315.571	385.65565
316.093	460.87833
316.615	399.74577
317.137	466.75884
317.659	460.86002
318.18	497.9106
318.702	441.77623
319.223	456.68774
319.744	417.70174
320.265	482.86776
320.786	477.87615
321.307	503.92811
321.828	504.82814
322.348	423.74024
322.869	461.79234
323.389	282.33212
323.909	519.85352
324.43	552.96433
324.95	450.74101
325.47	464.82378
325.989	490.81769
326.509	418.6467
327.029	514.79349
327.548	474.73384
328.067	485.81312
328.587	566.97683
329.106	511.78862
329.625	569.05832
330.144	490.76621
330.662	523.80669
331.181	529.82653
331.7	532.82711
332.218	545.75567
332.736	627.93779
333.255	569.8504
333.773	577.87647
334.291	598.97672
334.808	605.82606
335.326	632.86893
335.844	617.86397
336.361	586.92662
336.879	625.86682
337.396	657.94131
337.913	705.92353
338.43	635.81923
338.947	601.84475
339.464	655.76374
339.981	642.86555
340.497	631.91249
341.014	654.90625
341.53	566.7113
342.046	686.93297
342.562	676.95253
343.078	656.83917
343.594	692.89025
344.11	762.94316
344.626	655.90618
345.141	784.87939
345.657	817.90857
346.172	739.91102
346.687	693.79325
347.202	809.84308
347.717	806.92921
348.232	767.96181
348.747	779.83476
349.261	716.68929
349.776	774.84688
350.29	747.86633
350.805	860.9926
351.319	875.88658
351.833	767.74611
352.347	827.84381
352.861	798.79889
353.374	889.85624
353.888	850.88938
354.401	918.83621
354.915	844.72388
355.428	853.8929
355.941	868.7866
356.454	985.8158
356.967	840.80057
357.48	902.7882
357.993	882.87485
358.505	892.84618
359.018	946.87606
359.53	982.84309
360.042	929.70044
360.554	919.82542
361.066	941.8231
361.578	928.64468
362.09	965.79199
362.602	996.65591
363.113	992.72729
363.625	1007.66836
364.136	1070.6496
364.647	896.61509
365.158	1085.71063
365.669	1062.74979
366.18	1012.69718
366.691	1038.58753
367.201	986.68502
367.712	981.58194
368.222	1119.60465
368.733	1011.47286
369.243	1139.49393
369.753	1141.57268
370.263	1152.61173
370.773	1134.64968
371.282	1087.53501
371.792	1030.39003
372.301	1151.48639
372.811	1161.6214
373.32	1167.20426
373.829	1139.32376
374.338	1283.17922
374.847	1309.16947
375.356	1294.17132
375.865	1333.91173
376.373	1370.94402
376.882	1475.09713
377.39	1499.94031
377.898	1413.86313
378.407	1517.63705
378.915	1731.44051
379.423	1703.48636
379.93	1728.36946
380.438	1763.30875
380.946	1856.1682
381.453	1860.11952
381.96	1922.02664
382.468	1958.98097
382.975	2342.84625
383.482	2543.8982
383.989	2271.89039
384.495	2423.04046
385.002	2389.42869
385.509	2678.56793
386.015	2864.63255
386.521	2905.67518
387.028	3092.57395
387.534	3171.41297
388.04	3383.66624
388.546	3176.75712
389.051	3073.86589
389.557	3577.01238
390.063	4333.23697
390.568	4139.00204
391.073	4100.58928
391.578	4264.55641
392.084	4325.3883
392.589	4139.06653
393.093	4218.1003
393.598	4776.7384
394.103	5522.10804
394.607	5991.6497
395.112	6637.28098
395.616	6748.88116
396.12	6878.75958
396.624	7846.44141
397.128	8503.28987
397.632	9868.58697
398.136	10259.13565
398.639	9518.58
399.143	9829.33602
399.646	11636.7556
400.15	12397.09332
400.653	12627.74392
401.156	12272.26538
401.659	4570.03978
402.162	1054.15589
402.664	0
403.167	0
403.67	0
404.172	0
404.674	0
405.176	0
405.678	0
406.18	0
406.682	0
407.184	0
407.686	0
408.187	0
408.688	0
409.19	0
409.691	0
410.192	0
410.693	0
411.194	435.30976
411.694	4082.94878
412.195	8864.71461
412.696	12089.80453
413.196	12760.96929
413.696	12863.67595
414.196	13703.56671
414.696	17261.84252
415.196	21764.24417
415.696	29583.19008
416.196	30427.06049
416.695	20900.00712
417.195	15860.2047
417.694	15109.141
418.194	14497.98624
418.693	13163.43165
419.192	12789.40093
419.691	12597.23864
420.19	12692.71843
420.688	12557.86506
421.187	11996.8295
421.685	11868.41061
422.184	10839.53485
422.682	9383.10918
423.18	7563.06793
423.678	6240.48122
424.176	5694.85241
424.674	5439.24262
425.172	5281.48477
425.669	5152.8351
426.167	4996.72412
426.664	4562.33266
427.161	3955.20671
427.659	3709.49427
428.156	3356.17572
428.652	3088.06333
429.149	2920.95751
429.646	2933.93172
430.143	2817.7231
430.639	2681.72248
431.135	2537.78383
431.632	2285.89828
432.128	2127.07584
432.624	1922.30187
433.12	1843.21642
433.616	1723.30619
434.111	1599.46719
434.607	1525.6033
435.103	1628.51229
435.598	1575.57072
436.093	1517.85053
436.588	1537.87108
437.083	1421.99787
437.578	1338.11348
438.073	1118.2672
438.568	1162.36455
439.062	1125.17911
439.557	1119.39213
440.051	983.33724
440.546	878.34919
441.04	935.45304
441.534	997.58943
442.028	900.51758
442.522	929.52597
443.015	894.4142
443.509	873.58652
444.002	862.58601
444.496	851.44862
444.989	845.60955
445.482	794.61469
445.975	725.45899
446.468	828.45064
446.961	732.43038
447.454	646.46841
447.947	673.52205
448.439	752.62775
448.931	640.46857
449.424	660.63838
449.916	654.58969
450.408	617.48027
450.9	644.58115
451.392	598.60574
451.884	634.54763
452.375	525.53664
452.867	546.49816
453.358	484.4382
453.849	532.42847
454.341	578.51415
454.832	484.41634
455.323	544.5725
455.814	577.55653
456.304	538.53478
456.795	464.47354
457.285	581.56138
457.776	546.56858
458.266	472.52277
458.756	508.58288
459.247	432.49327
459.737	362.428
460.226	400.43157
460.716	387.46891
461.206	394.48862
461.695	400.53816
462.185	457.55146
462.674	480.56233
463.163	400.45806
463.653	465.48066
464.142	331.44187
464.63	388.53134
465.119	374.47069
465.608	313.40422
466.096	328.3995
466.585	386.50764
467.073	360.50618
467.561	289.41995
468.05	323.44704
468.538	388.57248
469.026	315.4603
469.513	301.37174
470.001	318.43372
470.489	294.42947
470.976	302.43327
471.463	280.45202
471.951	274.45111
472.438	276.4154
472.925	224.34057
473.412	304.49634
473.899	243.3709
474.385	241.40285
474.872	229.35807
475.359	236.39373
475.845	260.35202
476.331	304.44134
476.817	230.39408
477.303	252.4045
477.789	187.32169
478.275	164.294
478.761	164.28764
479.247	184.29668
479.732	115.21184
480.218	145.28296
480.703	169.31179
481.188	111.17537
481.673	173.2914
482.158	92.14338
482.643	206.39713
483.128	127.21671
483.612	130.23088
484.097	147.2776
484.581	138.24675
485.066	129.24181
485.55	90.15147
486.034	70.11723
486.518	91.16603
487.002	96.18382
487.486	72.1394
487.969	55.10713
488.453	78.15876
488.936	50.09
489.42	88.15499
489.903	72.14795
490.386	-386.57231
490.869	132.22871
491.352	55.11136
491.835	126.20731
492.318	37.06819
492.8	76.12686
493.283	19.04016
493.765	20.04093
494.247	86.16635
494.73	64.11627
495.212	87.17527
495.694	-14.02744
496.175	-57.11409
496.657	26.05198
497.139	81.11586
497.62	-14.02791
498.102	-34.07201
498.583	-5.01073
499.064	-49.09303
499.545	26.0501
500.026	12.02272
500.507	-1.00198
500.988	9.01917
501.469	-41.08853
501.949	19.04036
502.43	-51.1043
502.91	-23.04056
503.39	-1.00217
503.87	-35.07093
504.35	17.03464
504.83	-56.1064
505.31	-64.13543
505.79	-69.14413
506.269	-13.02641
506.749	-49.09726
507.228	-31.06308
507.707	-47.09076
508.187	1.00208
508.666	-59.1269
509.145	-52.10618
509.623	-66.13636
510.102	-89.19151
510.581	34.07141
511.059	-87.19292
511.538	-44.10087
512.016	-39.08211
512.494	2.00425
512.972	-55.11611
513.45	-141.29112
513.928	-56.1199
514.406	-120.25649
514.884	-3.00677
515.361	-45.09525
515.839	-22.04396
516.316	-32.06792
516.793	-71.16104
517.27	-42.09078
517.747	-75.17184
518.224	0
518.701	-16.03142
519.178	-73.161
519.654	-5.01055
520.131	-56.12363
520.607	-73.16309
521.083	-73.1493
521.56	-60.12674
522.036	-21.04094
522.512	3.00658
522.987	-91.19362
523.463	-49.10408
523.939	-39.08572
524.414	-6.01234
524.89	-102.21953
525.365	-45.09111
525.84	-105.22448
526.315	-58.12531
526.79	-22.04423
527.265	-30.06112
527.74	-60.13152
528.215	-39.0824
528.689	-70.13962
529.164	-23.04471
529.638	-44.10205
530.112	-88.18752
530.587	-81.15567
531.061	-97.21195
531.534	-23.05013
532.008	-62.13436
532.482	-51.10587
532.956	-90.20782
533.429	-92.2032
533.903	-20.03978
534.376	-24.0476
534.849	-32.06683
535.322	-46.09811
535.795	-84.18723
536.268	-82.17929
536.741	-21.04546
537.213	-28.05839
537.686	-78.17242
538.158	-86.17473
538.631	-32.0705
539.103	-81.16476
539.575	-27.05084
540.047	3.0059
540.519	-43.09332
540.991	5.01101
541.463	-66.14559
541.934	-48.09953
542.406	-56.12089
542.877	-20.04063
543.348	-50.10983
543.82	-19.04215
544.291	-18.03801
544.762	-37.07907
545.233	-31.07
545.703	-36.07161
546.174	-4.00833
546.645	-62.13315
547.115	-35.0758
547.585	8.0164
548.056	-22.04713
548.526	8.0166
548.996	32.06804
549.466	81.17362
549.935	4.00833
550.405	12.02307
550.875	52.10729
551.344	38.07995
551.814	58.11612
552.283	88.16573
552.752	86.1717
553.221	71.1321
553.69	86.16388
554.159	55.11651
554.628	49.09417
555.096	84.1832
555.565	104.19828
556.033	79.16201
556.502	82.17329
556.97	131.25066
557.438	145.29776
557.906	118.24565
558.374	109.21979
558.842	142.29654
559.31	159.31043
559.777	103.21934
560.245	182.37383
560.712	173.35077
561.18	205.39093
561.647	219.4227
562.114	286.55349
562.581	271.57508
563.048	367.71144
563.514	313.65261
563.981	338.65507
564.448	405.75474
564.914	472.9043
565.381	494.91949
565.847	538.02066
566.313	583.08656
566.779	600.0738
567.245	699.27231
567.711	716.33201
568.176	744.27068
568.642	790.51874
569.108	913.66527
569.573	932.61749
570.038	1085.56226
570.504	1083.67808
570.969	1235.12779
571.434	1271.80736
571.899	1409.15438
572.363	1455.06846
572.828	1661.24277
573.293	1729.28043
573.757	1813.33064
574.222	1829.22251
574.686	1868.25125
575.15	2135.58876
575.614	2173.45868
576.078	2166.5461
576.542	2264.4599
577.006	2327.42172
577.469	2470.90013
577.933	2408.38668
578.396	2500.69461
578.86	2544.65559
579.323	2592.69455
579.786	2572.26048
580.249	2609.48325
580.712	2626.85048
581.175	2618.88421
581.637	2647.57981
582.1	2599.3634
582.563	2568.27683
583.025	2535.79008
583.487	2467.00629
583.95	2421.23785
584.412	2407.17975
584.874	2350.77217
585.336	2348.66349
585.797	2242.26849
586.259	2255.64473
586.721	2137.56405
587.182	2160.59545
587.643	2030.41654
588.105	2020.5683
588.566	1955.12719
589.027	1876.5448
589.488	1825.34011
589.949	1821.5572
590.41	1730.79293
590.87	1647.25099
591.331	1688.10154
591.791	1589.22363
592.252	1462.09215
592.712	1497.28757
593.172	1456.05635
593.632	1467.00535
594.092	1389.98179
594.552	1286.8066
595.011	1289.95532
595.471	1284.89876
595.931	1138.74582
596.39	1152.92079
596.849	1139.84469
597.308	1081.63793
597.768	1055.94426
598.227	1036.80327
598.685	1078.75868
599.144	1020.71663
599.603	968.68014
600.062	947.42111
600.52	921.49785
600.978	906.59881
601.437	901.53015
601.895	888.37588
602.353	872.43815
602.811	898.46645
603.269	893.59671
603.727	844.52713
604.184	833.40216
604.642	817.52743
605.099	837.46256
605.557	818.5229
606.014	817.30884
606.471	794.51473
606.928	742.19947
607.385	789.45536
607.842	895.50766
608.299	927.58969
608.755	892.60025
609.212	853.40166
609.668	859.39512
610.125	946.68607
610.581	989.72892
611.037	932.57997
611.493	938.65113
611.949	895.61427
612.405	856.25816
612.861	963.68423
613.316	853.54698
613.772	929.58379
614.227	917.61617
614.683	1018.56906
615.138	865.53224
615.593	893.56067
616.048	925.58541
616.503	958.7735
616.958	900.71978
617.412	903.6163
617.867	882.46033
618.321	949.44209
618.776	960.57506
619.23	893.59671
619.684	917.56746
620.138	908.61235
620.592	830.57663
621.046	937.67472
621.5	784.51008
621.954	882.53048
622.407	842.45703
622.861	786.51974
623.314	824.47345
623.768	795.46719
624.221	789.20802
624.674	709.32386
625.127	761.43027
625.58	795.44962
626.033	798.40486
626.485	656.2983
626.938	698.36673
627.39	735.39216
627.843	687.31123
628.295	670.2846
628.747	690.35869
629.199	645.22438
629.651	614.17364
630.103	617.19107
630.555	529.96339
631.006	587.1759
631.458	555.12708
631.909	630.23105
632.361	601.199
632.812	528.05873
633.263	596.09683
633.714	512.95916
634.165	476.02286
634.616	479.00832
635.067	508.99445
635.518	502.05892
635.968	516.90853
636.419	496.95442
636.869	461.98292
637.319	450.9326
637.769	474.94413
638.219	459.98757
638.669	389.84561
639.119	436.96366
639.569	394.86758
640.019	421.88518
640.468	357.73475
640.918	429.94087
641.367	395.81076
641.816	414.84419
642.265	429.90279
642.714	382.81291
643.163	338.7221
643.612	313.6995
644.061	271.53966
644.51	312.66396
644.958	331.67694
645.406	338.75209
645.855	344.7854
646.303	366.7941
646.751	297.63438
647.199	375.78882
647.647	334.71696
648.095	322.69061
648.543	341.65314
648.99	315.70571
649.438	341.75042
649.885	318.73978
650.333	337.61086
650.78	324.73408
651.227	284.65366
651.674	329.70303
652.121	299.68722
652.568	278.64011
653.015	334.79443
653.461	286.64431
653.908	365.79379
654.354	294.66585
654.801	254.56848
655.247	310.6442
655.693	292.72246
656.139	289.65812
656.585	261.59845
657.031	223.49962
657.477	237.49196
657.922	260.57231
658.368	287.67491
658.813	312.68964
659.259	271.62113
659.704	249.55695
660.149	263.58704
660.594	265.60274
661.039	231.50816
661.484	284.64948
661.929	263.59093
662.373	231.5618
662.818	220.52814
663.262	251.58129
663.707	223.54681
664.151	228.53942
664.595	198.46483
665.039	241.57975
665.483	230.56658
665.927	258.58647
666.371	199.44824
666.814	246.56869
667.258	187.43188
667.701	280.58316
668.145	220.53295
668.588	262.62057
669.031	168.38777
669.474	200.4708
669.917	212.4598
670.36	219.52883
670.803	256.59862
671.245	243.49878
671.688	224.53283
672.13	143.31788
672.573	232.57361
673.015	158.37483
673.457	209.44642
673.899	223.52749
674.341	178.42293
674.783	195.45841
675.225	195.47017
675.666	162.38388
676.108	175.37639
676.549	240.55438
676.991	189.41123
677.432	170.3364
677.873	196.44645
678.314	204.47816
678.755	197.47068
679.196	164.37205
679.637	195.46893
680.078	229.52487
680.518	232.52972
680.959	174.41183
681.399	140.34464
681.839	186.44618
682.28	152.37141
682.72	153.34801
683.16	196.47945
683.6	176.39814
684.039	182.37653
684.479	184.44491
684.919	140.32096
685.358	227.56341
685.798	145.37634
686.237	166.39806
686.676	242.54988
687.115	202.46754
687.554	178.41804
687.993	177.38872
688.432	168.38112
688.871	154.34766
689.309	172.40663
689.748	174.36256
690.186	189.44621
690.625	188.43514
691.063	159.37844
691.501	148.36366
691.939	144.3567
692.377	153.37059
692.815	105.25174
693.253	216.51064
693.69	115.25426
694.128	134.32341
694.565	183.43171
695.003	176.44122
695.44	137.32131
695.877	128.29874
696.314	193.41171
696.751	231.51775
697.188	118.27182
697.625	217.49118
698.061	135.32305
698.498	175.41972
698.934	132.3175
699.371	101.23883
699.807	153.36024
700.243	117.28179
700.679	181.40669
701.115	215.49872
701.551	140.32931
701.987	203.45125
702.422	101.24095
702.858	156.36952
703.294	160.36121
703.729	185.44741
704.164	169.40332
704.599	128.28602
705.035	96.21664
705.47	128.31068
705.904	142.32998
706.339	216.49518
706.774	140.32726
707.209	111.25698
707.643	148.35395
708.078	146.35383
708.512	85.21344
708.946	153.36514
709.38	100.23834
709.814	134.30671
710.248	124.30221
710.682	131.3112
711.116	102.24394
711.549	140.35929
711.983	132.30504
712.416	149.35123
712.85	131.32575
713.283	135.3191
713.716	140.35047
714.149	141.3356
714.582	183.4073
715.015	178.44108
715.448	190.47253
715.881	188.40827
716.313	124.29088
716.746	120.28282
717.178	100.24144
717.61	157.39508
718.043	135.33545
718.475	129.31234
718.907	167.41919
719.339	70.16061
719.77	85.20286
720.202	146.36694
720.634	98.2392
721.065	141.33328
721.497	153.37267
721.928	117.28712
722.359	82.19888
722.79	96.23082
723.221	130.32638
723.652	167.42686
724.083	94.21368
724.514	152.34791
724.945	100.23623
725.375	98.22845
725.806	153.37962
726.236	150.38172
726.666	124.29372
727.096	146.35649
727.526	84.21422
727.956	61.14055
728.386	142.34814
728.816	89.22589
729.246	70.1715
729.675	48.11951
730.105	115.28325
730.534	103.24214
730.964	181.4522
731.393	175.43055
731.822	157.39763
732.251	86.21917
732.68	135.31786
733.109	107.26404
733.537	90.21845
733.966	133.32904
734.395	118.27302
734.823	149.33535
735.251	72.17495
735.68	136.33947
736.108	122.30805
736.536	98.23241
736.964	76.17808
737.392	145.36069
737.82	151.36037
738.247	107.25702
738.675	179.42342
739.102	108.26978
739.53	102.25976
739.957	86.22187
740.384	142.34892
740.811	136.34316
741.238	138.33532
741.665	95.22142
742.092	152.36102
742.519	75.1867
742.945	116.27859
743.372	84.20899
743.798	96.24715
744.225	103.24563
744.651	82.20676
745.077	136.3375
745.503	118.2878
745.929	54.13112
746.355	142.35162
746.781	113.27997
747.207	89.2098
747.632	69.16939
748.058	126.31349
748.483	144.33026
748.908	133.32904
749.334	146.35636
749.759	99.23428
750.184	67.161
750.609	127.31131
751.033	127.30007
751.458	129.2895
751.883	129.31867
752.307	84.19898
752.732	78.19562
753.156	116.28609
753.58	131.31048
754.005	82.20905
754.429	119.27954
754.853	104.25772
755.277	106.25138
755.7	121.29946
756.124	92.22881
756.548	104.24692
756.971	134.32585
757.394	114.29298
757.818	113.29005
758.241	87.22129
758.664	106.26746
759.087	90.20202
759.51	129.31972
759.933	83.20066
760.356	99.25385
760.778	97.23892
761.201	129.31281
761.623	136.32861
762.046	159.37437
762.468	130.3115
762.89	100.24726
763.312	123.2996
763.734	70.16978
764.156	90.22286
764.578	134.30745
765	118.28737
765.421	47.12035
765.843	103.26963
766.264	133.32008
766.686	139.3469
767.107	113.2735
767.528	53.13476
767.949	87.22168
768.37	79.1948
768.791	101.24473
769.212	73.18403
769.632	81.18968
770.053	100.26289
770.473	120.29104
770.894	93.23328
771.314	146.3465
771.734	80.18752
772.154	93.23889
772.575	100.23238
772.994	71.16254
773.414	129.30857
773.834	60.15102
774.254	117.28552
774.673	104.25328
775.093	93.23025
775.512	86.21226
775.931	95.24078
776.351	65.16228
776.77	95.23227
777.189	83.19816
777.607	102.25994
778.026	74.18498
778.445	25.06327
778.864	107.27369
779.282	78.1884
779.701	92.23189
780.119	70.17745
780.537	59.14805
780.955	109.27646
781.373	105.2591
781.791	63.14266
782.209	133.30473
782.627	88.23158
783.045	88.20288
783.462	94.23981
783.88	80.20703
784.297	102.2559
784.715	66.16992
785.132	102.24646
785.549	87.2176
785.966	124.30975
786.383	74.1825
786.8	112.25934
787.217	33.07912
787.633	58.14541
788.05	165.38683
788.466	111.26105
788.883	72.18388
789.299	86.20725
789.715	108.26154
790.131	122.30133
790.547	71.17777
790.963	85.21098
791.379	54.13718
791.795	78.17861
792.21	122.2835
792.626	59.14081
793.041	72.17809
793.457	101.24886
793.872	98.22998
794.287	58.13908
794.702	127.3105
795.117	76.18895
795.532	73.18311
795.947	95.22837
796.362	111.264
796.776	148.34297
797.191	87.21279
797.605	26.06171
798.02	74.18035
798.434	123.27218
798.848	81.19944
799.262	67.16655
799.676	131.31682
800.09	110.26919
800.504	91.2205
800.918	61.14201
801.331	92.24055
801.745	97.22233
802.158	104.25875
802.572	72.17502
802.985	112.26929
803.398	119.28182
803.811	141.3585
804.224	120.29649
804.637	78.1859
805.05	102.23562
805.462	100.24481
805.875	95.24521
806.288	70.16907
806.7	94.23549
807.112	90.2084
807.525	82.20223
807.937	57.14138
808.349	70.17556
808.761	102.2498
809.173	117.28147
809.584	109.26788
809.996	65.15945
810.408	42.10892
810.819	78.18348
811.231	59.15272
811.642	66.15761
812.053	135.31737
812.464	208.482
812.875	177.44397
813.286	171.43246
813.697	138.31916
814.108	141.34036
814.519	117.2589
814.929	112.28371
815.34	100.24144
815.75	58.14771
816.16	134.33035
816.571	109.28125
816.981	133.31071
817.391	118.28264
817.801	82.20328
818.211	84.19997
818.62	89.21363
819.03	127.30819
819.44	90.23428
819.849	106.26545
820.259	116.29458
820.668	75.18432
821.077	98.24214
821.486	135.32144
821.895	112.2748
822.304	80.21152
822.713	86.20285
823.122	115.28471
823.531	74.17542
823.939	81.19701
824.348	123.29624
824.756	103.2565
825.164	99.24788
825.573	82.20528
825.981	108.26606
826.389	81.20311
826.797	87.21721
827.205	61.14032
827.612	126.30777
828.02	68.15977
828.428	102.2582
828.835	131.34094
829.243	104.24635
829.65	73.18133
830.057	139.333
830.464	63.15369
830.871	127.30089
831.278	79.19063
831.685	92.20456
832.092	105.25538
832.499	101.21967
832.905	68.17213
833.312	46.1055
833.718	112.27683
834.124	75.17129
834.531	126.31429
834.937	75.19218
835.343	109.26103
835.749	112.25955
836.155	71.18568
836.561	102.24924
836.966	117.2835
837.372	102.25792
837.777	73.18159
838.183	83.18412
838.588	78.19322
838.993	119.28693
839.399	61.14925
839.804	72.17522
840.209	62.15784
840.613	80.17758
841.018	87.21941
841.423	99.25234
841.828	103.25864
842.232	129.31586
842.637	74.17434
843.041	64.16397
843.445	51.1282
843.849	88.21687
844.253	117.27537
844.657	28.07093
845.061	63.14307
845.465	57.13786
845.869	94.21723
846.272	86.2085
846.676	101.24261
847.079	23.05887
847.483	96.23807
847.886	136.3265
848.289	92.24415
848.692	74.18699
849.095	63.15133
849.498	144.3597
849.901	118.26781
850.304	120.2837
850.707	99.25074
851.109	109.27351
851.512	91.22241
851.914	34.08607
852.316	101.25362
852.718	34.08814
853.121	97.2361
853.523	88.20466
853.925	51.13319
854.326	54.13514
854.728	37.09551
855.13	57.14703
855.531	79.18811
855.933	111.264
856.334	64.15941
856.736	73.16315
857.137	82.18988
857.538	91.22744
857.939	70.17258
858.34	90.21812
858.741	86.22371
859.142	52.12512
859.542	68.17907
859.943	82.2029
860.343	43.10677
860.744	108.26115
861.144	97.23495
861.544	55.13227
861.945	65.16545
862.345	97.23557
862.745	74.18338
863.145	161.37745
863.544	80.20136
863.944	73.17202
864.344	116.28514
864.743	105.25834
865.143	86.21979
865.542	114.26156
865.941	82.20209
866.34	141.3325
866.74	78.20858
867.139	69.16486
867.537	89.22549
867.936	105.25049
868.335	63.16013
868.734	94.23863
869.132	63.14626
869.531	131.31252
869.929	50.11417
870.327	70.16741
870.726	100.24744
871.124	97.22501
871.522	78.19794
871.92	107.26151
872.318	106.2568
872.715	108.26489
873.113	59.14371
873.511	75.18623
873.908	47.11883
874.306	85.21029
874.703	105.26043
875.1	110.27875
875.497	63.15087
875.894	18.04441
876.291	109.26491
876.688	59.15208
877.085	133.31449
877.482	96.23859
877.878	119.28302
878.275	65.16486
878.671	92.20345
879.068	83.19938
879.464	105.25145
879.86	44.10431
880.256	60.14798
880.652	82.20757
881.048	128.31301
881.444	92.2175
881.84	79.19994
882.236	92.22981
882.631	110.26729
883.027	85.20472
883.422	59.15076
883.817	35.08827
884.213	71.18168
884.608	39.09592
885.003	87.20851
885.398	51.12774
885.793	100.24898
886.188	47.117
886.582	121.30678
886.977	118.2767
887.371	96.24102
887.766	43.10716
888.16	70.17423
888.554	115.28127
888.949	118.29294
889.343	82.19933
889.737	44.11743
890.131	49.12304
890.525	81.20617
890.918	88.22014
891.312	102.24189
891.706	70.18316
892.099	106.26727
892.492	106.22627
892.886	93.22594
893.279	74.18786
893.672	89.22517
894.065	68.16986
894.458	99.24699
894.851	113.27391
895.244	85.21589
895.637	105.25049
896.029	88.21383
896.422	86.20889
896.814	72.17842
897.206	45.10736
897.599	85.20905
897.991	46.1114
898.383	50.11826
898.775	132.29325
899.167	55.12824
899.559	94.23625
899.951	113.26337
900.342	99.24976
900.734	30.07475
901.125	88.22954
901.517	53.13011
901.908	123.29107
902.299	74.18022
902.69	118.27497
903.082	102.24478
903.473	72.1718
903.863	63.16047
904.254	73.1688
904.645	167.40677
905.036	61.14748
905.426	132.29751
905.817	95.23132
906.207	47.11213
906.597	42.09845
906.987	90.23179
907.378	94.236
907.768	103.27
908.158	101.24409
908.547	42.10869
908.937	105.26697
909.327	68.16468
909.717	135.33777
910.106	72.17233
910.495	76.18895
910.885	89.22397
911.274	90.22343
911.663	105.26404
912.052	104.25422
912.441	33.0842
912.83	85.19389
913.219	96.24938
913.608	94.2285
913.997	56.14029
914.385	89.21119
914.774	91.22
915.162	48.11449
915.55	110.26328
915.939	52.13126
916.327	80.19868
916.715	70.17783
917.103	129.31304
917.491	104.25489
917.878	87.21255
918.266	87.22425
918.654	100.25332
919.041	81.21038
919.429	89.20858
919.816	112.28088
920.203	107.25683
920.591	98.24098
920.978	77.1877
921.365	87.2269
921.752	95.22464
922.139	85.18329
922.525	42.10106
922.912	111.26775
923.299	52.12924
923.685	70.18203
924.072	139.31502
924.458	73.18014
924.844	58.14336
925.231	86.19882
925.617	21.0537
926.003	92.23347
926.389	81.20325
926.774	89.22405
927.16	111.2727
927.546	66.16802
927.931	96.23763
928.317	109.24823
928.702	104.24359
929.088	28.06653
929.473	67.17
929.858	69.16625
930.243	57.13666
930.628	87.21025
931.013	79.1948
931.398	133.30093
931.783	84.21993
932.167	112.27072
932.552	96.23859
932.937	66.16337
933.321	51.12797
933.705	63.15848
934.09	132.32877
934.474	88.20756
934.858	66.17074
935.242	94.21602
935.626	57.14575
936.009	79.20913
936.393	101.25471
936.777	39.10007
937.16	77.19944
937.544	115.26761
937.927	62.157
938.311	147.35243
938.694	96.25195
939.077	73.17402
939.46	109.26481
939.843	105.2165
940.226	91.23179
940.609	80.1826
940.991	60.15248
941.374	43.10525
941.757	78.19152
942.139	69.15441
942.522	71.16717
942.904	79.1889
943.286	81.20471
943.668	56.14492
944.05	77.18875
944.432	70.17213
944.814	73.17908
945.196	57.13874
945.578	35.08344
945.959	101.23438
946.341	149.35913
946.722	91.21193
947.104	97.22981
947.485	50.11638
947.866	53.13347
948.247	81.20325
948.628	87.21081
949.009	65.16603
949.39	98.24187
949.771	88.2032
950.152	78.19046
950.532	32.07898
950.913	89.21314
951.293	59.15915
951.674	68.16393
952.054	11.02745
952.434	83.20481
952.814	109.25645
953.194	118.30527
953.574	82.20082
953.954	90.21212
954.334	38.09492
954.714	81.19627
955.093	80.19563
955.473	37.09274
955.853	50.12944
956.232	64.17503
956.611	138.32549
956.99	57.14308
957.37	98.24763
957.749	66.157
958.128	66.16582
958.506	58.15026
958.885	65.16363
959.264	24.0591
959.643	80.18098
960.021	87.21413
960.4	104.23316
960.778	121.29418
961.156	93.23134
961.535	113.26015
961.913	85.19756
962.291	77.19661
962.669	62.15672
963.047	67.17048
963.424	53.13519
963.802	78.19081
964.18	131.3267
964.557	121.27478
964.935	82.19311
965.312	61.15855
965.69	92.22865
966.067	94.22704
966.444	123.29904
966.821	87.22285
967.198	86.20725
967.575	111.26987
967.952	87.20357
968.329	93.2245
968.705	84.17884
969.082	48.12315
969.458	20.04825
969.835	59.14339
970.211	91.23187
970.587	63.15649
970.963	111.28173
971.339	59.15382
971.715	67.16679
972.091	67.16448
972.467	86.21311
972.843	28.06977
973.219	142.33506
973.594	66.17216
973.97	123.28871
974.345	83.1974
974.721	101.24224
975.096	35.08494
975.471	81.19102
975.846	114.27056
976.221	80.20208
976.596	58.13882
976.971	81.19885
977.346	147.33572
977.72	109.27479
978.095	64.165
978.469	92.21784
978.844	109.27114
979.218	51.12223
979.593	66.15767
979.967	93.22475
980.341	84.19211
980.715	97.24235
981.089	61.15241
981.463	75.17136
981.837	62.15116
982.21	127.2911
982.584	65.15655
982.957	93.23042
983.331	90.21113
983.704	55.13502
984.078	63.15489
984.451	103.25482
984.824	47.11453
985.197	74.17894
985.57	80.19955
985.943	139.33769
986.316	124.30052
986.688	116.27626
987.061	74.17264
987.434	82.2125
987.806	139.33148
988.179	84.1969
988.551	132.32997
988.923	60.14749
989.295	130.32014
989.667	25.06001
990.039	55.13577
990.411	74.16951
990.783	95.21679
991.155	25.06035
991.527	143.3461
991.898	54.13445
992.27	52.12858
992.641	95.2364
993.012	101.23531
993.384	111.26166
993.755	55.14009
994.126	78.18662
994.497	46.11299
994.868	83.18941
995.239	81.19516
995.61	46.11582
995.98	68.16462
996.351	65.16052
996.722	50.11596
997.092	40.0949
997.462	7.01649
997.833	59.13962
998.203	102.24487
998.573	81.20054
998.943	94.21853
999.313	55.13166
999.683	70.16735
1000.053	69.15816
1000.423	110.26428
1000.792	69.17823
1001.162	85.20782
1001.531	112.27296
1001.901	23.05761
1002.27	85.18864
1002.639	60.15302
1003.009	86.20308
1003.378	90.22847
1003.747	108.25226
1004.116	52.12436
1004.485	82.19476
1004.853	90.22636
1005.222	74.18579
1005.591	103.24205
1005.959	84.18793
1006.328	72.16128
1006.696	90.21541
1007.064	61.15312
1007.433	134.32975
1007.801	118.28598
1008.169	60.15123
1008.537	105.22982
1008.905	118.27117
1009.273	74.18197
1009.64	82.19439
1010.008	108.25454
1010.375	110.26408
1010.743	120.27323
1011.11	86.20206
1011.478	85.20898
1011.845	98.22827
1012.212	47.10643
1012.579	66.16152
1012.946	91.21485
1013.313	107.25184
1013.68	89.19842
1014.047	56.13327
1014.414	49.11573
1014.78	81.2001
1015.147	119.284
1015.513	71.17036
1015.88	82.20846
1016.246	95.23253
1016.612	102.23102
1016.978	104.25224
1017.344	100.24481
1017.71	167.39824
1018.076	104.24263
1018.442	122.30981
1018.808	86.2135
1019.174	88.21919
1019.539	136.30765
1019.905	99.23119
1020.27	72.17692
1020.636	113.26762
1021.001	65.15513
1021.366	27.0651
1021.731	107.27235
1022.096	15.03806
1022.461	116.27095
1022.826	70.16568
1023.191	86.22417
1023.556	74.17257
1023.92	111.26977
1024.285	115.27719
1024.649	99.24034
1025.014	108.26459
1025.378	47.11819
1025.742	88.21695
1026.107	113.25224
1026.471	92.21295
1026.835	70.17283
1027.199	35.08446
1027.562	117.26828
1027.926	116.28007
1028.29	75.18887
1028.654	51.11727
1029.017	74.18103
1029.381	72.17121
1029.744	88.22284
1030.107	119.27768
1030.471	98.23241
1030.834	125.27995
1031.197	97.2315
1031.56	87.20373
1031.923	34.08811
1032.286	97.22563
1032.648	82.19484
1033.011	45.10335
1033.374	70.16382
1033.736	26.06861
1034.099	62.15071
1034.461	63.15871
1034.823	66.16379
1035.185	107.26646
1035.548	70.16965
1035.91	62.14811
1036.272	86.19423
1036.634	133.32021
1036.995	92.21438
1037.357	56.13603
1037.719	116.27848
1038.08	92.21658
1038.442	81.19102
1038.803	64.15318
1039.165	86.21553
1039.526	56.13511
1039.887	32.0768
1040.248	65.15963
1040.609	107.26151
1040.97	74.17995
1041.331	80.20136
1041.692	49.11434
1042.053	100.2253
1042.413	101.2329
1042.774	130.31126
1043.134	86.20324
1043.495	103.25631
1043.855	93.22365
1044.215	76.18764
1044.576	12.02889
1044.936	119.26892
1045.296	95.23503
1045.656	123.29759
1046.016	66.15875
1046.375	65.15715
1046.735	43.09757
1047.095	94.21801
1047.454	102.21357
1047.814	60.14388
1048.173	110.25965
1048.533	89.2022
1048.892	51.12232
1049.251	101.25106
1049.61	47.11572
1049.969	65.15269
1050.328	64.13828
1050.687	80.19345
1051.046	65.15774
1051.405	81.20025
1051.763	60.13761
1052.122	70.17385
1052.48	107.25946
1052.839	72.16857
1053.197	65.15245
1053.555	124.27834
1053.914	61.14881
1054.272	131.31168
1054.63	33.08089
1054.988	56.1328
1055.345	93.19831
1055.703	111.26389
1056.061	96.24483
1056.419	78.20081
1056.776	79.19042
1057.134	73.16813
1057.491	87.21626
1057.848	63.15638
1058.206	71.1662
1058.563	49.10798
1058.92	136.30791
1059.277	110.26819
1059.634	114.26471
1059.991	104.24644
1060.348	71.15967
1060.704	40.09545
1061.061	114.26135
1061.418	58.14035
1061.774	72.17692
1062.131	20.05311
1062.487	29.06804
1062.843	83.20557
1063.199	91.22447
1063.555	69.15917
1063.911	143.35494
1064.267	129.26419
1064.623	69.16688
1064.979	136.31666
1065.335	157.36736
1065.691	78.18583
1066.046	41.09027
1066.402	58.13147
1066.757	90.22539
1067.112	124.29995
1067.468	23.05456
1067.823	90.21459
1068.178	110.26287
1068.533	97.23292
1068.888	98.23187
1069.243	71.17443
1069.598	76.18364
1069.952	64.1436
1070.307	23.05717
1070.662	80.18869
1071.016	47.1053
1071.371	108.24262
1071.725	119.28074
1072.079	65.15578
1072.434	86.20741
1072.788	52.1237
1073.142	90.21959
1073.496	66.15598
1073.85	57.13191
1074.203	100.24016
1074.557	67.17754
1074.911	89.2107
1075.265	72.16652
1075.618	135.32416
1075.971	92.21691
1076.325	73.18463
1076.678	100.22622
1077.031	47.10634
1077.385	124.26871
1077.738	65.14617
1078.091	76.17179
1078.444	115.26338
1078.796	84.20465
1079.149	120.29442
1079.502	26.06166
1079.855	60.13954
1080.207	97.23672
1080.56	42.10862
1080.912	58.14088
1081.264	74.17725
1081.617	43.10486
1081.969	31.0784
1082.321	78.18932
1082.673	34.07779
1083.025	48.11383
1083.377	117.24731
1083.728	114.2624
1084.08	78.19357
1084.432	91.21759
1084.783	120.27709
1085.135	89.22131
1085.486	36.08253
1085.838	101.2462
1086.189	75.18105
1086.54	98.23169
1086.891	80.20107
1087.242	109.26223
1087.593	91.21967
1087.944	68.1532
1088.295	109.24462
1088.646	66.15935
1088.996	39.09407
1089.347	89.21663
1089.698	69.16234
1090.048	109.27998
1090.398	74.17067
1090.749	115.27151
1091.099	61.15296
1091.449	110.27079
1091.799	62.15476
1092.149	26.06363
1092.499	58.14115
1092.849	49.12446
1093.199	89.22131
1093.548	51.12242
1093.898	78.194
1094.248	71.18161
1094.597	48.12246
1094.947	87.23046
1095.296	89.218
1095.645	90.23227
1095.994	77.18384
1096.343	63.15803
1096.692	27.07114
1097.041	84.22596
1097.39	85.21167
1097.739	59.15298
1098.088	125.33045
1098.437	46.12081
1098.785	109.29076
1099.134	81.21377
1099.482	83.22688
1099.83	96.25007
1100.179	49.12771
1100.527	64.1695
1100.875	47.12421
1101.223	103.27083
1101.571	68.18721
1101.919	42.10978
1102.267	60.16851
1102.615	5.01607
1102.962	29.09316
1103.31	17.05455
1103.658	20.06435
