Data from N2 R11 sample 12_Subt2__1__14-32-47-162.txt Node

Date: Mon Sep 01 14:32:47 PDT 2025
User: uwsun
Spectrometer: HDX01956
Trigger mode: 0
Integration Time (sec): 5.000000E-1
Scans to average: 1
Nonlinearity correction enabled: true
Boxcar width: 0
Storing dark spectrum: false
XAxis mode: Wavelengths
Number of Pixels in Spectrum: 2068
>>>>>Begin Spectral Data<<<<<
194.03	97.26819
194.578	106.33082
195.127	98.30157
195.676	79.24446
196.225	122.31703
196.773	124.33323
197.321	170.44342
197.87	269.63259
198.418	233.54431
198.966	232.54549
199.513	179.40435
200.061	221.50369
200.609	307.7298
201.156	212.41362
201.704	205.46591
202.251	215.51525
202.798	234.54761
203.345	289.63814
203.892	248.56008
204.438	242.51971
204.985	230.48457
205.532	229.54294
206.078	263.5766
206.624	240.52674
207.17	260.53837
207.716	251.54287
208.262	259.452
208.808	186.41149
209.354	208.45497
209.899	278.6309
210.445	237.52573
210.99	220.4745
211.535	247.52027
212.08	241.50227
212.625	314.69667
213.17	251.57183
213.715	214.42268
214.259	286.59168
214.804	284.62697
215.348	265.54049
215.892	277.59192
216.436	294.60605
216.98	284.55883
217.524	258.54427
218.068	251.56905
218.612	271.61264
219.155	234.49495
219.698	260.55475
220.242	278.62322
220.785	263.5508
221.328	227.51277
221.871	233.53747
222.414	237.53557
222.956	191.41717
223.499	235.47604
224.041	253.53244
224.583	318.61012
225.126	266.52391
225.668	209.46073
226.21	166.38239
226.751	140.2799
227.293	233.48128
227.835	202.44763
228.376	246.51326
228.918	267.60827
229.459	176.39927
230	186.40324
230.541	224.46694
231.082	215.47177
231.622	228.47486
232.163	214.46849
232.704	254.56473
233.244	210.47195
233.784	232.51582
234.324	210.41225
234.864	210.42978
235.404	218.46999
235.944	240.51297
236.484	233.52632
237.023	254.53631
237.563	227.47057
238.102	197.42189
238.641	238.54254
239.18	198.4166
239.719	234.52955
240.258	250.5026
240.797	230.4933
241.335	248.54544
241.874	222.37935
242.412	262.56072
242.95	193.41493
243.488	302.6077
244.026	252.5162
244.564	267.48519
245.102	284.56173
245.64	283.60762
246.177	239.47815
246.715	246.52944
247.252	262.53595
247.789	355.57752
248.326	190.40945
248.863	228.44441
249.4	307.61277
249.936	258.46753
250.473	241.49937
251.009	192.39419
251.546	247.48179
252.082	259.50135
252.618	276.53951
253.154	255.54231
253.69	219.43977
254.226	240.50919
254.761	206.41338
255.297	233.45124
255.832	214.45185
256.367	273.56693
256.903	230.44703
257.438	207.43582
257.972	253.49701
258.507	209.42434
259.042	247.47263
259.576	190.36206
260.111	280.5694
260.645	274.51985
261.179	238.49017
261.713	241.47187
262.247	269.54541
262.781	198.36704
263.315	234.50686
263.849	251.55424
264.382	280.56447
264.915	244.50185
265.449	177.38233
265.982	294.58342
266.515	245.52672
267.048	235.4353
267.58	269.51548
268.113	246.46354
268.646	266.57519
269.178	252.49026
269.71	273.51909
270.243	231.46536
270.775	240.53892
271.307	253.53736
271.838	279.58224
272.37	260.56077
272.902	258.51341
273.433	297.55923
273.965	266.56608
274.496	221.48759
275.027	230.50245
275.558	277.58422
276.089	162.35226
276.62	268.59932
277.15	254.55088
277.681	250.47362
278.211	251.54055
278.741	214.41057
279.272	240.47604
279.802	253.55328
280.332	242.49616
280.861	291.60512
281.391	215.42515
281.921	249.52448
282.45	270.58833
282.98	312.70374
283.509	264.51165
284.038	303.58962
284.567	316.63323
285.096	289.6015
285.625	251.49099
286.153	280.56187
286.682	275.53794
287.21	240.49963
287.739	284.57411
288.267	273.56618
288.795	309.70081
289.323	227.45604
289.851	312.62001
290.378	228.44061
290.906	250.5172
291.433	261.55966
291.961	235.45468
292.488	255.54586
293.015	259.51793
293.542	290.62305
294.069	256.53673
294.596	268.56835
295.122	332.66314
295.649	272.50699
296.175	337.6864
296.702	305.62547
297.228	296.60989
297.754	271.51178
298.28	305.57599
298.806	287.57924
299.332	299.54667
299.857	318.59303
300.383	311.66428
300.908	228.46598
301.433	315.63429
301.958	360.68537
302.483	246.51668
303.008	319.65802
303.533	332.72372
304.058	350.67995
304.582	255.50094
305.107	262.57284
305.631	312.58791
306.155	289.55273
306.679	285.5464
307.203	315.59575
307.727	350.67411
308.251	334.6758
308.775	283.54676
309.298	307.59541
309.822	305.63282
310.345	343.65506
310.868	329.63442
311.391	369.73208
311.914	296.60358
312.437	351.64111
312.96	313.59139
313.482	325.61557
314.005	307.62302
314.527	310.65856
315.049	358.72569
315.571	324.56084
316.093	365.71298
316.615	317.60452
317.137	398.66044
317.659	418.78961
318.18	379.71505
318.702	375.67144
319.223	397.60932
319.744	320.55273
320.265	353.65651
320.786	339.64428
321.307	433.81294
321.828	373.63521
322.348	379.67091
322.869	402.70182
323.389	410.46033
323.909	372.63676
324.43	444.79768
324.95	348.58927
325.47	404.72841
325.989	389.66712
326.509	384.60001
327.029	394.62965
327.548	384.61016
328.067	384.66154
328.587	501.87957
329.106	419.66408
329.625	558.04065
330.144	392.63039
330.662	373.60067
331.181	461.73448
331.7	426.68276
332.218	453.64663
332.736	490.76309
333.255	440.68316
333.773	457.71894
334.291	489.82297
334.808	472.6723
335.326	431.63111
335.844	460.67631
336.361	487.79195
336.879	413.61181
337.396	425.6531
337.913	502.70247
338.43	507.68255
338.947	520.74963
339.464	517.6335
339.981	466.66458
340.497	497.74851
341.014	500.72707
341.53	496.63847
342.046	547.77756
342.562	573.83363
343.078	544.72253
343.594	553.74507
344.11	605.79006
344.626	509.73719
345.141	494.61544
345.657	653.7716
346.172	611.78711
346.687	547.6603
347.202	581.6611
347.717	579.72387
348.232	580.77456
348.747	606.69357
349.261	576.58774
349.776	594.69522
350.29	539.67327
350.805	672.82959
351.319	677.74168
351.833	603.6274
352.347	641.70372
352.861	635.67865
353.374	678.71185
353.888	632.71907
354.401	646.66004
354.915	648.60674
355.428	714.78883
355.941	647.64444
356.454	753.69297
356.967	717.71939
357.48	695.66518
357.993	730.76985
358.505	636.67025
359.018	814.7973
359.53	698.67885
360.042	806.646
360.554	701.69147
361.066	655.6486
361.578	778.58485
362.09	687.63978
362.602	752.56449
363.113	649.56253
363.625	731.56163
364.136	753.54593
364.647	692.52892
365.158	757.58966
365.669	778.63396
366.18	864.64354
366.691	820.52918
367.201	759.59305
367.712	774.51816
368.222	733.49918
368.733	827.43997
369.243	788.43784
369.753	807.50121
370.263	895.55759
370.773	862.57934
371.282	925.5078
371.792	797.36442
372.301	856.44848
372.811	906.56769
373.32	876.22994
373.829	817.31704
374.338	942.22556
374.847	999.21868
375.356	1021.21545
375.865	1060.00009
376.373	1057.03942
376.882	1174.1727
377.39	1160.05094
377.898	971.00876
378.407	1087.82996
378.915	1241.69382
379.423	1238.72143
379.93	1396.55105
380.438	1245.5922
380.946	1456.39462
381.453	1427.36349
381.96	1466.27311
382.468	1500.19838
382.975	1759.06967
383.482	1882.03496
383.989	1641.1226
384.495	1781.12388
385.002	1693.33774
385.509	1741.33676
386.015	2021.87301
386.521	2139.93625
387.028	2115.27926
387.534	2225.79697
388.04	2596.15264
388.546	2179.54047
389.051	2133.33558
389.557	2514.1042
390.063	3137.58342
390.568	3146.93239
391.073	2904.79181
391.578	3288.42001
392.084	2898.54871
392.589	2706.09037
393.093	2639.38143
393.598	3268.00402
394.103	3698.30463
394.607	4045.86682
395.112	4509.49095
395.616	4710.55671
396.12	4618.04463
396.624	5076.61028
397.128	5505.57932
397.632	6874.79782
398.136	7169.00094
398.639	6145.15559
399.143	5844.03719
399.646	6667.57284
400.15	6817.04232
400.653	6765.28331
401.156	7173.06939
401.659	3926.22431
402.162	764.15874
402.664	0
403.167	0
403.67	0
404.172	0
404.674	0
405.176	0
405.678	0
406.18	0
406.682	0
407.184	0
407.686	0
408.187	0
408.688	0
409.19	0
409.691	0
410.192	0
410.693	0
411.194	435.30976
411.694	4082.94878
412.195	8864.71461
412.696	12089.80453
413.196	12760.96929
413.696	12863.67595
414.196	13703.56671
414.696	17261.84252
415.196	21764.24417
415.696	29583.19008
416.196	25249.07556
416.695	16767.25912
417.195	12488.15648
417.694	12117.71194
418.194	11563.67578
418.693	10253.59889
419.192	9716.44042
419.691	9741.95867
420.19	9659.91332
420.688	9839.24001
421.187	9822.73386
421.685	9470.07611
422.184	8809.0673
422.682	7443.28554
423.18	5743.08162
423.678	4772.97827
424.176	4414.81438
424.674	4121.29985
425.172	4217.36187
425.669	4088.86903
426.167	3954.68435
426.664	3510.32876
427.161	3121.69291
427.659	2756.53986
428.156	2581.52936
428.652	2423.9597
429.149	2388.93125
429.646	2325.92413
430.143	2216.87652
430.639	2067.94577
431.135	1811.14433
431.632	1791.15808
432.128	1540.40658
432.624	1484.54385
433.12	1320.50959
433.616	1334.52233
434.111	1060.73805
434.607	1146.78127
435.103	1175.73737
435.598	1293.71027
436.093	1168.97909
436.588	1067.03095
437.083	1061.09753
437.578	1041.1742
438.073	765.26821
438.568	883.35714
439.062	890.20367
439.557	884.37847
440.051	765.31782
440.546	627.30354
441.04	683.39219
441.534	663.47433
442.028	721.46196
442.522	618.42086
443.015	660.36032
443.509	673.50331
444.002	561.44631
444.496	629.38223
444.989	513.43658
445.482	520.45893
445.975	563.39081
446.468	533.34792
446.961	548.35969
447.454	510.39675
447.947	451.38952
448.439	480.45326
448.931	406.33453
449.424	506.52166
449.916	472.46067
450.408	414.35562
450.9	438.43218
451.392	396.43471
451.884	418.39771
452.375	382.41343
452.867	400.3889
453.358	327.31714
453.849	351.30814
454.341	357.34987
454.832	343.31468
455.323	357.40398
455.814	379.39676
456.304	349.37453
456.795	379.40031
457.285	368.3882
457.776	415.45507
458.266	244.29415
458.756	296.36673
459.247	212.26224
459.737	236.29194
460.226	235.2701
460.716	286.35911
461.206	291.37399
461.695	273.3827
462.185	261.33726
462.674	299.37373
463.163	186.23024
463.653	309.33977
464.142	223.30839
464.63	257.36695
465.119	236.31133
465.608	208.27826
466.096	277.34354
466.585	290.3937
467.073	263.38121
467.561	208.30983
468.05	214.3066
468.538	199.31061
469.026	222.3337
469.513	212.27008
470.001	201.28463
470.489	138.21131
470.976	229.33604
471.463	190.31454
471.951	165.27989
472.438	108.17078
472.925	80.12687
473.412	174.29444
473.899	178.27694
474.385	152.26029
474.872	87.14167
475.359	126.21657
475.845	143.20107
476.331	122.18714
476.817	126.22192
477.303	117.19503
477.789	120.21013
478.275	53.09773
478.761	101.18008
479.247	144.23482
479.732	23.04335
480.218	75.1488
480.703	68.12863
481.188	90.14305
481.673	60.10418
482.158	62.09747
482.643	103.20349
483.128	19.03337
483.612	75.13511
484.097	63.12142
484.581	54.09865
485.066	82.1555
485.55	28.04792
486.034	-7.01197
486.518	22.04084
487.002	-22.04333
487.486	-5.00986
487.969	-9.0178
488.453	27.0556
488.936	-29.05326
489.42	25.04476
489.903	55.11345
490.386	-387.57397
490.869	34.06045
491.352	37.07523
491.835	43.07239
492.318	19.03518
492.8	57.09564
493.283	-40.08565
493.765	31.06329
494.247	4.00789
494.73	10.01842
495.212	12.02459
495.694	23.04469
496.175	-88.1774
496.657	60.11901
497.139	6.00878
497.62	-95.19297
498.102	-48.10197
498.583	-42.09082
499.064	-56.1065
499.545	-77.15205
500.026	-62.11952
500.507	-68.13683
500.988	-27.05795
501.469	-87.1897
501.949	15.03189
502.43	-94.19412
502.91	-64.11408
503.39	-33.07214
503.87	-99.20357
504.35	-10.0205
504.83	-40.0757
505.31	-47.09909
505.79	-83.17391
506.269	-2.00405
506.749	-98.19675
507.228	-39.07951
507.707	-29.05576
508.187	-42.08833
508.666	-75.16187
509.145	-85.17487
509.623	-103.21457
510.102	-25.05305
510.581	-32.06819
511.059	-66.14571
511.538	-34.07779
512.016	-45.09487
512.494	-17.03631
512.972	-21.044
513.45	-94.19203
513.928	-36.07675
514.406	-123.26307
514.884	-56.12766
515.361	-33.06966
515.839	-47.09447
516.316	-94.20222
516.793	-72.16334
517.27	5.0107
517.747	-60.13706
518.224	-11.02248
518.701	18.03507
519.178	-72.15876
519.654	17.0357
520.131	-73.16174
520.607	-21.04641
521.083	-37.07505
521.56	-35.07353
522.036	-34.06649
522.512	20.04371
522.987	-84.17845
523.463	-64.13638
523.939	-25.05479
524.414	-2.00411
524.89	-46.09781
525.365	-58.11779
525.84	-76.16146
526.315	-70.15163
526.79	-54.10936
527.265	-72.14809
527.74	-96.21203
528.215	-58.12306
528.689	-56.11133
529.164	-54.10576
529.638	-60.1396
530.112	-121.25969
530.587	-121.23478
531.061	-124.2725
531.534	-54.11847
532.008	-56.1212
532.482	-51.10587
532.956	-99.22901
533.429	-55.12054
533.903	-55.11029
534.376	-46.09171
534.849	-64.1346
535.322	-28.05948
535.795	-62.13757
536.268	-100.21948
536.741	-83.18205
537.213	-75.15805
537.686	-63.13883
538.158	-99.20174
538.631	-79.17576
539.103	-90.18344
539.575	-6.01124
540.047	-48.09561
540.519	-48.10429
540.991	-71.15888
541.463	-36.07891
541.934	-48.09953
542.406	-110.24021
542.877	-53.10849
543.348	-78.17235
543.82	-49.10938
544.291	-51.10847
544.762	-81.17474
545.233	-55.1248
545.703	-68.13626
546.174	-48.101
546.645	-99.21431
547.115	-49.10644
547.585	-35.07246
548.056	-101.22004
548.526	-58.12214
548.996	-15.03222
549.466	17.03694
549.935	-67.14169
550.405	-13.02514
550.875	3.00626
551.344	-11.02339
551.814	-9.0183
552.283	74.13985
552.752	-23.04708
553.221	-9.01708
553.69	44.0847
554.159	38.0808
554.628	39.07513
555.096	79.17248
555.565	64.1232
556.033	79.16201
556.502	114.23923
556.97	126.24139
557.438	93.19322
557.906	106.22126
558.374	122.24527
558.842	127.2661
559.31	152.29726
559.777	119.25253
560.245	184.37776
560.712	178.36049
561.18	147.28428
561.647	218.42088
562.114	229.44923
562.581	312.65616
563.048	330.64537
563.514	316.65842
563.981	413.78609
564.448	446.8227
564.914	489.93303
565.381	576.04879
565.847	637.17978
566.313	618.14196
566.779	669.17635
567.245	752.35065
567.711	776.42241
568.176	829.38404
568.642	868.63775
569.108	993.77506
569.573	1034.74688
570.038	1208.67462
570.504	1211.80792
570.969	1304.20636
571.434	1388.9035
571.899	1518.24883
572.363	1623.19059
572.828	1708.2723
573.293	1824.33328
573.757	1913.38001
574.222	1974.28235
574.686	2062.32362
575.15	2202.61062
575.614	2266.48099
576.078	2323.58627
576.542	2472.48878
577.006	2549.43965
577.469	2665.92749
577.933	2574.39267
578.396	2704.7065
578.86	2768.659
579.323	2796.69521
579.786	2785.23896
580.249	2750.47697
580.712	2855.85455
581.175	2779.89239
581.637	2793.57374
582.1	2827.34232
582.563	2877.24014
583.025	2721.80288
583.487	2720.97459
583.95	2635.23192
584.412	2676.16604
584.874	2536.80695
585.336	2501.68856
585.797	2477.28797
586.259	2431.68293
586.721	2371.62484
587.182	2375.65121
587.643	2291.48983
588.105	2183.63063
588.566	2153.17611
589.027	2107.65614
589.488	2050.43944
589.949	1938.62573
590.41	1824.82286
590.87	1911.40045
591.331	1869.18796
591.791	1713.30677
592.252	1625.21187
592.712	1641.40492
593.172	1560.13368
593.632	1535.05381
594.092	1472.04669
594.552	1458.9404
595.011	1317.98158
595.471	1347.95485
595.931	1312.91238
596.39	1252.03046
596.849	1224.936
597.308	1215.76933
597.768	1115.0231
598.227	1137.92726
598.685	1112.79723
599.144	1062.76725
599.603	1086.82713
600.062	975.45106
600.52	926.50391
600.978	970.68363
601.437	1000.65368
601.895	949.44466
602.353	1001.59302
602.811	954.53394
603.269	919.63235
603.727	931.64774
604.184	851.42554
604.642	885.62711
605.099	881.52188
605.557	893.632
606.014	808.29768
606.471	880.64422
606.928	785.25384
607.385	815.49367
607.842	953.58046
608.299	980.65713
608.755	872.5723
609.212	922.48649
609.668	893.43672
610.125	983.73551
610.581	1006.7509
611.037	931.5787
611.493	981.70771
611.949	873.58333
612.405	967.37409
612.861	923.63101
613.316	896.60744
613.772	884.52505
614.227	942.64956
614.683	1000.54932
615.138	960.65919
615.593	939.6215
616.048	960.63022
616.503	961.77774
616.958	928.76141
617.412	965.70011
617.867	901.48409
618.321	931.42218
618.776	978.59669
619.23	952.67671
619.684	968.63236
620.138	974.7004
620.592	909.69391
621.046	938.67608
621.5	890.67113
621.954	923.5845
622.407	850.4678
622.861	796.53543
623.314	896.57291
623.768	857.5574
624.221	803.22445
624.674	768.41337
625.127	783.46375
625.58	812.47434
626.033	800.40766
626.485	698.36802
626.938	789.51208
627.39	697.33228
627.843	705.33979
628.295	765.43357
628.747	728.42086
629.199	681.28153
629.651	663.25249
630.103	595.15457
630.555	613.0912
631.006	657.29513
631.458	610.22347
631.909	630.23105
632.361	568.14172
632.812	545.0886
633.263	573.06049
633.714	543.00786
634.165	553.16898
634.616	532.10708
635.067	545.05586
635.518	543.13528
635.968	549.95833
636.419	566.06918
636.869	457.97524
637.319	461.95305
637.769	466.92993
638.219	495.05486
638.669	397.86153
639.119	456.00166
639.569	402.88371
640.019	437.91558
640.468	402.81898
640.918	399.88061
641.367	369.76184
641.816	398.81452
642.265	389.82583
642.714	386.82071
643.163	372.78888
643.612	294.65962
644.061	346.67699
644.51	349.73672
644.958	345.70334
645.406	267.60287
645.855	330.75557
646.303	383.82797
646.751	298.63638
647.199	322.68524
647.647	335.71895
648.095	318.68262
648.543	349.66717
648.99	289.65094
649.438	386.84141
649.885	379.87104
650.333	299.54722
650.78	306.69584
651.227	291.66883
651.674	256.55569
652.121	305.70016
652.568	246.57005
653.015	318.7587
653.461	280.63157
653.908	275.60951
654.354	286.64879
654.801	278.61911
655.247	340.70181
655.693	264.65654
656.139	254.58252
656.585	299.68034
657.031	216.48463
657.477	225.4683
657.922	227.50313
658.368	287.67491
658.813	314.69377
659.259	213.49388
659.704	235.52715
660.149	269.59969
660.594	234.53558
661.039	213.47033
661.484	272.62354
661.929	295.65846
662.373	201.49159
662.818	227.54421
663.262	221.51486
663.707	234.57261
664.151	244.57548
664.595	227.52988
665.039	236.56826
665.483	213.52635
665.927	234.5345
666.371	151.34346
666.814	230.5334
667.258	129.30137
667.701	259.54194
668.145	252.60678
668.588	221.52761
669.031	178.41003
669.474	209.49113
669.917	242.5215
670.36	184.44726
670.803	257.60084
671.245	209.43229
671.688	269.63432
672.13	151.33511
672.573	229.56651
673.015	231.54028
673.457	185.39722
673.899	201.47748
674.341	189.44811
674.783	184.43348
675.225	171.41418
675.666	169.39992
676.108	198.42375
676.549	223.51686
676.991	165.36084
677.432	182.35914
677.873	180.41133
678.314	179.42162
678.755	158.38032
679.196	180.40702
679.637	186.44805
680.078	177.40993
680.518	220.50354
680.959	164.38892
681.399	139.34224
681.839	210.50145
682.28	161.39275
682.72	162.36781
683.16	173.425
683.6	182.41121
684.039	149.31053
684.479	139.33896
684.919	140.32096
685.358	198.49404
685.798	152.39403
686.237	172.41197
686.676	155.35841
687.115	134.31434
687.554	155.36566
687.993	187.40982
688.432	159.36137
688.871	119.27057
689.309	145.34459
689.748	164.34248
690.186	158.37527
690.625	161.37465
691.063	155.3692
691.501	164.40178
691.939	170.4191
692.377	118.28769
692.815	156.37037
693.253	156.37308
693.69	140.30792
694.128	131.31635
694.565	158.37454
695.003	159.39983
695.44	157.36678
695.877	78.18383
696.314	136.29371
696.751	193.43597
697.188	109.25154
697.625	161.36858
698.061	114.27389
698.498	169.40579
698.934	110.26569
699.371	121.28501
699.807	140.33047
700.243	151.36133
700.679	178.4002
701.115	176.41141
701.551	164.38396
701.987	179.39989
702.422	162.38195
702.858	119.28389
703.294	150.33932
703.729	146.35569
704.164	150.35928
704.599	132.29471
705.035	109.24532
705.47	118.28694
705.904	121.28235
706.339	175.40449
706.774	134.3136
707.209	92.21379
707.643	149.35628
708.078	141.34204
708.512	77.19363
708.946	140.33495
709.38	126.29881
709.814	116.26647
710.248	166.40139
710.682	92.2202
711.116	79.18977
711.549	118.304
711.983	119.27571
712.416	163.38319
712.85	98.24516
713.283	116.2752
713.716	144.36022
714.149	127.30309
714.582	120.27058
715.015	142.35419
715.448	127.31948
715.881	160.34954
716.313	112.26335
716.746	105.24819
717.178	119.28628
717.61	133.33613
718.043	128.31846
718.475	108.26253
718.907	171.42892
719.339	75.17191
719.77	80.19111
720.202	128.32274
720.634	108.26312
721.065	132.31255
721.497	136.33232
721.928	70.17327
722.359	69.16776
722.79	99.2379
723.221	164.40921
723.652	157.402
724.083	102.23149
724.514	136.31229
724.945	95.22464
725.375	43.10133
725.806	115.28732
726.236	141.35939
726.666	124.29372
727.096	106.26075
727.526	96.24431
727.956	89.20392
728.386	117.28818
728.816	86.2184
729.246	89.21727
729.675	89.21994
730.105	115.28325
730.534	122.28574
730.964	125.31546
731.393	152.37555
731.822	99.25332
732.251	91.23171
732.68	129.30409
733.109	96.23737
733.537	98.23751
733.966	112.27815
734.395	121.27979
734.823	130.29372
735.251	109.26302
735.68	138.34434
736.108	100.2535
736.536	139.32702
736.964	85.19881
737.392	147.36553
737.82	140.33482
738.247	132.31557
738.675	150.35682
739.102	75.18847
739.53	56.14377
739.957	66.17086
740.384	138.33934
740.811	146.36773
741.238	95.2327
741.665	93.21684
742.092	159.37713
742.519	91.22587
742.945	87.21009
743.372	68.16968
743.798	125.32018
744.225	107.25497
744.651	110.27597
745.077	93.23261
745.503	130.31636
745.929	115.27603
746.355	124.30806
746.781	84.20922
747.207	28.06679
747.632	65.15969
748.058	129.32078
748.483	112.25852
748.908	139.3435
749.334	97.23892
749.759	61.14542
750.184	78.18704
750.609	132.32327
751.033	112.2654
751.458	137.30695
751.883	92.22881
752.307	76.1803
752.732	50.12603
753.156	73.18146
753.58	132.31279
754.005	100.25413
754.429	104.24502
754.853	69.17208
755.277	111.26298
755.7	141.34767
756.124	69.17233
756.548	93.22127
756.971	78.19166
757.394	96.2475
757.818	105.2699
758.241	74.18865
758.664	102.25756
759.087	-4.00915
759.51	125.31004
759.933	70.16965
760.356	81.20835
760.778	92.22681
761.201	62.15223
761.623	111.26947
762.046	126.29857
762.468	148.35341
762.89	112.27632
763.312	97.23742
763.734	108.26007
764.156	88.21799
764.578	83.19238
765	113.27545
765.421	75.1911
765.843	113.29531
766.264	162.38773
766.686	105.26366
767.107	92.22355
767.528	62.15739
767.949	89.22669
768.37	92.22631
768.791	128.30858
769.212	43.10899
769.632	62.14573
770.053	94.24737
770.473	131.31706
770.894	98.2456
771.314	154.36492
771.734	97.22661
772.154	134.34173
772.575	105.24376
772.994	63.14446
773.414	106.25467
773.834	60.15102
774.254	110.26879
774.673	120.29137
775.093	101.24969
775.512	44.10943
775.931	97.24576
776.351	88.21879
776.77	38.09389
777.189	111.26359
777.607	96.24491
778.026	92.22923
778.445	61.1534
778.864	93.23847
779.282	55.13342
779.701	74.18712
780.119	66.16743
780.537	83.20737
780.955	113.2864
781.373	97.23971
781.791	57.12923
782.209	134.30696
782.627	64.16911
783.045	90.20741
783.462	94.23981
783.88	99.25536
784.297	76.19156
784.715	76.19532
785.132	96.23222
785.549	60.1508
785.966	87.21878
786.383	73.18007
786.8	132.30444
787.217	53.12659
787.633	34.08561
788.05	117.27687
788.466	160.37269
788.883	71.18136
789.299	84.20251
789.715	72.17554
790.131	74.18438
790.547	68.17036
790.963	83.20609
791.379	74.18732
791.795	104.2369
792.21	105.24482
792.626	104.24606
793.041	92.22673
793.457	95.23434
793.872	61.14419
794.287	39.09386
794.702	94.23123
795.117	82.20365
795.532	63.15831
795.947	112.26837
796.362	108.25701
796.776	154.35645
797.191	93.22721
797.605	39.09233
798.02	68.16592
798.434	68.1522
798.848	67.16539
799.262	72.17881
799.676	114.27659
800.09	76.18716
800.504	136.32674
800.918	95.21967
801.331	96.25084
801.745	106.24252
802.158	57.14303
802.572	133.3196
802.985	127.30449
803.398	105.24934
803.811	153.38819
804.224	107.26501
804.637	67.16002
805.05	92.21295
805.462	115.28075
805.875	58.15067
806.288	61.14759
806.7	99.24779
807.112	98.22656
807.525	90.22164
807.937	82.20246
808.349	86.21506
808.761	124.30244
809.173	66.16032
809.584	99.24376
809.996	34.08388
810.408	34.08829
810.819	80.18811
811.231	51.13219
811.642	36.08646
812.053	106.2506
812.464	145.34021
812.875	135.34118
813.286	142.36098
813.697	188.43047
814.108	152.36615
814.519	146.32111
814.929	126.31838
815.34	81.19627
815.75	101.25526
816.16	130.32073
816.571	102.26351
816.981	108.25355
817.391	124.29667
817.801	49.1222
818.211	121.28601
818.62	60.14481
819.03	119.28921
819.44	143.36885
819.849	113.28263
820.259	122.30948
820.668	76.18675
821.077	85.21052
821.486	114.27254
821.895	128.31312
822.304	64.16967
822.713	99.23292
823.122	106.26287
823.531	64.15201
823.939	123.2968
824.348	91.2205
824.756	137.33905
825.164	106.26507
825.573	101.25198
825.981	108.26606
826.389	123.30608
826.797	52.13065
827.205	89.20359
827.612	126.30777
828.02	52.12256
828.428	51.13027
828.835	68.17889
829.243	103.24403
829.65	54.1346
830.057	104.25081
830.464	98.23751
830.871	120.28469
831.278	75.18112
831.685	126.27817
832.092	104.25299
832.499	112.24302
832.905	68.17213
833.312	104.23575
833.718	92.22823
834.124	105.23835
834.531	90.22596
834.937	71.18206
835.343	75.18077
835.749	101.23457
836.155	88.22947
836.561	54.13313
836.966	90.21918
837.372	83.21059
837.777	52.12985
838.183	96.21239
838.588	71.1761
838.993	118.28458
839.399	45.11043
839.804	46.11249
840.209	71.18046
840.613	78.17321
841.018	83.20947
841.423	99.25234
841.828	89.22405
842.232	127.31108
842.637	64.15107
843.041	46.11822
843.445	105.26138
843.849	99.24349
844.253	88.20829
844.657	56.14115
845.061	99.22318
845.465	73.17602
845.869	100.23082
846.272	14.0344
846.676	85.2048
847.079	69.17519
847.483	130.32038
847.886	125.30072
848.289	97.2572
848.692	60.15199
849.095	86.20568
849.498	136.34021
849.901	107.24338
850.304	76.18121
850.707	82.20831
851.109	105.26366
851.512	109.2655
851.914	46.1162
852.316	70.17676
852.718	37.09587
853.121	79.19293
853.523	86.20009
853.925	71.18479
854.326	50.12522
854.728	53.13643
855.13	47.12144
855.531	69.16461
855.933	119.28259
856.334	56.13969
856.736	53.11894
857.137	100.23073
857.538	65.16322
857.939	41.10162
858.34	90.21812
858.741	110.28496
859.142	108.25711
859.542	93.24387
859.943	56.13923
860.343	19.04738
860.744	115.27771
861.144	53.12944
861.544	19.046
861.945	72.18304
862.345	115.27834
862.745	91.2248
863.145	76.18114
863.544	92.23106
863.944	96.2252
864.344	116.28514
864.743	108.26557
865.143	115.2924
865.542	58.13457
865.941	108.26489
866.34	99.23537
866.74	75.20066
867.139	74.17664
867.537	77.19551
867.936	98.23411
868.335	114.28714
868.734	96.24362
869.132	113.25974
869.531	103.24704
869.929	48.10965
870.327	63.15087
870.726	102.2523
871.124	92.21362
871.522	106.26766
871.92	110.26869
872.318	74.18035
872.715	99.24322
873.113	43.10505
873.511	91.2253
873.908	39.09874
874.306	75.18589
874.703	81.20179
875.1	75.19124
875.497	84.20036
875.894	56.1372
876.291	86.20991
876.688	62.15973
877.085	129.30527
877.482	60.1501
877.878	64.15382
878.275	52.13219
878.671	120.26382
879.068	111.26521
879.464	62.1497
879.86	48.1137
880.256	71.17475
880.652	33.08426
881.048	136.33207
881.444	112.26376
881.84	91.22982
882.236	88.21998
882.631	120.29104
883.027	100.24016
883.422	82.20868
883.817	42.10579
884.213	64.16397
884.608	60.147
885.003	56.135
885.398	38.0954
885.793	63.15791
886.188	57.14164
886.582	135.34143
886.977	114.26753
887.371	109.27302
887.766	45.1121
888.16	94.23294
888.554	82.20179
888.949	70.1753
889.343	103.24939
889.737	22.05893
890.131	60.15037
890.525	64.16339
890.918	91.22752
891.312	64.15289
891.706	105.27309
892.099	112.2821
892.492	102.21792
892.886	66.16116
893.279	82.20787
893.672	65.16515
894.065	61.15257
894.458	94.23472
894.851	95.23106
895.244	79.20087
895.637	77.18468
896.029	89.21622
896.422	65.15851
896.814	108.26587
897.206	22.05272
897.599	108.26449
897.991	40.09698
898.383	72.16956
898.775	101.22583
899.167	74.1719
899.559	96.24119
899.951	85.1992
900.342	113.28436
900.734	24.05987
901.125	133.34425
901.517	97.23619
901.908	85.20263
902.299	68.16579
902.69	73.17162
903.082	82.19753
903.473	36.08649
903.863	96.2431
904.254	95.21871
904.645	100.24663
905.036	47.11393
905.426	133.2997
905.817	90.21935
906.207	50.11922
906.597	68.15858
906.987	92.23685
907.378	102.25571
907.768	63.16627
908.158	98.23697
908.547	51.13178
908.937	87.22191
909.327	67.16229
909.717	122.30596
910.106	98.23339
910.495	78.19385
910.885	84.21158
911.274	112.27693
911.663	109.2739
912.052	121.29484
912.441	84.21241
912.83	71.16241
913.219	88.22892
913.608	98.23804
913.997	88.21919
914.385	126.29684
914.774	91.22
915.162	38.09081
915.55	97.23274
915.939	70.17612
916.327	93.23042
916.715	42.10723
917.103	108.26312
917.491	135.32896
917.878	62.15218
918.266	80.20646
918.654	71.18078
919.041	53.13832
919.429	66.15537
919.816	95.23898
920.203	69.16682
920.591	101.24822
920.978	97.23557
921.365	105.273
921.752	91.21535
922.139	93.2002
922.525	57.13676
922.912	72.17495
923.299	68.16851
923.685	92.23834
924.072	126.28631
924.458	92.22623
924.844	41.10166
925.231	64.14861
925.617	64.16241
926.003	74.18839
926.389	56.14115
926.774	64.16184
927.16	68.16839
927.546	66.16802
927.931	101.24978
928.317	91.208
928.702	71.16737
929.088	42.09953
929.473	82.2075
929.858	39.0945
930.243	41.0986
930.628	62.15054
931.013	93.22873
931.398	79.18071
931.783	83.21735
932.167	84.20411
932.552	81.20186
932.937	78.19265
933.321	68.17011
933.705	83.20805
934.09	101.25298
934.474	86.20293
934.858	72.18607
935.242	68.15708
935.626	54.13815
936.009	60.15934
936.393	75.19002
936.777	61.15592
937.16	105.27065
937.544	67.15739
937.927	18.04594
938.311	82.19903
938.694	82.21572
939.077	65.15519
939.46	117.28382
939.843	89.18417
940.226	71.18148
940.609	37.08518
940.991	77.19509
941.374	30.07361
941.757	66.16242
942.139	94.20926
942.522	118.27529
942.904	60.14399
943.286	96.24197
943.668	93.23914
944.05	58.14268
944.432	68.16728
944.814	114.27753
945.196	6.01474
945.578	38.09053
945.959	68.15883
946.341	112.27184
946.722	98.22791
947.104	68.16201
947.485	72.16685
947.866	93.23252
948.247	44.11114
948.628	59.14371
949.009	40.10262
949.39	125.30698
949.771	133.30436
950.152	85.20728
950.532	36.08879
950.913	101.24132
951.293	63.16983
951.674	47.11376
952.054	61.15086
952.434	63.15603
952.814	77.18229
953.194	93.24163
953.574	81.19841
953.954	49.11641
954.334	77.19099
954.714	24.05878
955.093	140.33853
955.473	47.1176
955.853	52.13457
956.232	80.21822
956.611	90.21426
956.99	94.23438
957.37	67.17024
957.749	103.24327
958.128	59.14842
958.506	48.12456
958.885	26.06591
959.264	23.05665
959.643	75.16984
960.021	90.22139
960.4	92.20676
960.778	71.17424
961.156	51.12784
961.535	87.20133
961.913	119.27473
962.291	27.06955
962.669	48.12164
963.047	65.16545
963.424	91.23056
963.802	54.13269
964.18	163.40413
964.557	90.20567
964.935	159.36882
965.312	81.2098
965.69	84.20907
966.067	62.15066
966.444	117.28478
966.821	64.1646
967.198	86.20725
967.575	99.24124
967.952	111.2585
968.329	92.22213
968.705	93.19762
969.082	68.17385
969.458	33.07942
969.835	125.30003
970.211	83.21178
970.587	79.19566
970.963	100.25431
971.339	48.12538
971.715	82.20357
972.091	101.24639
972.467	68.16906
972.843	29.07225
973.219	158.37165
973.594	64.167
973.97	110.25885
974.345	72.1716
974.721	107.25634
975.096	80.1925
975.471	71.16776
975.846	90.21459
976.221	61.15461
976.596	42.10083
976.971	127.30912
977.346	115.26433
977.72	92.23264
978.095	69.17773
978.469	73.17349
978.844	73.18278
979.218	67.16009
979.593	102.24199
979.967	121.29087
980.341	95.21679
980.715	86.21529
981.089	96.23833
981.463	75.17136
981.837	47.11491
982.21	140.32006
982.584	97.23221
982.957	54.13475
983.331	97.22724
983.704	87.21231
984.078	22.0545
984.451	105.25967
984.824	55.13382
985.197	98.2359
985.57	86.21428
985.943	115.28064
986.316	140.33827
986.688	109.25994
987.061	72.16804
987.434	77.19972
987.806	88.21191
988.179	55.12965
988.551	70.17694
988.923	60.14749
989.295	117.28882
989.667	91.21568
990.039	59.14554
990.411	107.24348
990.783	93.21231
991.155	68.16282
991.527	125.30357
991.898	79.1958
992.27	65.16034
992.641	93.23151
993.012	112.26037
993.384	81.19205
993.755	83.21037
994.126	90.21483
994.497	93.22645
994.868	69.1579
995.239	81.19516
995.61	72.18044
995.98	67.16223
996.351	51.12627
996.722	94.21611
997.092	65.15346
997.462	52.12141
997.833	122.28518
998.203	79.19049
998.573	76.18833
998.943	72.16811
999.313	95.22568
999.683	92.21902
1000.053	87.19869
1000.423	76.18377
1000.792	59.15266
1001.162	90.21984
1001.531	89.21784
1001.901	54.1345
1002.27	132.29008
1002.639	64.1631
1003.009	86.20308
1003.378	92.23347
1003.747	60.14147
1004.116	67.15978
1004.485	59.14076
1004.853	58.14672
1005.222	79.19816
1005.591	84.19813
1005.959	56.12601
1006.328	29.06554
1006.696	47.11341
1007.064	57.14318
1007.433	86.2135
1007.801	111.26937
1008.169	93.23303
1008.537	98.21482
1008.905	53.12338
1009.273	122.29734
1009.64	38.09085
1010.008	125.29363
1010.375	130.31091
1010.743	121.27545
1011.11	101.23661
1011.478	71.17501
1011.845	141.32565
1012.212	109.24371
1012.579	86.20968
1012.946	127.29775
1013.313	79.18695
1013.68	87.19404
1014.047	41.09785
1014.414	108.25216
1014.78	62.1537
1015.147	134.31888
1015.513	75.17982
1015.88	123.31041
1016.246	122.29711
1016.612	112.25316
1016.978	120.29017
1017.344	81.199
1017.71	113.27226
1018.076	102.23806
1018.442	88.22482
1018.808	88.21839
1019.174	54.13533
1019.539	169.37973
1019.905	73.17135
1020.27	74.18177
1020.636	77.18363
1021.001	74.1763
1021.366	103.24478
1021.731	57.14636
1022.096	27.06836
1022.461	96.22511
1022.826	107.25145
1023.191	90.23444
1023.556	53.12411
1023.92	105.25547
1024.285	116.27954
1024.649	74.18049
1025.014	79.19459
1025.378	85.21229
1025.742	108.26528
1026.107	132.29349
1026.471	103.23789
1026.835	31.07709
1027.199	52.12508
1027.562	57.13228
1027.926	77.18728
1028.29	72.18142
1028.654	92.20982
1029.017	118.2863
1029.381	91.2156
1029.744	98.24772
1030.107	103.2411
1030.471	92.21843
1030.834	66.14961
1031.197	95.22681
1031.56	86.20143
1031.923	70.18028
1032.286	106.24613
1032.648	107.25301
1033.011	128.28909
1033.374	91.21209
1033.736	49.1288
1034.099	76.18426
1034.461	77.19349
1034.823	24.06002
1035.185	92.22973
1035.548	68.16486
1035.91	92.21851
1036.272	103.23182
1036.634	78.18975
1036.995	73.17075
1037.357	42.10229
1037.719	89.21476
1038.08	65.15382
1038.442	67.15843
1038.803	108.25632
1039.165	87.21799
1039.526	87.20867
1039.887	86.20426
1040.248	61.14992
1040.609	109.2663
1040.97	34.0833
1041.331	81.20384
1041.692	49.11434
1042.053	94.21204
1042.413	90.20799
1042.774	89.21476
1043.134	113.26565
1043.495	96.2392
1043.855	89.21419
1044.215	89.21922
1044.576	50.11949
1044.936	91.20682
1045.296	88.21799
1045.656	102.24776
1046.016	112.26704
1046.375	86.20709
1046.735	45.10207
1047.095	67.15622
1047.454	89.18689
1047.814	87.20755
1048.173	108.25503
1048.533	62.14163
1048.892	26.06266
1049.251	114.2827
1049.61	101.2462
1049.969	54.12712
1050.328	116.24783
1050.687	90.21722
1051.046	72.1745
1051.405	109.26808
1051.763	55.12627
1052.122	58.14436
1052.48	84.20457
1052.839	59.13849
1053.197	95.2215
1053.555	150.3349
1053.914	118.28479
1054.272	110.26277
1054.63	68.16561
1054.988	46.1093
1055.345	79.16897
1055.703	104.24759
1056.061	62.15906
1056.419	26.06754
1056.776	108.25888
1057.134	82.18852
1057.491	79.19666
1057.848	69.17108
1058.206	99.23047
1058.563	89.19447
1058.92	107.24368
1059.277	84.20579
1059.634	108.25107
1059.991	110.26036
1060.348	71.15967
1060.704	48.11436
1061.061	141.3215
1061.418	87.20938
1061.774	72.17692
1062.131	42.11113
1062.487	86.19953
1062.843	98.24205
1063.199	60.14885
1063.555	39.0905
1063.911	94.2354
1064.267	127.26021
1064.623	33.08035
1064.979	113.2643
1065.335	106.2505
1065.691	136.3204
1066.046	84.18328
1066.402	87.19605
1066.757	79.19823
1067.112	88.21431
1067.468	74.1738
1067.823	138.326
1068.178	100.23943
1068.533	105.25174
1068.888	109.25734
1069.243	75.18412
1069.598	69.16694
1069.952	41.09243
1070.307	59.1457
1070.662	54.12801
1071.016	81.18021
1071.371	99.22282
1071.725	93.22051
1072.079	95.22638
1072.434	41.09972
1072.788	84.19859
1073.142	100.24354
1073.496	44.10443
1073.85	70.16158
1074.203	82.19761
1074.557	56.14866
1074.911	128.30074
1075.265	76.17563
1075.618	101.24409
1075.971	50.11885
1076.325	59.14959
1076.678	67.15259
1077.031	104.23258
1077.385	99.21568
1077.738	37.08368
1078.091	79.17846
1078.444	111.25442
1078.796	56.13715
1079.149	119.29203
1079.502	35.08286
1079.855	72.16705
1080.207	112.27256
1080.56	77.19793
1080.912	79.19114
1081.264	81.19376
1081.617	74.17941
1081.969	38.09599
1082.321	71.17256
1082.673	62.14106
1083.025	35.08321
1083.377	-114.25316
1083.728	86.19906
1084.08	83.20579
1084.432	37.08939
1084.783	125.28835
1085.135	48.12025
1085.486	43.09844
1085.838	97.23663
1086.189	33.08029
1086.54	94.2224
1086.891	50.12634
1087.242	93.22441
1087.593	120.28809
1087.944	49.11083
1088.295	84.18948
1088.646	65.15697
1088.996	66.15839
1089.347	58.14199
1089.698	45.10637
1090.048	86.22179
1090.398	90.20691
1090.749	85.20185
1091.099	33.08316
1091.449	40.09974
1091.799	56.13994
1092.149	36.08794
1092.499	92.22246
1092.849	46.1169
1093.199	93.23109
1093.548	87.20739
1093.898	79.19645
1094.248	84.21437
1094.597	41.10473
1094.947	93.2461
1095.296	76.18661
1095.645	16.04182
1095.994	92.21902
1096.343	83.20744
1096.692	56.14682
1097.041	25.0679
1097.39	68.16986
1097.739	76.19648
1098.088	94.24979
1098.437	34.08948
1098.785	78.20913
1099.134	93.24495
1099.482	82.22418
1099.83	101.26287
1100.179	39.10182
1100.527	73.19305
1100.875	74.19467
1101.223	105.27599
1101.571	49.13531
1101.919	37.09679
1102.267	36.10148
1102.615	4.01286
1102.962	25.08035
1103.31	10.03211
1103.658	33.10601
