Data from N2 R11 sample 3_Subt2__0__14-41-51-150.txt Node

Date: Mon Sep 01 14:41:51 PDT 2025
User: uwsun
Spectrometer: HDX01956
Trigger mode: 0
Integration Time (sec): 5.000000E-1
Scans to average: 1
Nonlinearity correction enabled: true
Boxcar width: 0
Storing dark spectrum: false
XAxis mode: Wavelengths
Number of Pixels in Spectrum: 2068
>>>>>Begin Spectral Data<<<<<
194.03	-61.17281
194.578	-68.21682
195.127	-70.22006
195.676	-64.20164
196.225	14.03705
196.773	-56.1549
197.321	-67.18179
197.87	-39.09719
198.418	-98.24374
198.966	-115.28856
199.513	-185.44876
200.061	-149.36483
200.609	-96.24577
201.156	-160.33976
201.704	-145.35279
202.251	-122.31102
202.798	-134.33606
203.345	-89.212
203.892	-132.32111
204.438	-109.25174
204.985	-125.28387
205.532	-138.35019
206.078	-142.33779
206.624	-175.41748
207.17	-98.21916
207.716	-133.3112
208.262	-115.22058
208.808	-192.45812
209.354	-121.28301
209.899	-90.21943
210.445	-139.33237
210.99	-156.36351
211.535	-52.11672
212.08	-98.21962
212.625	-102.24581
213.17	-126.3088
213.715	-172.3705
214.259	-88.19729
214.804	-111.26521
215.348	-124.27525
215.892	-111.25708
216.436	-68.15157
216.98	-83.17744
217.524	-121.27645
218.068	-84.20335
218.612	-87.21097
219.155	-114.25946
219.698	-123.28419
220.242	-84.20228
220.785	-69.15511
221.328	-85.20418
221.871	-66.16128
222.414	-56.13408
222.956	-119.27692
223.499	-78.16932
224.041	-45.10091
224.583	-60.12563
225.126	-70.14878
225.668	-122.28753
226.21	-123.2996
226.751	-138.29368
227.293	-75.16562
227.835	-113.26679
228.376	-38.08428
228.918	-44.10652
229.459	-136.32799
230	-115.26528
230.541	-107.23944
231.082	-88.20539
231.622	-112.25089
232.163	-109.25485
232.704	-107.25566
233.244	-102.24385
233.784	-98.23276
234.324	-172.36811
234.864	-114.25042
235.404	-88.20215
235.944	-92.21075
236.484	-53.12668
237.023	-86.1951
237.563	-111.24747
238.102	-129.29568
238.641	-122.29822
239.18	-124.27937
239.719	-87.2097
240.258	-70.15111
240.797	-83.19002
241.335	-94.22154
241.874	-116.21632
242.412	-109.25194
242.95	-130.29887
243.488	-69.15071
244.026	-123.27331
244.564	-127.25396
245.102	-116.25095
245.64	-110.25612
246.177	-110.23787
246.715	-70.16087
247.252	-86.18979
247.789	-38.06868
248.326	-145.33489
248.863	-120.25327
249.4	-136.29937
249.936	-98.19374
250.473	-91.20254
251.009	-149.32943
251.546	-149.31799
252.082	-106.22313
252.618	-125.26758
253.154	-129.29722
253.69	-108.23324
254.226	-103.23485
254.761	-123.26558
255.297	-117.24558
255.832	-149.3396
256.367	-112.25254
256.903	-102.21395
257.438	-85.19044
257.972	-120.25649
258.507	-153.3363
259.042	-109.22656
259.576	-131.26913
260.111	-107.23677
260.645	-62.12729
261.179	-123.27388
261.713	-125.26596
262.247	-154.34241
262.781	-127.25455
263.315	-143.3346
263.849	-169.40579
264.382	-99.21696
264.915	-110.24427
265.449	-195.45465
265.982	-137.29923
266.515	-121.28057
267.048	-116.23374
267.58	-70.14514
268.113	-96.19611
268.646	-184.43601
269.178	-135.28686
269.71	-107.22231
270.243	-104.22566
270.775	-123.29669
271.307	-88.20077
271.838	-104.23546
272.37	-187.44183
272.902	-96.20679
273.433	-115.2385
273.965	-75.17143
274.496	-127.30054
275.027	-155.36609
275.558	-136.31279
276.089	-208.48773
276.62	-135.32687
277.15	-107.24988
277.681	-116.23945
278.211	-118.27421
278.741	-179.37604
279.272	-132.28458
279.802	-157.37296
280.332	-156.34858
280.861	-144.3284
281.391	-140.29989
281.921	-115.26158
282.45	-110.25895
282.98	-129.31703
283.509	-145.30851
284.038	-160.34569
284.567	-91.19952
285.096	-128.29109
285.625	-162.34791
286.153	-141.31044
286.682	-177.38332
287.21	-168.38143
287.739	-158.35174
288.267	-166.37796
288.795	-162.40232
289.323	-151.32981
289.851	-116.25352
290.378	-158.33361
290.906	-196.4459
291.433	-152.35489
291.961	-166.35204
292.488	-143.33237
293.015	-148.32387
293.542	-182.4306
294.069	-148.33793
294.596	-130.29959
295.122	-152.33768
295.649	-135.2771
296.175	-115.25829
296.702	-161.36487
297.228	-142.32136
297.754	-143.2975
298.28	-174.36723
298.806	-179.39989
299.332	-193.39687
299.857	-197.41441
300.383	-126.29453
300.908	-233.52589
301.433	-183.41068
301.958	-149.31882
302.483	-183.42063
303.008	-173.39621
303.533	-172.4148
304.058	-162.35316
304.582	-252.55423
305.107	-207.49722
305.631	-123.25658
306.155	-226.48619
306.679	-222.47779
307.203	-201.42822
307.727	-198.43163
308.251	-192.43521
308.775	-246.53558
309.298	-294.65203
309.822	-193.44485
310.345	-174.374
310.868	-190.41208
311.391	-220.49645
311.914	-211.47974
312.437	-203.42289
312.96	-229.4902
313.482	-207.44311
314.005	-205.46459
314.527	-224.53098
315.049	-206.47131
315.571	-290.58436
316.093	-181.39934
316.615	-250.54244
317.137	-221.42984
317.659	-224.48976
318.18	-200.431
318.702	-240.49807
319.223	-243.44427
319.744	-239.47461
320.265	-278.5983
320.786	-296.64963
321.307	-276.6088
321.828	-235.46623
322.348	-273.56567
322.869	-342.71481
323.389	-302.43381
323.909	-288.58086
324.43	-254.53842
324.95	-285.56596
325.47	-302.64324
325.989	-317.64714
326.509	-349.66297
327.029	-346.67089
327.548	-371.71851
328.067	-374.77545
328.587	-299.63561
329.106	-328.63265
329.625	-257.57697
330.144	-328.63629
330.662	-390.76525
331.181	-346.67987
331.7	-367.72233
332.218	-356.63955
332.736	-325.62791
333.255	-414.80544
333.773	-405.79787
334.291	-338.698
334.808	-376.68104
335.326	-383.70346
335.844	-465.88077
336.361	-412.84088
336.879	-416.77428
337.396	-463.90056
337.913	-437.79863
338.43	-452.80539
338.947	-432.81086
339.464	-479.8013
339.981	-500.9339
340.497	-482.94266
341.014	-503.96254
341.53	-533.93431
342.046	-548.05131
342.562	-481.93201
343.078	-481.86263
343.594	-479.87009
344.11	-521.94641
344.626	-512.98095
345.141	-528.90101
345.657	-463.77834
346.172	-548.99371
346.687	-547.92919
347.202	-564.92991
347.717	-575.01653
348.232	-552.01925
348.747	-557.92677
349.261	-595.91356
349.776	-577.97807
350.29	-640.13849
350.805	-581.04373
351.319	-609.01366
351.833	-661.05523
352.347	-620.02663
352.861	-620.00569
353.374	-582.93515
353.888	-664.13859
354.401	-638.01115
354.915	-684.03591
355.428	-697.20715
355.941	-656.02724
356.454	-636.9694
356.967	-696.12997
357.48	-603.91875
357.993	-719.21899
358.505	-698.1466
359.018	-681.11269
359.53	-722.15061
360.042	-727.0577
360.554	-692.10455
361.066	-717.14099
361.578	-658.89362
362.09	-722.11457
362.602	-741.02312
363.113	-695.00349
363.625	-776.0921
364.136	-679.9008
364.647	-847.20121
365.158	-824.19686
365.669	-762.12287
366.18	-790.14159
366.691	-758.98551
367.201	-832.21451
367.712	-829.10915
368.222	-875.18501
368.733	-866.05433
369.243	-880.08685
369.753	-854.11674
370.263	-895.22259
370.773	-880.23371
371.282	-941.235
371.792	-982.1465
372.301	-1006.29041
372.811	-1051.51957
373.32	-1095.10435
373.829	-1114.28123
374.338	-1113.12744
374.847	-1176.21847
375.356	-1256.34306
375.865	-1279.02686
376.373	-1299.12163
376.882	-1249.29911
377.39	-1296.1796
377.898	-1489.29702
378.407	-1519.02289
378.915	-1433.77208
379.423	-1572.99197
379.93	-1615.83393
380.438	-1769.9185
380.946	-1781.68747
381.453	-1951.70591
381.96	-2112.56455
382.468	-2316.30504
382.975	-2220.22523
383.482	-2322.95418
383.989	-2457.2523
384.495	-2518.76126
385.002	-2773.32623
385.509	-2887.37595
386.015	-3068.89159
386.521	-3154.91684
387.028	-3327.75177
387.534	-3417.6241
388.04	-3416.66105
388.546	-3925.52867
389.051	-4105.56072
389.557	-4316.69634
390.063	-4218.79331
390.568	-4599.05232
391.073	-4851.76569
391.578	-5163.95107
392.084	-5404.21347
392.589	-5908.28334
393.093	-6590.04008
393.598	-6861.98864
394.103	-7427.92603
394.607	-7997.36031
395.112	-8379.99707
395.616	-8974.64321
396.12	-10348.97472
396.624	-11367.58954
397.128	-12198.63708
397.632	-13071.1793
398.136	-14442.1336
398.639	-16856.27395
399.143	-19587.93676
399.646	-21506.39565
400.15	-23923.31414
400.653	-27290.55492
401.156	-31536.92555
401.659	-37543.94229
402.162	-36749.73862
402.664	-27972.06729
403.167	-15116.4088
403.67	-2083.00093
404.172	0
404.674	0
405.176	0
405.678	0
406.18	0
406.682	0
407.184	0
407.686	0
408.187	0
408.688	0
409.19	-6403.21843
409.691	-17826.78933
410.192	-24568.47916
410.693	-29029.60691
411.194	-31733.06967
411.694	-29617.0504
412.195	-26781.51556
412.696	-25892.50215
413.196	-26604.54956
413.696	-27241.40773
414.196	-25698.46986
414.696	-22872.66454
415.196	-19318.99629
415.696	-13320.43794
416.196	-10711.64647
416.695	-11055.48545
417.195	-11459.40019
417.694	-10758.93219
418.194	-9836.73149
418.693	-9817.45078
419.192	-9486.85583
419.691	-9320.44877
420.19	-8931.88492
420.688	-8340.22262
421.187	-7539.72253
421.685	-6881.63044
422.184	-5914.84399
422.682	-5228.44073
423.18	-4986.57401
423.678	-4809.06521
424.176	-4500.9513
424.674	-4158.30686
425.172	-3730.74537
425.669	-3399.5654
426.167	-3002.63698
426.664	-2944.73797
427.161	-2755.94283
427.659	-2587.31131
428.156	-2475.21468
428.652	-2358.83747
429.149	-2204.82386
429.646	-2078.79865
430.143	-1983.19323
430.639	-1861.25871
431.135	-1869.61107
431.632	-1711.47081
432.128	-1656.71952
432.624	-1650.96542
433.12	-1717.73648
433.616	-1619.6876
434.111	-1697.99064
434.607	-1616.09256
435.103	-1427.79279
435.598	-1343.75154
436.093	-1271.03344
436.588	-1200.97794
437.083	-1195.07249
437.578	-1166.14257
438.073	-1273.46728
438.568	-1087.28871
439.062	-1056.00769
439.557	-1021.21057
440.051	-1079.23727
440.546	-1100.29906
441.04	-1052.35638
441.534	-1048.51099
442.028	-926.22786
442.522	-980.3251
443.015	-968.17026
443.509	-943.35328
444.002	-954.37812
444.496	-905.1215
444.989	-916.34431
445.482	-932.40984
445.975	-962.28442
446.468	-917.15091
446.961	-847.04545
447.454	-910.25816
447.947	-928.35451
448.439	-864.32292
448.931	-884.21651
449.424	-832.34923
449.916	-794.21463
450.408	-891.26632
450.9	-869.35617
451.392	-902.51166
451.884	-803.19113
452.375	-893.47249
452.867	-797.19153
453.358	-829.2224
453.849	-796.09128
454.341	-798.18476
454.832	-819.16351
455.323	-878.47773
455.814	-782.21886
456.304	-806.27688
456.795	-756.17683
457.285	-708.08199
457.776	-692.09763
458.266	-780.29808
458.756	-749.27958
459.247	-782.31643
459.737	-757.27389
460.226	-757.20416
460.716	-729.248
461.206	-738.29086
461.695	-724.34292
462.185	-659.12426
462.674	-628.04566
463.163	-643.03402
463.653	-640.97319
464.142	-695.2503
464.63	-636.1659
465.119	-629.07468
465.608	-676.1741
466.096	-582.94684
466.585	-548.9528
467.073	-624.15594
467.561	-572.05468
468.05	-545.96992
468.538	-578.10684
469.026	-577.07696
469.513	-602.98822
470.001	-586.03845
470.489	-582.08174
470.976	-571.0452
471.463	-555.10759
471.951	-552.11715
472.438	-531.99599
472.925	-584.10271
473.412	-519.04233
473.899	-471.8734
474.385	-438.86959
474.872	-502.95389
475.359	-528.06508
475.845	-499.8476
476.331	-412.73295
476.817	-435.87915
477.303	-461.89155
477.789	-448.90231
478.275	-513.07814
478.761	-431.87466
479.247	-401.75471
479.732	-518.10372
480.218	-436.96809
480.703	-415.87794
481.188	-426.77832
481.673	-427.83766
482.158	-487.88868
482.643	-403.89056
483.128	-446.87927
483.612	-420.85292
484.097	-378.8058
484.581	-366.73987
485.066	-395.83637
485.55	-412.78895
486.034	-407.77127
486.518	-383.78293
487.002	-439.94941
487.486	-400.86194
487.969	-418.90575
488.453	-361.80809
488.936	-377.7532
489.42	-309.60101
489.903	-346.77786
490.386	-811.35835
490.869	-298.57561
491.352	-335.73877
491.835	-396.74694
492.318	-387.78932
492.8	-312.57664
493.283	-364.83373
493.765	-376.83836
494.247	-318.67467
494.73	-321.64042
495.212	-303.66513
495.694	-325.68395
496.175	-398.85947
496.657	-320.69105
497.139	-286.45674
497.62	-368.79402
498.102	-323.72721
498.583	-359.82871
499.064	-351.71557
499.545	-288.59688
500.026	-310.63328
500.507	-309.65629
500.988	-343.78612
501.469	-377.87233
501.949	-293.66453
502.43	-358.78303
502.91	-301.56955
503.39	-300.69268
503.87	-335.72546
504.35	-263.57004
504.83	-317.64067
505.31	-342.76761
505.79	-318.70084
506.269	-275.59197
506.749	-319.6731
507.228	-349.76158
507.707	-345.71389
508.187	-247.5429
508.666	-333.7583
509.145	-324.70239
509.623	-292.63383
510.102	-264.5894
510.581	-253.56496
511.059	-283.65305
511.538	-258.61676
512.016	-243.53455
512.494	-236.52798
512.972	-248.54567
513.45	-285.60743
513.928	-228.5063
514.406	-308.68506
514.884	-237.55995
515.361	-216.47426
515.839	-252.53045
516.316	-231.51157
516.793	-212.49458
517.27	-168.37291
517.747	-223.52606
518.224	-199.42396
518.701	-200.40987
519.178	-224.5096
519.654	-192.42175
520.131	-241.5526
520.607	-171.38974
521.083	-222.46936
521.56	-240.52696
522.036	-202.41078
522.512	-151.34193
522.987	-237.52026
523.463	-202.44334
523.939	-187.42379
524.414	-173.36905
524.89	-193.4235
525.365	-219.46109
525.84	-269.59547
526.315	-253.56939
526.79	-203.42515
527.265	-222.47203
527.74	-221.50084
528.215	-182.39659
528.689	-259.5393
529.164	-225.45849
529.638	-223.53544
530.112	-251.55377
530.587	-282.56824
531.061	-272.61628
531.534	-219.49712
532.008	-223.49982
532.482	-227.4897
532.956	-299.71898
533.429	-238.54167
533.903	-206.42751
534.376	-229.47599
534.849	-227.49453
535.322	-281.62981
535.795	-245.56424
536.268	-256.58027
536.741	-237.53666
537.213	-235.51261
537.686	-290.66933
538.158	-247.52027
538.631	-198.45137
539.103	-268.56835
539.575	-231.45679
540.047	-228.47317
540.519	-217.48838
540.991	-207.47617
541.463	-237.54146
541.934	-255.55317
542.406	-246.55262
542.877	-198.41862
543.348	-206.46733
543.82	-257.59825
544.291	-228.50356
544.762	-245.5471
545.233	-244.57481
545.703	-283.59531
546.174	-170.36729
546.645	-279.62713
547.115	-221.49758
547.585	-207.44503
548.056	-272.61403
548.526	-242.53023
548.996	-214.47936
549.466	-182.41221
549.935	-213.46482
550.405	-198.39989
550.875	-160.34584
551.344	-124.2702
551.814	-192.40665
552.283	-98.19302
552.752	-120.25104
553.221	-181.35792
553.69	-99.19715
554.159	-108.23694
554.628	-107.21337
555.096	-71.15993
555.565	-48.0949
556.033	13.02706
556.502	-15.03237
556.97	60.11678
557.438	84.17487
557.906	111.23144
558.374	152.30346
558.842	181.37471
559.31	258.49189
559.777	243.50171
560.245	376.73848
560.712	369.71464
561.18	412.74627
561.647	508.91271
562.114	547.99265
562.581	640.24708
563.048	691.23482
563.514	711.3499
563.981	894.50311
564.448	958.54214
564.914	1082.77015
565.381	1166.81321
565.847	1268.98771
566.313	1450.13797
566.779	1508.08943
567.245	1620.2841
567.711	1703.41874
568.176	1918.29858
568.642	1989.76496
569.108	2200.77835
569.573	2352.65453
570.038	2535.17211
570.504	2684.41135
570.969	2907.99313
571.434	3140.21523
571.899	3279.62183
572.363	3583.27092
572.828	3746.24718
573.293	3966.13252
573.757	4152.04016
574.222	4318.7543
574.686	4532.65136
575.15	4712.91215
575.614	5059.51007
576.078	5303.5126
576.542	5461.28214
577.006	5593.16075
577.469	5740.68773
577.933	5896.00012
578.396	5966.33777
578.86	6085.25162
579.323	6189.26724
579.786	6231.79026
580.249	6266.02022
580.712	6216.43646
581.175	6177.48644
581.637	6356.11109
582.1	6227.89861
582.563	6312.80009
583.025	6137.39709
583.487	6019.54727
583.95	5931.81628
584.412	5881.76263
584.874	5818.52305
585.336	5788.39258
585.797	5712.93649
586.259	5523.50961
586.721	5313.54727
587.182	5256.61091
587.643	5098.49459
588.105	5007.78471
588.566	4911.19321
589.027	4595.09745
589.488	4498.85267
589.949	4437.26394
590.41	4237.15848
590.87	4153.074
591.331	4077.80288
591.791	3900.22819
592.252	3780.21855
592.712	3651.60122
593.172	3578.24802
593.632	3453.186
594.092	3336.29993
594.552	3232.15811
595.011	3092.49469
595.471	3051.3999
595.931	2935.40146
596.39	2772.76283
596.849	2770.63249
597.308	2673.33022
597.768	2490.04588
598.227	2523.79897
598.685	2525.59425
599.144	2310.61825
599.603	2362.69201
600.062	2272.1659
600.52	2219.38921
600.978	2166.63972
601.437	2136.49321
601.895	2052.17139
602.353	2083.35613
602.811	1948.30083
603.269	1921.56622
603.727	1947.57811
604.184	1880.30959
604.642	1840.60297
605.099	1844.40739
605.557	1768.54299
606.014	1758.10164
606.471	1757.59453
606.928	1739.06124
607.385	1677.42868
607.842	1671.24481
608.299	1710.34235
608.755	1711.44689
609.212	1675.151
609.668	1691.13386
610.125	1659.43018
610.581	1726.45421
611.037	1794.36406
611.493	1674.39984
611.949	1581.36651
612.405	1663.87307
612.861	1723.43393
613.316	1633.39304
613.772	1708.32608
614.227	1650.37077
614.683	1720.13042
615.138	1578.2939
615.593	1607.29888
616.048	1662.30762
616.503	1699.58171
616.958	1606.55736
617.412	1578.34861
617.867	1538.10179
618.321	1566.96214
618.776	1619.18794
619.23	1522.29284
619.684	1494.17033
620.138	1513.27711
620.592	1411.30864
621.046	1374.18504
621.5	1381.28545
621.954	1351.06009
622.407	1357.03528
622.861	1261.16476
623.314	1185.92601
623.768	1210.00472
624.221	1188.61088
624.674	1135.90008
625.127	1172.98416
625.58	1164.92819
626.033	1197.89251
626.485	1017.84513
626.938	1021.84866
627.39	1034.81776
627.843	1027.80119
628.295	971.72852
628.747	988.811
629.199	965.69127
629.651	886.58376
630.103	883.59745
630.555	874.45262
631.006	875.63768
631.458	850.61156
631.909	890.63346
632.361	823.55838
632.812	769.45738
633.263	817.42153
633.714	803.39563
634.165	786.57776
634.616	730.45308
635.067	726.34663
635.518	747.49214
635.968	729.21131
636.419	734.3304
636.869	684.38602
637.319	683.34015
637.769	686.29761
638.219	748.5076
638.669	613.26715
639.119	691.44392
639.569	654.35957
640.019	687.35817
640.468	619.19723
640.918	640.33929
641.367	613.19466
641.816	605.17848
642.265	578.17467
642.714	613.23714
643.163	590.18983
643.612	528.12556
644.061	554.02908
644.51	559.12385
644.958	539.0487
645.406	607.27323
645.855	582.26285
646.303	545.13544
646.751	518.05157
647.199	635.25756
647.647	584.18419
648.095	552.12327
648.543	619.10475
648.99	551.17238
649.438	599.24481
649.885	565.24803
650.333	540.92845
650.78	500.0902
651.227	560.21557
651.674	529.07957
652.121	519.13815
652.568	522.14114
653.015	583.31783
653.461	481.03828
653.908	548.14347
654.354	530.14058
654.801	442.95079
655.247	574.12091
655.693	510.20883
656.139	529.14403
656.585	544.17427
657.031	479.01451
657.477	509.9924
657.922	532.10217
658.368	500.1247
658.813	556.1643
659.259	436.96608
659.704	508.07347
660.149	517.09133
660.594	512.10414
661.039	464.97063
661.484	506.10331
661.929	514.09329
662.373	458.06408
662.818	456.04314
663.262	445.99073
663.707	505.17092
664.151	490.09812
664.595	468.03841
665.039	510.16174
665.483	499.16565
665.927	468.01643
666.371	407.87759
666.814	549.19039
667.258	429.94285
667.701	538.05446
668.145	554.255
668.588	496.11933
669.031	459.99775
669.474	468.04185
669.917	461.94664
670.36	449.03471
670.803	484.07887
671.245	476.92563
671.688	484.09132
672.13	420.87977
672.573	493.15792
673.015	431.96831
673.457	501.00055
673.899	440.99683
674.341	411.93247
674.783	436.97653
675.225	447.02395
675.666	426.95767
676.108	428.87036
676.549	443.98179
676.991	420.86888
677.432	371.69961
677.873	470.00908
678.314	412.9262
678.755	386.88872
679.196	414.89134
679.637	417.96026
680.078	425.93563
680.518	442.96631
680.959	395.89473
681.399	421.98222
681.839	396.91174
682.28	375.87802
682.72	360.78441
683.16	362.85803
683.6	405.87328
684.039	340.67849
684.479	379.88252
684.919	301.66769
685.358	421.00542
685.798	379.94363
686.237	400.91617
686.676	372.82292
687.115	333.75064
687.554	366.82787
687.993	373.7853
688.432	329.72189
688.871	328.71409
689.309	381.86407
689.748	374.7446
690.186	392.88883
690.625	331.7443
691.063	340.78096
691.501	381.89555
691.939	333.79615
692.377	322.75499
692.815	376.85464
693.253	323.74771
693.69	338.7124
694.128	317.73847
694.565	332.76045
695.003	306.74903
695.44	336.75724
695.877	283.64029
696.314	352.72495
696.751	381.82752
697.188	323.7135
697.625	314.69667
698.061	257.60061
698.498	328.76364
698.934	318.73774
699.371	236.54341
699.807	330.7501
700.243	267.62471
700.679	325.70861
701.115	320.72679
701.551	259.59505
701.987	306.66563
702.422	271.62536
702.858	300.69075
703.294	310.67835
703.729	277.65824
704.164	322.74584
704.599	312.6706
705.035	282.61213
705.47	274.64673
705.904	261.5922
706.339	322.72243
706.774	258.58908
707.209	262.58832
707.643	314.72702
708.078	248.58946
708.512	259.62989
708.946	258.6033
709.38	274.63115
709.814	266.59264
710.248	301.70921
710.682	283.65253
711.116	214.50081
711.549	282.70563
711.983	266.59828
712.416	274.63014
712.85	286.69098
713.283	250.57771
713.716	269.65763
714.149	304.7008
714.582	313.67782
715.015	287.69693
715.448	289.70572
715.881	290.61607
716.313	239.54801
716.746	217.50176
717.178	241.56631
717.61	243.60201
718.043	250.60812
718.475	254.60046
718.907	273.67212
719.339	232.51496
719.77	225.52253
720.202	207.51453
720.634	223.53157
721.065	239.55416
721.497	230.55214
721.928	191.46227
722.359	169.40317
722.79	188.44411
723.221	246.60465
723.652	252.63444
724.083	215.47674
724.514	203.45987
724.945	210.48548
725.375	200.45685
725.806	190.46823
726.236	237.5938
726.666	227.52696
727.096	207.49967
727.526	222.55231
727.956	187.42
728.386	210.50835
728.816	135.33984
729.246	163.39243
729.675	160.39023
730.105	227.54753
730.534	218.50097
730.964	218.54098
731.393	229.55777
731.822	202.50749
732.251	165.41461
732.68	233.53811
733.109	182.44289
733.537	124.29905
733.966	202.49339
734.395	162.37154
734.823	154.34624
735.251	181.4308
735.68	215.52895
736.108	158.39638
736.536	206.47831
736.964	169.38876
737.392	166.41135
737.82	151.36037
738.247	202.47644
738.675	194.45757
739.102	103.25752
739.53	139.35167
739.957	164.41735
740.384	196.47678
740.811	148.37263
741.238	147.35659
741.665	124.28736
742.092	157.37253
742.519	105.25996
742.945	124.29735
743.372	126.31109
743.798	135.34519
744.225	131.31072
744.651	131.32741
745.077	157.38812
745.503	177.42694
745.929	152.36227
746.355	164.40446
746.781	124.3066
747.207	84.19821
747.632	100.24408
748.058	125.31106
748.483	156.35692
748.908	87.21705
749.334	144.35161
749.759	87.20636
750.184	105.25049
750.609	123.30173
751.033	166.38925
751.458	154.34383
751.883	127.31385
752.307	92.21759
752.732	62.15594
753.156	133.32698
753.58	141.33354
754.005	138.34833
754.429	107.25194
754.853	94.23336
755.277	103.2444
755.7	120.29704
756.124	97.24103
756.548	82.19551
756.971	135.32822
757.394	122.3131
757.818	112.28754
758.241	94.23879
758.664	107.26994
759.087	23.05234
759.51	110.27358
759.933	87.21017
760.356	103.26393
760.778	77.19036
761.201	110.26769
761.623	108.26233
762.046	128.3032
762.468	164.39042
762.89	114.28115
763.312	117.28531
763.734	96.2317
764.156	89.22043
764.578	108.24909
765	90.22033
765.421	28.07194
765.843	111.29018
766.264	122.29422
766.686	114.2858
767.107	99.24025
767.528	40.10194
767.949	67.17132
768.37	94.23115
768.791	98.2376
769.212	64.16161
769.632	55.12945
770.053	60.1588
770.473	109.26491
770.894	112.27997
771.314	92.22062
771.734	100.23348
772.154	75.19326
772.575	98.22782
772.994	73.16706
773.414	122.29222
773.834	101.25234
774.254	76.18689
774.673	98.23893
775.093	104.25696
775.512	62.1537
775.931	116.2929
776.351	50.12517
776.77	93.22746
777.189	75.17934
777.607	102.25994
778.026	73.18252
778.445	34.08591
778.864	91.23342
779.282	68.16455
779.701	79.19959
780.119	58.14734
780.537	57.14308
780.955	121.30624
781.373	67.16649
781.791	49.11128
782.209	106.24418
782.627	48.12717
783.045	81.187
783.462	67.17174
783.88	67.17378
784.297	65.16416
784.715	72.18517
785.132	58.14131
785.549	63.15826
785.966	76.19149
786.383	75.18494
786.8	105.24347
787.217	74.17603
787.633	38.09561
788.05	132.31146
788.466	101.23799
788.883	55.14088
789.299	53.12852
789.715	97.23539
790.131	119.29408
790.547	91.22703
790.963	80.19875
791.379	68.17232
791.795	115.26137
792.21	98.22881
792.626	88.20885
793.041	67.16588
793.457	115.28263
793.872	74.17447
794.287	47.11294
794.702	71.1754
795.117	76.18895
795.532	41.10344
795.947	127.30344
796.362	146.3449
796.776	116.27052
797.191	109.2655
797.605	8.01905
798.02	96.23301
798.434	103.22887
798.848	64.15807
799.262	69.17146
799.676	74.18089
800.09	91.22348
800.504	59.14382
800.918	45.10509
801.331	89.23283
801.745	71.16359
802.158	92.2294
802.572	61.14859
802.985	105.2528
803.398	104.24702
803.811	117.29875
804.224	76.1893
804.637	81.19294
805.05	104.24015
805.462	51.12599
805.875	23.06011
806.288	21.05119
806.7	75.18853
807.112	81.1879
807.525	87.21437
807.937	43.10693
808.349	103.25678
808.761	99.24259
809.173	78.18904
809.584	96.2365
809.996	31.07653
810.408	20.05206
810.819	45.10653
811.231	8.02089
811.642	-21.05098
812.053	59.14076
812.464	56.13368
812.875	87.22176
813.286	88.22585
813.697	118.27399
814.108	68.16641
814.519	66.1476
814.929	93.23638
815.34	65.15797
815.75	73.18542
816.16	37.09284
816.571	92.23809
816.981	82.19349
817.391	65.15726
817.801	69.17146
818.211	68.16238
818.62	69.16625
819.03	68.16684
819.44	119.30823
819.849	78.19632
820.259	103.26217
820.668	58.14299
821.077	26.06509
821.486	88.21143
821.895	105.25796
822.304	64.16967
822.713	60.14224
823.122	59.14757
823.531	76.18009
823.939	65.15857
824.348	108.26086
824.756	72.18031
825.164	95.23804
825.573	86.21514
825.981	87.21516
826.389	82.20558
826.797	71.17777
827.205	28.06484
827.612	89.21889
828.02	59.13887
828.428	86.21832
828.835	67.17629
829.243	75.17865
829.65	51.12719
830.057	55.13387
830.464	39.09557
830.871	82.19596
831.278	55.13332
831.685	90.20019
832.092	96.23388
832.499	61.1338
832.905	70.17713
833.312	77.1755
833.718	102.25258
834.124	100.22723
834.531	99.24815
834.937	70.17953
835.343	131.3124
835.749	110.25501
836.155	57.14942
836.561	59.14532
836.966	125.30243
837.372	73.18555
837.777	53.13232
838.183	52.1161
838.588	71.1761
838.993	123.29635
839.399	56.13715
839.804	15.03689
840.209	64.16287
840.613	102.22538
841.018	64.16207
841.423	63.1616
841.828	65.16434
842.232	102.251
842.637	66.15573
843.041	56.14367
843.445	77.19266
843.849	56.13882
844.253	77.18264
844.657	36.09107
845.061	100.22539
845.465	82.19738
845.869	73.16941
846.272	60.14618
846.676	88.21191
847.079	51.1299
847.483	106.26239
847.886	85.20604
848.289	57.15215
848.692	95.23915
849.095	77.18447
849.498	112.28139
849.901	111.25228
850.304	90.21401
850.707	78.19829
851.109	69.17439
851.512	64.1572
851.914	72.18103
852.316	107.26839
852.718	10.02603
853.121	55.13492
853.523	52.12179
853.925	20.05251
854.326	14.03529
854.728	63.16188
855.13	74.19031
855.531	47.1126
855.933	94.2243
856.334	33.08266
856.736	35.07884
857.137	72.16705
857.538	44.11091
857.939	98.24036
858.34	56.13659
858.741	78.20318
859.142	86.2056
859.542	71.18688
859.943	66.16379
860.343	14.03495
860.744	82.19925
861.144	88.21351
861.544	40.09647
861.945	60.15286
862.345	77.1877
862.745	46.11458
863.145	107.2535
863.544	115.28763
863.944	52.12303
864.344	100.24654
864.743	108.26557
865.143	112.28492
865.542	22.05141
865.941	64.15825
866.34	87.20731
866.74	80.21386
867.139	28.06743
867.537	66.1679
867.936	45.10859
868.335	73.18522
868.734	45.11523
869.132	76.17598
869.531	138.32878
869.929	52.11869
870.327	74.17684
870.726	55.13722
871.124	98.22728
871.522	64.16282
871.92	90.22066
872.318	97.23539
872.715	87.21421
873.113	71.17256
873.511	43.10739
873.908	14.0356
874.306	36.08986
874.703	77.19196
875.1	70.17865
875.497	63.15087
875.894	19.04687
876.291	72.1762
876.688	49.12652
877.085	70.16754
877.482	47.11785
877.878	59.14194
878.275	69.17488
878.671	130.2852
879.068	78.18754
879.464	39.09457
879.86	48.1137
880.256	94.23038
880.652	38.09695
881.048	112.2747
881.444	87.20588
881.84	56.14231
882.236	91.22736
882.631	75.18344
883.027	72.17384
883.422	60.15329
883.817	32.08075
884.213	61.15636
884.608	34.0837
885.003	61.14692
885.398	47.11781
885.793	45.11316
886.188	71.17598
886.582	148.37343
886.977	105.24684
887.371	71.17906
887.766	33.08239
888.16	124.30559
888.554	100.24526
888.949	77.19259
889.343	71.17294
889.737	22.05893
890.131	60.15037
890.525	105.26612
890.918	54.13592
891.312	107.2535
891.706	92.23981
892.099	95.24001
892.492	112.23877
892.886	69.16839
893.279	77.19537
893.672	62.15762
894.065	79.19695
894.458	75.18793
894.851	78.19031
895.244	42.10749
895.637	83.19884
896.029	63.1538
896.422	55.13437
896.814	53.13179
897.206	35.08366
897.599	119.29084
897.991	70.16876
898.383	60.14163
898.775	66.14864
899.167	34.0796
899.559	110.27567
899.951	130.30198
900.342	117.29422
900.734	16.03997
901.125	88.22954
901.517	43.10576
901.908	80.19089
902.299	70.1706
902.69	46.10871
903.082	72.17377
903.473	62.14822
903.863	81.20566
904.254	75.17336
904.645	136.33319
905.036	33.0802
905.426	88.20013
905.817	76.18571
906.207	25.05989
906.597	17.04004
906.987	87.22418
907.378	92.23106
907.768	78.20534
908.158	68.16536
908.547	58.14969
908.937	108.27446
909.327	122.29244
909.717	130.32556
910.106	72.17233
910.495	99.2451
910.885	65.16428
911.274	68.16949
911.663	82.20706
912.052	112.27337
912.441	79.19994
912.83	77.17593
913.219	87.22635
913.608	90.21894
913.997	18.0454
914.385	73.17375
914.774	59.1435
915.162	61.14514
915.55	114.27264
915.939	43.10871
916.327	100.24744
916.715	49.12494
917.103	144.34846
917.491	77.18966
917.878	109.26521
918.266	70.18097
918.654	57.14549
919.041	30.0786
919.429	81.19013
919.816	85.21421
920.203	82.19776
920.591	100.24581
920.978	51.12492
921.365	63.16498
921.752	57.13578
922.139	89.19176
922.525	35.08433
922.912	76.18454
923.299	34.08478
923.685	64.1666
924.072	104.23737
924.458	83.20444
924.844	53.13112
925.231	50.11642
925.617	40.10194
926.003	94.23846
926.389	66.16606
926.774	113.28324
927.16	87.21468
927.546	26.06666
927.931	100.24735
928.317	48.11066
928.702	92.21599
929.088	29.06889
929.473	80.20251
929.858	26.06315
930.243	59.1414
930.628	69.16732
931.013	40.09934
931.398	118.26781
931.783	71.18631
932.167	50.12227
932.552	57.14267
932.937	90.2218
933.321	46.11553
933.705	44.11106
934.09	132.32877
934.474	79.18666
934.858	62.16051
935.242	57.13196
935.626	66.1685
936.009	47.12508
936.393	72.18252
936.777	71.18117
937.16	62.16101
937.544	102.23797
937.927	51.1294
938.311	125.30095
938.694	77.20274
939.077	40.09596
939.46	113.27432
939.843	151.30812
940.226	66.16885
940.609	49.11254
940.991	82.20757
941.374	64.15604
941.757	71.17456
942.139	58.13008
942.522	103.24101
942.904	91.2171
943.286	127.31833
943.668	95.24419
944.05	94.22969
944.432	81.19878
944.814	83.20323
945.196	38.09282
945.578	56.13296
945.959	94.21844
946.341	143.34506
946.722	115.26655
947.104	111.26227
947.485	39.09097
947.866	71.17822
948.247	71.17848
948.628	86.20842
949.009	52.13313
949.39	76.18833
949.771	102.23487
950.152	88.21447
950.532	-11.02736
950.913	110.26237
951.293	16.04346
951.674	41.09935
952.054	28.06967
952.434	26.06483
952.814	83.19626
953.194	82.21346
953.574	84.20564
953.954	103.24214
954.334	54.1345
954.714	41.10009
955.093	132.31966
955.473	67.16703
955.853	105.26924
956.232	62.16961
956.611	108.25622
956.99	39.09821
957.37	77.1953
957.749	53.12639
958.128	51.12848
958.506	28.07291
958.885	73.18351
959.264	54.13225
959.643	76.17207
960.021	81.19958
960.4	67.15135
960.778	109.2656
961.156	68.16992
961.535	114.2624
961.913	88.20442
962.291	42.1079
962.669	76.19163
963.047	80.20309
963.424	87.22058
963.802	59.14484
964.18	109.27292
964.557	98.22359
964.935	108.25305
965.312	79.20469
965.69	107.2652
966.067	90.21754
966.444	99.24178
966.821	49.12635
967.198	98.23563
967.575	111.26987
967.952	72.16897
968.329	63.15294
968.705	84.17884
969.082	91.23171
969.458	63.15076
969.835	100.24117
970.211	50.12832
970.587	60.14912
970.963	148.37317
971.339	65.16929
971.715	108.26685
972.091	127.30831
972.467	87.21555
972.843	51.12654
973.219	109.25884
973.594	60.15667
973.97	96.22652
974.345	90.21376
974.721	92.22104
975.096	80.1925
975.471	133.31047
975.846	52.12489
976.221	57.14457
976.596	68.16244
976.971	78.19159
977.346	71.16463
977.72	77.19523
978.095	86.22087
978.469	91.21551
978.844	140.34629
979.218	48.1151
979.593	66.15767
979.967	82.19858
980.341	83.18986
980.715	76.1906
981.089	83.20654
981.463	73.16685
981.837	87.21113
982.21	125.28663
982.584	76.18266
982.957	32.08017
983.331	101.23642
983.704	87.21231
984.078	81.19848
984.451	114.28146
984.824	29.0709
985.197	78.18847
985.57	96.23876
985.943	110.26869
986.316	115.27918
986.688	98.2342
987.061	136.31341
987.434	55.1432
987.806	99.2379
988.179	41.09691
988.551	86.21677
988.923	101.24639
989.295	114.28157
989.667	38.09099
990.039	78.19173
990.411	100.22788
990.783	132.29897
991.155	68.16282
991.527	133.32251
991.898	32.07999
992.27	55.13592
992.641	95.2364
993.012	116.26946
993.384	86.20371
993.755	46.11735
994.126	88.21014
994.497	89.21687
994.868	81.18492
995.239	78.18804
995.61	52.13079
995.98	35.08525
996.351	26.06467
996.722	87.20029
997.092	60.1418
997.462	44.1029
997.833	86.20245
998.203	114.27306
998.573	72.17855
998.943	107.24811
999.313	38.09126
999.683	39.09379
1000.053	64.14684
1000.423	105.25251
1000.792	83.21387
1001.162	70.17162
1001.531	67.16466
1001.901	64.15912
1002.27	97.21473
1002.639	72.18323
1003.009	98.23088
1003.378	102.25838
1003.747	89.20866
1004.116	69.16449
1004.485	71.16899
1004.853	78.1966
1005.222	62.156
1005.591	71.16789
1005.959	70.15706
1006.328	33.07452
1006.696	44.10624
1007.064	75.18779
1007.433	99.24519
1007.801	107.25985
1008.169	87.21823
1008.537	82.18035
1008.905	57.13259
1009.273	109.2663
1009.64	63.14989
1010.008	107.25223
1010.375	136.32488
1010.743	150.33946
1011.11	100.23431
1011.478	56.13842
1011.845	110.25562
1012.212	75.16887
1012.579	76.18564
1012.946	90.21253
1013.313	98.23106
1013.68	159.34934
1014.047	102.24058
1014.414	68.16002
1014.78	101.24859
1015.147	133.31656
1015.513	82.19634
1015.88	93.23596
1016.246	125.30425
1016.612	107.2421
1016.978	80.1949
1017.344	70.17232
1017.71	140.33559
1018.076	81.18983
1018.442	89.22733
1018.808	50.12495
1019.174	57.14277
1019.539	158.35582
1019.905	66.15513
1020.27	42.10377
1020.636	74.17657
1021.001	53.12678
1021.366	65.1556
1021.731	65.16667
1022.096	22.05575
1022.461	76.17891
1022.826	75.17735
1023.191	57.14932
1023.556	61.14262
1023.92	119.28878
1024.285	92.22271
1024.649	104.25224
1025.014	80.19701
1025.378	68.17036
1025.742	57.14133
1026.107	66.14876
1026.471	86.1993
1026.835	101.24795
1027.199	50.12031
1027.562	112.25708
1027.926	74.18008
1028.29	72.18142
1028.654	97.221
1029.017	52.12773
1029.381	42.10045
1029.744	74.18786
1030.107	111.25942
1030.471	50.11967
1030.834	77.17415
1031.197	84.20097
1031.56	100.23358
1031.923	92.23603
1032.286	111.25748
1032.648	93.22051
1033.011	47.1079
1033.374	124.28713
1033.736	43.11314
1034.099	107.2579
1034.461	20.05077
1034.823	47.11704
1035.185	79.19773
1035.548	58.14088
1035.91	93.22085
1036.272	92.20753
1036.634	96.23275
1036.995	58.13606
1037.357	75.18153
1037.719	69.16713
1038.08	90.21195
1038.442	95.22342
1038.803	71.16971
1039.165	52.13112
1039.526	75.1803
1039.887	88.20893
1040.248	32.07907
1040.609	104.25432
1040.97	65.15833
1041.331	85.21375
1041.692	50.11665
1042.053	73.16538
1042.413	90.20799
1042.774	108.25967
1043.134	84.19859
1043.495	82.20483
1043.855	85.20472
1044.215	55.13632
1044.576	53.12659
1044.936	98.22242
1045.296	88.21799
1045.656	83.20233
1046.016	95.22725
1046.375	74.1786
1046.735	38.08631
1047.095	84.1952
1047.454	71.14969
1047.814	89.21224
1048.173	127.29879
1048.533	96.21779
1048.892	24.05786
1049.251	94.23396
1049.61	76.18613
1049.969	38.08973
1050.328	49.10621
1050.687	69.16719
1051.046	116.2788
1051.405	81.20025
1051.763	44.10124
1052.122	49.12216
1052.48	104.25233
1052.839	89.20768
1053.197	89.20776
1053.555	154.34354
1053.914	67.16326
1054.272	98.23465
1054.63	43.10521
1054.988	41.09751
1055.345	81.17317
1055.703	123.29175
1056.061	59.15145
1056.419	56.14472
1056.776	110.26358
1057.134	78.17947
1057.491	113.27956
1057.848	63.15638
1058.206	57.13379
1058.563	93.20304
1058.92	73.16739
1059.277	88.21543
1059.634	74.17319
1059.991	107.25341
1060.348	67.15079
1060.704	46.10964
1061.061	147.33477
1061.418	47.11397
1061.774	60.14776
1062.131	49.12949
1062.487	98.22683
1062.843	71.17623
1063.199	57.14148
1063.555	77.17734
1063.911	91.22801
1064.267	103.21218
1064.623	64.15493
1064.979	124.2894
1065.335	109.25744
1065.691	73.17409
1066.046	104.22595
1066.402	61.13819
1066.757	87.21799
1067.112	92.22389
1067.468	24.05692
1067.823	90.21459
1068.178	73.17569
1068.533	82.19746
1068.888	77.18292
1069.243	106.25873
1069.598	85.20503
1069.952	50.11251
1070.307	47.11632
1070.662	51.12097
1071.016	27.06074
1071.371	87.19629
1071.725	123.28995
1072.079	76.18176
1072.434	66.15977
1072.788	84.19859
1073.142	82.20037
1073.496	32.07612
1073.85	86.19787
1074.203	82.19761
1074.557	58.15392
1074.911	126.29615
1075.265	122.27936
1075.618	103.24883
1075.971	115.26993
1076.325	35.08912
1076.678	66.15034
1077.031	22.05003
1077.385	125.27082
1077.738	48.10832
1078.091	29.06618
1078.444	114.26114
1078.796	42.10313
1079.149	115.28242
1079.502	40.0946
1079.855	70.16248
1080.207	66.162
1080.56	63.16234
1080.912	95.22915
1081.264	76.18197
1081.617	61.14825
1081.969	65.1634
1082.321	68.16536
1082.673	37.0846
1083.025	61.1443
1083.377	-133.29651
1083.728	85.19678
1084.08	56.13953
1084.432	45.10855
1084.783	90.20906
1085.135	47.11777
1085.486	55.12561
1085.838	93.22704
1086.189	67.16198
1086.54	58.13818
1086.891	60.15134
1087.242	72.17443
1087.593	104.25044
1087.944	49.11083
1088.295	57.12929
1088.646	32.07776
1088.996	37.08928
1089.347	78.19024
1089.698	62.14607
1090.048	86.22179
1090.398	102.23394
1090.749	72.17141
1091.099	8.02025
1091.449	68.16869
1091.799	66.16463
1092.149	-17.04193
1092.499	24.05878
1092.849	67.16963
1093.199	111.27491
1093.548	67.16033
1093.898	68.16943
1094.248	82.20934
1094.597	6.01542
1094.947	48.12798
1095.296	53.13069
1095.645	94.24242
1095.994	41.09856
1096.343	101.25161
1096.692	31.08162
1097.041	81.218
1097.39	100.24835
1097.739	77.19903
1098.088	113.29933
1098.437	26.06852
1098.785	110.29338
1099.134	125.32745
1099.482	79.21608
1099.83	103.26798
1100.179	62.16123
1100.527	95.2503
1100.875	44.11634
1101.223	84.22158
1101.571	50.13805
1101.919	-13.0343
1102.267	74.20738
1102.615	0
1102.962	21.06753
1103.31	0
1103.658	20.06435
