Data from N2 R14 sample 2_Subt2__2__14-27-20-585.txt Node

Date: Tue Sep 02 14:27:20 PDT 2025
User: uwsun
Spectrometer: HDX01956
Trigger mode: 0
Integration Time (sec): 5.000000E-1
Scans to average: 1
Nonlinearity correction enabled: true
Boxcar width: 0
Storing dark spectrum: false
XAxis mode: Wavelengths
Number of Pixels in Spectrum: 2068
>>>>>Begin Spectral Data<<<<<
194.03	-74.21005
194.578	-84.26835
195.127	-87.27407
195.676	-86.27169
196.225	-46.12297
196.773	-40.11037
197.321	-85.2313
197.87	-79.1983
198.418	-89.22099
198.966	-143.36063
199.513	-147.35404
200.061	-137.3347
200.609	-102.26141
201.156	-211.45304
201.704	-150.3653
202.251	-131.33449
202.798	-73.18106
203.345	-84.1999
203.892	-124.30119
204.438	-110.2541
204.985	-126.28619
205.532	-179.45752
206.078	-122.2891
206.624	-135.31959
207.17	-81.18051
207.716	-123.28724
208.262	-113.21664
208.808	-192.45812
209.354	-149.35041
209.899	-93.22687
210.445	-132.31521
210.99	-135.31328
211.535	-98.22206
212.08	-99.2219
212.625	-102.24581
213.17	-71.17223
213.715	-181.39064
214.259	-73.16315
214.804	-93.22144
215.348	-93.2051
215.892	-82.18882
216.436	-70.15609
216.98	-99.21238
217.524	-123.28114
218.068	-78.18861
218.612	-85.20604
219.155	-78.17624
219.698	-78.17861
220.242	-58.13898
220.785	-120.27257
221.328	-73.17495
221.871	-50.12182
222.414	-60.14377
222.956	-142.33193
223.499	-69.14949
224.041	-52.11677
224.583	-54.11292
225.126	-72.15309
225.668	-99.23228
226.21	-108.26233
226.751	-97.20459
227.293	-104.23105
227.835	-76.17815
228.376	-51.11342
228.918	-64.15552
229.459	-117.28115
230	-100.22999
230.541	-74.16447
231.082	-88.20539
231.622	-86.19161
232.163	-120.28117
232.704	-97.23132
233.244	-60.14229
233.784	-38.08921
234.324	-122.25828
234.864	-98.21455
235.404	-86.19748
235.944	-115.26465
236.484	-79.18977
237.023	-54.12171
237.563	-110.24519
238.102	-33.07418
238.641	-108.26331
239.18	-130.29324
239.719	-112.27123
240.258	-78.16867
240.797	-115.26497
241.335	-73.17135
241.874	-124.23169
242.412	-75.17219
242.95	-133.30595
243.488	-84.18405
244.026	-107.23697
244.564	-58.11413
245.102	-109.23545
245.64	-99.23001
246.177	-138.3002
246.715	-65.14923
247.252	-71.15619
247.789	-43.07782
248.326	-110.25228
248.863	-83.17375
249.4	-77.1674
249.936	-108.21402
250.473	-129.28938
251.009	-126.27724
251.546	-100.21115
252.082	-86.18023
252.618	-106.22598
253.154	-149.34467
253.69	-108.23324
254.226	-121.2769
254.761	-82.1755
255.297	-182.38749
255.832	-118.26726
256.367	-83.18604
256.903	-67.13945
257.438	-91.20414
257.972	-113.24116
258.507	-126.27538
259.042	-104.21593
259.576	-140.28821
260.111	-115.2549
260.645	-78.16072
261.179	-106.23519
261.713	-110.23328
262.247	-100.21985
262.781	-91.18088
263.315	-149.34905
263.849	-108.25632
264.382	-96.21026
264.915	-131.29218
265.449	-170.39442
265.982	-114.24778
266.515	-113.26161
267.048	-137.27739
267.58	-81.16836
268.113	-129.2655
268.646	-151.35553
269.178	-127.26939
269.71	-121.25218
270.243	-96.20795
270.775	-140.33878
271.307	-134.30856
271.838	-60.13463
272.37	-130.30377
272.902	-102.22
273.433	-109.22576
273.965	-109.25084
274.496	-131.31024
275.027	-93.21701
275.558	-121.27746
276.089	-207.48529
276.62	-137.33183
277.15	-94.21896
277.681	-108.22253
278.211	-100.23156
278.741	-144.30018
279.272	-178.38754
279.802	-125.29512
280.332	-121.26842
280.861	-97.21912
281.391	-124.2647
281.921	-86.19447
282.45	-93.21821
282.98	-139.34224
283.509	-121.25611
284.038	-126.27025
284.567	-82.17944
285.096	-126.28643
285.625	-174.37465
286.153	-173.38345
286.682	-154.33187
287.21	-178.40496
287.739	-121.2673
288.267	-173.39446
288.795	-149.36916
289.323	-139.30283
289.851	-99.21559
290.378	-161.34017
290.906	-173.39175
291.433	-175.41043
291.961	-175.37186
292.488	-122.28238
293.015	-157.34422
293.542	-179.42326
294.069	-146.33323
294.596	-147.33991
295.122	-138.30569
295.649	-106.21615
296.175	-132.29751
296.702	-114.25589
297.228	-121.27266
297.754	-127.26327
298.28	-164.34537
298.806	-213.47918
299.332	-161.32868
299.857	-130.26943
300.383	-154.36196
300.908	-214.48113
301.433	-169.37817
301.958	-128.27264
302.483	-226.52392
303.008	-166.37964
303.533	-166.39988
304.058	-136.29484
304.582	-151.32506
305.107	-229.55235
305.631	-164.34522
306.155	-193.41225
306.679	-183.39055
307.203	-165.34877
307.727	-183.39767
308.251	-184.4164
308.775	-233.50588
309.298	-242.5309
309.822	-210.48567
310.345	-185.39859
310.868	-255.56071
311.391	-202.45416
311.914	-215.48923
312.437	-158.32585
312.96	-234.50145
313.482	-240.51741
314.005	-235.53581
314.527	-264.63061
315.049	-203.46416
315.571	-262.52453
316.093	-216.48005
316.615	-260.56534
317.137	-192.37086
317.659	-215.46919
318.18	-237.51478
318.702	-224.46321
319.223	-296.54844
319.744	-263.52519
320.265	-305.66021
320.786	-306.67299
321.307	-283.62515
321.828	-296.59562
322.348	-279.57888
322.869	-279.575
323.389	-461.6955
323.909	-282.56797
324.43	-254.53842
324.95	-279.55326
325.47	-316.67511
325.989	-323.66028
326.509	-365.69607
327.029	-322.62077
327.548	-342.65775
328.067	-394.82057
328.587	-353.75921
329.106	-324.62433
329.625	-269.6054
330.144	-367.71859
330.662	-408.80397
331.181	-323.63123
331.7	-359.70525
332.218	-325.5792
332.736	-355.69081
333.255	-396.76712
333.773	-375.73356
334.291	-338.698
334.808	-423.77538
335.326	-384.70548
335.844	-449.84714
336.361	-462.95362
336.879	-454.853
337.396	-454.88116
337.913	-467.85994
338.43	-447.79545
338.947	-474.89892
339.464	-498.83744
339.981	-553.04432
340.497	-455.88416
341.014	-518.99484
341.53	-589.04567
342.046	-484.91609
342.562	-466.89971
343.078	-479.8586
343.594	-491.89462
344.11	-500.90341
344.626	-556.07439
345.141	-500.84678
345.657	-476.80305
346.172	-553.00198
346.687	-558.95071
347.202	-589.97791
347.717	-540.94783
348.232	-581.08068
348.747	-567.94602
349.261	-642.99953
349.776	-548.92158
350.29	-644.1468
350.805	-551.98416
351.319	-553.90796
351.833	-676.08386
352.347	-647.07945
352.861	-658.07891
353.374	-603.97471
353.888	-667.14467
354.401	-630.99801
354.915	-707.07822
355.428	-670.15198
355.941	-734.17581
356.454	-634.96577
356.967	-646.03386
357.48	-681.06003
357.993	-687.15453
358.505	-734.21797
359.018	-673.09713
359.53	-754.21275
360.042	-715.03633
360.554	-753.22314
361.066	-774.25206
361.578	-731.01512
362.09	-737.14281
362.602	-746.03172
363.113	-773.14367
363.625	-762.06754
364.136	-781.07027
364.647	-915.326
365.158	-811.17316
365.669	-802.1965
366.18	-790.14159
366.691	-768.00031
367.201	-861.26825
367.712	-898.2295
368.222	-873.18151
368.733	-883.08172
369.243	-901.12123
369.753	-853.11505
370.263	-892.21728
370.773	-936.33607
371.282	-955.2594
371.792	-1014.19825
372.301	-1026.32528
372.811	-1071.55826
373.32	-1108.12369
373.829	-1158.35439
374.338	-1118.13493
374.847	-1188.2371
375.356	-1249.33176
375.865	-1312.07143
376.373	-1380.23895
376.882	-1346.45706
377.39	-1323.21941
377.898	-1539.37326
378.407	-1549.06198
378.915	-1562.92088
379.423	-1618.04966
379.93	-1716.95395
380.438	-1863.03479
380.946	-1895.81282
381.453	-2039.80479
381.96	-2140.59354
382.468	-2419.40324
382.975	-2405.39363
383.482	-2408.01566
383.989	-2480.27361
384.495	-2634.83966
385.002	-2887.38027
385.509	-2995.43567
386.015	-3223.93247
386.521	-3247.94516
387.028	-3501.79452
387.534	-3523.63471
388.04	-3608.69586
388.546	-3923.52851
389.051	-4307.55368
389.557	-4560.67217
390.063	-4373.75927
390.568	-4760.01754
391.073	-5006.71272
391.578	-5272.91903
392.084	-5442.19707
392.589	-6182.15621
393.093	-6793.93977
393.598	-7185.80788
394.103	-7681.78212
394.607	-8263.22599
395.112	-8684.87125
395.616	-9438.50574
396.12	-10576.96787
396.624	-11820.78934
397.128	-12588.97459
397.632	-13710.32645
398.136	-15112.98678
398.639	-17514.48929
399.143	-20244.03688
399.646	-22465.96425
400.15	-24787.90838
400.653	-28246.77735
401.156	-32744.11727
401.659	-38687.2076
402.162	-38151.0963
402.664	-30191.35213
403.167	-19076.36501
403.67	-2488.17183
404.172	0
404.674	0
405.176	0
405.678	0
406.18	0
406.682	0
407.184	0
407.686	0
408.187	0
408.688	0
409.19	-7138.34661
409.691	-18552.58874
410.192	-24960.79972
410.693	-29788.92
411.194	-32360.27403
411.694	-30362.24211
412.195	-27237.10615
412.696	-26534.31195
413.196	-27237.58327
413.696	-28003.42509
414.196	-26423.83814
414.696	-23431.7417
415.196	-19633.57067
415.696	-13692.7622
416.196	-10621.6081
416.695	-11099.77271
417.195	-11753.56346
417.694	-11093.15097
418.194	-10038.31959
418.693	-10103.00545
419.192	-9672.15362
419.691	-9675.95023
420.19	-9161.14907
420.688	-8452.33226
421.187	-7911.12348
421.685	-6994.67506
422.184	-5990.84028
422.682	-5327.40104
423.18	-5143.48506
423.678	-4973.98029
424.176	-4627.89284
424.674	-4309.24438
425.172	-3937.68255
425.669	-3466.55272
426.167	-3091.62295
426.664	-2920.73853
427.161	-2837.95419
427.659	-2680.34634
428.156	-2550.23287
428.652	-2408.86967
429.149	-2356.91793
429.646	-2144.83308
430.143	-2017.2191
430.639	-1940.32139
431.135	-1925.66895
431.632	-1840.59186
432.128	-1757.83114
432.624	-1752.0952
433.12	-1735.75604
433.616	-1651.72117
434.111	-1702.99694
434.607	-1639.12346
435.103	-1462.83234
435.598	-1356.76573
436.093	-1336.12268
436.588	-1206.98585
437.083	-1169.03627
437.578	-1188.1754
438.073	-1264.45187
438.568	-1103.31552
439.062	-1083.04599
439.557	-1030.22536
440.051	-1074.22916
440.546	-1058.22977
441.04	-1054.3599
441.534	-999.41805
442.028	-914.207
442.522	-1018.39399
443.015	-933.11343
443.509	-944.35515
444.002	-938.34817
444.496	-919.1446
444.989	-920.35186
445.482	-982.50799
445.975	-964.28796
446.468	-920.15592
446.961	-898.12887
447.454	-866.18006
447.947	-930.35828
448.439	-875.34419
448.931	-910.26302
449.424	-882.45068
449.916	-789.20516
450.408	-886.2572
450.9	-911.43932
451.392	-846.39591
451.884	-863.30385
452.375	-872.42941
452.867	-777.15451
453.358	-893.34293
453.849	-808.11212
454.341	-766.12604
454.832	-846.21228
455.323	-833.38465
455.814	-761.17877
456.304	-772.21092
456.795	-733.13327
457.285	-659.99408
457.776	-689.09191
458.266	-737.21186
458.756	-738.25703
459.247	-786.32462
459.737	-785.33119
460.226	-721.13493
460.716	-732.25416
461.206	-721.25543
461.695	-710.31232
462.185	-639.0842
462.674	-638.06527
463.163	-630.00932
463.653	-613.92458
464.142	-670.19752
464.63	-647.18939
465.119	-652.12095
465.608	-636.0928
466.096	-571.92606
466.585	-558.97276
467.073	-558.01646
467.561	-608.13129
468.05	-538.95572
468.538	-565.07851
469.026	-554.02806
469.513	-547.8841
470.001	-582.03027
470.489	-596.11167
470.976	-558.018
471.463	-541.0761
471.951	-446.88258
472.438	-540.01299
472.925	-541.01063
473.412	-437.86294
473.899	-479.89001
474.385	-483.969
474.872	-515.98169
475.359	-486.97299
475.845	-429.71486
476.331	-448.80446
476.817	-412.82828
477.303	-444.85517
477.789	-453.91343
478.275	-472.98518
478.761	-403.81261
479.247	-405.76298
479.732	-457.96297
480.218	-401.88392
480.703	-447.95225
481.188	-356.63889
481.673	-389.75626
482.158	-438.78933
482.643	-368.80728
483.128	-439.86405
483.612	-404.81744
484.097	-334.70521
484.581	-310.61862
485.066	-346.72477
485.55	-393.74911
486.034	-321.59551
486.518	-356.72329
487.002	-404.8672
487.486	-378.8107
487.969	-398.85874
488.453	-334.7435
488.936	-333.6585
489.42	-272.52438
489.903	-327.73229
490.386	-765.26502
490.869	-272.52211
491.352	-281.61269
491.835	-287.52685
492.318	-345.69694
492.8	-272.49768
493.283	-343.78233
493.765	-336.74299
494.247	-249.52033
494.73	-259.50928
495.212	-276.60242
495.694	-319.67044
496.175	-371.79654
496.657	-251.53404
497.139	-228.35806
497.62	-324.6925
498.102	-312.70086
498.583	-316.72323
499.064	-352.71777
499.545	-263.54202
500.026	-321.65739
500.507	-280.59094
500.988	-276.62407
501.469	-319.72965
501.949	-228.51029
502.43	-332.72218
502.91	-241.44932
503.39	-222.50464
503.87	-310.66774
504.35	-252.54491
504.83	-287.57605
505.31	-300.66755
505.79	-298.65402
506.269	-236.50377
506.749	-302.63485
507.228	-233.49596
507.707	-242.48921
508.187	-229.50143
508.666	-313.70989
509.145	-301.64933
509.623	-229.49041
510.102	-271.6059
510.581	-205.45324
511.059	-275.63358
511.538	-268.64188
512.016	-230.50458
512.494	-199.44181
512.972	-261.57584
513.45	-297.63465
513.928	-239.53194
514.406	-323.72065
514.884	-276.657
515.361	-249.55051
515.839	-196.40749
516.316	-234.51854
516.793	-212.49458
517.27	-226.50769
517.747	-241.5705
518.224	-218.46635
518.701	-212.43564
519.178	-291.67097
519.654	-213.46994
520.131	-220.50232
520.607	-234.5401
521.083	-258.54977
521.56	-217.47415
522.036	-178.36
522.512	-203.46454
522.987	-268.59214
523.463	-227.50083
523.939	-208.47339
524.414	-174.37126
524.89	-195.42807
525.365	-243.51432
525.84	-268.59313
526.315	-219.48945
526.79	-244.51564
527.265	-203.42985
527.74	-241.54838
528.215	-231.50859
528.689	-182.37247
529.164	-181.36514
529.638	-214.51295
530.112	-238.52367
530.587	-203.40161
531.061	-240.54025
531.534	-196.44284
532.008	-211.47176
532.482	-200.42896
532.956	-265.63312
533.429	-170.38159
533.903	-178.36709
534.376	-192.39579
534.849	-184.3972
535.322	-169.37006
535.795	-197.44936
536.268	-172.38322
536.741	-181.40519
537.213	-149.3191
537.686	-231.52691
538.158	-225.47164
538.631	-141.31773
539.103	-178.37007
539.575	-123.23707
540.047	-155.31643
540.519	-110.24214
540.991	-102.22971
541.463	-130.29061
541.934	-96.20119
542.406	-165.3645
542.877	-133.27719
543.348	-111.24695
543.82	-126.28573
544.291	-87.18648
544.762	-148.32387
545.233	-66.1501
545.703	-73.14645
546.174	-43.09038
546.645	-155.33955
547.115	-75.16381
547.585	-26.05372
548.056	-47.10122
548.526	-59.12428
548.996	-27.05815
549.466	4.00872
549.935	50.10302
550.405	38.07259
550.875	56.11544
551.344	88.18312
551.814	138.27116
552.283	154.28533
552.752	140.276
553.221	190.34307
553.69	320.57516
554.159	226.46085
554.628	291.52666
555.096	370.7579
555.565	493.85145
556.033	537.98739
556.502	592.10965
556.97	647.083
557.438	762.34624
557.906	882.52402
558.374	927.51946
558.842	1022.71907
559.31	1102.67638
559.777	1194.94342
560.245	1435.12778
560.712	1526.15786
561.18	1696.10733
561.647	1816.21641
562.114	1905.31915
562.581	2194.77614
563.048	2335.52866
563.514	2474.81424
563.981	2745.51842
564.448	2984.38054
564.914	3350.49475
565.381	3513.31703
565.847	3853.33202
566.313	3990.22797
566.779	4279.88312
567.245	4678.877
567.711	5023.82516
568.176	5378.2418
568.642	5688.77309
569.108	6180.47306
569.573	6616.20742
570.038	7031.82891
570.504	7480.2523
570.969	7949.98782
571.434	8435.29388
571.899	8987.3458
572.363	9444.42663
572.828	10041.19549
573.293	10552.07908
573.757	10977.90138
574.222	11651.54619
574.686	12103.18181
575.15	12664.22689
575.614	13131.97241
576.078	13525.75547
576.542	14078.78971
577.006	14411.98901
577.469	14890.847
577.933	15222.11252
578.396	15727.1697
578.86	15586.85276
579.323	15787.85751
579.786	16063.80767
580.249	16105.26274
580.712	16018.74504
581.175	16089.38217
581.637	15907.64615
582.1	15889.38011
582.563	15763.37792
583.025	15653.00549
583.487	15162.15801
583.95	15159.1045
584.412	14744.15856
584.874	14522.74489
585.336	14214.3352
585.797	13869.6395
586.259	13591.04987
586.721	13212.22993
587.182	12940.15782
587.643	12439.06879
588.105	12055.29573
588.566	11748.43678
589.027	11228.78923
589.488	11026.11829
589.949	10619.08817
590.41	10185.29517
590.87	10018.10392
591.331	9812.57976
591.791	9319.08955
592.252	8906.17245
592.712	8778.96868
593.172	8548.51104
593.632	8429.29828
594.092	7948.6807
594.552	7824.47683
595.011	7488.34939
595.471	7260.15135
595.931	6953.01538
596.39	6831.29033
596.849	6649.15421
597.308	6346.85769
597.768	6242.68923
598.227	6085.42409
598.685	5912.23148
599.144	5843.32422
599.603	5659.47822
600.062	5531.867
600.52	5437.20991
600.978	5312.64402
601.437	5281.46057
601.895	5166.08718
602.353	5050.40289
602.811	4912.46426
603.269	4864.93881
603.727	4893.9197
604.184	4771.60258
604.642	4749.14698
605.099	4664.85515
605.557	4655.17783
606.014	4624.43441
606.471	4509.36719
606.928	4572.41057
607.385	4527.15803
607.842	4587.79149
608.299	4634.89656
608.755	4559.12889
609.212	4604.60788
609.668	4622.55096
610.125	4645.11914
610.581	4842.96231
611.037	4736.78734
611.493	4719.99884
611.949	4664.10279
612.405	4686.08516
612.861	4772.96875
613.316	4715.046
613.772	4822.76305
614.227	4742.96371
614.683	4863.38291
615.138	4819.87615
615.593	4680.92213
616.048	4802.79593
616.503	4783.26969
616.958	4657.44463
617.412	4674.06651
617.867	4677.6398
618.321	4579.394
618.776	4632.72339
619.23	4564.10945
619.684	4501.94224
620.138	4445.15977
620.592	4354.47766
621.046	4303.31246
621.5	4281.53353
621.954	4152.16507
622.407	4081.13608
622.861	3920.73624
623.314	3973.33469
623.768	3790.54818
624.221	3751.68784
624.674	3724.5266
625.127	3662.65451
625.58	3629.55275
626.033	3523.42321
626.485	3390.89191
626.938	3438.87305
627.39	3386.75809
627.843	3247.77543
628.295	3207.78718
628.747	3241.94328
629.199	3085.73217
629.651	3043.73706
630.103	3072.7845
630.555	3047.40312
631.006	2996.94692
631.458	2897.98653
631.909	2902.87952
632.361	2861.95064
632.812	2816.89445
633.263	2820.56916
633.714	2733.55596
634.165	2762.18826
634.616	2745.08249
635.067	2715.75015
635.518	2714.11576
635.968	2785.29236
636.419	2736.65804
636.869	2609.1017
637.319	2611.9503
637.769	2752.79419
638.219	2698.15879
638.669	2639.1262
639.119	2739.28152
639.569	2714.21025
640.019	2708.99919
640.468	2709.82242
640.918	2660.22026
641.367	2655.84832
641.816	2764.84086
642.265	2807.0173
642.714	2779.02104
643.163	2796.99205
643.612	2791.20675
644.061	2754.56995
644.51	2907.93953
644.958	2799.76199
645.406	2846.21481
645.855	2863.37093
646.303	2971.10599
646.751	2838.94424
647.199	2964.9474
647.647	2935.01063
648.095	2943.9913
648.543	3011.4294
648.99	2946.22858
649.438	3015.15404
649.885	3000.45912
650.333	3059.16137
650.78	2972.30541
651.227	3088.34849
651.674	3067.9677
652.121	3091.35828
652.568	2992.34658
653.015	3264.61395
653.461	3032.22349
653.908	3106.1069
654.354	3201.24982
654.801	3088.14081
655.247	3154.77654
655.693	3170.83763
656.139	3111.28713
656.585	3274.2748
657.031	3190.09536
657.477	3241.66144
657.922	3243.02583
658.368	3354.46279
658.813	3305.10477
659.259	3316.27797
659.704	3369.0829
660.149	3374.0869
660.594	3423.19803
661.039	3431.93969
661.484	3486.24352
661.929	3567.07611
662.373	3546.58776
662.818	3510.48611
663.262	3612.24899
663.707	3690.60191
664.151	3771.31691
664.595	3726.23444
665.039	3847.43246
665.483	3956.56137
665.927	4022.97267
666.371	3885.88682
666.814	4044.06609
667.258	4164.91775
667.701	4245.31611
668.145	4255.28591
668.588	4186.20523
669.031	4311.81243
669.474	4354.98365
669.917	4506.33775
670.36	4486.14373
670.803	4548.91426
671.245	4571.99493
671.688	4671.93153
672.13	4642.32957
672.573	4737.22519
673.015	4833.72008
673.457	4760.09017
673.899	4725.85618
674.341	4929.70792
674.783	4920.65572
675.225	4926.85277
675.666	4927.66379
676.108	5094.89937
676.549	5092.49223
676.991	5182.94632
677.432	5244.31876
677.873	5208.25903
678.314	5342.40976
678.755	5331.55415
679.196	5310.12798
679.637	5334.60111
680.078	5403.24675
680.518	5452.19749
680.959	5446.38339
681.399	5551.59006
681.839	5497.47912
682.28	5556.54473
682.72	5557.00296
683.16	5532.6339
683.6	5606.97283
684.039	5636.40242
684.479	5695.43675
684.919	5792.92889
685.358	5824.65228
685.798	5900.87963
686.237	5875.25862
686.676	5979.93158
687.115	5972.00743
687.554	6000.06668
687.993	6004.61169
688.432	6069.7859
688.871	6011.75539
689.309	6155.04711
689.748	6245.23886
690.186	6329.00433
690.625	6261.88545
691.063	6363.01099
691.501	6351.23486
691.939	6427.26835
692.377	6535.0845
692.815	6452.96583
693.253	6591.9869
693.69	6600.44471
694.128	6606.01881
694.565	6712.91141
695.003	6732.33222
695.44	6885.80681
695.877	6714.77273
696.314	6797.34276
696.751	6925.65304
697.188	6927.67839
697.625	7035.70138
698.061	7059.9351
698.498	7056.99741
698.934	7100.96694
699.371	7069.82349
699.807	7167.87076
700.243	7173.96576
700.679	7268.67199
701.115	7252.87117
701.551	7313.88146
701.987	7369.67607
702.422	7346.92693
702.858	7406.96363
703.294	7443.73634
703.729	7483.13632
704.164	7438.02892
704.599	7529.70082
705.035	7433.66975
705.47	7574.12757
705.904	7665.96118
706.339	7677.97324
706.774	7662.98565
707.209	7707.93965
707.643	7743.14783
708.078	7824.25818
708.512	7791.37124
708.946	7808.17896
709.38	7767.0992
709.814	7853.00606
710.248	7920.32454
710.682	7993.26354
711.116	7771.12005
711.549	7748.5423
711.983	7810.0144
712.416	7916.18827
712.85	7882.41199
713.283	7938.20405
713.716	7927.48359
714.149	7847.17901
714.582	7827.91743
715.015	7737.36636
715.448	7836.44746
715.881	7728.75848
716.313	7707.01141
716.746	7652.00073
717.178	7659.1072
717.61	7790.45833
718.043	7586.27572
718.475	7639.14227
718.907	7606.38038
719.339	7572.7876
719.77	7496.96126
720.202	7477.32673
720.634	7418.0753
721.065	7443.94824
721.497	7401.11979
721.928	7256.09468
722.359	7364.00561
722.79	7268.94784
723.221	7343.27274
723.652	7211.43092
724.083	7071.59469
724.514	7045.69141
724.945	6999.81049
725.375	7010.73043
725.806	6952.19847
726.236	6816.3982
726.666	6940.85307
727.096	6802.08775
727.526	6743.33575
727.956	6822.61019
728.386	6586.14681
728.816	6508.35897
729.246	6441.07743
729.675	6420.1746
730.105	6364.20246
730.534	6357.85062
730.964	6384.40246
731.393	6348.28433
731.822	6218.53952
732.251	6262.46892
732.68	6159.96474
733.109	6021.33233
733.537	5916.22278
733.966	5976.41112
734.395	5949.89634
734.823	5928.75956
735.251	5848.23583
735.68	5753.59559
736.108	5666.71729
736.536	5569.22177
736.964	5527.12109
737.392	5559.68103
737.82	5499.38507
738.247	5381.43335
738.675	5451.3837
739.102	5302.80052
739.53	5097.07702
739.957	5132.14917
740.384	5067.84662
740.811	5005.10079
741.238	4918.8328
741.665	4882.4631
742.092	4782.74885
742.519	4621.10259
742.945	4608.87864
743.372	4622.11124
743.798	4612.43307
744.225	4547.83719
744.651	4362.35537
745.077	4332.31832
745.503	4302.16465
745.929	4295.03757
746.355	4183.37893
746.781	4135.36153
747.207	3899.04602
747.632	3842.34276
748.058	3815.53818
748.483	3850.94859
748.908	3792.51132
749.334	3721.44875
749.759	3576.20261
750.184	3550.27499
750.609	3586.49254
751.033	3546.23824
751.458	3503.91042
751.883	3390.59297
752.307	3300.25493
752.732	3213.65434
753.156	3167.58701
753.58	3105.34245
754.005	3109.77994
754.429	2969.27645
754.853	2870.59314
755.277	2881.31763
755.7	2809.59602
756.124	2763.58528
756.548	2665.297
756.971	2692.47844
757.394	2611.7789
757.818	2531.73849
758.241	2514.64617
758.664	2472.60063
759.087	2404.92395
759.51	2385.48187
759.933	2320.26851
760.356	2251.57217
760.778	2213.32751
761.201	2148.24008
761.623	2176.24492
762.046	2103.09782
762.468	2081.1417
762.89	1962.18295
763.312	1973.14037
763.734	1815.95316
764.156	1868.10559
764.578	1887.82465
765	1744.94704
765.421	1743.10721
765.843	1690.19371
766.264	1621.79261
766.686	1594.91136
767.107	1505.67765
767.528	1441.74325
767.949	1447.78112
768.37	1498.71487
768.791	1429.58737
769.212	1316.56311
769.632	1342.36133
770.053	1261.64233
770.473	1299.44254
770.894	1286.51752
771.314	1239.31353
771.734	1191.17893
772.154	1174.43033
772.575	1152.11526
772.994	1163.07433
773.414	1134.18402
773.834	1054.1681
774.254	1047.10317
774.673	1042.08401
775.093	1036.11198
775.512	956.97488
775.931	965.05703
776.351	904.90651
776.77	913.88641
777.189	851.7284
777.607	812.80348
778.026	854.82695
778.445	750.64712
778.864	812.81317
779.282	796.65733
779.701	716.59806
780.119	720.60898
780.537	683.51652
780.955	754.68776
781.373	687.50962
781.791	693.36557
782.209	694.40824
782.627	641.52406
783.045	732.46788
783.462	587.36344
783.88	596.40042
784.297	561.28759
784.715	575.345
785.132	533.18019
785.549	511.1769
785.966	530.22339
786.383	515.16393
786.8	582.21937
787.217	464.01841
787.633	469.0856
788.05	523.13779
788.466	509.10165
788.883	463.0979
789.299	444.99689
789.715	481.08035
790.131	414.96722
790.547	421.98684
790.963	436.01008
791.379	429.0144
791.795	454.96064
792.21	434.94602
792.626	383.85697
793.041	414.95925
793.457	405.94156
793.872	354.78899
794.287	333.75646
794.702	380.88502
795.117	321.76219
795.532	330.78913
795.947	346.79188
796.362	354.80237
796.776	372.82361
797.191	312.73098
797.605	224.51125
798.02	327.75906
798.434	370.77641
798.848	292.69081
799.262	271.64845
799.676	348.807
800.09	298.70364
800.504	280.65422
800.918	283.62985
801.331	277.70124
801.745	255.5659
802.158	223.54275
802.572	215.50857
802.985	241.56521
803.398	289.66184
803.811	260.64706
804.224	228.55212
804.637	239.55196
805.05	257.57531
805.462	242.57674
805.875	206.52143
806.288	187.44166
806.7	229.55965
807.112	224.50485
807.525	248.59285
807.937	166.40351
808.349	199.48742
808.761	211.50624
809.173	153.36556
809.584	222.53415
809.996	114.27711
810.408	118.30199
810.819	129.30042
811.231	126.32235
811.642	83.19756
812.053	170.39691
812.464	161.37657
812.875	172.43181
813.286	186.46914
813.697	236.53516
814.108	211.50258
814.519	172.37623
814.929	185.46253
815.34	178.42342
815.75	132.33176
816.16	150.36871
816.571	156.39923
816.981	170.39426
817.391	157.37325
817.801	115.28336
818.211	187.43635
818.62	147.34894
819.03	193.46253
819.44	187.47864
819.849	148.36782
820.259	158.39824
820.668	105.25662
821.077	143.3504
821.486	149.35382
821.895	188.45475
822.304	107.28163
822.713	125.2926
823.122	107.2653
823.531	124.29111
823.939	131.31563
824.348	181.43113
824.756	119.29548
825.164	153.37934
825.573	105.26176
825.981	145.35477
826.389	143.35455
826.797	117.29051
827.205	149.33672
827.612	130.3173
828.02	96.22432
828.428	153.38377
828.835	109.28476
829.243	149.34987
829.65	94.2326
830.057	151.36092
830.464	115.27781
830.871	136.32165
831.278	100.24035
831.685	139.30604
832.092	118.2863
832.499	118.25571
832.905	142.35471
833.312	173.38665
833.718	147.361
834.124	111.25166
834.531	113.28252
834.937	110.28013
835.343	137.32633
835.749	142.32711
836.155	112.29085
836.561	102.24924
836.966	146.35183
837.372	120.30246
837.777	65.16193
838.183	135.29623
838.588	110.27089
838.993	128.30811
839.399	90.21902
839.804	33.08089
840.209	68.17293
840.613	94.20805
841.018	119.29839
841.423	134.33944
841.828	90.22653
842.232	161.39187
842.637	131.3052
843.041	99.25208
843.445	116.28819
843.849	82.20231
844.253	167.38922
844.657	75.1884
845.061	95.21434
845.465	129.30775
845.869	109.25114
846.272	57.13895
846.676	114.27316
847.079	83.21022
847.483	140.34438
847.886	123.29602
848.289	82.21797
848.692	94.23668
849.095	140.33136
849.498	179.44429
849.901	153.34477
850.304	96.22801
850.707	93.23579
851.109	178.44108
851.512	111.27027
851.914	70.17606
852.316	95.23881
852.718	41.10616
853.121	84.20495
853.523	86.20009
853.925	55.14354
854.326	78.19435
854.728	107.27283
855.13	58.14958
855.531	86.2045
855.933	133.31498
856.334	52.1298
856.736	89.19826
857.137	90.20807
857.538	70.17562
857.939	81.19929
858.34	161.38497
858.741	108.27988
859.142	105.25011
859.542	99.25934
859.943	109.26838
860.343	47.11662
860.744	109.26352
861.144	86.20874
861.544	69.16549
861.945	83.21059
862.345	112.27123
862.745	86.21265
863.145	111.26278
863.544	87.2187
863.944	114.26648
864.344	77.19064
864.743	137.33507
865.143	99.25243
865.542	100.23008
865.941	94.23115
866.34	103.24469
866.74	67.17949
867.139	58.13887
867.537	131.32942
867.936	97.23176
868.335	113.28467
868.734	63.16081
869.132	118.27096
869.531	126.30088
869.929	89.20162
870.327	74.17684
870.726	152.37252
871.124	107.24771
871.522	106.26766
871.92	113.27586
872.318	96.23301
872.715	126.308
873.113	55.13407
873.511	115.28346
873.908	54.13635
874.306	74.18344
874.703	112.27744
875.1	118.29859
875.497	66.15797
875.894	72.17587
876.291	128.30998
876.688	73.18771
877.085	73.17462
877.482	89.22147
877.878	77.18461
878.275	78.19738
878.671	162.35301
879.068	109.26053
879.464	80.1925
879.86	85.1999
880.256	123.29983
880.652	64.16253
881.048	134.32731
881.444	110.25915
881.84	74.18746
882.236	97.24208
882.631	98.23867
883.027	130.31043
883.422	109.27607
883.817	46.11578
884.213	106.26956
884.608	50.12272
885.003	77.18489
885.398	94.23362
885.793	78.19498
886.188	79.19552
886.582	148.37343
886.977	106.24914
887.371	77.19398
887.766	71.17604
888.16	100.24753
888.554	111.27169
888.949	106.26373
889.343	80.19454
889.737	38.10152
890.131	126.312
890.525	101.25617
890.918	70.17568
891.312	109.25814
891.706	94.24494
892.099	155.38739
892.492	100.21374
892.886	96.2331
893.279	75.19036
893.672	99.25003
894.065	138.34034
894.458	99.24699
894.851	138.33293
895.244	95.24086
895.637	99.23645
896.029	146.3509
896.422	75.18255
896.814	85.21013
897.206	36.08603
897.599	149.36212
897.991	99.23736
898.383	102.23881
898.775	119.26508
899.167	82.19018
899.559	131.32705
899.951	89.20841
900.342	119.29914
900.734	58.14378
901.125	110.28585
901.517	79.19301
901.908	135.31873
902.299	89.21614
902.69	98.22926
903.082	67.16186
903.473	60.1435
903.863	76.19314
904.254	54.12534
904.645	121.29726
905.036	74.17847
905.426	129.29093
905.817	96.23371
906.207	61.14514
906.597	67.15628
906.987	129.32996
907.378	90.22612
907.768	79.20793
908.158	121.29132
908.547	61.15735
908.937	104.26448
909.327	85.20519
909.717	121.30351
910.106	68.16288
910.495	144.35357
910.885	123.30764
911.274	91.22587
911.663	123.3083
912.052	139.33756
912.441	68.17244
912.83	104.23632
913.219	144.37098
913.608	61.1492
913.997	62.15516
914.385	146.34262
914.774	102.24608
915.162	74.17563
915.55	112.26796
915.939	67.16867
916.327	91.22554
916.715	67.1703
917.103	113.27504
917.491	95.23322
917.878	128.31033
918.266	69.17841
918.654	77.19585
919.041	40.10463
919.429	83.19474
919.816	83.20924
920.203	95.22855
920.591	113.2771
920.978	127.30669
921.365	67.17534
921.752	74.17569
922.139	115.24639
922.525	61.14625
922.912	91.22033
923.299	66.16361
923.685	80.20768
924.072	129.29295
924.458	78.1923
924.844	66.16289
925.231	116.26658
925.617	28.07151
926.003	85.21597
926.389	63.1586
926.774	58.14682
927.16	101.24859
927.546	60.15291
927.931	117.2885
928.317	109.24823
928.702	115.26877
929.088	62.14635
929.473	75.19002
929.858	48.11611
930.243	58.13903
930.628	59.14334
931.013	78.19237
931.398	102.23225
931.783	89.23283
932.167	83.20172
932.552	127.31385
932.937	105.25805
933.321	67.16764
933.705	121.30121
934.09	127.31661
934.474	111.26064
934.858	101.25971
935.242	72.16619
935.626	44.11277
936.009	72.19082
936.393	114.28683
936.777	85.21635
937.16	89.23005
937.544	81.18975
937.927	65.16451
938.311	126.3033
938.694	117.30597
939.077	83.19748
939.46	154.37097
939.843	132.27051
940.226	98.24931
940.609	78.1781
940.991	78.19759
941.374	88.21359
941.757	75.18426
942.139	78.17422
942.522	139.32294
942.904	55.13212
943.286	93.23454
943.668	107.27446
944.05	85.20805
944.432	42.10381
944.814	81.19841
945.196	54.13151
945.578	25.05971
945.959	136.31341
946.341	157.37784
946.722	125.28916
947.104	131.30832
947.485	79.18282
947.866	53.13347
948.247	118.29412
948.628	105.25356
949.009	91.23138
949.39	82.20298
949.771	112.25739
950.152	94.22884
950.532	75.18364
950.913	91.21784
951.293	79.21241
951.674	88.21135
952.054	75.18501
952.434	75.18535
952.814	83.19626
953.194	94.24419
953.574	145.35095
953.954	90.21212
954.334	92.22756
954.714	81.19627
955.093	135.32674
955.473	86.21366
955.853	75.19332
956.232	99.26922
956.611	108.25622
956.99	99.24663
957.37	88.22276
957.749	102.24096
958.128	88.22022
958.506	71.18352
958.885	79.19838
959.264	84.20457
959.643	120.26925
960.021	101.24795
960.4	89.20014
960.778	136.32972
961.156	98.24356
961.535	126.28933
961.913	119.27473
962.291	93.2368
962.669	96.24119
963.047	66.16796
963.424	81.20559
963.802	67.16424
964.18	94.236
964.557	115.26147
964.935	141.32824
965.312	65.16883
965.69	142.34969
966.067	60.14585
966.444	114.27763
966.821	128.32551
967.198	97.23327
967.575	125.30311
967.952	99.2311
968.329	109.26233
968.705	107.22667
969.082	70.1789
969.458	49.11757
969.835	74.17934
970.211	27.06957
970.587	90.22245
970.963	101.2568
971.339	65.16929
971.715	69.17171
972.091	119.28932
972.467	130.31955
972.843	38.09451
973.219	129.30515
973.594	76.19791
973.97	139.32524
974.345	119.28106
974.721	139.33097
975.096	89.21379
975.471	110.25794
975.846	85.20286
976.221	61.15461
976.596	94.22344
976.971	96.23502
977.346	109.25084
977.72	97.24506
978.095	97.24864
978.469	146.34209
978.844	124.30761
979.218	95.22577
979.593	147.34571
979.967	89.21525
980.341	94.21455
980.715	70.17574
981.089	105.26024
981.463	51.11709
981.837	46.11249
982.21	132.30225
982.584	82.19686
982.957	52.1298
983.331	134.31164
983.704	108.26253
984.078	102.24896
984.451	161.39406
984.824	52.12659
985.197	88.21223
985.57	120.29715
985.943	136.33059
986.316	101.24583
986.688	85.20364
987.061	104.2412
987.434	98.25327
987.806	137.32683
988.179	76.17842
988.551	110.27607
988.923	84.20557
989.295	143.35131
989.667	56.13362
990.039	71.17475
990.411	91.20774
990.783	84.19211
991.155	41.09867
991.527	134.32487
991.898	78.19336
992.27	70.17251
992.641	102.2535
993.012	118.27399
993.384	63.14989
993.755	79.20037
994.126	100.23825
994.497	62.15184
994.868	96.2185
995.239	92.2212
995.61	76.19033
995.98	85.20511
996.351	65.16052
996.722	42.09756
997.092	39.09254
997.462	78.18119
997.833	81.19087
998.203	109.26133
998.573	61.15158
998.943	73.17041
999.313	73.17415
999.683	86.20497
1000.053	92.2099
1000.423	80.1933
1000.792	84.21641
1001.162	76.18613
1001.531	89.21784
1001.901	95.23486
1002.27	139.30501
1002.639	97.24576
1003.009	71.16815
1003.378	44.11261
1003.747	116.27052
1004.116	114.26941
1004.485	112.26448
1004.853	71.17918
1005.222	95.23761
1005.591	88.2074
1005.959	88.19672
1006.328	60.13474
1006.696	61.14681
1007.064	84.20998
1007.433	102.25248
1007.801	151.36368
1008.169	82.20587
1008.537	108.23624
1008.905	67.15554
1009.273	77.18924
1009.64	104.24549
1010.008	90.21286
1010.375	166.39427
1010.743	143.32408
1011.11	98.22971
1011.478	93.22831
1011.845	134.30991
1012.212	81.18215
1012.579	89.21687
1012.946	105.24723
1013.313	98.23106
1013.68	137.30239
1014.047	53.1262
1014.414	76.17856
1014.78	101.24859
1015.147	86.20654
1015.513	111.2643
1015.88	126.31781
1016.246	101.24694
1016.612	95.21548
1016.978	79.1925
1017.344	101.24721
1017.71	96.23205
1018.076	84.19674
1018.442	56.14387
1018.808	83.20617
1019.174	80.19955
1019.539	163.3667
1019.905	83.19444
1020.27	54.13313
1020.636	90.21409
1021.001	97.23008
1021.366	129.30503
1021.731	100.25485
1022.096	46.11607
1022.461	85.19975
1022.826	99.23301
1023.191	62.16228
1023.556	88.20466
1023.92	118.28641
1024.285	104.25119
1024.649	70.17086
1025.014	114.27898
1025.378	83.20737
1025.742	75.18535
1026.107	135.29998
1026.471	128.29415
1026.835	85.20929
1027.199	63.15122
1027.562	120.275
1027.926	90.21836
1028.29	66.16648
1028.654	108.24551
1029.017	116.28155
1029.381	63.15007
1029.744	89.22533
1030.107	107.25027
1030.471	107.25331
1030.834	112.25151
1031.197	141.33367
1031.56	106.2473
1031.923	118.30135
1032.286	119.2756
1032.648	125.29455
1033.011	80.18245
1033.374	155.3567
1033.736	72.18852
1034.099	128.30729
1034.461	98.24533
1034.823	59.14661
1035.185	83.2076
1035.548	60.14569
1035.91	91.21618
1036.272	67.15191
1036.634	91.22083
1036.995	104.24177
1037.357	118.28329
1037.719	112.26909
1038.08	107.25115
1038.442	65.15376
1038.803	117.2772
1039.165	85.21306
1039.526	122.29066
1039.887	111.26237
1040.248	48.11825
1040.609	136.33059
1040.97	118.28458
1041.331	101.25325
1041.692	73.16954
1042.053	117.26268
1042.413	108.24869
1042.774	97.23371
1043.134	122.2863
1043.495	122.30254
1043.855	74.1786
1044.215	104.25545
1044.576	71.16899
1044.936	130.29312
1045.296	130.31955
1045.656	112.27154
1046.016	118.28102
1046.375	107.25663
1046.735	61.13791
1047.095	101.23392
1047.454	95.19923
1047.814	101.24031
1048.173	153.35814
1048.533	76.17312
1048.892	81.19317
1049.251	111.27542
1049.61	21.05195
1049.969	72.1689
1050.328	120.25616
1050.687	89.21484
1051.046	78.18882
1051.405	101.24877
1051.763	82.18724
1052.122	65.16158
1052.48	89.21655
1052.839	92.21455
1053.197	98.22836
1053.555	139.31104
1053.914	109.26352
1054.272	97.2323
1054.63	74.18002
1054.988	79.18652
1055.345	70.15001
1055.703	103.24525
1056.061	91.23228
1056.419	93.2388
1056.776	113.27061
1057.134	98.22458
1057.491	104.25772
1057.848	97.23927
1058.206	113.26233
1058.563	104.22653
1058.92	101.23029
1059.277	103.25145
1059.634	99.23056
1059.991	149.35
1060.348	77.17295
1060.704	43.10255
1061.061	121.27701
1061.418	103.24713
1061.774	117.2851
1062.131	50.13211
1062.487	73.16981
1062.843	94.23234
1063.199	80.19774
1063.555	88.20223
1063.911	87.21815
1064.267	161.32733
1064.623	91.21917
1064.979	169.39093
1065.335	86.20403
1065.691	86.20458
1066.046	91.19825
1066.402	80.18053
1066.757	118.29401
1067.112	112.27154
1067.468	57.13431
1067.823	110.26127
1068.178	130.30948
1068.533	120.28688
1068.888	95.2249
1069.243	73.17928
1069.598	58.14062
1069.952	58.1303
1070.307	43.1065
1070.662	116.27169
1071.016	7.01581
1071.371	45.1024
1071.725	136.31978
1072.079	104.2474
1072.434	64.15499
1072.788	113.26565
1073.142	101.24593
1073.496	69.16297
1073.85	91.20917
1074.203	71.17146
1074.557	99.26092
1074.911	145.33954
1075.265	90.20741
1075.618	125.30072
1075.971	102.24002
1076.325	89.22445
1076.678	59.13458
1077.031	96.21505
1077.385	97.21142
1077.738	116.25813
1078.091	42.09559
1078.444	95.21845
1078.796	35.08605
1079.149	95.23417
1079.502	73.17155
1079.855	76.17619
1080.207	121.29396
1080.56	56.14447
1080.912	99.23862
1081.264	53.12746
1081.617	61.14825
1081.969	62.15594
1082.321	61.14853
1082.673	51.11629
1083.025	105.24627
1083.377	-127.28279
1083.728	91.21042
1084.08	55.13707
1084.432	44.10616
1084.783	127.29285
1085.135	71.17713
1085.486	40.09163
1085.838	88.21503
1086.189	53.12847
1086.54	95.22473
1086.891	52.13135
1087.242	92.22204
1087.593	94.22678
1087.944	101.22601
1088.295	100.22484
1088.646	97.23283
1088.996	60.14415
1089.347	72.17581
1089.698	42.09933
1090.048	79.20399
1090.398	96.22044
1090.749	58.13845
1091.099	53.13309
1091.449	109.26838
1091.799	74.18432
1092.149	-11.0271
1092.499	83.20104
1092.849	69.17463
1093.199	106.26277
1093.548	55.13192
1093.898	74.18418
1094.248	89.22693
1094.597	35.0895
1094.947	80.21216
1095.296	104.25404
1095.645	96.2475
1095.994	84.20028
1096.343	100.24916
1096.692	36.09471
1097.041	33.08951
1097.39	80.1994
1097.739	85.2194
1098.088	93.24717
1098.437	19.05013
1098.785	88.23556
1099.134	89.23457
1099.482	78.21338
1099.83	84.21926
1100.179	61.15865
1100.527	51.13537
1100.875	54.14254
1101.223	86.22678
1101.571	46.12708
1101.919	21.05509
1102.267	70.19629
1102.615	1.00322
1102.962	15.04827
1103.31	-4.01287
1103.658	18.05793
