Data from N2 R14 sample 6_Subt2__1__14-25-11-085.txt Node

Date: Tue Sep 02 14:25:11 PDT 2025
User: uwsun
Spectrometer: HDX01956
Trigger mode: 0
Integration Time (sec): 5.000000E-1
Scans to average: 1
Nonlinearity correction enabled: true
Boxcar width: 0
Storing dark spectrum: false
XAxis mode: Wavelengths
Number of Pixels in Spectrum: 2068
>>>>>Begin Spectral Data<<<<<
194.03	48.13373
194.578	40.12587
195.127	44.13635
195.676	46.14295
196.225	114.29665
196.773	73.19782
197.321	93.24577
197.87	197.46978
198.418	127.30286
198.966	55.13377
199.513	86.19795
200.061	134.31077
200.609	181.44071
201.156	122.24312
201.704	123.28419
202.251	124.30232
202.798	102.24487
203.345	164.3716
203.892	144.33211
204.438	193.41886
204.985	92.19971
205.532	143.34467
206.078	114.25778
206.624	117.26343
207.17	157.33259
207.716	148.32715
208.262	189.33593
208.808	86.19423
209.354	130.28905
209.899	200.46108
210.445	112.25491
210.99	139.30501
211.535	214.45403
212.08	163.3456
212.625	151.34638
213.17	142.33063
213.715	98.19884
214.259	169.3588
214.804	217.48578
215.348	140.29366
215.892	151.33148
216.436	216.45307
216.98	192.38599
217.524	131.28406
218.068	194.44493
218.612	178.41003
219.155	166.35635
219.698	179.38864
220.242	152.34958
220.785	143.30744
221.328	173.3951
221.871	168.39255
222.414	216.49021
222.956	111.24654
223.499	156.32172
224.041	168.36017
224.583	207.4078
225.126	98.20065
225.668	153.34124
226.21	148.34215
226.751	137.27409
227.293	184.38425
227.835	124.27925
228.376	174.36885
228.918	161.37465
229.459	110.25289
230	126.27666
230.541	147.31168
231.082	151.33581
231.622	193.4051
232.163	100.22419
232.704	135.30757
233.244	139.31694
233.784	225.50099
234.324	98.19747
234.864	134.27896
235.404	120.26415
235.944	156.3395
236.484	165.37789
237.023	140.303
237.563	140.29587
238.102	170.36619
238.641	143.33224
239.18	136.29006
239.719	127.29367
240.258	216.43765
240.797	168.36515
241.335	215.47614
241.874	118.20728
242.412	179.38997
242.95	71.15665
243.488	156.32447
244.026	163.34062
244.564	215.39586
245.102	133.27238
245.64	193.42243
246.177	144.29444
246.715	156.34224
247.252	163.34092
247.789	284.47122
248.326	147.31971
248.863	136.27089
249.4	179.36791
249.936	189.34851
250.473	139.29459
251.009	158.32687
251.546	167.33194
252.082	176.34746
252.618	120.24325
253.154	147.31998
253.69	174.35304
254.226	111.24213
254.761	131.26743
255.297	154.30388
255.832	139.29832
256.367	149.31799
256.903	203.39709
257.438	203.42778
257.972	140.28236
258.507	140.28873
259.042	198.38336
259.576	119.23068
260.111	177.3684
260.645	208.40099
261.179	139.29266
261.713	171.34037
262.247	144.30031
262.781	126.23777
263.315	136.30075
263.849	146.32947
264.382	151.31344
264.915	89.18945
265.449	99.21742
265.982	168.3432
266.515	165.36084
267.048	100.19148
267.58	189.36918
268.113	132.2557
268.646	114.25452
269.178	176.3486
269.71	186.36116
270.243	160.3276
270.775	134.30745
271.307	225.48081
271.838	184.39209
272.37	158.34823
272.902	162.32959
273.433	164.3189
273.965	123.2699
274.496	155.3467
275.027	153.33969
275.558	114.24905
276.089	93.20519
276.62	126.29002
277.15	179.39443
277.681	186.35789
278.211	169.37037
278.741	119.23355
279.272	120.2447
279.802	186.41252
280.332	130.27329
280.861	178.37947
281.391	159.31855
281.921	142.30614
282.45	181.40185
282.98	159.36985
283.509	179.35396
284.038	158.31808
284.567	187.38592
285.096	171.36526
285.625	97.19667
286.153	143.29604
286.682	114.23151
287.21	126.26896
287.739	130.27208
288.267	117.25111
288.795	182.42343
289.323	154.3146
289.851	173.35494
290.378	169.33121
290.906	109.23263
291.433	147.32297
291.961	127.25208
292.488	169.36849
293.015	128.26374
293.542	176.38742
294.069	185.39396
294.596	194.41807
295.122	176.36428
295.649	161.30837
296.175	158.33493
296.702	168.35519
297.228	198.41697
297.754	173.33456
298.28	124.24457
298.806	208.42742
299.332	150.28459
299.857	159.30822
300.383	204.44584
300.908	145.30193
301.433	142.29733
301.958	201.39747
302.483	126.27165
303.008	190.40329
303.533	146.33081
304.058	181.36581
304.582	145.29225
305.107	92.20838
305.631	226.43485
306.155	169.33262
306.679	136.27013
307.203	204.39631
307.727	199.39721
308.251	188.39312
308.775	97.19577
309.298	152.30572
309.822	161.34479
310.345	215.42336
310.868	162.32493
311.391	125.26214
311.914	144.30379
312.437	214.40443
312.96	188.36609
313.482	153.30198
314.005	136.28678
314.527	129.28486
315.049	179.3777
315.571	160.28904
316.093	125.25808
316.615	117.23397
317.137	240.41564
317.659	227.44888
318.18	168.33338
318.702	229.42546
319.223	199.32333
319.744	177.31738
320.265	153.29872
320.786	123.24608
321.307	174.34755
321.828	194.34634
322.348	133.25054
322.869	154.28647
323.389	284.33423
323.909	188.33772
324.43	252.47508
324.95	142.2539
325.47	188.35773
325.989	179.32428
326.509	193.31835
327.029	144.24659
327.548	186.31236
328.067	165.3009
328.587	160.30608
329.106	168.28552
329.625	237.47789
330.144	175.29879
330.662	152.26015
331.181	137.23857
331.7	192.32826
332.218	219.33565
332.736	205.34587
333.255	181.30238
333.773	182.30915
334.291	207.3752
334.808	184.28594
335.326	207.32404
335.844	159.25542
336.361	210.36813
336.879	219.34363
337.396	189.31072
337.913	192.2954
338.43	223.32845
338.947	144.23205
339.464	161.22249
339.981	148.23228
340.497	245.39696
341.014	210.33285
341.53	184.26229
342.046	177.28111
342.562	237.38075
343.078	237.34715
343.594	221.3305
344.11	218.32216
344.626	185.295
345.141	204.28019
345.657	252.34186
346.172	292.41734
346.687	186.25397
347.202	227.29311
347.717	167.23918
348.232	229.34164
348.747	208.27401
349.261	138.16658
349.776	179.24193
350.29	155.2199
350.805	233.33267
351.319	256.32684
351.833	182.22209
352.347	216.27671
352.861	198.24875
353.374	262.32159
353.888	231.30299
354.401	194.23555
354.915	231.25653
355.428	237.31065
355.941	219.25779
356.454	375.40375
356.967	219.26601
357.48	253.28905
357.993	253.31843
358.505	220.27098
359.018	289.34704
359.53	232.27118
360.042	281.28501
360.554	300.34656
361.066	219.25722
361.578	244.23565
362.09	258.28642
362.602	269.25386
363.113	243.25117
363.625	292.27571
364.136	283.25793
364.647	168.16391
365.158	302.29046
365.669	268.27397
366.18	209.2107
366.691	292.24827
367.201	235.23336
367.712	205.18306
368.222	314.26521
368.733	196.15092
369.243	225.173
369.753	262.21783
370.263	274.23653
370.773	255.23217
371.282	238.19265
371.792	178.12186
372.301	269.20001
372.811	256.22496
373.32	228.10964
373.829	199.12113
374.338	259.12091
374.847	212.10178
375.356	259.1196
375.865	306.06601
376.373	229.06489
376.882	341.14003
377.39	319.09353
377.898	215.04914
378.407	248.01335
378.915	277.99148
379.423	262.00034
379.93	369.95522
380.438	267.96364
380.946	291.93215
381.453	241.93304
381.96	238.91292
382.468	137.9376
382.975	379.81779
383.482	386.79393
383.989	412.78922
384.495	259.85528
385.002	215.87921
385.509	182.89748
386.015	258.88284
386.521	341.84874
387.028	243.911
387.534	321.92399
388.04	414.89473
388.546	1.99985
389.051	8.0017
389.557	27.0127
390.063	685.56678
390.568	482.51489
391.073	308.46955
391.578	304.51402
392.084	144.32647
392.589	-338.96822
393.093	-546.01162
393.598	-203.0094
394.103	-175.07596
394.607	-92.72182
395.112	124.11182
395.616	8.08196
396.12	-506.00085
396.624	-743.90426
397.128	-454.41604
397.632	-313.56074
398.136	-290.10621
398.639	-1855.33669
399.143	-3117.25981
399.646	-2973.99167
400.15	-3578.78873
400.653	-4610.72823
401.156	-6315.60582
401.659	-7852.35196
402.162	-1495.92716
402.664	-723.53212
403.167	0
403.67	0
404.172	0
404.674	0
405.176	0
405.678	0
406.18	0
406.682	0
407.184	0
407.686	0
408.187	0
408.688	0
409.19	0
409.691	0
410.192	0
410.693	0
411.194	435.30976
411.694	4082.94878
412.195	8864.71461
412.696	11168.24352
413.196	7959.76458
413.696	6115.75602
414.196	7904.40645
414.696	10686.2836
415.196	12845.7035
415.696	16150.07987
416.196	13830.41982
416.695	7841.558
417.195	4213.14823
417.694	4179.74715
418.194	4453.09508
418.693	3648.00108
419.192	3433.02777
419.691	3212.41021
420.19	3331.81734
420.688	3543.8464
421.187	3727.80606
421.685	3790.82117
422.184	3873.24199
422.682	3143.91827
423.18	2041.79573
423.678	1502.31327
424.176	1335.80636
424.674	1294.00478
425.172	1280.11213
425.669	1557.70523
426.167	1577.24032
426.664	1403.84219
427.161	1193.59462
427.659	1023.48315
428.156	899.54544
428.652	892.503
429.149	781.56778
429.646	761.58141
430.143	726.6477
430.639	726.67151
431.135	629.77991
431.632	620.78572
432.128	469.90174
432.624	381.96723
433.12	298.94313
433.616	363.93339
434.111	197.98957
434.607	109.00718
435.103	307.99247
435.598	349.99714
436.093	369.07631
436.588	326.07991
437.083	227.07928
437.578	324.12833
438.073	107.06242
438.568	196.1278
439.062	237.10549
439.557	263.17165
440.051	174.10943
440.546	120.08064
441.04	148.11524
441.534	153.14053
442.028	177.15093
442.522	28.02563
443.015	111.08372
443.509	136.13108
444.002	81.08028
444.496	107.08662
444.989	27.0284
445.482	57.06128
445.975	-4.00368
446.468	65.05436
446.961	93.07762
447.454	-20.01988
447.947	-16.01692
448.439	-3.00344
448.931	-37.03723
449.424	-3.00375
449.916	-2.00235
450.408	11.01128
450.9	-35.04159
451.392	-2.00254
451.884	-30.03423
452.375	-108.13987
452.867	31.03498
453.358	-44.04959
453.849	10.01019
454.341	-1.00113
454.832	-28.03004
455.323	-77.10173
455.814	-17.02069
456.304	-23.02838
456.795	-43.05324
457.285	11.01329
457.776	55.06887
458.266	-8.01053
458.756	-49.06819
459.247	-74.1009
459.737	-54.07373
460.226	-12.01508
460.716	-8.01109
461.206	-69.09975
461.695	-46.0711
462.185	-67.09637
462.674	-63.08886
463.163	-53.0712
463.653	-24.02985
464.142	-97.14813
464.63	-18.02794
465.119	-72.1049
465.608	-32.04625
466.096	-55.0763
466.585	-32.04807
467.073	-38.06026
467.561	-12.01907
468.05	-42.06503
468.538	-73.12302
469.026	-105.17348
469.513	-91.1282
470.001	-73.11241
470.489	-115.18937
470.976	-27.04276
471.463	-26.04562
471.951	-33.05899
472.438	-105.17628
472.925	-116.19437
473.412	-54.09705
473.899	-48.07963
474.385	-48.08662
474.872	-136.23539
475.359	-76.13772
475.845	-59.08833
476.331	0
476.817	-61.11271
477.303	-96.16943
477.789	-86.15878
478.275	-87.16607
478.761	-74.13793
479.247	-79.13692
479.732	-106.20612
480.218	-107.22132
480.703	-103.20301
481.188	-106.178
481.673	-40.0713
482.158	-145.2417
482.643	-84.17324
483.128	-177.32688
483.612	-94.17668
484.097	-49.09699
484.581	-50.09375
485.066	-69.13568
485.55	-109.19343
486.034	-80.1395
486.518	-90.17175
487.002	-109.21908
487.486	-133.27016
487.969	-124.25182
488.453	-81.17084
488.936	-61.11293
489.42	-103.1905
489.903	-51.10771
490.386	-580.91132
490.869	-26.04694
491.352	-80.16699
491.835	-78.13565
492.318	-129.24767
492.8	-102.17861
493.283	-119.25914
493.765	-136.28817
494.247	-46.09179
494.73	-139.26558
495.212	5.01026
495.694	-136.2743
496.175	-179.36841
496.657	-32.06484
497.139	-41.0609
497.62	-177.36626
498.102	-124.2678
498.583	-109.23908
499.064	-157.30595
499.545	-76.15004
500.026	-160.31572
500.507	-80.16142
500.988	-123.26945
501.469	-144.31778
501.949	-79.17138
502.43	-184.38766
502.91	-122.22073
503.39	-109.2421
503.87	-124.25642
504.35	-76.15815
504.83	-146.28349
505.31	-171.37032
505.79	-143.3036
506.269	-82.16919
506.749	-171.34909
507.228	-135.28123
507.707	-99.19356
508.187	-135.28974
508.666	-185.40868
509.145	-101.20853
509.623	-133.27892
510.102	-134.29113
510.581	-81.17444
511.059	-152.34161
511.538	-103.23893
512.016	-94.20031
512.494	-128.27999
512.972	-128.27454
513.45	-178.37056
513.928	-168.36841
514.406	-220.4804
514.884	-111.25585
515.361	-99.21202
515.839	-137.28108
516.316	-105.22642
516.793	-131.30075
517.27	-28.06034
517.747	-163.38005
518.224	-114.23838
518.701	-101.20235
519.178	-163.36625
519.654	-84.18032
520.131	-145.32608
520.607	-149.33809
521.083	-93.19106
521.56	-114.24367
522.036	-113.22513
522.512	-94.21039
522.987	-161.34777
523.463	-112.24115
523.939	-96.21354
524.414	-75.15659
524.89	-128.27703
525.365	-134.27685
525.84	-137.29492
526.315	-114.24926
526.79	-85.17337
527.265	-68.13973
527.74	-102.22557
528.215	-92.19664
528.689	-130.26292
529.164	-21.04081
529.638	-106.24885
530.112	-148.31949
530.587	-76.14588
531.061	-120.26349
531.534	-31.06768
532.008	-70.15195
532.482	-79.16501
532.956	-91.21017
533.429	-63.1383
533.903	-48.0961
534.376	-65.13016
534.849	-59.12395
535.322	-90.19379
535.795	-32.07056
536.268	-73.15931
536.741	-67.14646
537.213	-82.17307
537.686	-47.10322
538.158	-50.10075
538.631	0
539.103	-55.11121
539.575	54.09965
540.047	-40.07952
540.519	16.03429
540.991	-8.01767
541.463	34.07343
541.934	35.07122
542.406	35.07408
542.877	39.07817
543.348	61.13086
543.82	80.17381
544.291	140.28535
544.762	69.14406
545.233	121.26473
545.703	162.30735
546.174	178.35587
546.645	130.26762
547.115	242.49302
547.585	219.42758
548.056	230.4658
548.526	249.48892
548.996	337.66891
549.466	378.75817
549.935	376.71792
550.405	398.6941
550.875	430.81188
551.344	576.06685
551.814	544.96688
552.283	641.04306
552.752	604.05987
553.221	694.09198
553.69	815.27972
554.159	786.39812
554.628	851.3218
555.096	1016.77766
555.565	1126.62322
556.033	1178.82242
556.502	1277.99903
556.97	1393.87299
557.438	1408.08043
557.906	1605.2591
558.374	1744.23772
558.842	1794.41096
559.31	1981.27482
559.777	2117.60763
560.245	2363.5959
560.712	2476.54545
561.18	2638.31405
561.647	2906.34888
562.114	3047.40772
562.581	3421.77809
563.048	3632.31819
563.514	3844.56685
563.981	4134.03403
564.448	4382.77295
564.914	4752.80255
565.381	5105.48041
565.847	5548.43031
566.313	5812.28775
566.779	6233.00728
567.245	6561.15826
567.711	6887.28675
568.176	7398.20862
568.642	7671.77514
569.108	8225.2005
569.573	8723.85047
570.038	9217.93343
570.504	9588.85204
570.969	10143.30343
571.434	10681.84476
571.899	11302.22876
572.363	11851.47951
572.828	12360.52082
573.293	12834.75672
573.757	13424.18091
574.222	13776.52988
574.686	14359.65606
575.15	14758.41254
575.614	15342.86389
576.078	15549.61948
576.542	15772.53075
577.006	16046.79854
577.469	16531.19919
577.933	16661.11872
578.396	16706.1992
578.86	16692.23721
579.323	16841.84527
579.786	16812.58493
580.249	16686.99292
580.712	16622.57296
581.175	16513.1585
581.637	16215.07924
582.1	15983.42826
582.563	15685.52475
583.025	15438.76283
583.487	15247.05159
583.95	15138.89596
584.412	14769.40807
584.874	14344.12213
585.336	14099.32344
585.797	13895.86763
586.259	13622.30186
586.721	13069.16212
587.182	12719.60974
587.643	12429.00258
588.105	11992.92865
588.566	11802.75642
589.027	11316.21039
589.488	11104.48558
589.949	10740.57301
590.41	10428.2972
590.87	10376.36951
591.331	9892.84054
591.791	9520.6069
592.252	9379.25023
592.712	9168.72851
593.172	8776.91672
593.632	8673.71565
594.092	8283.09613
594.552	8095.79305
595.011	7759.55373
595.471	7675.42662
595.931	7333.17473
596.39	7165.36052
596.849	6964.19355
597.308	6866.90578
597.768	6618.61718
598.227	6504.34114
598.685	6335.13396
599.144	6153.23242
599.603	6023.34502
600.062	5867.75958
600.52	5723.09403
600.978	5664.47871
601.437	5411.39733
601.895	5333.00881
602.353	5238.30643
602.811	5200.31264
603.269	5046.83722
603.727	4986.86767
604.184	4828.5707
604.642	4785.12653
605.099	4784.78716
605.557	4738.13072
606.014	4645.42257
606.471	4511.36608
606.928	4420.4968
607.385	4400.22894
607.842	4422.88498
608.299	4375.04331
608.755	4294.27599
609.212	4366.74285
609.668	4157.81288
610.125	4288.3178
610.581	4258.28993
611.037	4258.05694
611.493	4107.33681
611.949	3967.47718
612.405	4015.46252
612.861	4018.382
613.316	3943.46177
613.772	3999.21812
614.227	3898.41903
614.683	3983.87361
615.138	3850.39921
615.593	3764.40706
616.048	3834.32004
616.503	3759.79423
616.958	3739.89963
617.412	3632.59572
617.867	3604.20694
618.321	3509.96185
618.776	3587.26923
619.23	3453.64315
619.684	3448.45873
620.138	3342.66308
620.592	3188.93886
621.046	3199.76693
621.5	3146.96104
621.954	3116.58335
622.407	2941.55851
622.861	2876.00809
623.314	2936.68265
623.768	2894.79716
624.221	2747.05826
624.674	2698.76089
625.127	2676.8452
625.58	2672.74944
626.033	2592.60416
626.485	2529.94883
626.938	2447.9282
627.39	2441.82248
627.843	2429.80383
628.295	2326.78175
628.747	2243.88353
629.199	2260.69946
629.651	2200.67898
630.103	2219.72658
630.555	2120.39349
631.006	2096.7962
631.458	2022.78454
631.909	2062.72285
632.361	1974.73072
632.812	1981.69139
633.263	1883.39843
633.714	1927.40454
634.165	1844.82396
634.616	1831.73956
635.067	1740.44226
635.518	1748.70308
635.968	1713.11196
636.419	1680.33893
636.869	1642.61525
637.319	1551.43486
637.769	1563.34065
638.219	1578.58619
638.669	1514.50919
639.119	1525.60687
639.569	1453.49097
640.019	1457.37129
640.468	1424.2357
640.918	1391.4334
641.367	1408.23699
641.816	1394.21709
642.265	1344.26222
642.714	1349.27007
643.163	1322.22498
643.612	1276.28311
644.061	1258.93793
644.51	1219.08344
644.958	1202.97723
645.406	1188.17505
645.855	1173.2265
646.303	1139.06262
646.751	1151.00342
647.199	1208.0761
647.647	1128.00599
648.095	1113.97999
648.543	1163.79122
648.99	1073.02537
649.438	1127.06869
649.885	1109.17191
650.333	1093.60614
650.78	1134.1424
651.227	1084.09148
651.674	1058.90369
652.121	1047.04158
652.568	998.96431
653.015	1061.16449
653.461	1012.93881
653.908	1041.93752
654.354	1003.94139
654.801	1001.8933
655.247	1044.81533
655.693	991.1298
656.139	984.92313
656.585	997.94536
657.031	1000.87991
657.477	963.67541
657.922	919.74134
658.368	959.95591
658.813	981.86353
659.259	945.86988
659.704	944.8066
660.149	906.7513
660.594	946.85226
661.039	906.70874
661.484	948.87539
661.929	929.79967
662.373	907.9216
662.818	884.84966
663.262	857.74297
663.707	868.86889
664.151	877.81036
664.595	856.74764
665.039	882.85928
665.483	874.89226
665.927	920.80807
666.371	779.54392
666.814	886.78445
667.258	828.66522
667.701	929.65527
668.145	820.75795
668.588	876.82484
669.031	799.60941
669.474	842.73068
669.917	871.62216
670.36	859.81907
670.803	898.83182
671.245	886.55449
671.688	802.69201
672.13	795.5258
672.573	794.7562
673.015	835.7182
673.457	813.50796
673.899	898.84257
674.341	816.69675
674.783	776.61422
675.225	799.70223
675.666	750.57184
676.108	793.47737
676.549	871.75622
676.991	836.56725
677.432	837.3982
677.873	817.62461
678.314	826.697
678.755	821.72342
679.196	787.55689
679.637	822.73726
680.078	800.62066
680.518	836.67362
680.959	801.66221
681.399	822.76375
681.839	789.67147
682.28	786.68936
682.72	810.59461
683.16	820.76851
683.6	832.628
684.039	845.4882
684.479	815.73184
684.919	790.57195
685.358	869.8986
685.798	839.90997
686.237	831.73601
686.676	902.77265
687.115	922.82559
687.554	872.76668
687.993	841.5871
688.432	908.74764
688.871	849.64213
689.309	870.77465
689.748	957.64742
690.186	927.87095
690.625	876.74733
691.063	917.86005
691.501	930.94853
691.939	939.98079
692.377	993.01733
692.815	990.96769
693.253	1037.0554
693.69	991.78876
694.128	958.94637
694.565	976.94343
695.003	1018.15472
695.44	982.91831
695.877	981.90146
696.314	1094.87856
696.751	1055.96169
697.188	1050.9654
697.625	1114.05751
698.061	1060.08111
698.498	1117.19069
698.934	1162.24021
699.371	1080.06292
699.807	1140.16213
700.243	1186.26918
700.679	1126.03642
701.115	1190.22231
701.551	1145.15956
701.987	1198.11128
702.422	1194.24403
702.858	1178.23223
703.294	1219.15457
703.729	1180.30963
704.164	1221.31897
704.599	1254.14983
705.035	1265.17166
705.47	1222.34719
705.904	1227.23491
706.339	1346.38312
706.774	1279.31594
707.209	1301.29657
707.643	1312.43167
708.078	1333.49935
708.512	1235.44523
708.946	1329.44931
709.38	1355.44421
709.814	1383.36905
710.248	1394.58034
710.682	1363.46243
711.116	1363.46616
711.549	1346.70664
711.983	1376.39014
712.416	1383.47223
712.85	1417.68321
713.283	1396.4873
713.716	1395.68478
714.149	1443.56815
714.582	1415.34722
715.015	1400.67971
715.448	1353.63842
715.881	1472.33025
716.313	1408.46905
716.746	1370.43828
717.178	1364.49722
717.61	1383.6983
718.043	1327.56697
718.475	1396.56367
718.907	1393.70893
719.339	1338.2873
719.77	1295.36632
720.202	1347.63902
720.634	1297.44708
721.065	1315.39459
721.497	1281.45199
721.928	1244.40437
722.359	1234.33524
722.79	1264.3563
723.221	1290.54782
723.652	1315.66529
724.083	1195.10761
724.514	1207.17297
724.945	1140.14331
725.375	1122.08262
725.806	1169.35081
726.236	1117.34347
726.666	1094.09877
727.096	1080.16908
727.526	1093.27803
727.956	1086.98706
728.386	1147.27807
728.816	1045.19035
729.246	1016.04312
729.675	989.03102
730.105	1044.1216
730.534	1000.93511
730.964	1028.16459
731.393	1026.11891
731.822	1019.17414
732.251	938.0205
732.68	984.92947
733.109	933.9458
733.537	940.9115
733.966	924.94786
734.395	906.76465
734.823	896.70552
735.251	886.81875
735.68	947.00731
736.108	869.89461
736.536	841.70419
736.964	802.60843
737.392	849.83538
737.82	845.74425
738.247	842.73534
738.675	821.69694
739.102	750.65057
739.53	799.7779
739.957	776.75552
740.384	839.7906
740.811	773.72286
741.238	693.50496
741.665	729.48373
742.092	780.62471
742.519	662.46772
742.945	730.54469
743.372	681.50581
743.798	695.59735
744.225	726.52082
744.651	683.5322
745.077	652.4617
745.503	631.38819
745.929	631.36263
746.355	683.51965
746.781	628.40554
747.207	575.22458
747.632	584.29354
748.058	614.38827
748.483	630.30147
748.908	601.35581
749.334	549.23635
749.759	600.27928
750.184	533.16449
750.609	569.27727
751.033	602.28855
751.458	554.13247
751.883	572.29478
752.307	505.09624
752.732	476.1051
753.156	535.2146
753.58	521.13919
754.005	489.15386
754.429	502.08856
754.853	504.15452
755.277	484.0615
755.7	528.20619
756.124	426.99446
756.548	470.03463
756.971	523.17628
757.394	479.14942
757.818	445.07296
758.241	436.03754
758.664	381.91366
759.087	416.87101
759.51	480.11045
759.933	375.85634
760.356	444.06671
760.778	406.94258
761.201	419.96025
761.623	418.95584
762.046	401.89945
762.468	442.99566
762.89	385.90178
763.312	383.88727
763.734	373.8528
764.156	337.79648
764.578	347.76202
765	393.90754
765.421	313.76375
765.843	358.89605
766.264	328.76003
766.686	360.86217
767.107	353.81552
767.528	310.75206
767.949	321.78385
768.37	313.73834
768.791	288.67317
769.212	270.65651
769.632	282.63426
770.053	266.6795
770.473	297.69625
770.894	346.82802
771.314	294.67775
771.734	255.57718
772.154	240.60055
772.575	290.64851
772.994	240.53073
773.414	298.68971
773.834	253.61461
774.254	207.49665
774.673	247.58538
775.093	186.45263
775.512	192.4646
775.931	260.63953
776.351	246.59391
776.77	230.54815
777.189	206.4802
777.607	201.50325
778.026	221.53769
778.445	193.47378
778.864	258.64232
779.282	241.5641
779.701	178.44172
780.119	211.52141
780.537	160.39416
780.955	213.53021
781.373	205.49652
781.791	147.32718
782.209	228.5124
782.627	136.35499
783.045	166.37674
783.462	166.4181
783.88	157.40087
784.297	145.36095
784.715	163.41253
785.132	184.43769
785.549	163.40207
785.966	147.36567
786.383	118.28866
786.8	210.47679
787.217	150.3516
787.633	107.26588
788.05	180.42076
788.466	221.50857
788.883	119.30139
789.299	153.36402
789.715	185.4415
790.131	165.4043
790.547	162.39894
790.963	184.44843
791.379	136.34046
791.795	109.24803
792.21	200.45758
792.626	162.37898
793.041	152.37045
793.457	107.26336
793.872	145.33715
794.287	95.2262
794.702	125.30573
795.117	105.25967
795.532	103.25696
795.947	176.41657
796.362	203.47424
796.776	179.41225
797.191	118.28694
797.605	98.22935
798.02	110.26629
798.434	186.40616
798.848	95.2333
799.262	107.26404
799.676	146.3521
800.09	105.25719
800.504	143.3431
800.918	108.24909
801.331	144.37317
801.745	146.33135
802.158	122.30254
802.572	118.28436
802.985	167.39733
803.398	111.26329
803.811	163.41282
804.224	114.28198
804.637	82.19529
805.05	99.22883
805.462	175.42243
805.875	111.28572
806.288	111.26602
806.7	139.34539
807.112	131.30087
807.525	109.26749
807.937	96.23641
808.349	118.29337
808.761	124.30244
809.173	127.30495
809.584	160.38951
809.996	91.22216
810.408	58.15
810.819	109.25485
811.231	54.13989
811.642	34.08169
812.053	135.31737
812.464	194.45081
812.875	174.43668
813.286	159.40298
813.697	225.51136
814.108	119.28845
814.519	159.34875
814.929	132.33318
815.34	131.31443
815.75	57.14519
816.16	115.28451
816.571	106.27365
816.981	136.31753
817.391	115.27561
817.801	55.13702
818.211	141.33199
818.62	106.25361
819.03	99.24151
819.44	144.37136
819.849	128.31927
820.259	124.31444
820.668	110.26859
821.077	74.18365
821.486	104.24911
821.895	140.34171
822.304	153.39956
822.713	103.24214
823.122	97.24094
823.531	108.25434
823.939	117.28265
824.348	138.33142
824.756	95.23692
825.164	130.32367
825.573	93.23235
825.981	107.26365
826.389	114.28415
826.797	92.22948
827.205	102.23272
827.612	88.21647
828.02	74.17366
828.428	99.25074
828.835	67.17629
829.243	80.19038
829.65	92.22773
830.057	100.24135
830.464	114.27545
830.871	137.32395
831.278	128.30601
831.685	123.27172
832.092	100.24345
832.499	97.21115
832.905	134.33521
833.312	138.31065
833.718	132.32506
834.124	140.31554
834.531	119.2972
834.937	122.31003
835.343	110.26338
835.749	125.28893
836.155	123.31881
836.561	67.16479
836.966	121.29297
837.372	111.28023
837.777	76.18895
838.183	141.30901
838.588	104.2564
838.993	154.36886
839.399	126.30456
839.804	67.1632
840.209	89.22549
840.613	93.20588
841.018	90.22685
841.423	116.29479
841.828	94.23642
842.232	118.28952
842.637	130.30293
843.041	46.11822
843.445	104.25894
843.849	96.23624
844.253	107.25233
844.657	70.176
845.061	113.25401
845.465	82.19738
845.869	145.33169
846.272	65.15821
846.676	104.24968
847.079	81.20522
847.483	168.41112
847.886	158.37772
848.289	81.21535
848.692	104.26139
849.095	67.16082
849.498	123.30842
849.901	133.30093
850.304	142.33428
850.707	105.26565
851.109	113.28334
851.512	93.22721
851.914	49.12371
852.316	72.18174
852.718	54.13951
853.121	137.33096
853.523	77.17947
853.925	53.13837
854.326	104.25791
854.728	60.15426
855.13	41.10605
855.531	122.28809
855.933	118.28027
856.334	70.17416
856.736	53.11894
857.137	111.25555
857.538	81.20281
857.939	110.26919
858.34	70.17029
858.741	117.30273
859.142	98.23375
859.542	87.22837
859.943	72.17849
860.343	40.09938
860.744	121.29187
861.144	77.18721
861.544	17.04118
861.945	102.25792
862.345	96.23318
862.745	93.22966
863.145	144.33872
863.544	81.20384
863.944	67.15806
864.344	85.21013
864.743	124.30401
865.143	103.26244
865.542	76.1757
865.941	109.26729
866.34	134.31643
866.74	130.34464
867.139	48.11515
867.537	115.29002
867.936	148.35016
868.335	92.23264
868.734	65.16586
869.132	100.23045
869.531	141.33573
869.929	37.08471
870.327	86.20505
870.726	130.3199
871.124	118.27258
871.522	77.19544
871.92	99.24232
872.318	73.17795
872.715	103.25286
873.113	97.2346
873.511	85.21067
873.908	50.12634
874.306	91.22488
874.703	80.19933
875.1	110.27875
875.497	92.2191
875.894	41.10073
876.291	127.30761
876.688	83.21305
877.085	136.3214
877.482	88.21903
877.878	102.24338
878.275	92.23222
878.671	124.27238
879.068	100.23943
879.464	114.27254
879.86	77.18137
880.256	113.27597
880.652	84.21256
881.048	93.2289
881.444	105.24761
881.84	124.31131
882.236	72.18051
882.631	144.34767
883.027	129.3081
883.422	79.20115
883.817	33.08325
884.213	61.15636
884.608	72.176
885.003	71.17068
885.398	112.27744
885.793	104.25875
886.188	81.20039
886.582	127.32165
886.977	107.25145
887.371	96.24102
887.766	67.16624
888.16	145.35596
888.554	85.20905
888.949	111.27592
889.343	98.23751
889.737	28.07493
890.131	95.23658
890.525	93.23621
890.918	89.2226
891.312	141.33186
891.706	79.20639
892.099	137.34352
892.492	119.25331
892.886	75.18282
893.279	85.21536
893.672	76.19273
894.065	76.18957
894.458	105.26167
894.851	149.35872
895.244	61.15559
895.637	117.27848
896.029	101.24482
896.422	92.22322
896.814	62.15392
897.206	77.18257
897.599	111.27169
897.991	74.17826
898.383	118.2754
898.775	109.24331
899.167	68.15815
899.559	144.35866
899.951	101.23596
900.342	101.25471
900.734	49.12167
901.125	158.40718
901.517	80.19541
901.908	134.31643
902.299	69.1682
902.69	148.34283
903.082	111.26592
903.473	77.18356
903.863	95.24061
904.254	138.31498
904.645	74.18338
905.036	63.15225
905.426	174.3888
905.817	100.24326
906.207	88.20829
906.597	134.30843
906.987	93.23939
907.378	55.13905
907.768	106.27772
908.158	108.26066
908.547	71.18282
908.937	96.24448
909.327	79.19092
909.717	127.31821
910.106	107.25439
910.495	114.28146
910.885	54.13674
911.274	92.22831
911.663	138.34496
912.052	122.29722
912.441	72.18245
912.83	134.30264
913.219	112.29015
913.608	73.17815
913.997	79.19709
914.385	119.28074
914.774	100.24135
915.162	94.22223
915.55	95.22803
915.939	51.12876
916.327	75.18643
916.715	99.2502
917.103	154.37195
917.491	116.28366
917.878	104.25328
918.266	80.20646
918.654	85.21589
919.041	69.17958
919.429	60.14141
919.816	132.32985
920.203	94.22618
920.591	100.24581
920.978	92.22364
921.365	83.21661
921.752	67.15929
922.139	139.29626
922.525	100.23797
922.912	95.22985
923.299	60.1489
923.685	49.12788
924.072	128.29074
924.458	99.24313
924.844	75.1848
925.231	54.12564
925.617	88.22236
926.003	110.27825
926.389	108.26968
926.774	87.21909
927.16	99.24376
927.546	86.21816
927.931	124.30536
928.317	110.25046
928.702	90.21137
929.088	92.2159
929.473	99.24976
929.858	37.08969
930.243	111.26339
930.628	63.15294
931.013	82.20209
931.398	135.30533
931.783	119.30971
932.167	125.3014
932.552	81.20186
932.937	112.2749
933.321	74.18492
933.705	95.23761
934.09	110.27507
934.474	129.30184
934.858	80.20646
935.242	76.17528
935.626	70.17858
936.009	77.2039
936.393	75.19002
936.777	89.22637
937.16	90.23259
937.544	100.23339
937.927	53.13443
938.311	98.23715
938.694	105.27515
939.077	52.12446
939.46	142.34284
939.843	162.32974
940.226	74.18905
940.609	88.20053
940.991	77.19509
941.374	41.10039
941.757	105.25653
942.139	86.19177
942.522	105.24559
942.904	90.21475
943.286	100.25187
943.668	84.21633
944.05	86.21046
944.432	110.26849
944.814	77.18875
945.196	41.10009
945.578	60.14235
945.959	124.28644
946.341	130.31446
946.722	109.25295
947.104	109.25764
947.485	91.21009
947.866	72.1807
948.247	79.1983
948.628	86.20842
949.009	104.26382
949.39	121.29737
949.771	113.25963
950.152	94.22884
950.532	61.14975
950.913	82.19664
951.293	46.12435
951.674	116.27711
952.054	80.19716
952.434	80.19752
952.814	59.14016
953.194	95.24674
953.574	113.27514
953.954	121.28346
954.334	103.25426
954.714	69.16757
955.093	121.29363
955.473	99.24537
955.853	85.21872
956.232	88.23973
956.611	85.20255
956.99	63.15797
957.37	74.18779
957.749	100.23633
958.128	81.20296
958.506	37.0962
958.885	97.24279
959.264	59.14436
959.643	96.21646
960.021	77.18987
960.4	68.15358
960.778	113.27514
961.156	71.17733
961.535	107.24663
961.913	91.21126
962.291	61.1562
962.669	79.19909
963.047	80.20309
963.424	36.0921
963.802	63.15455
964.18	72.18148
964.557	134.3035
964.935	128.29874
965.312	67.17396
965.69	107.2652
966.067	97.23415
966.444	84.20572
966.821	113.28813
967.198	103.24742
967.575	89.21727
967.952	97.22652
968.329	117.28115
968.705	109.23081
969.082	85.21666
969.458	36.08659
969.835	89.21509
970.211	75.19164
970.587	75.18589
970.963	133.33625
971.339	78.2027
971.715	95.23529
972.091	113.27504
972.467	126.30995
972.843	67.16576
973.219	112.26581
973.594	35.09178
973.97	133.31157
974.345	62.14805
974.721	113.27041
975.096	101.24206
975.471	119.27855
975.846	111.26359
976.221	82.20706
976.596	92.21877
976.971	96.23502
977.346	135.30906
977.72	84.21271
978.095	109.27881
978.469	109.25724
978.844	144.35592
979.218	55.13172
979.593	111.26288
979.967	96.23187
980.341	75.17184
980.715	72.1807
981.089	95.23589
981.463	71.16235
981.837	64.15598
982.21	171.38848
982.584	73.17555
982.957	63.15695
983.331	100.23413
983.704	66.1617
984.078	76.1864
984.451	104.25725
984.824	64.15546
985.197	102.24534
985.57	111.27531
985.943	130.31636
986.316	143.34532
986.688	116.27626
987.061	106.24574
987.434	112.28874
987.806	70.16914
988.179	91.21301
988.551	137.34216
988.923	66.16206
989.295	135.33215
989.667	22.05284
990.039	63.15529
990.411	105.23903
990.783	113.25693
991.155	61.14625
991.527	139.33668
991.898	41.10233
992.27	69.17008
992.641	102.2535
993.012	120.27853
993.384	66.15694
993.755	86.21785
994.126	88.21014
994.497	48.11786
994.868	104.23632
995.239	97.233
995.61	81.20267
995.98	84.20274
996.351	75.18487
996.722	101.23187
997.092	74.17441
997.462	53.12372
997.833	91.21401
998.203	97.23309
998.573	82.20298
998.943	105.24357
999.313	74.17651
999.683	88.20966
1000.053	80.18296
1000.423	97.23362
1000.792	92.23669
1001.162	89.21744
1001.531	120.29202
1001.901	82.2032
1002.27	105.23205
1002.639	69.17569
1003.009	101.23781
1003.378	90.22847
1003.747	98.22935
1004.116	80.19031
1004.485	106.2506
1004.853	138.34409
1005.222	133.33036
1005.591	121.28335
1005.959	45.10149
1006.328	122.27047
1006.696	63.15156
1007.064	76.19026
1007.433	111.27431
1007.801	145.34962
1008.169	108.26988
1008.537	132.28727
1008.905	54.12569
1009.273	121.29495
1009.64	66.15694
1010.008	73.17322
1010.375	135.32255
1010.743	187.42
1011.11	87.20437
1011.478	65.1604
1011.845	119.27604
1012.212	115.25681
1012.579	67.16393
1012.946	127.29775
1013.313	143.33421
1013.68	103.22897
1014.047	81.19183
1014.414	90.21088
1014.78	86.21226
1015.147	110.26298
1015.513	117.27827
1015.88	105.26584
1016.246	145.35161
1016.612	102.23102
1016.978	124.29961
1017.344	80.19658
1017.71	103.24864
1018.076	127.29495
1018.442	126.31974
1018.808	72.1792
1019.174	86.21428
1019.539	181.40569
1019.905	83.19444
1020.27	98.23965
1020.636	120.28381
1021.001	113.2672
1021.366	47.1129
1021.731	79.20207
1022.096	53.13357
1022.461	124.28918
1022.826	127.29728
1023.191	57.14932
1023.556	97.22519
1023.92	117.28403
1024.285	96.23222
1024.649	88.21407
1025.014	114.27898
1025.378	85.21229
1025.742	116.28451
1026.107	145.32153
1026.471	100.2311
1026.835	89.21897
1027.199	74.17725
1027.562	107.24585
1027.926	107.25878
1028.29	86.21615
1028.654	110.24995
1029.017	132.31942
1029.381	87.20628
1029.744	65.16527
1030.107	123.28679
1030.471	72.1716
1030.834	114.25589
1031.197	92.21978
1031.56	120.27919
1031.923	83.21327
1032.286	98.22791
1032.648	91.21585
1033.011	75.17122
1033.374	111.25769
1033.736	50.1314
1034.099	117.28147
1034.461	83.20834
1034.823	87.21508
1035.185	94.23464
1035.548	79.19114
1035.91	149.35
1036.272	90.2031
1036.634	94.22798
1036.995	85.19834
1037.357	78.18868
1037.719	119.28552
1038.08	121.28324
1038.442	97.22804
1038.803	108.25632
1039.165	89.22292
1039.526	106.25332
1039.887	113.26699
1040.248	70.17175
1040.609	112.27347
1040.97	83.20149
1041.331	126.31451
1041.692	69.16038
1042.053	123.27581
1042.413	89.20572
1042.774	115.27614
1043.134	107.25184
1043.495	114.28312
1043.855	96.23073
1044.215	76.18764
1044.576	93.22042
1044.936	92.20905
1045.296	88.21799
1045.656	80.19512
1046.016	129.30657
1046.375	79.19049
1046.735	101.22648
1047.095	99.22938
1047.454	92.19306
1047.814	117.27752
1048.173	122.28731
1048.533	53.12129
1048.892	46.11043
1049.251	92.22906
1049.61	96.23423
1049.969	92.21497
1050.328	74.15954
1050.687	99.23853
1051.046	106.25525
1051.405	96.23667
1051.763	65.14893
1052.122	67.16649
1052.48	83.20217
1052.839	87.20309
1053.197	86.20088
1053.555	143.31973
1053.914	114.27535
1054.272	123.2931
1054.63	101.24445
1054.988	69.16322
1055.345	125.26469
1055.703	101.24058
1056.061	93.2373
1056.419	97.2489
1056.776	109.26123
1057.134	76.17494
1057.491	115.2844
1057.848	94.232
1058.206	115.26687
1058.563	92.2009
1058.92	132.29909
1059.277	85.20821
1059.634	133.30766
1059.991	123.2904
1060.348	35.07929
1060.704	65.15436
1061.061	137.31263
1061.418	85.20464
1061.774	97.23725
1062.131	36.09535
1062.487	94.21775
1062.843	100.2469
1063.199	103.25351
1063.555	92.21126
1063.911	104.25998
1064.267	125.25623
1064.623	43.10451
1064.979	134.31213
1065.335	151.35373
1065.691	84.1999
1066.046	93.20253
1066.402	50.11352
1066.757	105.26224
1067.112	102.24776
1067.468	72.16917
1067.823	111.26359
1068.178	86.20646
1068.533	103.24704
1068.888	160.37401
1069.243	64.15744
1069.598	94.22636
1069.952	8.01816
1070.307	81.19922
1070.662	68.16076
1071.016	52.11639
1071.371	81.18298
1071.725	118.27843
1072.079	84.20059
1072.434	90.21689
1072.788	89.21021
1073.142	118.28641
1073.496	71.16763
1073.85	105.24067
1074.203	105.25193
1074.557	105.27646
1074.911	110.25935
1075.265	105.24125
1075.618	121.29132
1075.971	86.203
1076.325	80.20208
1076.678	76.17277
1077.031	72.16208
1077.385	110.23909
1077.738	122.27115
1078.091	85.19178
1078.444	104.23871
1078.796	43.10556
1079.149	116.28482
1079.502	95.22229
1079.855	104.23977
1080.207	95.23192
1080.56	71.18269
1080.912	110.26458
1081.264	89.21257
1081.617	93.22467
1081.969	61.15345
1082.321	116.27954
1082.673	40.09141
1083.025	97.22786
1083.377	113.23907
1083.728	79.18311
1084.08	82.20335
1084.432	63.15145
1084.783	85.19764
1085.135	81.20171
1085.486	16.03683
1085.838	84.20541
1086.189	93.22374
1086.54	75.1781
1086.891	45.11381
1087.242	56.13608
1087.593	118.28339
1087.944	105.23477
1088.295	149.33163
1088.646	120.28677
1088.996	113.26875
1089.347	89.21663
1089.698	57.13442
1090.048	106.27242
1090.398	69.1593
1090.749	92.21818
1091.099	33.08316
1091.449	115.28284
1091.799	62.15476
1092.149	31.07579
1092.499	129.30975
1092.849	90.22693
1093.199	117.28945
1093.548	93.22144
1093.898	78.194
1094.248	114.2894
1094.597	57.14519
1094.947	119.31353
1095.296	83.20353
1095.645	100.25763
1095.994	53.12712
1096.343	81.20252
1096.692	48.12602
1097.041	58.15669
1097.39	89.22147
1097.739	102.26251
1098.088	119.3149
1098.437	50.13123
1098.785	120.31951
1099.134	106.27857
1099.482	98.26723
1099.83	92.23981
1100.179	75.1946
1100.527	100.26325
1100.875	26.06895
1101.223	116.30434
1101.571	47.12983
1101.919	36.09419
1102.267	48.13506
1102.615	1.00322
1102.962	11.03541
1103.31	10.03211
1103.658	24.07718
