Data from N2 R14 sample 6_Subt2__4__14-25-14-087.txt Node

Date: Tue Sep 02 14:25:14 PDT 2025
User: uwsun
Spectrometer: HDX01956
Trigger mode: 0
Integration Time (sec): 5.000000E-1
Scans to average: 1
Nonlinearity correction enabled: true
Boxcar width: 0
Storing dark spectrum: false
XAxis mode: Wavelengths
Number of Pixels in Spectrum: 2068
>>>>>Begin Spectral Data<<<<<
194.03	28.07825
194.578	40.12587
195.127	51.1579
195.676	48.14913
196.225	133.34496
196.773	94.25385
197.321	125.32856
197.87	173.41445
198.418	147.34921
198.966	114.2742
199.513	61.14111
200.061	121.28135
200.609	150.36735
201.156	142.28165
201.704	129.2977
202.251	135.32846
202.798	140.33367
203.345	178.40217
203.892	127.2939
204.438	150.32852
204.985	112.24209
205.532	146.3517
206.078	117.26441
206.624	118.26563
207.17	142.3018
207.716	126.2798
208.262	186.33086
208.808	105.23622
209.354	116.25867
209.899	139.32435
210.445	129.29259
210.99	119.26222
211.535	189.40318
212.08	157.33332
212.625	171.39069
213.17	151.35096
213.715	120.24225
214.259	192.40558
214.804	201.45144
215.348	159.33211
215.892	140.30805
216.436	211.44307
216.98	208.41662
217.524	102.22255
218.068	183.42063
218.612	152.35196
219.155	149.32103
219.698	163.35511
220.242	167.38293
220.785	176.37569
221.328	170.38848
221.871	196.45546
222.414	140.32263
222.956	95.21171
223.499	211.42977
224.041	186.39721
224.583	235.45991
225.126	135.2741
225.668	125.28041
226.21	99.2311
226.751	152.30304
227.293	170.35611
227.835	139.31207
228.376	169.35864
228.918	192.44405
229.459	100.23036
230	133.2916
230.541	141.29935
231.082	147.32718
231.622	127.27045
232.163	124.27662
232.704	141.32085
233.244	144.32801
233.784	197.44119
234.324	98.19747
234.864	127.2648
235.404	175.38077
235.944	184.39805
236.484	124.28633
237.023	176.37798
237.563	185.38711
238.102	112.24426
238.641	192.44175
239.18	145.30865
239.719	160.36754
240.258	175.35791
240.797	172.37352
241.335	147.33017
241.874	147.25626
242.412	125.27545
242.95	116.25352
243.488	186.38428
244.026	161.33659
244.564	186.34496
245.102	188.38022
245.64	175.38449
246.177	140.28652
246.715	173.37818
247.252	141.29635
247.789	251.42026
248.326	137.2986
248.863	143.28437
249.4	180.36988
249.936	186.34324
250.473	132.28018
251.009	158.32687
251.546	142.28389
252.082	150.29794
252.618	142.2864
253.154	157.34102
253.69	153.31192
254.226	163.35164
254.761	130.26545
255.297	167.32853
255.832	162.34596
256.367	171.3632
256.903	160.31617
257.438	183.38733
257.972	197.39212
258.507	127.26268
259.042	130.2558
259.576	96.18712
260.111	190.39431
260.645	162.31576
261.179	126.26605
261.713	175.348
262.247	152.31643
262.781	152.285
263.315	154.33928
263.849	162.36438
264.382	179.36924
264.915	163.34137
265.449	97.21312
265.982	178.3628
266.515	153.33545
267.048	146.27646
267.58	183.35797
268.113	119.23123
268.646	152.3367
269.178	116.23299
269.71	177.34443
270.243	155.31772
270.775	160.36519
271.307	158.34254
271.838	205.43484
272.37	128.28389
272.902	168.34133
273.433	149.29077
273.965	169.36724
274.496	164.36615
275.027	170.3761
275.558	159.34404
276.089	90.1987
276.62	146.33471
277.15	157.34755
277.681	197.37805
278.211	135.29798
278.741	127.24878
279.272	133.2704
279.802	156.34815
280.332	98.20747
280.861	200.42433
281.391	143.28755
281.921	164.3519
282.45	198.43804
282.98	192.44369
283.509	170.33688
284.038	155.31226
284.567	182.37602
285.096	138.29688
285.625	160.31973
286.153	110.22941
286.682	150.30211
287.21	144.30619
287.739	151.31456
288.267	137.29276
288.795	205.47477
289.323	152.31066
289.851	149.30736
290.378	162.31802
290.906	142.30088
291.433	187.40739
291.961	149.29423
292.488	150.32838
293.015	124.25573
293.542	176.38742
294.069	130.28015
294.596	179.38699
295.122	163.33835
295.649	136.26206
296.175	161.34107
296.702	187.39372
297.228	195.41092
297.754	134.26156
298.28	161.31479
298.806	141.29412
299.332	96.18454
299.857	141.2745
300.383	191.41858
300.908	100.21031
301.433	166.34573
301.958	162.32328
302.483	158.3383
303.008	151.32324
303.533	166.3746
304.058	167.3386
304.582	141.28445
305.107	116.26145
305.631	202.39092
306.155	130.25821
306.679	136.27013
307.203	178.34794
307.727	161.3242
308.251	183.38309
308.775	146.29135
309.298	125.25298
309.822	160.34273
310.345	171.34021
310.868	169.33842
311.391	174.36094
311.914	167.35053
312.437	141.27124
312.96	144.28335
313.482	103.20568
314.005	169.35378
314.527	196.42673
315.049	171.36146
315.571	102.187
316.093	128.2641
316.615	169.33388
317.137	179.31502
317.659	211.41881
318.18	186.36755
318.702	154.29146
319.223	196.31872
319.744	187.33445
320.265	135.2647
320.786	148.29438
321.307	147.29546
321.828	199.35481
322.348	202.37408
322.869	179.3309
323.389	186.22681
323.909	163.29469
324.43	294.54854
324.95	198.34892
325.47	168.32123
325.989	174.31562
326.509	118.1987
327.029	203.34212
327.548	111.19023
328.067	119.21954
328.587	184.34995
329.106	181.30654
329.625	263.52715
330.144	133.22965
330.662	130.22381
331.181	184.31644
331.7	243.40976
332.218	206.31694
332.736	203.34268
333.255	262.42799
333.773	215.36195
334.291	242.43473
334.808	143.22489
335.326	244.37786
335.844	176.28137
336.361	177.31297
336.879	172.27356
337.396	156.25882
337.913	186.28667
338.43	235.34485
338.947	178.28408
339.464	233.31452
339.981	175.27251
340.497	212.34669
341.014	209.33137
341.53	156.22433
342.046	158.2523
342.562	218.35211
343.078	199.29489
343.594	226.33747
344.11	257.37529
344.626	239.37523
345.141	248.33577
345.657	271.36535
346.172	212.31061
346.687	183.25011
347.202	234.30143
347.717	260.36155
348.232	262.38697
348.747	231.30196
349.261	145.17458
349.776	241.3191
350.29	217.30184
350.805	264.37327
351.319	339.42049
351.833	172.21064
352.347	196.25281
352.861	221.27542
353.374	200.25091
353.888	238.31143
354.401	220.26463
354.915	149.17072
355.428	215.2839
355.941	247.28776
356.454	290.32272
356.967	261.31226
357.48	272.30854
357.993	234.29647
358.505	157.19772
359.018	301.35989
359.53	299.34087
360.042	290.29304
360.554	242.28561
361.066	266.30702
361.578	261.25023
362.09	279.30723
362.602	239.22852
363.113	270.27601
363.625	245.2361
364.136	279.25474
364.647	193.18629
365.158	291.28121
365.669	255.26207
366.18	279.27311
366.691	289.24607
367.201	309.29733
367.712	279.24074
368.222	262.2268
368.733	241.18128
369.243	263.19826
369.753	350.27868
370.263	301.25655
370.773	274.24734
371.282	300.23543
371.792	182.12432
372.301	261.19489
372.811	294.25382
373.32	168.08444
373.829	153.0958
374.338	295.13393
374.847	219.10459
375.356	298.13347
375.865	228.05487
376.373	288.07603
376.882	410.15859
377.39	310.09181
377.898	171.04151
378.407	254.01323
378.915	342.9836
379.423	266.99998
379.93	373.95437
380.438	157.98283
380.946	310.92649
381.453	233.93563
381.96	226.91775
382.468	147.93289
382.975	310.85319
383.482	418.77609
383.989	364.81518
384.495	306.82867
385.002	168.90519
385.509	134.92414
386.015	312.86077
386.521	415.82057
387.028	341.88142
387.534	299.92769
388.04	394.89804
388.546	106.99499
389.051	48.01086
389.557	107.05359
390.063	752.64461
390.568	483.51618
391.073	275.41459
391.578	360.61941
392.084	135.30537
392.589	-184.54434
393.093	-543.00158
393.598	-390.89392
394.103	-208.27521
394.607	-28.22093
395.112	125.12094
395.616	-3.03072
396.12	-387.61974
396.624	-774.30059
397.128	-446.30223
397.632	-229.33592
398.136	-311.40887
398.639	-1672.8557
399.143	-2991.74706
399.646	-2988.12598
400.15	-3464.86715
400.653	-4636.95033
401.156	-6401.60774
401.659	-8029.28495
402.162	-1382.24803
402.664	-741.91419
403.167	0
403.67	0
404.172	0
404.674	0
405.176	0
405.678	0
406.18	0
406.682	0
407.184	0
407.686	0
408.187	0
408.688	0
409.19	0
409.691	0
410.192	0
410.693	0
411.194	435.30976
411.694	4082.94878
412.195	8864.71461
412.696	10998.94413
413.196	7991.16849
413.696	6170.50826
414.196	8124.29114
414.696	10986.3461
415.196	12868.04663
415.696	16239.55827
416.196	13893.02705
416.695	8069.75942
417.195	4524.19867
417.694	4095.59727
418.194	4506.85764
418.693	3629.73564
419.192	3230.08244
419.691	3270.2465
420.19	3394.71794
420.688	3686.86448
421.187	3753.15883
421.685	3964.06959
422.184	3859.08014
422.682	3329.57201
423.18	2181.6032
423.678	1455.13539
424.176	1431.08476
424.674	1297.01149
425.172	1485.43137
425.669	1583.73353
426.167	1660.30112
426.664	1344.82668
427.161	1131.60149
427.659	1021.48393
428.156	1026.49662
428.652	870.51512
429.149	756.58189
429.646	841.53622
430.143	870.56765
430.639	784.64045
431.135	546.81642
431.632	682.75753
432.128	509.88903
432.624	357.97145
433.12	243.95664
433.616	332.9414
434.111	105.99702
434.607	214.00764
435.103	361.98596
435.598	388.99275
436.093	407.07934
436.588	322.07934
437.083	374.11217
437.578	299.12102
438.073	123.07102
438.568	283.17516
439.062	213.09663
439.557	273.17714
440.051	172.1083
440.546	106.07181
441.04	65.05278
441.534	151.13882
442.028	187.1587
442.522	122.10697
443.015	92.07008
443.509	155.14817
444.002	66.06583
444.496	36.03018
444.989	71.07337
445.482	91.09651
445.975	45.04051
446.468	80.06641
446.961	75.06315
447.454	50.04823
447.947	-28.02975
448.439	0
448.931	-38.03825
449.424	68.08285
449.916	69.07911
450.408	-45.04723
450.9	-82.09912
451.392	-15.01914
451.884	-51.05865
452.375	-47.0596
452.867	40.04498
453.358	-40.04501
453.849	-42.04374
454.341	-28.03202
454.832	-8.00851
455.323	-72.09497
455.814	-42.05158
456.304	2.00245
456.795	-62.07728
457.285	77.09082
457.776	52.06518
458.266	-46.06133
458.756	-73.10238
459.247	-129.17907
459.737	-69.09467
460.226	-29.03667
460.716	-87.12366
461.206	-72.10418
461.695	-103.16189
462.185	-129.18917
462.674	-54.07595
463.163	-49.06574
463.653	-61.07687
464.142	-124.19088
464.63	46.07006
465.119	-30.04314
465.608	-63.09193
466.096	-85.11906
466.585	-51.07705
467.073	-31.04906
467.561	-61.09832
468.05	-8.01226
468.538	-24.03991
469.026	-42.06818
469.513	-20.02754
470.001	-78.12028
470.489	-73.1188
470.976	-25.03957
471.463	-21.0368
471.951	-85.15398
472.438	-82.1368
472.925	-96.15998
473.412	-39.06982
473.899	-43.07124
474.385	-81.14741
474.872	-70.11903
475.359	-127.23313
475.845	-44.06557
476.331	-14.02234
476.817	-41.07537
477.303	-84.14779
477.789	-86.15878
478.275	-129.24875
478.761	-15.02755
479.247	-38.06514
479.732	-116.2261
480.218	-133.2767
480.703	-80.15682
481.188	-62.10286
481.673	-92.1662
482.158	-108.17819
482.643	-100.20698
483.128	-129.23537
483.612	-95.17861
484.097	-84.16763
484.581	-68.12807
485.066	-107.21228
485.55	-117.20806
486.034	-137.24249
486.518	-107.20504
487.002	-101.20263
487.486	-135.27435
487.969	-126.256
488.453	-106.2248
488.936	-107.20038
489.42	-117.21715
489.903	-79.16787
490.386	-572.89665
490.869	-44.07981
491.352	-10.02055
491.835	-53.09156
492.318	-85.16146
492.8	-88.15353
493.283	-122.26585
493.765	-106.22313
494.247	-62.12418
494.73	-109.20675
495.212	-57.11864
495.694	-119.23907
496.175	-195.40279
496.657	-84.17222
497.139	-29.04292
497.62	-173.35767
498.102	-106.22804
498.583	-130.2864
499.064	-153.29787
499.545	-101.20057
500.026	-104.20252
500.507	-129.26323
500.988	-81.17587
501.469	-189.42101
501.949	-92.20013
502.43	-158.33098
502.91	-119.21514
503.39	-100.2217
503.87	-100.20568
504.35	-85.17723
504.83	-133.25745
505.31	-131.28128
505.79	-129.27304
506.269	-45.09207
506.749	-136.27543
507.228	-124.25768
507.707	-114.22368
508.187	-87.18479
508.666	-155.34026
509.145	-175.36732
509.623	-143.30055
510.102	-123.2666
510.581	-57.12212
511.059	-168.3788
511.538	-94.21766
512.016	-90.19162
512.494	-95.20635
512.972	-144.30992
513.45	-186.3879
513.928	-168.36841
514.406	-181.39198
514.884	-147.34126
515.361	-131.28249
515.839	-152.31291
516.316	-178.38985
516.793	-120.27489
517.27	-135.29761
517.747	-119.27506
518.224	-106.22126
518.701	-120.24147
519.178	-198.44808
519.654	-73.15634
520.131	-135.30297
520.607	-114.25684
521.083	-144.29925
521.56	-159.34316
522.036	-79.15615
522.512	-92.20583
522.987	-167.3612
523.463	-150.32561
523.939	-80.17736
524.414	-35.07243
524.89	-86.18446
525.365	-130.26835
525.84	-171.3708
526.315	-117.25598
526.79	-70.14229
527.265	-104.21545
527.74	-121.26864
528.215	-80.17055
528.689	-105.21114
529.164	-119.23664
529.638	-70.16318
530.112	-124.2663
530.587	-144.28095
531.061	-145.32005
531.534	-88.19444
532.008	-113.24754
532.482	-89.18631
532.956	-116.26924
533.429	-64.14053
533.903	-42.08397
534.376	-89.17921
534.849	-80.16884
535.322	-16.0339
535.795	-93.20768
536.268	-58.12617
536.741	-43.09352
537.213	-71.14949
537.686	-88.19493
538.158	-112.2289
538.631	-18.03954
539.103	-58.11736
539.575	3.00561
540.047	13.02553
540.519	32.06834
540.991	12.02639
541.463	5.01087
541.934	24.04896
542.406	35.07408
542.877	32.06424
543.348	58.12451
543.82	124.26688
544.291	106.21772
544.762	49.10276
545.233	65.14389
545.703	69.13388
546.174	121.24511
546.645	110.22747
547.115	171.35401
547.585	219.42758
548.056	183.37461
548.526	219.43306
548.996	282.56693
549.466	332.67299
549.935	285.55618
550.405	403.70189
550.875	362.69488
551.344	401.77625
551.814	520.92996
552.283	589.97359
552.752	578.02105
553.221	639.02117
553.69	715.15472
554.159	767.37095
554.628	801.26202
555.096	909.63457
555.565	990.48642
556.033	1065.70113
556.502	1089.79601
556.97	1239.74824
557.438	1311.99365
557.906	1400.09475
558.374	1598.14859
558.842	1631.30488
559.31	1781.19019
559.777	1911.51604
560.245	2137.53869
560.712	2277.51542
561.18	2457.31706
561.647	2635.38057
562.114	2752.45522
562.581	3006.8676
563.048	3348.42679
563.514	3495.70558
563.981	3729.23708
564.448	3998.9833
564.914	4331.04082
565.381	4658.72722
565.847	4977.71981
566.313	5309.50696
566.779	5534.21748
567.245	5863.2947
567.711	6295.30516
568.176	6536.94822
568.642	6888.50874
569.108	7401.54945
569.573	7870.73354
570.038	8322.08689
570.504	8657.68995
570.969	9145.69283
571.434	9763.42516
571.899	10036.08654
572.363	10526.00543
572.828	11126.59337
573.293	11537.67894
573.757	11994.24976
574.222	12474.61391
574.686	12927.76582
575.15	13299.82004
575.614	13643.00245
576.078	13903.87903
576.542	14104.01264
577.006	14432.17675
577.469	14738.39764
577.933	14786.73601
578.396	14848.19471
578.86	14912.9845
579.323	15263.35061
579.786	15172.13859
580.249	14952.02164
580.712	15011.26894
581.175	14911.1757
581.637	14637.61672
582.1	14614.17169
582.563	14254.10951
583.025	14039.50148
583.487	13819.19005
583.95	13471.44318
584.412	13333.50953
584.874	13018.39942
585.336	12690.36751
585.797	12330.8759
586.259	12305.84099
586.721	11799.92305
587.182	11582.69447
587.643	11211.0234
588.105	11016.87813
588.566	10649.83875
589.027	10190.56307
589.488	9962.93603
589.949	9747.16151
590.41	9471.79346
590.87	9259.94919
591.331	8980.33579
591.791	8790.95385
592.252	8395.28366
592.712	8306.26058
593.172	8017.77353
593.632	7804.50262
594.092	7518.29644
594.552	7238.01639
595.011	7088.15468
595.471	6826.00364
595.931	6651.96037
596.39	6427.29632
596.849	6289.17962
597.308	6098.88855
597.768	5968.77944
598.227	5856.5007
598.685	5739.2923
599.144	5444.49124
599.603	5447.57449
600.062	5287.96919
600.52	5218.31383
600.978	5148.72979
601.437	5015.59984
601.895	4818.26838
602.353	4731.57786
602.811	4734.56311
603.269	4591.09418
603.727	4417.18915
604.184	4430.79571
604.642	4360.36486
605.099	4332.04296
605.557	4315.36696
606.014	4105.72674
606.471	4081.5939
606.928	3948.75891
607.385	3932.47241
607.842	4023.1032
608.299	3984.25216
608.755	3899.47729
609.212	3854.01926
609.668	3801.00013
610.125	3831.54595
610.581	3883.47942
611.037	3845.27048
611.493	3760.50318
611.949	3692.60037
612.405	3589.68537
612.861	3701.52847
613.316	3610.60692
613.772	3511.43788
614.227	3504.58476
614.683	3509.10223
615.138	3457.56085
615.593	3418.54412
616.048	3365.50958
616.503	3425.91037
616.958	3237.0471
617.412	3283.71191
617.867	3154.36895
618.321	3206.0814
618.776	3112.43147
619.23	3032.74826
619.684	2994.5819
620.138	3017.73645
620.592	2768.97323
621.046	2900.81276
621.5	2825.98781
621.954	2815.62949
622.407	2708.58084
622.861	2693.00236
623.314	2597.69485
623.768	2491.78402
624.221	2500.08743
624.674	2449.73845
625.127	2414.81086
625.58	2382.71598
626.033	2355.57882
626.485	2216.86189
626.938	2257.87319
627.39	2250.77284
627.843	2201.74113
628.295	2122.71298
628.747	2097.82209
629.199	2057.62648
629.651	2016.60648
630.103	1951.61234
630.555	1923.32363
631.006	1895.68808
631.458	1873.69749
631.909	1894.63431
632.361	1816.63402
632.812	1713.52256
633.263	1725.31117
633.714	1691.2766
634.165	1665.67988
634.616	1572.52957
635.067	1594.33728
635.518	1581.56054
635.968	1571.03001
636.419	1490.19627
636.869	1457.43977
637.319	1446.33695
637.769	1443.23662
638.219	1458.46721
638.669	1340.32486
639.119	1267.31266
639.569	1300.31792
640.019	1282.18642
640.468	1267.07731
640.918	1282.30559
641.367	1236.05814
641.816	1236.05253
642.265	1231.13432
642.714	1138.02281
643.163	1183.06476
643.612	1161.13768
644.061	1062.7286
644.51	1082.91725
644.958	1099.8586
645.406	1067.01206
645.855	1040.03698
646.303	1075.97922
646.751	985.78965
647.199	1061.895
647.647	961.78304
648.095	1024.86303
648.543	1021.63702
648.99	972.88085
649.438	1023.92746
649.885	1037.06493
650.333	1076.58921
650.78	946.86968
651.227	972.9265
651.674	935.73471
652.121	921.85035
652.568	995.95977
653.015	942.97455
653.461	906.77968
653.908	982.85414
654.354	956.87098
654.801	828.63162
655.247	938.67608
655.693	886.94835
656.139	860.72965
656.585	874.75462
657.031	798.5739
657.477	850.52239
657.922	821.59244
658.368	841.76079
658.813	874.70305
659.259	830.68609
659.704	857.67422
660.149	858.67736
660.594	846.69522
661.039	807.55854
661.484	813.65865
661.929	856.68687
662.373	807.74677
662.818	793.69236
663.262	783.61905
663.707	777.70538
664.151	808.69351
664.595	734.53963
665.039	749.6246
665.483	796.75186
665.927	831.66705
666.371	744.48648
666.814	805.65122
667.258	711.46805
667.701	803.4768
668.145	778.68289
668.588	780.65921
669.031	734.50035
669.474	718.51663
669.917	757.44926
670.36	710.55203
670.803	752.58436
671.245	775.39882
671.688	746.59302
672.13	702.37717
672.573	726.62839
673.015	757.58478
673.457	753.41729
673.899	767.61988
674.341	727.54136
674.783	709.49662
675.225	712.54527
675.666	732.54016
676.108	717.36065
676.549	746.54694
676.991	738.41657
677.432	690.19848
677.873	724.47053
678.314	709.49466
678.755	709.52472
679.196	680.37853
679.637	751.61166
680.078	776.58057
680.518	710.46238
680.959	796.65366
681.399	713.56548
681.839	720.54806
682.28	681.49642
682.72	693.40141
683.16	730.60451
683.6	751.49736
684.039	747.34886
684.479	727.57417
684.919	750.5061
685.358	804.78054
685.798	778.79279
686.237	800.68263
686.676	799.60794
687.115	802.63211
687.554	795.63875
687.993	849.5991
688.432	804.58575
688.871	825.60477
689.309	804.66436
689.748	834.48218
690.186	853.75056
690.625	801.62527
691.063	833.72176
691.501	864.83642
691.939	814.7638
692.377	871.81963
692.815	842.73068
693.253	890.82533
693.69	854.59477
694.128	890.83599
694.565	904.8299
695.003	878.91625
695.44	886.76975
695.877	939.8381
696.314	944.6851
696.751	937.79275
697.188	953.82605
697.625	973.86085
698.061	926.87619
698.498	1015.03784
698.934	993.9924
699.371	1012.96582
699.807	1008.97381
700.243	1024.03476
700.679	1027.90481
701.115	993.94486
701.551	1048.02282
701.987	1074.95422
702.422	1094.1058
702.858	1051.05229
703.294	1102.00599
703.729	1091.17968
704.164	1109.16274
704.599	1101.96463
705.035	1118.99453
705.47	1113.19305
705.904	1136.11597
706.339	1171.16581
706.774	1165.16962
707.209	1127.07798
707.643	1184.26317
708.078	1218.3473
708.512	1111.26256
708.946	1164.23232
709.38	1171.20981
709.814	1220.17918
710.248	1263.41283
710.682	1202.25911
711.116	1149.19031
711.549	1214.51432
711.983	1191.16803
712.416	1320.3971
712.85	1260.47577
713.283	1285.35386
713.716	1283.53456
714.149	1291.38613
714.582	1221.13138
715.015	1272.50871
715.448	1301.56779
715.881	1246.09752
716.313	1279.31711
716.746	1267.31382
717.178	1185.26563
717.61	1207.45169
718.043	1290.5171
718.475	1243.36883
718.907	1225.47594
719.339	1197.12208
719.77	1166.19874
720.202	1178.39865
720.634	1204.32247
721.065	1165.20059
721.497	1191.32847
721.928	1112.21609
722.359	1108.16028
722.79	1076.09776
723.221	1115.29119
723.652	1150.41751
724.083	1110.00027
724.514	1068.99131
724.945	1030.98946
725.375	988.89549
725.806	1090.23124
726.236	1020.18516
726.666	1048.03245
727.096	1025.08434
727.526	959.05743
727.956	1005.87593
728.386	999.05159
728.816	938.01189
729.246	945.93256
729.675	906.89655
730.105	969.00235
730.534	937.84022
730.964	952.03759
731.393	963.01649
731.822	875.92617
732.251	851.86864
732.68	913.81995
733.109	865.83099
733.537	863.78541
733.966	839.80141
734.395	832.64872
734.823	866.6603
735.251	784.64606
735.68	877.88868
736.108	761.69681
736.536	773.5905
736.964	750.52202
737.392	727.61228
737.82	774.6229
738.247	708.50267
738.675	805.66978
739.102	694.5451
739.53	688.56582
739.957	683.57412
740.384	735.60368
740.811	686.55623
741.238	702.52161
741.665	689.41494
742.092	696.47653
742.519	624.39429
742.945	636.37314
743.372	614.37643
743.798	630.46658
744.225	550.19636
744.651	606.38072
745.077	577.31325
745.503	620.3671
745.929	593.29085
746.355	602.36166
746.781	586.32274
747.207	528.13578
747.632	523.17292
748.058	542.24318
748.483	553.16184
748.908	527.20656
749.334	546.23034
749.759	505.09856
750.184	481.06221
750.609	543.22531
751.033	526.14408
751.458	508.04907
751.883	531.21184
752.307	491.06896
752.732	395.93351
753.156	456.05149
753.58	508.11376
754.005	516.21131
754.429	471.02795
754.853	431.00143
755.277	460.01385
755.7	426.99485
756.124	427.9966
756.548	424.94419
756.971	443.01233
757.394	445.07458
757.818	377.9226
758.241	401.9627
758.664	384.92033
759.087	368.77869
759.51	420.98508
759.933	394.89627
760.356	384.93501
760.778	364.85211
761.201	386.89049
761.623	396.90955
762.046	375.84564
762.468	393.89418
762.89	378.8866
763.312	360.8378
763.734	345.79324
764.156	312.74097
764.578	346.75999
765	295.69453
765.421	307.74995
765.843	330.83016
766.264	330.76436
766.686	347.8331
767.107	288.67397
767.528	248.60866
767.949	306.74931
768.37	250.59695
768.791	316.73455
769.212	228.55876
769.632	248.56168
770.053	247.63308
770.473	272.64077
770.894	301.72653
771.314	327.74885
771.734	271.6114
772.154	229.57417
772.575	283.63377
772.994	195.43527
773.414	325.74816
773.834	217.53072
774.254	203.48742
774.673	258.61015
775.093	189.45967
775.512	163.39659
775.931	234.57834
776.351	230.55696
776.77	199.47709
777.189	184.43078
777.607	218.54413
778.026	217.52835
778.445	157.38798
778.864	217.54428
779.282	167.39657
779.701	222.54647
780.119	188.46654
780.537	195.47727
780.955	207.51584
781.373	189.45915
781.791	201.44235
782.209	232.52096
782.627	134.34989
783.045	175.39644
783.462	200.50066
783.88	145.37102
784.297	133.33181
784.715	157.39777
785.132	147.35216
785.549	160.39488
785.966	146.36324
786.383	174.42121
786.8	168.38468
787.217	146.34249
787.633	118.29262
788.05	200.46567
788.466	175.40642
788.883	125.31625
789.299	157.37325
789.715	140.33699
790.131	177.43274
790.547	165.4061
790.963	126.3104
791.379	133.33313
791.795	166.37337
792.21	149.3444
792.626	192.44651
793.041	149.36334
793.457	160.38994
793.872	127.29635
794.287	60.14383
794.702	156.37934
795.117	140.344
795.532	128.31788
795.947	188.44393
796.362	144.3403
796.776	168.38777
797.191	116.28219
797.605	73.17168
798.02	100.24254
798.434	166.36403
798.848	117.28616
799.262	104.25677
799.676	167.40114
800.09	128.31219
800.504	132.31738
800.918	122.28059
801.331	106.2765
801.745	92.21109
802.158	117.29041
802.572	168.40101
802.985	139.33249
803.398	125.29569
803.811	164.41528
804.224	126.31098
804.637	97.23035
805.05	133.30534
805.462	134.32597
805.875	75.19426
806.288	53.12842
806.7	102.25516
807.112	155.35427
807.525	114.2795
807.937	97.23883
808.349	114.28363
808.761	106.2594
809.173	145.34698
809.584	124.3039
809.996	89.21736
810.408	68.17555
810.819	115.26856
811.231	69.17829
811.642	65.15525
812.053	93.22042
812.464	170.39691
812.875	151.38053
813.286	139.35354
813.697	193.44148
814.108	111.26947
814.519	125.27614
814.929	106.2688
815.34	103.24854
815.75	115.28991
816.16	131.32314
816.571	128.32919
816.981	98.23052
817.391	131.313
817.801	92.22765
818.211	130.30674
818.62	92.2207
819.03	121.29396
819.44	153.39396
819.849	115.28753
820.259	131.33178
820.668	76.18675
821.077	105.2591
821.486	134.31912
821.895	148.3607
822.304	74.19586
822.713	135.31539
823.122	115.28471
823.531	117.27505
823.939	125.30152
824.348	138.33142
824.756	172.42294
825.164	88.22078
825.573	100.24953
825.981	135.33092
826.389	157.38826
826.797	95.23683
827.205	120.27279
827.612	103.25267
828.02	92.21514
828.428	68.17317
828.835	75.19707
829.243	125.29489
829.65	90.22286
830.057	124.29792
830.464	116.28018
830.871	125.29626
831.278	100.24035
831.685	114.25231
832.092	134.32414
832.499	144.31032
832.905	104.26157
833.312	158.35422
833.718	111.27441
834.124	116.26273
834.531	123.30697
834.937	68.17446
835.343	126.30076
835.749	137.31591
836.155	117.30357
836.561	86.21077
836.966	105.255
837.372	106.26785
837.777	82.20365
838.183	121.2663
838.588	99.2443
838.993	128.30811
839.399	55.13472
839.804	54.13186
840.209	86.21801
840.613	112.24696
841.018	116.29102
841.423	85.21719
841.828	86.21661
842.232	159.38714
842.637	81.19057
843.041	56.14367
843.445	68.17042
843.849	62.15353
844.253	126.29604
844.657	73.18344
845.061	110.24742
845.465	89.21395
845.869	125.28709
846.272	77.187
846.676	142.33844
847.079	74.18772
847.483	131.32278
847.886	119.28661
848.289	97.2572
848.692	120.30073
849.095	88.21038
849.498	169.42023
849.901	122.27666
850.304	118.27908
850.707	108.27309
851.109	142.35419
851.512	126.30594
851.914	63.15865
852.316	82.20661
852.718	29.07525
853.121	114.27659
853.523	69.16107
853.925	61.15904
854.326	78.19435
854.728	91.23269
855.13	75.19285
855.531	53.12683
855.933	145.3426
856.334	72.17907
856.736	66.14772
857.137	112.2578
857.538	65.16322
857.939	126.30743
858.34	111.26795
858.741	109.28242
859.142	91.21735
859.542	61.16083
859.943	103.25389
860.343	48.11908
860.744	119.28715
861.144	84.20396
861.544	55.13227
861.945	77.19557
862.345	168.40255
862.745	77.19071
863.145	114.26972
863.544	115.28763
863.944	119.2779
864.344	99.24412
864.743	113.27761
865.143	99.25243
865.542	63.14603
865.941	91.22389
866.34	125.29569
866.74	82.21913
867.139	101.23984
867.537	93.23546
867.936	127.3017
868.335	95.24009
868.734	66.16838
869.132	92.21236
869.531	131.31252
869.929	75.17039
870.327	96.22845
870.726	120.29584
871.124	127.29285
871.522	82.20794
871.92	113.27586
872.318	98.23777
872.715	112.27449
873.113	80.1941
873.511	102.25202
873.908	30.07608
874.306	81.20054
874.703	114.28229
875.1	113.2862
875.497	68.16269
875.894	47.11534
876.291	94.2291
876.688	85.21811
877.085	128.30296
877.482	68.16986
877.878	95.22699
878.275	104.26195
878.671	136.29799
879.068	96.23003
879.464	154.36534
879.86	72.16976
880.256	116.28313
880.652	82.20757
881.048	143.34871
881.444	130.30508
881.84	120.30149
882.236	74.18545
882.631	95.23149
883.027	123.29411
883.422	87.22121
883.817	76.19026
884.213	105.26707
884.608	59.14457
885.003	96.22968
885.398	75.18704
885.793	92.2294
886.188	65.16128
886.582	117.29685
886.977	125.29271
887.371	64.16161
887.766	50.12445
888.16	115.28388
888.554	130.31707
888.949	125.30992
889.343	106.25651
889.737	28.07493
890.131	77.19238
890.525	82.20868
890.918	83.20782
891.312	120.28359
891.706	103.26798
892.099	128.32147
892.492	130.27606
892.886	102.24739
893.279	77.19537
893.672	59.15007
894.065	84.20922
894.458	77.19287
894.851	124.29995
895.244	86.2184
895.637	112.26684
896.029	59.14414
896.422	105.25414
896.814	90.22229
897.206	94.22215
897.599	143.34793
897.991	77.18538
898.383	86.20198
898.775	152.33627
899.167	30.07029
899.559	101.25353
899.951	144.33357
900.342	123.30897
900.734	56.13887
901.125	111.2884
901.517	46.11307
901.908	152.35768
902.299	72.17541
902.69	104.24301
903.082	107.25654
903.473	44.10555
903.863	75.19063
904.254	94.21645
904.645	126.30926
905.036	53.12833
905.426	120.27113
905.817	102.24804
906.207	56.13337
906.597	121.27924
906.987	120.30743
907.378	109.27292
907.768	80.21053
908.158	108.26066
908.547	86.22087
908.937	62.15884
909.327	131.31348
909.717	115.28877
910.106	77.18412
910.495	123.30318
910.885	125.31253
911.274	114.28177
911.663	129.32299
912.052	111.27098
912.441	96.24223
912.83	60.13756
913.219	141.36344
913.608	123.29736
913.997	46.11545
914.385	105.24838
914.774	115.27677
915.162	77.18264
915.55	124.29599
915.939	57.14375
916.327	158.38679
916.715	124.31199
917.103	123.29882
917.491	123.30039
917.878	100.24372
918.266	74.19118
918.654	115.29054
919.041	56.14608
919.429	87.20397
919.816	113.28334
920.203	45.10929
920.591	90.22164
920.978	106.25699
921.365	82.21404
921.752	110.25935
922.139	99.21284
922.525	70.16754
922.912	105.25356
923.299	95.23425
923.685	62.16145
924.072	114.25967
924.458	95.23348
924.844	75.1848
925.231	44.10257
925.617	60.15237
926.003	110.27825
926.389	104.25988
926.774	95.2389
927.16	101.24859
927.546	37.09468
927.931	117.2885
928.317	124.28154
928.702	126.29384
929.088	74.17427
929.473	115.28929
929.858	67.16149
930.243	92.2191
930.628	96.23161
931.013	110.26969
931.398	112.2545
931.783	142.36811
932.167	93.2256
932.552	95.23615
932.937	111.2725
933.321	69.17258
933.705	84.21051
934.09	158.39167
934.474	130.30412
934.858	91.2344
935.242	53.1228
935.626	60.15334
936.009	57.15144
936.393	75.19002
936.777	66.16856
937.16	101.26052
937.544	95.22194
937.927	88.22181
938.311	132.31738
938.694	136.3545
939.077	103.24412
939.46	135.32637
939.843	131.26853
940.226	84.21422
940.609	90.20501
940.991	69.17507
941.374	89.21598
941.757	132.32087
942.139	94.20926
942.522	131.30484
942.904	115.27309
943.286	92.23206
943.668	84.21633
944.05	93.22729
944.432	62.15268
944.814	119.28943
945.196	41.10009
945.578	70.16575
945.959	84.19559
946.341	133.32154
946.722	81.18901
947.104	70.16671
947.485	104.23948
947.866	41.10347
948.247	91.22793
948.628	95.22985
949.009	52.13313
949.39	69.17121
949.771	110.25289
950.152	86.20968
950.532	32.07898
950.913	73.17535
951.293	62.16716
951.674	88.21135
952.054	58.14352
952.434	75.18535
952.814	135.31601
953.194	109.28242
953.574	126.30605
953.954	82.19356
954.334	92.22756
954.714	67.16277
955.093	117.28414
955.473	79.19652
955.853	50.12944
956.232	110.29861
956.611	129.3048
956.99	35.0882
957.37	128.3217
957.749	87.20612
958.128	42.10598
958.506	55.14256
958.885	92.23048
959.264	57.13952
959.643	114.2561
960.021	72.1777
960.4	73.1647
960.778	107.26083
961.156	85.21175
961.535	114.2624
961.913	105.24308
962.291	48.12319
962.669	77.19412
963.047	109.27528
963.424	79.20058
963.802	113.27463
964.18	125.31207
964.557	85.19444
964.935	136.31691
965.312	81.2098
965.69	141.34729
966.067	111.26724
966.444	90.22017
966.821	122.31058
967.198	116.27795
967.575	115.27939
967.952	149.3444
968.329	107.25761
968.705	97.20594
969.082	80.20409
969.458	96.22828
969.835	144.34439
970.211	93.23688
970.587	82.20298
970.963	129.32637
971.339	55.14349
971.715	109.26927
972.091	59.14506
972.467	119.29311
972.843	85.20959
973.219	170.39894
973.594	114.29492
973.97	101.23809
974.345	105.24867
974.721	129.30775
975.096	67.16161
975.471	134.31274
975.846	92.21927
976.221	73.18463
976.596	83.19771
976.971	103.25183
977.346	126.28898
977.72	81.20522
978.095	79.20314
978.469	109.25724
978.844	130.32214
979.218	56.13408
979.593	106.25128
979.967	71.1723
980.341	183.41018
980.715	88.22022
981.089	90.22368
981.463	87.19829
981.837	78.1896
982.21	142.3245
982.584	83.19922
982.957	77.19133
983.331	91.21343
983.704	102.24822
984.078	82.20089
984.451	140.344
984.824	65.15786
985.197	99.23826
985.57	123.30441
985.943	102.24952
986.316	125.30288
986.688	104.24825
987.061	114.26387
987.434	80.20739
987.806	138.32915
988.179	101.23596
988.551	137.34216
988.923	77.18868
989.295	137.33694
989.667	44.10523
990.039	77.18931
990.411	101.23011
990.783	120.27246
991.155	72.17226
991.527	111.27027
991.898	115.28315
992.27	97.23786
992.641	105.26081
993.012	110.25582
993.384	57.13578
993.755	64.16276
994.126	123.29175
994.497	74.18082
994.868	99.22519
995.239	87.20938
995.61	74.18539
995.98	102.24534
996.351	38.0943
996.722	91.20934
997.092	84.19759
997.462	37.08664
997.833	120.28062
998.203	118.28242
998.573	120.29497
998.943	76.17731
999.313	95.22568
999.683	75.17913
1000.053	88.20094
1000.423	130.31114
1000.792	88.22656
1001.162	56.13765
1001.531	86.21062
1001.901	87.21539
1002.27	111.24501
1002.639	102.2582
1003.009	72.17048
1003.378	71.18085
1003.747	115.26824
1004.116	59.14092
1004.485	62.14783
1004.853	94.23625
1005.222	93.23269
1005.591	135.31526
1005.959	87.19452
1006.328	63.14139
1006.696	80.19184
1007.064	69.17295
1007.433	88.21839
1007.801	121.29308
1008.169	91.2281
1008.537	136.29572
1008.905	30.07016
1009.273	98.23991
1009.64	68.16164
1010.008	84.1989
1010.375	177.4195
1010.743	120.27323
1011.11	103.2412
1011.478	106.25959
1011.845	71.16626
1012.212	90.20202
1012.579	104.25271
1012.946	113.26565
1013.313	172.39969
1013.68	100.22244
1014.047	68.16145
1014.414	50.11807
1014.78	87.21468
1015.147	111.26532
1015.513	91.21751
1015.88	128.32274
1016.246	133.32324
1016.612	145.32554
1016.978	88.21407
1017.344	81.199
1017.71	132.31689
1018.076	105.24492
1018.442	124.31478
1018.808	105.25977
1019.174	102.25341
1019.539	135.30545
1019.905	61.14352
1020.27	71.17449
1020.636	120.28381
1021.001	108.25563
1021.366	78.18626
1021.731	100.25485
1022.096	49.12357
1022.461	70.16498
1022.826	80.18899
1023.191	90.23444
1023.556	116.26828
1023.92	121.29352
1024.285	129.3101
1024.649	53.12977
1025.014	127.31004
1025.378	88.21966
1025.742	94.23149
1026.107	103.23039
1026.471	108.24919
1026.835	89.21897
1027.199	88.21022
1027.562	93.21428
1027.926	125.30129
1028.29	95.23838
1028.654	120.27212
1029.017	95.23149
1029.381	88.20861
1029.744	83.21037
1030.107	125.29134
1030.471	77.18335
1030.834	149.33205
1031.197	87.20803
1031.56	109.25415
1031.923	87.2234
1032.286	103.23931
1032.648	169.39481
1033.011	73.16672
1033.374	117.2713
1033.736	77.20144
1034.099	114.27441
1034.461	36.09113
1034.823	80.19803
1035.185	97.242
1035.548	75.1816
1035.91	121.28579
1036.272	63.14295
1036.634	111.26835
1036.995	83.19375
1037.357	85.20534
1037.719	134.32059
1038.08	71.16782
1038.442	58.13739
1038.803	118.27951
1039.165	100.24998
1039.526	96.22986
1039.887	91.21593
1040.248	41.10114
1040.609	105.25672
1040.97	83.20149
1041.331	83.20879
1041.692	32.07492
1042.053	122.27362
1042.413	93.21479
1042.774	97.23371
1043.134	120.28172
1043.495	139.34363
1043.855	99.23781
1044.215	117.28669
1044.576	62.14783
1044.936	121.27333
1045.296	86.21311
1045.656	114.27628
1046.016	86.20607
1046.375	78.18811
1046.735	72.16241
1047.095	82.19063
1047.454	133.27657
1047.814	86.20521
1048.173	157.36721
1048.533	112.25326
1048.892	47.11281
1049.251	133.32867
1049.61	101.2462
1049.969	104.24244
1050.328	118.252
1050.687	107.25742
1051.046	90.21738
1051.405	86.21241
1051.763	91.20741
1052.122	70.17385
1052.48	41.10065
1052.839	82.19161
1053.197	100.23293
1053.555	128.28708
1053.914	120.28951
1054.272	84.20166
1054.63	66.1608
1054.988	73.17255
1055.345	89.18994
1055.703	113.26855
1056.061	92.23479
1056.419	70.18047
1056.776	76.18329
1057.134	64.14767
1057.491	125.30856
1057.848	111.2731
1058.206	90.20989
1058.563	84.18374
1058.92	113.25703
1059.277	124.30153
1059.634	120.27831
1059.991	147.34544
1060.348	98.21916
1060.704	49.11672
1061.061	134.30597
1061.418	63.15231
1061.774	70.17207
1062.131	41.1085
1062.487	77.17897
1062.843	65.16152
1063.199	73.18067
1063.555	53.12265
1063.911	95.23787
1064.267	170.34492
1064.623	54.13097
1064.979	133.30986
1065.335	123.28972
1065.691	133.31352
1066.046	101.21957
1066.402	59.13371
1066.757	143.35468
1067.112	74.18069
1067.468	60.1413
1067.823	106.25196
1068.178	93.22297
1068.533	81.19509
1068.888	89.21094
1069.243	82.20104
1069.598	57.13822
1069.952	35.079
1070.307	78.19195
1070.662	91.21418
1071.016	67.1495
1071.371	109.24482
1071.725	100.23678
1072.079	99.23573
1072.434	118.28285
1072.788	102.2403
1073.142	103.2507
1073.496	80.18855
1073.85	65.15018
1074.203	125.29878
1074.557	69.18278
1074.911	141.33044
1075.265	97.22323
1075.618	118.28425
1075.971	124.29054
1076.325	86.217
1076.678	42.09613
1077.031	102.2282
1077.385	75.16423
1077.738	95.21232
1078.091	41.09334
1078.444	142.32345
1078.796	88.21423
1079.149	121.29682
1079.502	59.13903
1079.855	122.28025
1080.207	137.33183
1080.56	71.18269
1080.912	116.2787
1081.264	130.30805
1081.617	99.23889
1081.969	53.13352
1082.321	98.23697
1082.673	59.13431
1083.025	113.26461
1083.377	137.28832
1083.728	125.28709
1084.08	94.2326
1084.432	73.17515
1084.783	126.2906
1085.135	85.21152
1085.486	74.16836
1085.838	115.2796
1086.189	93.22374
1086.54	92.21776
1086.891	85.21344
1087.242	47.1144
1087.593	144.34412
1087.944	45.10186
1088.295	129.28831
1088.646	78.1879
1088.996	63.15128
1089.347	91.22141
1089.698	82.19243
1090.048	102.26232
1090.398	152.34511
1090.749	109.25764
1091.099	85.21221
1091.449	75.18582
1091.799	69.17202
1092.149	31.07579
1092.499	60.14596
1092.849	84.21203
1093.199	85.21152
1093.548	98.23312
1093.898	83.20624
1094.248	117.29685
1094.597	42.10726
1094.947	65.17281
1095.296	64.15749
1095.645	106.2728
1095.994	137.32332
1096.343	94.23447
1096.692	43.11299
1097.041	18.04894
1097.39	53.13275
1097.739	88.22703
1098.088	112.29673
1098.437	43.11299
1098.785	61.16401
1099.134	137.35815
1099.482	75.20527
1099.83	112.29095
1100.179	53.13804
1100.527	103.27101
1100.875	60.15822
1101.223	81.21377
1101.571	79.21711
1101.919	25.06554
1102.267	43.12108
1102.615	1.00322
1102.962	12.03863
1103.31	4.01285
1103.658	17.05472
