Data from N2 R14 sample 10_Subt2__4__14-19-17-099.txt Node

Date: Tue Sep 02 14:19:17 PDT 2025
User: uwsun
Spectrometer: HDX01956
Trigger mode: 0
Integration Time (sec): 5.000000E-1
Scans to average: 1
Nonlinearity correction enabled: true
Boxcar width: 0
Storing dark spectrum: false
XAxis mode: Wavelengths
Number of Pixels in Spectrum: 2068
>>>>>Begin Spectral Data<<<<<
194.03	-27.0761
194.578	-39.12392
195.127	-39.12213
195.676	-35.10988
196.225	44.11587
196.773	22.06011
197.321	3.00805
197.87	36.08849
198.418	9.02195
198.966	-43.1065
199.513	-47.11105
200.061	-62.14936
200.609	-12.03027
201.156	-26.0536
201.704	-57.1364
202.251	-37.09291
202.798	-41.1011
203.345	-21.04937
203.892	-47.11251
204.438	-5.01131
204.985	-50.11182
205.532	-38.09472
206.078	-22.05112
206.624	-25.05792
207.17	-31.06837
207.716	-77.17819
208.262	21.03896
208.808	-33.07634
209.354	-24.05507
209.899	38.09043
210.445	-61.14368
210.99	-67.15339
211.535	35.07716
212.08	-13.02862
212.625	18.04239
213.17	-10.02398
213.715	-56.11762
214.259	22.0482
214.804	12.028
215.348	-11.02384
215.892	-17.03864
216.436	22.04812
216.98	21.04388
217.524	-44.09897
218.068	15.03563
218.612	30.07115
219.155	31.06848
219.698	23.0516
220.242	25.05896
220.785	-10.02221
221.328	-16.03793
221.871	5.01206
222.414	12.02836
222.956	-43.09856
223.499	-1.00214
224.041	34.075
224.583	78.15833
225.126	-19.03993
225.668	7.01608
226.21	-12.02862
226.751	-12.02484
227.293	5.01086
227.835	-28.06502
228.376	29.06342
228.918	24.05736
229.459	-17.04007
230	4.00901
230.541	-20.04395
231.082	-8.01838
231.622	-5.01095
232.163	8.01827
232.704	19.0443
233.244	-40.09449
233.784	46.10622
234.324	-60.1253
234.864	8.01712
235.404	0
235.944	9.0202
236.484	-4.00947
237.023	-25.05601
237.563	-11.02402
238.102	34.07538
238.641	-5.01196
239.18	-2.00439
239.719	3.00711
240.258	16.0339
240.797	-46.10453
241.335	21.04839
241.874	-11.01998
242.412	35.07858
242.95	-33.07439
243.488	47.10013
244.026	-41.08955
244.564	5.00969
245.102	18.03782
245.64	-5.0114
246.177	-21.04455
246.715	47.10548
247.252	20.04316
247.789	77.13508
248.326	-37.08362
248.863	6.01231
249.4	43.09109
249.936	19.03653
250.473	-12.02627
251.009	7.01497
251.546	11.02266
252.082	4.00822
252.618	-30.0629
253.154	-34.07685
253.69	52.10845
254.226	-29.06514
254.761	-46.09768
255.297	-8.01639
255.832	-26.05779
256.367	47.10253
256.903	39.07926
257.438	-10.02206
257.972	-5.01042
258.507	-51.10969
259.042	23.0464
259.576	-37.0744
260.111	12.02589
260.645	11.02221
261.179	-30.06551
261.713	5.01034
262.247	-14.03022
262.781	-19.03713
263.315	-2.00455
263.849	-12.02795
264.382	-12.02582
264.915	-43.09416
265.449	-59.13388
265.982	19.04013
266.515	28.06301
267.048	-66.13146
267.58	39.07889
268.113	-7.01401
268.646	-30.06897
269.178	-35.07275
269.71	-11.02236
270.243	3.00636
270.775	-24.05681
271.307	0
271.838	28.06169
272.37	-9.02053
272.902	14.02944
273.433	-17.03448
273.965	3.00675
274.496	-17.03937
275.027	-21.04831
275.558	-46.10389
276.089	-91.2085
276.62	14.03294
277.15	5.01142
277.681	-4.00805
278.211	17.03845
278.741	-26.05278
279.272	10.0209
279.802	-54.12574
280.332	-6.01299
280.861	1.00221
281.391	-54.11352
281.921	-2.00445
282.45	18.04132
282.98	22.05256
283.509	5.01029
284.038	-15.0314
284.567	36.07681
285.096	3.00664
285.625	-53.11115
286.153	-122.26754
286.682	-46.09683
287.21	-3.00658
287.739	-44.09564
288.267	-95.2132
288.795	-30.07271
289.323	-67.14374
289.851	-13.02779
290.378	-48.0989
290.906	-86.1913
291.433	-21.04777
291.961	-7.01433
292.488	-3.00678
293.015	-30.06401
293.542	-82.19025
294.069	-36.08034
294.596	-33.07458
295.122	-25.05407
295.649	-10.01995
296.175	16.03497
296.702	-14.03078
297.228	-52.11552
297.754	-60.12252
298.28	-48.0985
298.806	-102.22425
299.332	-58.11563
299.857	-37.07509
300.383	-20.04578
300.908	-104.22855
301.433	-66.14455
301.958	-20.0416
302.483	-108.24451
303.008	-28.06226
303.533	-20.04684
304.058	19.03983
304.582	-82.1739
305.107	-85.19944
305.631	-27.05512
306.155	-34.07012
306.679	-26.0536
307.203	-60.12391
307.727	-31.06518
308.251	-78.17271
308.775	-111.23473
309.298	-86.18246
309.822	-75.1688
310.345	-53.11095
310.868	-89.18887
311.391	-83.18205
311.914	-91.20187
312.437	-30.06009
312.96	-66.1363
313.482	-109.22838
314.005	-142.31769
314.527	-105.24318
315.049	-70.15577
315.571	-120.23234
316.093	-39.08349
316.615	-63.13124
317.137	-96.18116
317.659	-40.08405
318.18	-40.08324
318.702	-63.12557
319.223	-31.05364
319.744	-78.14907
320.265	-128.26659
320.786	-136.28842
321.307	-80.16922
321.828	-65.12383
322.348	-73.14449
322.869	-108.21402
323.389	-232.32593
323.909	-54.10305
324.43	-54.10946
324.95	-146.28052
325.47	-158.326
325.989	-121.23602
326.509	-161.29182
327.029	-165.30609
327.548	-154.28276
328.067	-155.30564
328.587	-92.18675
329.106	-66.11929
329.625	-97.21061
330.144	-177.33097
330.662	-123.22613
331.181	-164.30841
331.7	-171.32102
332.218	-144.2446
332.736	-140.25848
333.255	-185.34028
333.773	-176.32804
334.291	-153.30283
334.808	-157.26849
335.326	-170.2955
335.844	-164.28779
336.361	-203.39465
336.879	-201.35411
337.396	-173.31325
337.913	-178.30399
338.43	-137.22422
338.947	-232.41398
339.464	-276.43598
339.981	-204.3531
340.497	-188.34206
341.014	-261.47019
341.53	-270.44056
342.046	-253.4518
342.562	-238.43436
343.078	-223.37337
343.594	-224.3805
344.11	-232.39047
344.626	-314.57279
345.141	-231.36267
345.657	-176.2727
346.172	-269.45312
346.687	-258.40401
347.202	-236.35368
347.717	-259.42107
348.232	-262.44964
348.747	-294.45371
349.261	-352.50156
349.776	-260.40288
350.29	-317.51771
350.805	-260.42949
351.319	-324.49796
351.833	-366.53603
352.347	-298.45041
352.861	-306.45337
353.374	-275.40332
353.888	-283.4366
354.401	-276.39273
354.915	-342.46586
355.428	-373.59148
355.941	-335.47657
356.454	-257.34762
356.967	-308.44632
357.48	-246.33504
357.993	-331.50317
358.505	-342.50704
359.018	-315.46286
359.53	-332.47096
360.042	-287.3615
360.554	-294.41677
361.066	-299.4197
361.578	-313.37698
362.09	-384.53479
362.602	-401.49361
363.113	-378.49276
363.625	-342.41567
364.136	-310.36054
364.647	-380.46025
365.158	-373.46697
365.669	-390.51014
366.18	-351.43879
366.691	-388.44095
367.201	-409.52002
367.712	-439.51212
368.222	-379.43054
368.733	-419.42911
369.243	-429.44592
369.753	-400.44357
370.263	-403.46307
370.773	-394.4676
371.282	-418.45281
371.792	-571.56555
372.301	-523.56036
372.811	-501.60159
373.32	-582.46194
373.829	-598.55523
374.338	-493.37187
374.847	-650.52937
375.356	-635.51221
375.865	-652.36026
376.373	-692.42702
376.882	-628.48914
377.39	-647.41702
377.898	-843.51243
378.407	-809.32348
378.915	-795.24017
379.423	-774.25426
379.93	-853.20269
380.438	-1007.2407
380.946	-982.10652
381.453	-1152.09907
381.96	-1185.95854
382.468	-1352.78582
382.975	-1225.76739
383.482	-1249.62274
383.989	-1260.69692
384.495	-1481.48164
385.002	-1563.25916
385.509	-1635.24007
386.015	-1609.13844
386.521	-1808.05362
387.028	-1865.02451
387.534	-1952.01986
388.04	-1955.00242
388.546	-2278.01081
389.051	-2424.22504
389.557	-2617.43414
390.063	-2335.70593
390.568	-2561.0457
391.073	-2875.78414
391.578	-2863.09868
392.084	-3247.30735
392.589	-3671.35426
393.093	-4273.09718
393.598	-4289.68583
394.103	-4629.20177
394.607	-4818.21071
395.112	-5028.5956
395.616	-5445.61907
396.12	-6311.55777
396.624	-7195.79658
397.128	-7595.61644
397.632	-8012.90121
398.136	-9073.88183
398.639	-11154.9111
399.143	-12947.12059
399.646	-14283.00947
400.15	-15730.50684
400.653	-18391.44611
401.156	-21715.20976
401.659	-26151.43502
402.162	-22921.17035
402.664	-10197.70275
403.167	-1461.66809
403.67	0
404.172	0
404.674	0
405.176	0
405.678	0
406.18	0
406.682	0
407.184	0
407.686	0
408.187	0
408.688	0
409.19	0
409.691	0
410.192	-1681.46219
410.693	-9099.32955
411.194	-13616.97074
411.694	-11849.17325
412.195	-10406.1022
412.696	-10787.4666
413.196	-12601.16661
413.696	-13713.29145
414.196	-11781.58104
414.696	-8925.0005
415.196	-5786.46719
415.696	-881.53336
416.196	-73.93819
416.695	-2977.10635
417.195	-4785.31791
417.694	-4558.36183
418.194	-3977.08805
418.693	-4333.57628
419.192	-4296.14286
419.691	-4136.53319
420.19	-3728.00812
420.688	-3419.04932
421.187	-2966.58514
421.685	-2354.02215
422.184	-1848.75463
422.682	-1745.90499
423.18	-2012.74645
423.678	-2208.08401
424.176	-2050.08909
424.674	-1971.41125
425.172	-1639.80901
425.669	-1306.55635
426.167	-1158.47215
426.664	-1168.38687
427.161	-1196.3415
427.659	-1204.38903
428.156	-1062.43511
428.652	-1041.5989
429.149	-1038.62307
429.646	-872.66769
430.143	-803.81062
430.639	-835.86249
431.135	-846.99064
431.632	-755.97502
432.128	-726.07994
432.624	-823.22756
433.12	-956.15216
433.616	-861.13532
434.111	-1003.32266
434.607	-868.33658
435.103	-671.18545
435.598	-627.18467
436.093	-605.33107
436.588	-571.32124
437.083	-588.38206
437.578	-528.37775
438.073	-730.67074
438.568	-527.49758
439.062	-548.40771
439.557	-523.50775
440.051	-564.52212
440.546	-627.61233
441.04	-547.58429
441.534	-536.6505
442.028	-502.57207
442.522	-538.62251
443.015	-472.46938
443.509	-503.62336
444.002	-522.6536
444.496	-542.5861
444.989	-508.65304
445.482	-543.72675
445.975	-542.62339
446.468	-495.53028
446.961	-489.5276
447.454	-484.57797
447.947	-552.71313
448.439	-503.68881
448.931	-564.69641
449.424	-455.66054
449.916	-472.6541
450.408	-517.64892
450.9	-570.81312
451.392	-531.80074
451.884	-542.74109
452.375	-589.89046
452.867	-405.53463
453.358	-520.69522
453.849	-474.58258
454.341	-461.6152
454.832	-472.59795
455.323	-525.79977
455.814	-447.62963
456.304	-469.67202
456.795	-453.64378
457.285	-411.57371
457.776	-381.55131
458.266	-557.87134
458.756	-420.65514
459.247	-448.68664
459.737	-492.76934
460.226	-409.58671
460.716	-481.76988
461.206	-434.69956
461.695	-448.77514
462.185	-374.59017
462.674	-365.56482
463.163	-394.58989
463.653	-400.56462
464.142	-453.76568
464.63	-403.6967
465.119	-399.64074
465.608	-412.66671
466.096	-435.67836
466.585	-320.52276
467.073	-348.60143
467.561	-367.64323
468.05	-313.52352
468.538	-354.6425
469.026	-370.65651
469.513	-345.52571
470.001	-350.58333
470.489	-361.63538
470.976	-364.63278
471.463	-356.67907
471.951	-291.55494
472.438	-331.5902
472.925	-390.70281
473.412	-306.58567
473.899	-283.50016
474.385	-314.60535
474.872	-351.6424
475.359	-317.60981
475.845	-298.47863
476.331	-280.48105
476.817	-287.56035
477.303	-288.53388
477.789	-306.59617
478.275	-309.62164
478.761	-227.4392
479.247	-232.41848
479.732	-306.62341
480.218	-286.61525
480.703	-254.51841
481.188	-247.43083
481.673	-278.52615
482.158	-315.54975
482.643	-255.54609
483.128	-288.54668
483.612	-244.4756
484.097	-217.44642
484.581	-203.39502
485.066	-236.48233
485.55	-217.39593
486.034	-255.46527
486.518	-268.53356
487.002	-262.54518
487.486	-217.44923
487.969	-270.56658
488.453	-187.40359
488.936	-234.45198
489.42	-179.33737
489.903	-188.40896
490.386	-620.98554
490.869	-162.3027
491.352	-177.37742
491.835	-119.2092
492.318	-175.33972
492.8	-94.16426
493.283	-146.31976
493.765	-146.31003
494.247	-94.18967
494.73	-74.13916
495.212	-98.20584
495.694	-135.27222
496.175	-150.30671
496.657	17.03406
497.139	73.10468
497.62	-53.10662
498.102	-59.12564
498.583	54.11437
499.064	68.12542
499.545	91.17261
500.026	90.16716
500.507	128.24593
500.988	184.37691
501.469	199.40754
501.949	260.52318
502.43	310.58213
502.91	399.62655
503.39	443.87069
503.87	571.99728
504.35	574.0203
504.83	694.07875
505.31	741.29102
505.79	843.40517
506.269	1050.62053
506.749	1061.5674
507.228	1300.85766
507.707	1406.79644
508.187	1706.24281
508.666	1746.33147
509.145	1925.23928
509.623	2136.33909
510.102	2393.54182
510.581	2715.56979
511.059	2900.7028
511.538	3089.92117
512.016	3491.31825
512.494	3812.29131
512.972	4168.98883
513.45	4538.53932
513.928	4922.65086
514.406	5217.39911
514.884	5714.65585
515.361	6064.10473
515.839	6432.80642
516.316	6807.0886
516.793	7247.46338
517.27	7421.36713
517.747	7698.73458
518.224	7978.69333
518.701	8136.82532
519.178	8014.87941
519.654	8331.19952
520.131	8324.25295
520.607	8158.06876
521.083	8197.94511
521.56	7970.73221
522.036	7886.49846
522.512	7651.59923
522.987	7490.31747
523.463	7183.17988
523.939	6871.2538
524.414	6665.95577
524.89	6368.07421
525.365	6073.87792
525.84	5752.18324
526.315	5578.37324
526.79	5245.16219
527.265	4927.38901
527.74	4765.88209
528.215	4588.78026
528.689	4227.61351
529.164	4148.57998
529.638	3912.73983
530.112	3788.19682
530.587	3544.76555
531.061	3310.52208
531.534	3268.61019
532.008	3034.58623
532.482	2907.39755
532.956	2734.92944
533.429	2678.68689
533.903	2529.26993
534.376	2344.2488
534.849	2257.44161
535.322	2168.49556
535.795	2130.63783
536.268	1967.4914
536.741	1917.4793
537.213	1813.28363
537.686	1747.41617
538.158	1723.1053
538.631	1652.37369
539.103	1569.02465
539.575	1543.82697
540.047	1537.96588
540.519	1437.14617
540.991	1396.18385
541.463	1292.04322
541.934	1295.89143
542.406	1193.89047
542.877	1170.74052
543.348	1152.89252
543.82	1114.88864
544.291	1093.74904
544.762	1006.66547
545.233	1017.80316
545.703	939.44718
546.174	960.57331
546.645	878.50342
547.115	914.57779
547.585	915.49306
548.056	881.51865
548.526	917.51805
548.996	895.54531
549.466	934.63294
549.935	877.47164
550.405	924.39018
550.875	896.49912
551.344	951.59969
551.814	999.56809
552.283	1019.48672
552.752	924.48804
553.221	992.42978
553.69	1077.56608
554.159	1021.70761
554.628	1077.56512
555.096	1107.89137
555.565	1191.68313
556.033	1241.88534
556.502	1276.99803
556.97	1444.91011
557.438	1464.12755
557.906	1546.21526
558.374	1612.15785
558.842	1680.33893
559.31	1834.21541
559.777	1921.52119
560.245	2146.54162
560.712	2215.50093
561.18	2366.31154
561.647	2549.38261
562.114	2721.45771
562.581	2869.87907
563.048	3092.49937
563.514	3260.77474
563.981	3585.30018
564.448	3753.10653
564.914	4058.18782
565.381	4342.90601
565.847	4636.91172
566.313	4970.68595
566.779	5194.37719
567.245	5544.42172
567.711	5889.41663
568.176	6343.95475
568.642	6611.50976
569.108	7038.43138
569.573	7495.45242
570.038	7851.45397
570.504	8484.39343
570.969	8853.14216
571.434	9364.26942
571.899	9902.66478
572.363	10500.90552
572.828	10943.74356
573.293	11454.23863
573.757	12052.59984
574.222	12582.34648
574.686	12987.2045
575.15	13582.03628
575.614	14043.40465
576.078	14376.04485
576.542	14758.07968
577.006	15042.08971
577.469	15530.23838
577.933	15797.23693
578.396	15977.89523
578.86	16270.3555
579.323	16159.95435
579.786	16242.85453
580.249	15972.77983
580.712	16293.80698
581.175	16095.44917
581.637	16015.84262
582.1	15736.69922
582.563	15530.84993
583.025	15407.43947
583.487	15252.10505
583.95	14969.16371
584.412	14633.07015
584.874	14450.07977
585.336	14014.58913
585.797	13652.78817
586.259	13386.43252
586.721	12924.10811
587.182	12623.95919
587.643	12209.59436
588.105	12035.17673
588.566	11502.03791
589.027	11172.52363
589.488	10866.39524
589.949	10634.14722
590.41	10357.99933
590.87	10065.26119
591.331	9819.60226
591.791	9530.6339
592.252	9122.63407
592.712	8867.12616
593.172	8674.72838
593.632	8482.38363
594.092	8294.11165
594.552	7892.5497
595.011	7720.52049
595.471	7429.24661
595.931	7332.17417
596.39	7033.32394
596.849	6908.18196
597.308	6902.91548
597.768	6502.63226
598.227	6535.33839
598.685	6342.13305
599.144	6131.23763
599.603	5930.3746
600.062	5833.76842
600.52	5665.11543
600.978	5636.4907
601.437	5436.38562
601.895	5325.01241
602.353	5190.33044
602.811	5020.40592
603.269	5031.84549
603.727	4920.90453
604.184	4843.56235
604.642	4702.17367
605.099	4557.91591
605.557	4548.23826
606.014	4498.50578
606.471	4409.42239
606.928	4271.5812
607.385	4163.35674
607.842	4209.00396
608.299	4262.10572
608.755	4101.37791
609.212	4120.87946
609.668	4070.86026
610.125	4078.42774
610.581	3903.47005
611.037	3976.20604
611.493	3861.45767
611.949	3744.57866
612.405	3717.62162
612.861	3715.52256
613.316	3595.61268
613.772	3626.39195
614.227	3464.59885
614.683	3529.09372
615.138	3478.55346
615.593	3370.55994
616.048	3446.48191
616.503	3302.94235
616.958	3233.04784
617.412	3205.73136
617.867	3105.38205
618.321	3150.10001
618.776	3001.4566
619.23	3057.74421
619.684	2934.59143
620.138	2876.75288
620.592	2786.9737
621.046	2797.81808
621.5	2703.98328
621.954	2694.63508
622.407	2592.58114
622.861	2603.99246
623.314	2516.68817
623.768	2424.77247
624.221	2380.09007
624.674	2229.68637
625.127	2341.79358
625.58	2314.70053
626.033	2280.56355
626.485	2150.83502
626.938	2163.83683
627.39	2193.75327
627.843	2034.67256
628.295	1986.65087
628.747	2010.77815
629.199	2029.61414
629.651	1942.57049
630.103	1898.58358
630.555	1889.30881
631.006	1902.69236
631.458	1817.66038
631.909	1828.59373
632.361	1808.62862
632.812	1734.5378
633.263	1714.30439
633.714	1711.28907
634.165	1636.65409
634.616	1549.50828
635.067	1611.35037
635.518	1611.58783
635.968	1598.04677
636.419	1594.27791
636.869	1451.4336
637.319	1479.36871
637.769	1422.2172
638.219	1432.43982
638.669	1276.25051
639.119	1432.50745
639.569	1336.36046
640.019	1389.30255
640.468	1397.20994
640.918	1391.4334
641.367	1312.14027
641.816	1301.1228
642.265	1308.22267
642.714	1305.2217
643.163	1264.16016
643.612	1219.21249
644.061	1211.89072
644.51	1258.12812
644.958	1225.00138
645.406	1189.17634
645.855	1192.25228
646.303	1232.17933
646.751	1184.0433
647.199	1171.03197
647.647	1127.00472
648.095	1156.03274
648.543	1212.84044
648.99	1170.15699
649.438	1189.14914
649.885	1142.21938
650.333	1146.65737
650.78	1120.12307
651.227	1067.06694
651.674	1143.01136
652.121	1128.15794
652.568	1085.09092
653.015	1148.29639
653.461	1092.05081
653.908	1109.02843
654.354	1099.07761
654.801	1032.93734
655.247	1028.79495
655.693	1009.16019
656.139	1045.01174
656.585	1012.96768
657.031	950.80761
657.477	979.69616
657.922	971.81681
658.368	971.97504
658.813	992.87945
659.259	909.81365
659.704	973.84921
660.149	988.87276
660.594	928.82466
661.039	906.70874
661.484	969.90761
661.929	912.77383
662.373	888.8891
662.818	879.84121
663.262	882.7837
663.707	821.78539
664.151	844.75502
664.595	809.66913
665.039	822.75543
665.483	806.77017
665.927	824.65565
666.371	807.58906
666.814	791.62758
667.258	720.48366
667.701	821.50317
668.145	843.79836
668.588	741.5895
669.031	740.51058
669.474	676.44091
669.917	756.44769
670.36	726.58169
670.803	752.58436
671.245	715.31005
671.688	710.52785
672.13	613.22751
672.573	683.54535
673.015	649.39078
673.457	653.25888
673.899	690.4816
674.341	629.36178
674.783	600.29643
675.225	614.36007
675.666	606.30997
676.108	607.18239
676.549	655.38553
676.991	615.21504
677.432	584.04242
677.873	596.24544
678.314	571.23974
678.755	513.14904
679.196	575.19327
679.637	586.30175
680.078	585.24267
680.518	595.25681
680.959	515.13601
681.399	515.17716
681.839	532.18946
682.28	534.20914
682.72	511.07581
683.16	508.16789
683.6	527.10469
684.039	494.95057
684.479	536.20728
684.919	432.93208
685.358	504.18494
685.798	469.14623
686.237	486.09182
686.676	501.07645
687.115	479.04544
687.554	449.99839
687.993	501.02325
688.432	421.90582
688.871	462.97714
689.309	450.00419
689.748	465.90618
690.186	480.06685
690.625	461.00693
691.063	442.99444
691.501	501.14787
691.939	394.93097
692.377	455.03688
692.815	387.87768
693.253	484.08243
693.69	404.83915
694.128	367.8465
694.565	453.01027
695.003	452.07404
695.44	401.89169
695.877	433.94964
696.314	432.87369
696.751	466.99379
697.188	435.93835
697.625	404.87952
698.061	396.90009
698.498	451.02237
698.934	395.90236
699.371	393.87644
699.807	415.92702
700.243	462.03739
700.679	435.92628
701.115	466.02495
701.551	436.96608
701.987	451.95075
702.422	431.96275
702.858	423.94995
703.294	438.93247
703.729	409.9471
704.164	380.87002
704.599	433.9064
705.035	395.83673
705.47	365.84625
705.904	379.83928
706.339	451.98494
706.774	435.95764
707.209	375.82246
707.643	450.01163
708.078	414.95241
708.512	315.75802
708.946	412.93417
709.38	437.97373
709.814	405.87627
710.248	422.9708
710.682	415.93161
711.116	366.83091
711.549	368.90642
711.983	426.92662
712.416	453.00235
712.85	382.90612
713.283	370.83453
713.716	429.01519
714.149	440.9867
714.582	392.83455
715.015	388.92424
715.448	440.04187
715.881	433.89116
716.313	385.85683
716.746	384.85832
717.178	403.91692
717.61	395.95118
718.043	365.86864
718.475	387.8912
718.907	417.99919
719.339	336.72964
719.77	293.67127
720.202	342.82905
720.634	365.84625
721.065	387.87091
721.497	355.83186
721.928	357.83687
722.359	313.726
722.79	326.74941
723.221	368.88401
723.652	430.04551
724.083	362.77806
724.514	352.77316
724.945	350.78653
725.375	292.6546
725.806	360.85921
726.236	381.92961
726.666	342.7758
727.096	337.79339
727.526	361.87525
727.956	289.63547
728.386	374.87722
728.816	312.76031
729.246	303.71003
729.675	260.62225
730.105	338.79807
730.534	359.80162
730.964	335.81345
731.393	362.85968
731.822	303.74733
732.251	303.74238
732.68	334.75581
733.109	301.71609
733.537	251.59073
733.966	286.68759
734.395	321.71264
734.823	259.56975
735.251	289.67352
735.68	332.79906
736.108	281.68926
736.536	288.65783
736.964	297.66567
737.392	258.62851
737.82	262.61193
738.247	275.63939
738.675	299.69079
739.102	221.5407
739.53	245.60808
739.957	275.686
740.384	296.7065
740.811	223.55389
741.238	229.54692
741.665	276.62026
742.092	323.74177
742.519	231.55865
742.945	227.53363
743.372	263.63291
743.798	236.59268
744.225	249.57712
744.651	258.62992
745.077	249.60512
745.503	234.55832
745.929	247.57792
746.355	300.72124
746.781	237.5738
747.207	139.32448
747.632	156.37678
748.058	214.52387
748.483	219.4947
748.908	188.4604
749.334	232.55715
749.759	191.44393
750.184	202.47292
750.609	241.57821
751.033	229.53035
751.458	251.54914
751.883	199.48525
752.307	188.43635
752.732	99.24734
753.156	187.45514
753.58	164.38621
754.005	183.45819
754.429	140.32752
754.853	170.41617
755.277	192.44775
755.7	187.45719
756.124	159.39061
756.548	170.39847
756.971	180.43393
757.394	163.41531
757.818	144.36762
758.241	126.31827
758.664	185.46018
759.087	149.3304
759.51	138.34147
759.933	128.30682
760.356	152.38613
760.778	137.33495
761.201	175.42068
761.623	166.39882
762.046	147.34692
762.468	183.43405
762.89	156.38175
763.312	165.39875
763.734	155.36991
764.156	124.30514
764.578	169.38503
765	172.41464
765.421	99.25118
765.843	151.39205
766.264	178.42472
766.686	175.43388
767.107	127.30657
767.528	84.21241
767.949	107.27167
768.37	107.26248
768.791	119.28737
769.212	76.19149
769.632	53.12479
770.053	100.26289
770.473	116.28155
770.894	128.31904
771.314	126.30019
771.734	146.3378
772.154	108.27669
772.575	126.2913
772.994	55.12632
773.414	157.37354
773.834	135.33521
774.254	139.33782
774.673	139.3363
775.093	94.23268
775.512	94.23166
775.931	109.27557
776.351	94.23345
776.77	84.20579
777.189	129.30527
777.607	137.34698
778.026	135.33374
778.445	42.10598
778.864	93.23847
779.282	86.20741
779.701	97.24427
780.119	84.21241
780.537	62.15549
780.955	141.35558
781.373	95.23486
781.791	130.29037
782.209	148.33807
782.627	131.34223
783.045	103.23675
783.462	96.24483
783.88	75.19426
784.297	118.29519
784.715	84.21558
785.132	131.31479
785.549	86.21514
785.966	109.27302
786.383	85.20921
786.8	118.27291
787.217	141.33108
787.633	47.11806
788.05	174.40721
788.466	148.34555
788.883	81.20654
789.299	113.27092
789.715	149.35804
790.131	117.28924
790.547	76.19012
790.963	106.2621
791.379	90.22717
791.795	91.20783
792.21	108.25167
792.626	83.19718
793.041	117.28701
793.457	100.24645
793.872	108.25295
794.287	58.13908
794.702	103.25295
795.117	40.1001
795.532	84.21029
795.947	173.4097
796.362	129.30574
796.776	150.34747
797.191	105.25595
797.605	21.04989
798.02	91.22108
798.434	124.27433
798.848	100.24536
799.262	80.19839
799.676	111.26947
800.09	100.24517
800.504	113.27267
800.918	69.16038
801.331	93.24313
801.745	104.23804
802.158	83.20729
802.572	138.3313
802.985	138.33016
803.398	93.22136
803.811	130.33118
804.224	120.29649
804.637	55.13166
805.05	119.27396
805.462	118.28791
805.875	71.18403
806.288	79.19049
806.7	122.30409
807.112	83.19246
807.525	119.29148
807.937	74.18297
808.349	99.24699
808.761	108.2642
809.173	99.23898
809.584	114.27991
809.996	67.1643
810.408	108.27688
810.819	78.18348
811.231	21.05471
811.642	48.11502
812.053	54.12895
812.464	123.28983
812.875	128.3239
813.286	92.23595
813.697	128.29662
814.108	136.32861
814.519	118.26106
814.929	128.32332
815.34	100.24144
815.75	81.20544
816.16	83.20654
816.571	106.27365
816.981	152.35377
817.391	114.27327
817.801	62.15426
818.211	139.32741
818.62	85.20418
819.03	119.28921
819.44	112.29045
819.849	131.32658
820.259	97.24716
820.668	84.2061
821.077	98.24214
821.486	122.29122
821.895	138.33696
822.304	96.25315
822.713	85.20053
823.122	103.25557
823.531	86.2034
823.939	98.2376
824.348	135.3244
824.756	135.33423
825.164	112.27977
825.573	63.15826
825.981	103.25398
826.389	122.30365
826.797	74.18519
827.205	110.25056
827.612	135.3292
828.02	89.20825
828.428	84.21332
828.835	85.22297
829.243	125.29489
829.65	66.16415
830.057	61.14831
830.464	102.24701
830.871	116.27541
831.278	95.22855
831.685	78.17393
832.092	105.25538
832.499	103.22392
832.905	135.33765
833.312	127.28653
833.718	172.42044
834.124	105.23835
834.531	124.30941
834.937	107.27264
835.343	94.22576
835.749	127.29343
836.155	98.2551
836.561	121.29462
836.966	112.27164
837.372	108.2728
837.777	85.21098
838.183	113.24911
838.588	107.26365
838.993	100.24199
839.399	62.15167
839.804	54.13186
840.209	80.20301
840.613	119.26201
841.018	91.22933
841.423	84.21468
841.828	76.19177
842.232	161.39187
842.637	66.15573
843.041	73.18673
843.445	94.23447
843.849	76.18771
844.253	109.25694
844.657	56.14115
845.061	112.25182
845.465	140.33329
845.869	89.20588
846.272	66.16062
846.676	111.26613
847.079	72.18271
847.483	107.26481
847.886	136.3265
848.289	98.25981
848.692	92.23172
849.095	63.15133
849.498	102.25673
849.901	120.27223
850.304	128.30214
850.707	93.23579
851.109	104.2612
851.512	110.26789
851.914	33.08355
852.316	87.21901
852.718	61.1574
853.121	107.25995
853.523	89.20694
853.925	69.17965
854.326	51.1277
854.728	74.18978
855.13	58.14958
855.531	46.11022
855.933	117.27794
856.334	76.18888
856.736	47.10561
857.137	83.19215
857.538	79.19788
857.939	40.09916
858.34	99.23952
858.741	96.2493
859.142	104.24778
859.542	70.18428
859.943	101.24905
860.343	63.15586
860.744	127.30599
861.144	113.27288
861.544	68.16313
861.945	69.1755
862.345	123.29725
862.745	96.23694
863.145	132.31122
863.544	39.09888
863.944	92.21599
864.344	102.25137
864.743	145.35411
865.143	66.16927
865.542	95.2188
865.941	77.18994
866.34	111.26329
866.74	88.23494
867.139	69.16486
867.537	83.21052
867.936	107.25517
868.335	70.1777
868.734	65.16586
869.132	106.24399
869.531	90.2164
869.929	84.19049
870.327	94.22378
870.726	128.3151
871.124	124.2861
871.522	104.2627
871.92	124.3021
872.318	117.28286
872.715	153.37212
873.113	129.3101
873.511	91.2253
873.908	41.10377
874.306	98.24187
874.703	120.29682
875.1	88.22387
875.497	72.17213
875.894	46.11291
876.291	84.20511
876.688	55.14187
877.085	103.24497
877.482	66.16493
877.878	74.17752
878.275	61.15483
878.671	135.29586
879.068	88.21118
879.464	88.21143
879.86	52.12308
880.256	124.30221
880.652	115.28939
881.048	95.23374
881.444	116.27297
881.84	63.1599
882.236	90.2249
882.631	109.26491
883.027	81.19524
883.422	104.26364
883.817	71.1779
884.213	70.17915
884.608	75.18323
885.003	73.17542
885.398	57.14262
885.793	99.24654
886.188	63.15638
886.582	145.36606
886.977	100.23532
887.371	93.23361
887.766	51.12691
888.16	108.26694
888.554	138.33608
888.949	104.25885
889.343	108.26125
889.737	48.12802
890.131	33.0831
890.525	89.22621
890.918	93.23244
891.312	66.15761
891.706	60.15726
892.099	108.27222
892.492	90.19278
892.886	95.23071
893.279	105.26508
893.672	95.24009
894.065	111.27511
894.458	115.28607
894.851	102.24776
895.244	51.13032
895.637	127.3017
896.029	66.16104
896.422	182.4341
896.814	102.25137
897.206	51.12153
897.599	119.29084
897.991	73.17589
898.383	62.1463
898.775	75.16859
899.167	92.21295
899.559	70.17669
899.951	114.26565
900.342	135.33838
900.734	18.04495
901.125	95.24751
901.517	100.24336
901.908	116.27488
902.299	87.21136
902.69	112.2613
903.082	142.33818
903.473	31.07455
903.863	92.23313
904.254	143.32606
904.645	170.41385
905.036	94.22584
905.426	127.28653
905.817	89.21695
906.207	95.22455
906.597	95.22037
906.987	100.25709
907.378	74.18646
907.768	89.23386
908.158	68.16536
908.547	91.2335
908.937	127.32165
909.327	95.22889
909.717	131.328
910.106	101.2404
910.495	112.27663
910.885	82.20661
911.274	83.20632
911.663	106.26651
912.052	103.25183
912.441	100.25214
912.83	113.2563
913.219	117.30284
913.608	142.34207
913.997	85.21183
914.385	78.18548
914.774	103.24845
915.162	97.22919
915.55	104.2492
915.939	75.18853
916.327	124.30548
916.715	53.13505
917.103	101.24639
917.491	131.31945
917.878	137.33158
918.266	65.16819
918.654	76.19334
919.041	70.18216
919.429	95.22238
919.816	86.21669
920.203	94.22618
920.591	79.19494
920.978	94.22841
921.365	86.22433
921.752	94.22232
922.139	122.26099
922.525	68.16282
922.912	98.23697
923.299	106.26085
923.685	52.13564
924.072	91.20825
924.458	71.17527
924.844	72.17751
925.231	92.21244
925.617	22.05624
926.003	134.33751
926.389	65.16357
926.774	72.18181
927.16	114.27991
927.546	93.23563
927.931	120.29573
928.317	108.24601
928.702	125.29157
929.088	66.15567
929.473	36.09184
929.858	7.01706
930.243	59.1414
930.628	51.12409
931.013	104.25526
931.398	147.33166
931.783	75.19667
932.167	80.19454
932.552	85.21167
932.937	118.2893
933.321	71.17752
933.705	81.20311
934.09	127.31661
934.474	125.29271
934.858	128.32758
935.242	74.17074
935.626	119.30096
936.009	63.16722
936.393	66.16749
936.777	94.23888
937.16	64.16614
937.544	86.20127
937.927	57.14447
938.311	112.27031
938.694	101.26485
939.077	55.13156
939.46	89.21703
939.843	128.26255
940.226	73.18653
940.609	82.18709
940.991	55.13989
941.374	74.18008
941.757	128.31138
942.139	73.16322
942.522	98.22953
942.904	95.22646
943.286	131.32812
943.668	64.1654
944.05	104.25366
944.432	39.09645
944.814	64.15726
945.196	26.06365
945.578	39.0929
945.959	143.32908
946.341	151.36381
946.722	93.2165
947.104	89.21119
947.485	125.28663
947.866	41.10347
948.247	80.20078
948.628	65.15815
949.009	44.11281
949.39	138.33809
949.771	128.29321
950.152	79.19286
950.532	-14.03485
950.913	66.15875
951.293	45.12167
951.674	67.16155
952.054	68.16795
952.434	55.13642
952.814	116.27254
953.194	112.29005
953.574	108.26322
953.954	65.15394
954.334	82.2032
954.714	79.1915
955.093	95.23166
955.473	49.12256
955.853	109.2793
956.232	113.3066
956.611	131.3094
956.99	79.19752
957.37	110.27736
957.749	89.21078
958.128	57.14344
958.506	79.20392
958.885	91.22801
959.264	87.21176
959.643	136.30414
960.021	76.18744
960.4	122.2725
960.778	147.35565
961.156	73.18225
961.535	91.21042
961.913	96.22265
962.291	63.16126
962.669	26.06614
963.047	107.27033
963.424	41.1048
963.802	72.17633
964.18	128.31939
964.557	96.21912
964.935	82.19311
965.312	60.15597
965.69	121.29913
966.067	62.15066
966.444	96.23458
966.821	95.243
967.198	126.30134
967.575	121.29363
967.952	108.25167
968.329	78.18882
968.705	107.22667
969.082	103.2617
969.458	36.08659
969.835	102.2459
970.211	60.15372
970.587	94.23217
970.963	69.17643
971.339	62.16156
971.715	99.24501
972.091	96.23441
972.467	75.18623
972.843	78.19258
973.219	85.20278
973.594	71.18504
973.97	122.28641
974.345	48.11493
974.721	77.18553
975.096	66.15923
975.471	131.30592
975.846	111.26359
976.221	85.21452
976.596	50.11986
976.971	114.27815
977.346	102.23506
977.72	86.2177
978.095	86.22087
978.469	85.20154
978.844	124.30761
979.218	56.13408
979.593	83.19763
979.967	95.2295
980.341	96.21903
980.715	55.13846
981.089	72.17953
981.463	78.1781
981.837	24.05893
982.21	137.31339
982.584	58.13988
982.957	75.18643
983.331	137.31842
983.704	87.21231
984.078	98.23938
984.451	135.33202
984.824	58.14104
985.197	44.107
985.57	117.28988
985.943	115.28064
986.316	130.3147
986.688	94.22481
987.061	96.223
987.434	119.30642
987.806	109.26143
988.179	59.13897
988.551	89.22421
988.923	57.14019
989.295	162.39658
989.667	40.09574
990.039	95.23279
990.411	115.26126
990.783	106.24135
991.155	45.10822
991.527	147.35552
991.898	70.17378
992.27	70.17251
992.641	80.19962
993.012	114.26491
993.384	64.15224
993.755	68.17281
994.126	81.19368
994.497	73.17841
994.868	74.16917
995.239	62.14992
995.61	70.17549
995.98	73.17655
996.351	59.14586
996.722	40.09295
997.092	68.16045
997.462	57.13296
997.833	120.28062
998.203	101.24252
998.573	52.12943
998.943	84.19566
999.313	76.18121
999.683	103.24469
1000.053	136.30753
1000.423	107.25722
1000.792	116.29718
1001.162	75.18371
1001.531	103.25145
1001.901	83.20564
1002.27	139.30501
1002.639	81.20581
1003.009	57.13536
1003.378	46.11769
1003.747	100.23394
1004.116	47.11251
1004.485	78.18541
1004.853	94.23625
1005.222	80.20063
1005.591	96.2259
1005.959	76.17031
1006.328	83.1855
1006.696	67.16106
1007.064	102.25415
1007.433	92.22815
1007.801	113.27412
1008.169	109.27233
1008.537	122.26607
1008.905	82.1898
1009.273	116.28303
1009.64	76.18037
1010.008	131.30736
1010.375	141.3365
1010.743	140.31748
1011.11	61.14402
1011.478	78.19202
1011.845	105.24424
1012.212	104.23277
1012.579	112.27174
1012.946	142.33193
1013.313	178.41314
1013.68	117.25933
1014.047	70.16613
1014.414	51.12041
1014.78	74.18304
1015.147	147.34894
1015.513	85.2034
1015.88	150.37672
1016.246	140.3398
1016.612	88.19988
1016.978	73.17808
1017.344	74.18203
1017.71	124.29814
1018.076	85.19905
1018.442	115.2924
1018.808	66.16445
1019.174	95.23632
1019.539	126.28561
1019.905	62.14584
1020.27	79.19387
1020.636	97.23043
1021.001	94.22309
1021.366	90.21442
1021.731	99.25234
1022.096	66.16594
1022.461	86.20206
1022.826	119.27899
1023.191	105.27281
1023.556	62.14493
1023.92	94.22918
1024.285	85.20604
1024.649	78.1901
1025.014	93.22848
1025.378	77.19259
1025.742	119.2917
1026.107	85.19084
1026.471	128.29415
1026.835	92.22623
1027.199	53.12746
1027.562	80.1848
1027.926	120.28951
1028.29	74.18639
1028.654	71.16261
1029.017	111.26967
1029.381	91.2156
1029.744	112.2824
1030.107	105.24569
1030.471	128.30179
1030.834	111.24931
1031.197	131.3106
1031.56	89.20833
1031.923	42.10869
1032.286	97.22563
1032.648	89.21119
1033.011	72.16447
1033.374	156.35893
1033.736	50.1314
1034.099	57.13869
1034.461	61.15373
1034.823	68.16869
1035.185	86.21498
1035.548	75.1816
1035.91	51.12209
1036.272	88.19867
1036.634	110.26599
1036.995	99.23038
1037.357	37.09019
1037.719	104.25025
1038.08	103.24195
1038.442	86.20261
1038.803	119.28182
1039.165	95.23769
1039.526	78.1874
1039.887	91.21593
1040.248	37.09134
1040.609	82.20134
1040.97	84.20388
1041.331	65.16404
1041.692	95.21967
1042.053	139.31066
1042.413	92.21252
1042.774	115.27614
1043.134	113.26565
1043.495	100.24898
1043.855	83.19998
1044.215	119.29148
1044.576	82.19476
1044.936	116.26231
1045.296	118.2907
1045.656	104.25252
1046.016	126.29961
1046.375	80.19286
1046.735	80.18016
1047.095	96.22256
1047.454	125.2604
1047.814	56.13439
1048.173	119.28041
1048.533	80.18208
1048.892	58.13893
1049.251	115.28513
1049.61	79.19337
1049.969	90.21038
1050.328	104.22277
1050.687	64.15522
1051.046	55.13372
1051.405	93.22941
1051.763	83.18948
1052.122	90.2227
1052.48	66.16128
1052.839	49.11524
1053.197	82.19168
1053.555	138.30887
1053.914	69.16807
1054.272	104.24873
1054.63	79.192
1054.988	95.2236
1055.345	81.17317
1055.703	124.29406
1056.061	47.1209
1056.419	70.18047
1056.776	141.33586
1057.134	63.14539
1057.491	102.25285
1057.848	101.24896
1058.206	115.26687
1058.563	101.22013
1058.92	135.3057
1059.277	66.16224
1059.634	128.29639
1059.991	147.34544
1060.348	90.2016
1060.704	45.10727
1061.061	160.36342
1061.418	108.25888
1061.774	73.17934
1062.131	20.05311
1062.487	57.13301
1062.843	110.27109
1063.199	86.21233
1063.555	46.1066
1063.911	104.25998
1064.267	134.27412
1064.623	62.15015
1064.979	129.30078
1065.335	134.31495
1065.691	81.19287
1066.046	54.11857
1066.402	91.20489
1066.757	95.23769
1067.112	127.30703
1067.468	35.08283
1067.823	111.26359
1068.178	95.22768
1068.533	74.17847
1068.888	115.27119
1069.243	84.20587
1069.598	103.2476
1069.952	34.07676
1070.307	50.12368
1070.662	96.22573
1071.016	44.09864
1071.371	105.23603
1071.725	64.1526
1072.079	80.19118
1072.434	68.16455
1072.788	106.24953
1073.142	138.33369
1073.496	107.25086
1073.85	110.25188
1074.203	44.1068
1074.557	74.19586
1074.911	96.22696
1075.265	103.23675
1075.618	84.20365
1075.971	107.25154
1076.325	98.24675
1076.678	79.17948
1077.031	79.17758
1077.385	114.24757
1077.738	97.2167
1078.091	90.20285
1078.444	115.26338
1078.796	99.24052
1079.149	76.18799
1079.502	36.08521
1079.855	103.23751
1080.207	91.22232
1080.56	73.18778
1080.912	85.20542
1081.264	112.26632
1081.617	93.22467
1081.969	76.19067
1082.321	90.21795
1082.673	48.10951
1083.025	90.2117
1083.377	99.21009
1083.728	93.21496
1084.08	78.19357
1084.432	89.21289
1084.783	86.19993
1085.135	72.17959
1085.486	72.16387
1085.838	94.22944
1086.189	99.2379
1086.54	112.26407
1086.891	50.12634
1087.242	95.22915
1087.593	134.32084
1087.944	77.17316
1088.295	68.15389
1088.646	106.25399
1088.996	81.19383
1089.347	75.18303
1089.698	61.14374
1090.048	104.26737
1090.398	94.21593
1090.749	91.21585
1091.099	51.12811
1091.449	114.28043
1091.799	131.3229
1092.149	37.09036
1092.499	47.11461
1092.849	96.2418
1093.199	92.22865
1093.548	93.22144
1093.898	91.22579
1094.248	82.20934
1094.597	72.18291
1094.947	74.19645
1095.296	73.17934
1095.645	132.33817
1095.994	69.16499
1096.343	75.18772
1096.692	36.09471
1097.041	48.12988
1097.39	105.26053
1097.739	84.21686
1098.088	128.33821
1098.437	44.1156
1098.785	109.29076
1099.134	83.21898
1099.482	62.17004
1099.83	99.25775
1100.179	57.14835
1100.527	89.23473
1100.875	62.16344
1101.223	109.28631
1101.571	48.13257
1101.919	41.10719
1102.267	50.14064
1102.615	14.04496
1102.962	22.07073
1103.31	-7.02252
1103.658	29.09321
