Data from N2 R14 sample 8_Subt2__4__14-22-46-096.txt Node

Date: Tue Sep 02 14:22:46 PDT 2025
User: uwsun
Spectrometer: HDX01956
Trigger mode: 0
Integration Time (sec): 5.000000E-1
Scans to average: 1
Nonlinearity correction enabled: true
Boxcar width: 0
Storing dark spectrum: false
XAxis mode: Wavelengths
Number of Pixels in Spectrum: 2068
>>>>>Begin Spectral Data<<<<<
194.03	-20.05631
194.578	-19.06022
195.127	-10.0312
195.676	-3.00938
196.225	80.20939
196.773	59.16024
197.321	26.06948
197.87	76.18544
198.418	51.12339
198.966	1.00246
199.513	-6.01406
200.061	30.07101
200.609	26.06514
201.156	-22.04531
201.704	-17.04037
202.251	14.03483
202.798	4.00978
203.345	60.13882
203.892	14.03312
204.438	62.13831
204.985	19.04189
205.532	44.10804
206.078	35.08042
206.624	17.03906
207.17	73.15749
207.716	23.05217
208.262	67.12286
208.808	-23.0531
209.354	10.02279
209.899	85.20045
210.445	11.02555
210.99	-14.03171
211.535	65.14239
212.08	50.10863
212.625	56.13091
213.17	57.13494
213.715	-36.07528
214.259	69.14969
214.804	59.13637
215.348	53.11331
215.892	41.09209
216.436	96.2067
216.98	94.19325
217.524	-3.00669
218.068	79.18536
218.612	101.23624
219.155	35.07726
219.698	59.13137
220.242	82.19123
220.785	66.14425
221.328	58.13553
221.871	44.10531
222.414	48.11265
222.956	5.01135
223.499	73.15336
224.041	67.14677
224.583	87.17624
225.126	43.08914
225.668	4.0092
226.21	7.01664
226.751	11.02265
227.293	89.18978
227.835	17.03912
228.376	90.19428
228.918	73.17282
229.459	28.06543
230	7.01575
230.541	48.10397
231.082	26.05932
231.622	42.09109
232.163	11.02511
232.704	40.09288
233.244	67.15499
233.784	87.19925
234.324	-37.07687
234.864	5.01071
235.404	63.14034
235.944	44.09803
236.484	65.15185
237.023	34.07525
237.563	46.09922
238.102	62.13665
238.641	44.10423
239.18	35.07628
239.719	63.14753
240.258	44.09266
240.797	42.09373
241.335	89.20228
241.874	40.0717
242.412	14.03157
242.95	29.06455
243.488	77.16298
244.026	12.02592
244.564	100.18944
245.102	41.08572
245.64	30.06792
246.177	74.15371
246.715	58.12987
247.252	86.18294
247.789	74.12992
248.326	13.02908
248.863	59.11963
249.4	41.08689
249.936	53.10107
250.473	23.04998
251.009	23.04902
251.546	-15.03108
252.082	40.08149
252.618	18.03734
253.154	59.13083
253.69	47.09813
254.226	42.09296
254.761	0
255.297	1.00204
255.832	6.01325
256.367	49.10684
256.903	76.15314
257.438	38.08298
257.972	31.06409
258.507	-28.05993
259.042	50.10024
259.576	-10.01998
260.111	52.11124
260.645	63.12569
261.179	-31.06771
261.713	75.15262
262.247	5.01075
262.781	9.01747
263.315	28.06332
263.849	1.00232
264.382	47.09983
264.915	11.02381
265.449	-35.07903
265.982	60.12558
266.515	16.03609
267.048	43.08347
267.58	112.22277
268.113	-16.03209
268.646	38.08617
269.178	-10.02067
269.71	36.07241
270.243	62.12976
270.775	7.01647
271.307	66.14589
271.838	28.06169
272.37	19.0431
272.902	51.10639
273.433	43.08603
273.965	-12.02708
274.496	16.03681
275.027	20.04563
275.558	47.10413
276.089	-30.06789
276.62	31.07271
277.15	63.1422
277.681	37.07375
278.211	34.07663
278.741	-6.01212
279.272	46.09538
279.802	49.11177
280.332	-35.07625
280.861	7.01548
281.391	49.10067
281.921	2.00444
282.45	45.10273
282.98	69.16335
283.509	48.09783
284.038	89.18202
284.567	11.0236
285.096	20.04412
285.625	14.02892
286.153	39.08262
286.682	2.00417
287.21	-18.03962
287.739	20.04288
288.267	-4.00881
288.795	49.11699
289.323	-2.00423
289.851	32.06775
290.378	-1.00204
290.906	-13.02848
291.433	3.00679
291.961	4.00817
292.488	20.04499
293.015	26.0548
293.542	-3.00685
294.069	8.01769
294.596	4.00897
295.122	44.09376
295.649	77.15048
296.175	70.15124
296.702	5.01095
297.228	33.07202
297.754	-9.01816
298.28	-1.00203
298.806	6.01289
299.332	-8.01576
299.857	-1.00201
300.383	32.07248
300.908	-50.10863
301.433	30.06437
301.958	74.15069
302.483	-52.11639
303.008	13.02866
303.533	25.05804
304.058	-12.02533
304.582	18.03734
305.107	-27.06263
305.631	52.10425
306.155	-8.0164
306.679	-7.01437
307.203	30.0607
307.727	21.04365
308.251	16.03473
308.775	-66.1382
309.298	-33.0692
309.822	28.06169
310.345	4.00827
310.868	-21.0439
311.391	20.04292
311.914	-21.04591
312.437	10.01984
312.96	-31.06352
313.482	-10.02049
314.005	-19.04143
314.527	-36.08224
315.049	-8.01757
315.571	22.04115
316.093	27.05697
316.615	0
317.137	21.03849
317.659	64.1314
318.18	16.03288
318.702	0
319.223	38.06455
319.744	20.03731
320.265	-34.06933
320.786	-61.12725
321.307	23.04755
321.828	16.02988
322.348	-61.1204
322.869	-44.08589
323.389	-166.22829
323.909	-21.03975
324.43	30.05964
324.95	6.01111
325.47	-45.09049
325.989	-34.06495
326.509	-27.04727
327.029	-71.12862
327.548	-26.0462
328.067	-68.13134
328.587	-35.07012
329.106	-51.09182
329.625	-12.02558
330.144	-56.10158
330.662	-108.1978
331.181	-82.15109
331.7	-95.175
332.218	-62.10298
332.736	-21.03762
333.255	-65.11595
333.773	-41.07386
334.291	-23.04414
334.808	-72.12031
335.326	-11.01832
335.844	-108.18673
336.361	-64.1203
336.879	-56.09491
337.396	-18.0313
337.913	-86.14323
338.43	-11.01737
338.947	-82.14064
339.464	-102.15303
339.981	-117.19782
340.497	-72.12714
341.014	-89.15326
341.53	-91.14103
342.046	-123.21227
342.562	-45.07811
343.078	-40.06362
343.594	-69.11229
344.11	-107.17394
344.626	-132.22968
345.141	-77.11549
345.657	-80.12046
346.172	-35.0552
346.687	-130.19599
347.202	-66.09384
347.717	-56.08585
348.232	-114.18788
348.747	-139.20471
349.261	-176.23686
349.776	-76.11141
350.29	-213.33771
350.805	-62.09679
351.319	-128.18533
351.833	-177.24413
352.347	-151.21816
352.861	-151.21314
353.374	-111.15458
353.888	-173.25824
354.401	-114.15392
354.915	-219.28627
355.428	-156.23194
355.941	-157.21079
356.454	-89.11372
356.967	-166.22992
357.48	-76.09775
357.993	-207.30301
358.505	-193.27312
359.018	-113.15575
359.53	-152.20333
360.042	-157.18876
360.554	-126.16911
361.066	-188.25452
361.578	-143.16161
362.09	-184.23977
362.602	-149.16698
363.113	-187.22795
363.625	-186.21336
364.136	-120.12968
364.647	-245.28224
365.158	-150.1731
365.669	-148.17774
366.18	-257.31061
366.691	-209.22134
367.201	-202.23839
367.712	-207.22064
368.222	-221.23594
368.733	-186.17216
369.243	-209.19772
369.753	-214.22018
370.263	-221.23651
370.773	-214.23718
371.282	-195.19264
371.792	-378.34357
372.301	-343.34103
372.811	-263.28847
373.32	-323.22269
373.829	-337.27633
374.338	-322.22087
374.847	-374.26278
375.356	-403.28718
375.865	-394.17953
376.373	-401.20274
376.882	-301.19511
377.39	-397.21747
377.898	-595.30484
378.407	-505.14742
378.915	-397.06681
379.423	-558.14151
379.93	-480.05549
380.438	-618.06864
380.946	-660.00635
381.453	-712.96733
381.96	-766.88479
382.468	-910.75729
382.975	-774.77132
383.482	-773.69419
383.989	-822.72325
384.495	-935.58257
385.002	-1032.45049
385.509	-1185.38503
386.015	-1102.39646
386.521	-1211.33704
387.028	-1213.36714
387.534	-1355.34681
388.04	-1159.43618
388.546	-1585.39903
389.051	-1802.57211
389.557	-1821.85743
390.063	-1418.10993
390.568	-1650.40861
391.073	-2109.04779
391.578	-2095.31071
392.084	-2290.43018
392.589	-2733.31547
393.093	-3156.8723
393.598	-3213.85763
394.103	-3517.82937
394.607	-3534.20796
395.112	-3684.50758
395.616	-3969.91844
396.12	-4904.40535
396.624	-5461.28494
397.128	-5749.89658
397.632	-5950.10199
398.136	-6623.44977
398.639	-8566.72368
399.143	-10516.63693
399.646	-11359.69102
400.15	-12450.45363
400.653	-14999.83229
401.156	-17712.53737
401.659	-21548.13523
402.162	-17301.82488
402.664	-3282.37268
403.167	-768.46302
403.67	0
404.172	0
404.674	0
405.176	0
405.678	0
406.18	0
406.682	0
407.184	0
407.686	0
408.187	0
408.688	0
409.19	0
409.691	0
410.192	0
410.693	-1290.59482
411.194	-6361.28064
411.694	-5061.07356
412.195	-3553.55463
412.696	-4569.26688
413.196	-6741.72589
413.696	-7973.63694
414.196	-6511.66597
414.696	-3334.77149
415.196	-661.6657
415.696	3764.31897
416.196	3606.14187
416.695	119.71909
417.195	-2306.20198
417.694	-2240.6945
418.194	-1670.59505
418.693	-2215.18064
419.192	-2087.41001
419.691	-2152.56628
420.19	-1764.0273
420.688	-1314.03896
421.187	-1168.81999
421.685	-749.23688
422.184	-296.88214
422.682	-270.16842
423.18	-944.29649
423.678	-1138.60373
424.176	-1220.02257
424.674	-964.51291
425.172	-868.06237
425.669	-435.92245
426.167	-418.84871
426.664	-513.75282
427.161	-543.70133
427.659	-564.68526
428.156	-629.64803
428.652	-484.77118
429.149	-500.77336
429.646	-435.80329
430.143	-339.88634
430.639	-470.88145
431.135	-489.94592
431.632	-383.9486
432.128	-448.01132
432.624	-538.09716
433.12	-595.02707
433.616	-489.01998
434.111	-625.12001
434.607	-595.17304
435.103	-402.0749
435.598	-340.06731
436.093	-273.11569
436.588	-316.1475
437.083	-347.19309
437.578	-327.20797
438.073	-476.38702
438.568	-391.34687
439.062	-290.18606
439.557	-351.31536
440.051	-354.29676
440.546	-421.37459
441.04	-338.33079
441.534	-366.41686
442.028	-284.29684
442.522	-327.34838
443.015	-304.28074
443.509	-296.33988
444.002	-314.36438
444.496	-297.29
444.989	-300.35804
445.482	-328.40756
445.975	-351.37458
446.468	-377.38475
446.961	-297.29599
447.454	-286.31679
447.947	-375.45501
448.439	-325.41916
448.931	-348.39664
449.424	-339.47436
449.916	-310.40707
450.408	-402.48412
450.9	-435.59403
451.392	-413.60063
451.884	-334.42561
452.375	-371.52416
452.867	-312.39893
453.358	-366.46416
453.849	-326.37945
454.341	-322.40974
454.832	-383.47009
455.323	-345.49732
455.814	-311.41903
456.304	-334.45824
456.795	-245.32527
457.285	-312.42163
457.776	-225.30975
458.266	-357.5259
458.756	-319.48289
459.247	-369.55227
459.737	-364.54791
460.226	-372.52741
460.716	-321.49029
461.206	-310.48208
461.695	-283.46814
462.185	-288.44314
462.674	-236.35133
463.163	-271.39061
463.653	-245.32876
464.142	-273.43884
464.63	-184.29955
465.119	-312.4886
465.608	-289.45138
466.096	-294.43957
466.585	-271.43662
467.073	-243.4082
467.561	-214.35997
468.05	-224.36549
468.538	-254.44925
469.026	-246.4224
469.513	-249.36855
470.001	-267.43481
470.489	-200.33715
470.976	-183.30287
471.463	-214.39412
471.951	-230.43211
472.438	-227.39385
472.925	-260.45291
473.412	-110.20055
473.899	-193.33308
474.385	-212.39868
474.872	-201.35393
475.359	-214.40145
475.845	-167.25822
476.331	-133.2195
476.817	-157.29707
477.303	-222.40475
477.789	-164.30872
478.275	-237.46888
478.761	-139.26326
479.247	-156.27591
479.732	-191.37893
480.218	-199.42009
480.703	-152.30304
481.188	-190.32641
481.673	-144.2636
482.158	-203.3438
482.643	-93.19219
483.128	-121.22032
483.612	-144.274
484.097	-104.2085
484.581	-76.14341
485.066	-96.18997
485.55	-157.2821
486.034	-92.16093
486.518	-133.25646
487.002	-140.2834
487.486	-105.21192
487.969	-83.16698
488.453	-68.14301
488.936	-89.16593
489.42	2.0036
489.903	2.00417
490.386	-429.64446
490.869	35.06221
491.352	39.07926
491.835	33.0557
492.318	97.17608
492.8	106.17547
493.283	90.18728
493.765	150.29794
494.247	210.39414
494.73	219.38219
495.212	300.57474
495.694	298.54112
496.175	298.54746
496.657	484.86511
497.139	551.6738
497.62	514.89933
498.102	531.98568
498.583	663.21581
499.064	691.07627
499.545	873.34268
500.026	983.42597
500.507	1054.57925
500.988	1205.90415
501.469	1317.02319
501.949	1529.19669
502.43	1641.10648
502.91	1845.76515
503.39	2018.55527
503.87	2298.32108
504.35	2514.41249
504.83	2802.00377
505.31	3105.44021
505.79	3372.28229
506.269	3793.01663
506.749	4028.72345
507.228	4486.62814
507.707	5171.95867
508.187	5564.24227
508.666	6018.18776
509.145	6743.89393
509.623	7403.1848
510.102	8107.91418
510.581	8700.78882
511.059	9464.43104
511.538	10412.24371
512.016	11308.52788
512.494	12320.13657
512.972	13257.9727
513.45	14599.22598
513.928	15640.79412
514.406	17017.92182
514.884	18286.00826
515.361	19817.854
515.839	20990.04388
516.316	22347.14344
516.793	23555.94161
517.27	24960.02324
517.747	26205.53215
518.224	27077.38316
518.701	27899.39839
519.178	28545.77567
519.654	29118.98806
520.131	29645.09489
520.607	29900.68817
521.083	29523.39141
521.56	29269.90012
522.036	29121.67599
522.512	28537.43959
522.987	27902.03564
523.463	27232.61905
523.939	26335.16306
524.414	25416.4116
524.89	24370.25271
525.365	23532.67438
525.84	22447.8567
526.315	21477.14648
526.79	20646.93016
527.265	19738.67907
527.74	18711.73552
528.215	17929.23374
528.689	16975.72478
529.164	16290.85364
529.638	15349.11737
530.112	14793.3533
530.587	14027.81768
531.061	13646.71572
531.534	13008.62132
532.008	12351.2885
532.482	11660.51817
532.956	11227.61217
533.429	10763.803
533.903	10266.20224
534.376	9718.31848
534.849	9397.30913
535.322	9073.5233
535.795	8670.77261
536.268	8387.31004
536.741	7998.84254
537.213	7780.52829
537.686	7419.42255
538.158	7189.99561
538.631	6811.2653
539.103	6689.84279
539.575	6402.56421
540.047	6184.78093
540.519	6006.26138
540.991	5702.52024
541.463	5459.54483
541.934	5278.28425
542.406	5060.62612
542.877	4909.39622
543.348	4745.92079
543.82	4674.06929
544.291	4495.85704
544.762	4227.0552
545.233	4133.4683
545.703	4023.75375
546.174	3902.11812
546.645	3761.28911
547.115	3738.38484
547.585	3621.17456
548.056	3483.44091
548.526	3331.35473
548.996	3363.50776
549.466	3371.61188
549.935	3165.4176
550.405	3122.04339
550.875	3047.45608
551.344	3029.54539
551.814	2967.33009
552.283	2943.08605
552.752	2802.37622
553.221	2708.06488
553.69	2712.18005
554.159	2667.63524
554.628	2542.19364
555.096	2521.7987
555.565	2566.21442
556.033	2555.50536
556.502	2442.63628
556.97	2435.25767
557.438	2383.56197
557.906	2344.58848
558.374	2402.45064
558.842	2384.6331
559.31	2372.36204
559.777	2357.67717
560.245	2387.60003
560.712	2397.53647
561.18	2463.31725
561.647	2399.37617
562.114	2311.44019
562.581	2448.84839
563.048	2532.5516
563.514	2446.80918
563.981	2574.52239
564.448	2615.42492
564.914	2653.61384
565.381	2736.50823
565.847	2818.6426
566.313	2886.60456
566.779	2951.43222
567.245	2990.6126
567.711	3103.71448
568.176	3218.32438
568.642	3185.95178
569.108	3394.78617
569.573	3589.49648
570.038	3632.85259
570.504	3764.08866
570.969	3922.71886
571.434	3991.84655
571.899	4186.23579
572.363	4339.88916
572.828	4619.78131
573.293	4697.72906
573.757	4798.67739
574.222	4948.40077
574.686	5088.34439
575.15	5226.62912
575.614	5328.37249
576.078	5519.40962
576.542	5613.217
577.006	5843.07018
577.469	5876.63223
577.933	6054.95978
578.396	6034.31702
578.86	6170.23092
579.323	6150.27631
579.786	6296.78477
580.249	6260.02107
580.712	6185.44423
581.175	6177.48644
581.637	6250.12636
582.1	6168.90713
582.563	6259.80417
583.025	5945.45583
583.487	5927.56241
583.95	5842.8393
584.412	5787.78783
584.874	5739.5548
585.336	5523.50435
585.797	5435.04364
586.259	5293.62143
586.721	5184.61355
587.182	5175.65318
587.643	4895.60467
588.105	4737.9363
588.566	4628.34878
589.027	4475.16507
589.488	4331.94666
589.949	4335.32001
590.41	4167.1982
590.87	4090.10755
591.331	4032.82719
591.791	3829.26251
592.252	3699.25578
592.712	3588.62571
593.172	3571.25097
593.632	3469.17958
594.092	3286.31693
594.552	3250.15196
595.011	3215.46303
595.471	3079.39321
595.931	2916.40489
596.39	2839.76002
596.849	2739.63393
597.308	2778.31904
597.768	2636.07307
598.227	2597.80727
598.685	2649.59893
599.144	2428.64029
599.603	2405.70052
600.062	2388.17351
600.52	2319.40719
600.978	2190.64775
601.437	2176.50516
601.895	2185.19951
602.353	2128.36904
602.811	2004.32166
603.269	2018.61436
603.727	1916.56189
604.184	1901.31902
604.642	1825.59341
605.099	1796.38082
605.557	1768.54299
606.014	1713.07954
606.471	1670.52892
606.928	1673.02841
607.385	1581.35524
607.842	1531.1481
608.299	1610.27406
608.755	1529.30691
609.212	1422.97959
609.668	1428.96154
610.125	1558.35045
610.581	1497.27686
611.037	1466.13701
611.493	1339.11508
611.949	1346.15354
612.405	1261.63152
612.861	1323.09917
613.316	1248.03975
613.772	1242.94334
614.227	1181.94092
614.683	1223.77452
615.138	1166.90715
615.593	1178.90764
616.048	1174.88091
616.503	1114.9833
616.958	1094.99371
617.412	1093.86237
617.867	1007.61083
618.321	1054.55274
618.776	989.60977
619.23	996.73436
619.684	1065.74948
620.138	998.73146
620.592	934.72984
621.046	984.73774
621.5	938.74072
621.954	977.65338
622.407	888.51816
622.861	881.66516
623.314	886.55937
623.768	848.54452
624.221	860.28961
624.674	825.49685
625.127	798.48633
625.58	842.51731
626.033	850.47637
626.485	747.44732
626.938	803.53377
627.39	785.46894
627.843	751.41144
628.295	722.36716
628.747	753.46105
629.199	674.27051
629.651	662.2509
630.103	602.16623
630.555	672.17825
631.006	730.41467
631.458	632.26124
631.909	709.35984
632.361	640.2654
632.812	633.23897
633.263	646.17416
633.714	687.23018
634.165	578.21525
634.616	548.13639
635.067	588.12766
635.518	628.28863
635.968	648.1004
636.419	532.01318
636.869	527.10566
637.319	492.00824
637.769	518.01949
638.219	607.26258
638.669	483.02701
639.119	517.12138
639.569	445.96938
640.019	525.07673
640.468	484.96764
640.918	501.08015
641.367	464.93754
641.816	452.91372
642.265	457.95578
642.714	450.94344
643.163	429.89842
643.612	361.79876
644.061	440.84176
644.51	362.76198
644.958	377.76298
645.406	377.83207
645.855	378.8571
646.303	388.83788
646.751	378.7932
647.199	433.89918
647.647	374.79589
648.095	390.82416
648.543	429.80423
648.99	367.81339
649.438	334.7361
649.885	365.84122
650.333	408.72621
650.78	326.73831
651.227	296.67964
651.674	382.8069
652.121	300.68938
652.568	373.8425
653.015	366.86516
653.461	286.64431
653.908	353.76965
654.354	343.76907
654.801	287.63796
655.247	350.72083
655.693	305.75281
656.139	307.69656
656.585	253.58104
657.031	283.6262
657.477	229.4762
657.922	281.6158
658.368	325.7586
658.813	350.76748
659.259	276.63195
659.704	260.58023
660.149	307.67901
660.594	275.62422
661.039	262.57259
661.484	329.74556
661.929	285.63746
662.373	225.54783
662.818	252.60126
663.262	260.60105
663.707	256.62387
664.151	288.67344
664.595	249.57872
665.039	259.62092
665.483	259.6346
665.927	311.69933
666.371	173.39175
666.814	258.59501
667.258	185.42743
667.701	274.57142
668.145	270.6479
668.588	234.55725
669.031	198.45428
669.474	227.53155
669.917	267.57228
670.36	224.54039
670.803	243.56968
671.245	207.42834
671.688	253.59844
672.13	190.41823
672.573	263.64655
673.015	250.58253
673.457	177.3807
673.899	217.5139
674.341	217.51171
674.783	223.52136
675.225	207.49797
675.666	215.50424
676.108	201.4299
676.549	209.48576
676.991	219.47346
677.432	212.41539
677.873	192.43769
678.314	232.54081
678.755	191.45687
679.196	193.43526
679.637	215.51506
680.078	260.59221
680.518	226.51665
680.959	197.46419
681.399	205.49858
681.839	206.49227
682.28	170.414
682.72	208.46784
683.16	163.40118
683.6	254.56543
684.039	195.40224
684.479	207.49835
684.919	167.38078
685.358	168.42147
685.798	147.3814
686.237	193.46042
686.676	229.52171
687.115	206.47642
687.554	223.51911
687.993	182.39928
688.432	150.34153
688.871	171.3847
689.309	164.38832
689.748	208.43012
690.186	154.36605
690.625	163.37915
691.063	203.47907
691.501	159.38989
691.939	169.41671
692.377	167.40343
692.815	157.37268
693.253	146.34984
693.69	180.39256
694.128	154.37027
694.565	148.35152
695.003	128.32367
695.44	167.38937
695.877	118.27594
696.314	178.38095
696.751	186.42076
697.188	173.39414
697.625	215.48685
698.061	119.28563
698.498	189.45209
698.934	141.33856
699.371	150.35132
699.807	168.3944
700.243	120.28885
700.679	170.38284
701.115	203.472
701.551	200.46493
701.987	173.38696
702.422	139.32919
702.858	152.36032
703.294	143.32395
703.729	151.36753
704.164	153.36626
704.599	179.39576
705.035	114.25631
705.47	132.32014
705.904	159.36824
706.339	172.39779
706.774	135.31588
707.209	145.33342
707.643	178.42325
708.078	144.34912
708.512	97.24305
708.946	124.29758
709.38	133.31498
709.814	140.32006
710.248	129.3141
710.682	109.26004
711.116	116.27668
711.549	125.32164
711.983	124.28701
712.416	164.38546
712.85	121.30143
713.283	130.30758
713.716	136.3407
714.149	153.36332
714.582	153.34265
715.015	160.39778
715.448	152.38065
715.881	173.3769
716.313	114.26795
716.746	97.22964
717.178	119.28628
717.61	114.28909
718.043	129.32089
718.475	124.30052
718.907	163.40944
719.339	62.14248
719.77	89.21224
720.202	106.26832
720.634	104.25356
721.065	135.31947
721.497	126.30846
721.928	126.30869
722.359	97.2346
722.79	117.28019
723.221	160.39952
723.652	148.37956
724.083	102.23149
724.514	113.26067
724.945	98.2316
725.375	92.21472
725.806	117.29221
726.236	161.40892
726.666	102.24264
727.096	98.24143
727.526	110.27924
727.956	115.26211
728.386	179.43584
728.816	77.19585
729.246	85.20766
729.675	132.32363
730.105	112.27602
730.534	136.31766
730.964	161.40369
731.393	153.37796
731.822	165.41729
732.251	115.29157
732.68	155.36353
733.109	102.25193
733.537	134.32255
733.966	136.33627
734.395	157.36043
734.823	96.21841
735.251	103.24883
735.68	153.38073
736.108	117.29569
736.536	121.28567
736.964	103.24006
737.392	88.22117
737.82	107.25751
738.247	152.36199
738.675	164.38907
739.102	95.23787
739.53	77.19696
739.957	112.28764
740.384	148.36325
740.811	167.41904
741.238	133.32348
741.665	101.23512
742.092	164.38862
742.519	86.21366
742.945	126.30203
743.372	147.36153
743.798	109.27998
744.225	117.27827
744.651	152.37845
745.077	140.34718
745.503	167.40358
745.929	148.35301
746.355	193.47343
746.781	158.38823
747.207	68.16095
747.632	86.21046
748.058	130.3232
748.483	133.3057
748.908	160.39387
749.334	116.28472
749.759	116.2736
750.184	109.25984
750.609	151.36849
751.033	157.3688
751.458	150.33517
751.883	165.4049
752.307	79.18731
752.732	50.12603
753.156	124.30536
753.58	142.33584
754.005	146.36799
754.429	80.18935
754.853	117.28924
755.277	108.25602
755.7	123.3043
756.124	78.19449
756.548	63.15076
756.971	113.27586
757.394	127.32565
757.818	86.22179
758.241	111.28113
758.664	87.22027
759.087	78.17552
759.51	146.36073
759.933	58.14088
760.356	130.33153
760.778	124.3039
761.201	111.27007
761.623	130.31446
762.046	144.34004
762.468	162.3858
762.89	123.30285
763.312	124.30198
763.734	60.1458
764.156	87.21555
764.578	120.2761
765	110.26829
765.421	66.16844
765.843	106.27735
766.264	131.31539
766.686	94.23651
767.107	125.30186
767.528	82.20743
767.949	63.16121
768.37	82.20209
768.791	152.36477
769.212	63.15911
769.632	52.12246
770.053	71.18757
770.473	78.19067
770.894	148.36755
771.314	137.32571
771.734	57.13421
772.154	106.27166
772.575	135.31154
772.994	80.18282
773.414	124.2969
773.834	72.18083
774.254	122.29745
774.673	85.20774
775.093	89.22051
775.512	88.21711
775.931	88.22332
776.351	98.2432
776.77	53.13059
777.189	120.28447
777.607	69.17687
778.026	80.19977
778.445	59.14842
778.864	89.22837
779.282	98.23581
779.701	89.22445
780.119	103.25957
780.537	84.20983
780.955	151.38012
781.373	92.22756
781.791	101.22694
782.209	142.32476
782.627	68.17955
783.045	92.21193
783.462	91.23228
783.88	79.20448
784.297	69.17414
784.715	74.19025
785.132	79.19171
785.549	76.19047
785.966	111.27793
786.383	97.23822
786.8	156.35807
787.217	72.17134
787.633	88.21942
788.05	140.32983
788.466	147.34328
788.883	72.18388
789.299	70.1692
789.715	94.22824
790.131	65.16222
790.547	105.26129
790.963	89.22075
791.379	80.20229
791.795	114.25915
792.21	120.27897
792.626	84.19951
793.041	90.22188
793.457	93.22949
793.872	109.25525
794.287	32.07712
794.702	93.22881
795.117	89.22075
795.532	55.13841
795.947	166.39366
796.362	150.35407
796.776	155.35869
797.191	56.13776
797.605	30.07115
798.02	91.22108
798.434	150.33005
798.848	59.14586
799.262	64.15918
799.676	146.3521
800.09	114.27877
800.504	115.2774
800.918	80.18554
801.331	91.23798
801.745	90.20658
802.158	70.17524
802.572	145.34764
802.985	131.31384
803.398	120.28414
803.811	132.33616
804.224	129.3182
804.637	54.1293
805.05	82.19018
805.462	101.24721
805.875	33.0861
806.288	77.18574
806.7	79.19845
807.112	112.25821
807.525	96.23615
807.937	54.13401
808.349	135.33459
808.761	105.257
809.173	100.24135
809.584	140.34209
809.996	79.19329
810.408	42.10892
810.819	98.22962
811.231	45.11676
811.642	36.08646
812.053	76.18072
812.464	112.26448
812.875	111.28173
813.286	135.34361
813.697	199.45465
814.108	127.30738
814.519	162.3551
814.929	88.22387
815.34	67.16277
815.75	111.28003
816.16	112.27724
816.571	124.31912
816.981	85.20045
817.391	93.22382
817.801	65.16163
818.211	122.28831
818.62	105.25126
819.03	100.2439
819.44	128.33102
819.849	124.30952
820.259	117.29706
820.668	53.13079
821.077	56.13943
821.486	127.30286
821.895	154.3749
822.304	90.23756
822.713	124.29031
823.122	115.28471
823.531	98.23124
823.939	114.27555
824.348	82.19903
824.756	111.27602
825.164	129.32124
825.573	65.16322
825.981	145.35477
826.389	124.30851
826.797	67.16788
827.205	74.16979
827.612	95.23339
828.02	105.24492
828.428	76.19327
828.835	62.16327
829.243	88.20909
829.65	58.14446
830.057	127.30495
830.464	111.26835
830.871	105.24982
831.278	72.17397
831.685	118.26095
832.092	91.22191
832.499	95.20688
832.905	125.3132
833.312	123.27774
833.718	129.31785
834.124	127.287
834.531	103.25799
834.937	106.27014
835.343	147.34948
835.749	155.35613
836.155	83.21661
836.561	96.23484
836.966	104.25262
837.372	121.30493
837.777	87.21587
838.183	131.2877
838.588	109.26848
838.993	110.26569
839.399	101.24528
839.804	62.15116
840.209	76.193
840.613	96.21239
841.018	128.32043
841.423	99.25234
841.828	126.31508
842.232	98.24134
842.637	74.17434
843.041	74.18925
843.445	110.27358
843.849	63.15598
844.253	126.29604
844.657	54.13616
845.061	83.18772
845.465	65.15697
845.869	120.27588
846.272	66.16062
846.676	105.25203
847.079	73.18522
847.483	137.33719
847.886	141.33818
848.289	50.13362
848.692	68.17201
849.095	120.28513
849.498	185.45868
849.901	107.24338
850.304	129.30444
850.707	109.27557
851.109	117.29316
851.512	71.17417
851.914	62.15616
852.316	60.15178
852.718	51.13183
853.121	86.20976
853.523	99.22974
853.925	45.11764
854.326	79.1968
854.728	94.24023
855.13	61.15724
855.531	63.15047
855.933	88.21022
856.334	83.20602
856.736	21.04744
857.137	55.12804
857.538	76.19047
857.939	98.24036
858.34	107.25849
858.741	90.23396
859.142	84.2009
859.542	87.22837
859.943	70.17359
860.343	63.15586
860.744	133.32008
861.144	118.28468
861.544	22.05324
861.945	97.2455
862.345	70.17086
862.745	74.18338
863.145	141.33186
863.544	93.23353
863.944	74.17434
864.344	114.28033
864.743	140.34222
865.143	85.21727
865.542	52.12079
865.941	99.24322
866.34	125.29569
866.74	139.36795
867.139	82.19544
867.537	104.26279
867.936	79.18941
868.335	83.21022
868.734	103.26105
869.132	74.17142
869.531	125.29855
869.929	126.28329
870.327	73.17449
870.726	103.25473
871.124	122.2816
871.522	98.24781
871.92	117.28542
872.318	106.2568
872.715	118.28887
873.113	72.17495
873.511	100.24717
873.908	19.04828
874.306	92.22731
874.703	94.23362
875.1	106.2688
875.497	54.12954
875.894	49.1202
876.291	72.1762
876.688	93.2383
877.085	108.25661
877.482	91.22637
877.878	69.16568
878.275	79.19987
878.671	148.32346
879.068	90.2159
879.464	126.30053
879.86	96.22529
880.256	99.24241
880.652	54.13738
881.048	79.19494
881.444	134.31422
881.84	66.16743
882.236	89.22244
882.631	110.26729
883.027	84.20235
883.422	64.16339
883.817	61.15312
884.213	58.14875
884.608	72.176
885.003	53.12784
885.398	36.09042
885.793	101.25143
886.188	46.11453
886.582	125.3167
886.977	106.24914
887.371	110.27547
887.766	63.15643
888.16	94.23294
888.554	75.1848
888.949	104.25885
889.343	122.29433
889.737	31.08291
890.131	85.21206
890.525	95.24121
890.918	72.18064
891.312	131.30892
891.706	94.24494
892.099	127.31902
892.492	126.2678
892.886	99.24025
893.279	89.22533
893.672	93.23512
894.065	81.20186
894.458	57.14329
894.851	119.28813
895.244	74.18832
895.637	69.16575
896.029	104.25195
896.422	104.25176
896.814	113.27792
897.206	90.21286
897.599	144.3503
897.991	97.23265
898.383	77.18116
898.775	57.1286
899.167	45.10513
899.559	135.33679
899.951	137.31779
900.342	155.38711
900.734	16.03997
901.125	98.25519
901.517	81.19782
901.908	121.28645
902.299	57.13926
902.69	99.23156
903.082	112.26827
903.473	92.21868
903.863	84.21317
904.254	88.20288
904.645	103.25389
905.036	52.12593
905.426	187.41672
905.817	95.23132
906.207	26.06228
906.597	77.17925
906.987	91.23432
907.378	86.21622
907.768	91.23903
908.158	91.22033
908.547	74.19045
908.937	94.23947
909.327	83.20044
909.717	111.27893
910.106	76.18176
910.495	116.2863
910.885	112.28068
911.274	83.20632
911.663	120.30095
912.052	115.28054
912.441	64.16241
912.83	103.2341
913.219	105.27234
913.608	131.31623
913.997	52.13037
914.385	114.2692
914.774	80.19381
915.162	94.22223
915.55	114.27264
915.939	69.17364
916.327	85.21091
916.715	58.14766
917.103	116.28219
917.491	124.30277
917.878	69.16914
918.266	97.2496
918.654	111.28063
919.041	57.14866
919.429	82.19243
919.816	95.23898
920.203	58.14051
920.591	104.25545
920.978	119.2878
921.365	55.14423
921.752	73.17335
922.139	76.1642
922.525	100.23797
922.912	110.26538
923.299	71.17585
923.685	73.18973
924.072	130.29516
924.458	71.17527
924.844	85.20905
925.231	93.21471
925.617	51.12972
926.003	95.24095
926.389	105.26233
926.774	127.31753
927.16	94.23166
927.546	62.15795
927.931	127.31258
928.317	127.28817
928.702	112.26191
929.088	80.18818
929.473	88.22244
929.858	21.05106
930.243	106.25177
930.628	41.09994
931.013	57.14112
931.398	57.13097
931.783	99.25855
932.167	66.16092
932.552	79.19695
932.937	124.30368
933.321	57.14288
933.705	70.17587
934.09	140.34819
934.474	91.21451
934.858	82.21155
935.242	88.20248
935.626	101.25626
936.009	33.08803
936.393	94.23736
936.777	81.20632
937.16	88.2275
937.544	92.21506
937.927	60.15199
938.311	73.17748
938.694	110.28801
939.077	62.14811
939.46	111.26957
939.843	119.24459
940.226	70.17896
940.609	62.14203
940.991	58.14745
941.374	76.18488
941.757	103.25173
942.139	112.2484
942.522	131.30484
942.904	84.20067
943.286	95.2395
943.668	96.24672
944.05	137.33208
944.432	95.23253
944.814	110.26799
945.196	52.12669
945.578	65.15406
945.959	81.18871
946.341	139.33566
946.722	102.23703
947.104	106.2507
947.485	124.28439
947.866	60.15091
948.247	41.10362
948.628	80.1941
949.009	48.12297
949.39	107.26365
949.771	151.3443
950.152	68.16635
950.532	19.04701
950.913	105.25069
951.293	79.21241
951.674	93.22314
952.054	60.14841
952.434	74.18291
952.814	95.22412
953.194	121.31286
953.574	97.23689
953.954	59.13989
954.334	76.18854
954.714	70.16997
955.093	145.35028
955.473	97.2405
955.853	79.20349
956.232	97.26387
956.611	109.25854
956.99	82.20491
957.37	74.18779
957.749	72.17108
958.128	64.16085
958.506	66.17074
958.885	50.12621
959.264	42.10309
959.643	121.27144
960.021	98.24072
960.4	106.23754
960.778	78.19117
961.156	63.15757
961.535	130.29827
961.913	119.27473
962.291	67.17138
962.669	49.12415
963.047	53.13519
963.424	101.25544
963.802	86.21007
964.18	119.29742
964.557	134.3035
964.935	101.23698
965.312	72.18678
965.69	112.27734
966.067	66.16026
966.444	111.27048
966.821	102.26058
967.198	108.25918
967.575	122.296
967.952	86.20127
968.329	131.31396
968.705	132.2781
969.082	105.26669
969.458	26.06266
969.835	106.25535
970.211	84.2143
970.587	94.23217
970.963	101.2568
971.339	62.16156
971.715	102.2523
972.091	131.31778
972.467	99.24474
972.843	36.08957
973.219	173.40574
973.594	70.18247
973.97	135.31613
974.345	89.21143
974.721	107.25634
975.096	78.18776
975.471	86.20261
975.846	77.18405
976.221	51.12949
976.596	44.10559
976.971	91.22298
977.346	132.30237
977.72	90.22766
978.095	99.25368
978.469	105.248
978.844	103.2565
979.218	49.11748
979.593	131.30904
979.967	135.32366
980.341	80.18311
980.715	100.24971
981.089	76.18937
981.463	108.24511
981.837	43.10521
982.21	101.23271
982.584	54.13033
982.957	50.12485
983.331	113.26389
983.704	98.23867
984.078	85.20813
984.451	156.38218
984.824	68.16505
985.197	73.17655
985.57	95.23632
985.943	162.39187
986.316	146.35237
986.688	99.23654
987.061	82.19101
987.434	69.17922
987.806	113.27082
988.179	96.2245
988.551	66.16695
988.923	113.27504
989.295	129.31774
989.667	75.17831
990.039	79.19415
990.411	131.29665
990.783	150.33849
991.155	106.25196
991.527	101.24639
991.898	96.2372
992.27	81.19922
992.641	118.29241
993.012	111.2581
993.384	71.16867
993.755	100.25269
994.126	111.26389
994.497	91.22166
994.868	98.22296
995.239	84.20228
995.61	66.16558
995.98	104.25006
996.351	73.18001
996.722	113.2588
997.092	42.0996
997.462	54.12603
997.833	148.34419
998.203	124.29644
998.573	56.13928
998.943	98.22764
999.313	88.20934
999.683	71.16971
1000.053	86.19645
1000.423	122.29244
1000.792	108.27708
1001.162	58.14252
1001.531	92.22506
1001.901	79.19587
1002.27	114.25147
1002.639	68.17317
1003.009	95.22394
1003.378	117.29559
1003.747	123.28645
1004.116	73.17389
1004.485	89.2111
1004.853	112.28058
1005.222	110.27438
1005.591	90.21203
1005.959	92.20549
1006.328	85.18989
1006.696	50.12059
1007.064	106.26392
1007.433	82.20372
1007.801	125.30254
1008.169	112.27967
1008.537	99.21696
1008.905	57.13259
1009.273	143.34715
1009.64	85.20138
1010.008	113.26606
1010.375	156.37123
1010.743	176.39619
1011.11	94.22051
1011.478	100.24517
1011.845	126.29187
1012.212	84.18878
1012.579	94.22884
1012.946	97.22875
1013.313	125.29317
1013.68	92.20498
1014.047	52.12384
1014.414	64.15072
1014.78	91.22439
1015.147	125.29798
1015.513	68.16325
1015.88	146.36694
1016.246	147.35632
1016.612	155.34728
1016.978	94.22841
1017.344	74.18203
1017.71	170.40517
1018.076	91.21285
1018.442	83.21223
1018.808	94.23302
1019.174	26.06549
1019.539	174.39057
1019.905	83.19444
1020.27	59.14532
1020.636	116.27456
1021.001	112.26489
1021.366	82.19566
1021.731	97.24733
1022.096	41.10355
1022.461	100.23431
1022.826	96.22608
1023.191	78.2036
1023.556	93.21607
1023.92	101.24593
1024.285	61.14853
1024.649	69.16845
1025.014	113.27658
1025.378	77.19259
1025.742	123.30128
1026.107	126.2805
1026.471	130.29863
1026.835	78.1923
1027.199	105.25001
1027.562	86.19843
1027.926	100.24217
1028.29	79.1988
1028.654	112.2544
1029.017	91.22191
1029.381	58.13829
1029.744	66.16778
1030.107	143.33211
1030.471	94.22309
1030.834	83.18749
1031.197	126.29904
1031.56	107.24958
1031.923	49.12666
1032.286	96.22335
1032.648	122.28764
1033.011	89.20261
1033.374	130.30066
1033.736	58.15222
1034.099	59.1435
1034.461	65.16369
1034.823	70.17359
1035.185	86.21498
1035.548	83.20066
1035.91	62.14811
1036.272	78.17645
1036.634	98.23751
1036.995	134.30967
1037.357	89.21484
1037.719	98.23608
1038.08	106.24885
1038.442	80.18869
1038.803	111.26329
1039.165	75.18833
1039.526	125.29763
1039.887	78.18555
1040.248	45.11092
1040.609	129.31398
1040.97	71.17275
1041.331	107.26801
1041.692	44.10277
1042.053	125.28018
1042.413	98.22611
1042.774	80.19337
1043.134	91.21485
1043.495	113.28068
1043.855	55.13322
1044.215	102.25063
1044.576	101.23901
1044.936	122.27554
1045.296	105.25929
1045.656	106.25728
1046.016	89.21314
1046.375	70.16907
1046.735	75.16908
1047.095	76.17689
1047.454	123.25635
1047.814	84.20051
1048.173	116.2735
1048.533	117.2643
1048.892	91.2166
1049.251	102.2535
1049.61	48.11816
1049.969	84.19659
1050.328	81.17437
1050.687	85.20534
1051.046	72.1745
1051.405	77.1905
1051.763	73.16699
1052.122	84.20808
1052.48	102.24757
1052.839	73.17088
1053.197	82.19168
1053.555	156.34786
1053.914	137.32946
1054.272	99.23699
1054.63	42.10278
1054.988	90.21203
1055.345	102.21707
1055.703	91.21718
1056.061	57.14636
1056.419	25.06496
1056.776	112.26827
1057.134	72.16586
1057.491	102.25285
1057.848	115.28273
1058.206	102.23731
1058.563	95.20732
1058.92	153.34519
1059.277	127.30865
1059.634	108.25107
1059.991	121.28579
1060.348	54.12186
1060.704	51.12144
1061.061	144.32814
1061.418	50.12118
1061.774	120.29224
1062.131	35.09271
1062.487	28.06571
1062.843	111.2735
1063.199	70.17334
1063.555	56.12952
1063.911	127.31615
1064.267	193.38953
1064.623	75.18119
1064.979	155.35955
1065.335	131.30808
1065.691	80.19052
1066.046	83.18113
1066.402	85.19162
1066.757	133.33048
1067.112	93.22628
1067.468	62.14595
1067.823	86.20521
1068.178	129.30716
1068.533	102.24469
1068.888	105.24809
1069.243	93.22755
1069.598	69.16694
1069.952	72.16128
1070.307	64.1579
1070.662	55.13036
1071.016	91.20204
1071.371	60.13612
1071.725	129.30373
1072.079	94.22404
1072.434	51.12381
1072.788	101.23799
1073.142	99.24115
1073.496	66.15598
1073.85	95.21819
1074.203	140.33367
1074.557	44.11704
1074.911	122.28697
1075.265	143.32606
1075.618	104.25119
1075.971	95.22386
1076.325	57.14457
1076.678	20.04598
1077.031	60.1354
1077.385	126.27293
1077.738	96.21451
1078.091	88.19842
1078.444	110.25218
1078.796	44.108
1079.149	79.1953
1079.502	74.17386
1079.855	84.19443
1080.207	113.27494
1080.56	52.13425
1080.912	108.25987
1081.264	70.1678
1081.617	107.25781
1081.969	64.16091
1082.321	98.23697
1082.673	91.20582
1083.025	107.25086
1083.377	-131.29193
1083.728	110.2534
1084.08	108.26655
1084.432	110.26207
1084.783	129.29734
1085.135	69.17221
1085.486	49.11204
1085.838	100.24381
1086.189	115.27551
1086.54	98.23169
1086.891	30.07608
1087.242	83.20066
1087.593	116.2787
1087.944	98.21943
1088.295	129.28831
1088.646	80.19264
1088.996	42.10125
1089.347	49.12016
1089.698	62.14607
1090.048	113.29005
1090.398	105.24067
1090.749	104.24606
1091.099	37.09318
1091.449	77.19071
1091.799	125.30845
1092.149	34.08308
1092.499	67.16277
1092.849	73.18463
1093.199	122.30155
1093.548	79.18861
1093.898	91.22579
1094.248	80.20431
1094.597	21.05383
1094.947	83.22001
1095.296	82.20112
1095.645	106.2728
1095.994	115.27256
1096.343	79.19759
1096.692	77.20116
1097.041	37.1003
1097.39	105.26053
1097.739	106.27261
1098.088	124.32786
1098.437	86.22433
1098.785	103.27503
1099.134	85.22418
1099.482	91.24842
1099.83	104.27054
1100.179	55.1432
1100.527	105.27618
1100.875	69.18167
1101.223	83.21898
1101.571	79.21711
1101.919	43.11238
1102.267	58.16294
1102.615	-1.00322
1102.962	12.03863
1103.31	11.03532
1103.658	19.06114
