Data from N2 R14 sample 9_Subt2__5__14-18-55-096.txt Node

Date: Tue Sep 02 14:18:55 PDT 2025
User: uwsun
Spectrometer: HDX01956
Trigger mode: 0
Integration Time (sec): 5.000000E-1
Scans to average: 1
Nonlinearity correction enabled: true
Boxcar width: 0
Storing dark spectrum: false
XAxis mode: Wavelengths
Number of Pixels in Spectrum: 2068
>>>>>Begin Spectral Data<<<<<
194.03	-42.11864
194.578	-36.11435
195.127	-37.11584
195.676	-37.11619
196.225	7.01855
196.773	37.10085
197.321	-30.08091
197.87	19.04685
198.418	-39.09596
198.966	-48.11899
199.513	-75.17817
200.061	-58.13961
200.609	0
201.156	-21.04324
201.704	-45.10744
202.251	-10.02499
202.798	-32.07878
203.345	-40.09438
203.892	-78.18783
204.438	-51.11643
204.985	-57.12766
205.532	-60.15015
206.078	11.0254
206.624	-70.16363
207.17	-6.01316
207.716	-39.08957
208.262	-29.05447
208.808	-120.28238
209.354	-42.09671
209.899	3.00719
210.445	-70.16517
210.99	-65.14875
211.535	45.099
212.08	13.02847
212.625	-17.04031
213.17	-33.07948
213.715	-100.21207
214.259	28.06127
214.804	-26.06111
215.348	-4.00866
215.892	-7.01588
216.436	34.07418
216.98	-28.05915
217.524	-37.0831
218.068	13.0309
218.612	-20.04789
219.155	-2.00445
219.698	18.04042
220.242	-4.00949
220.785	-1.00222
221.328	6.01416
221.871	11.02649
222.414	-13.03087
222.956	-42.09625
223.499	-33.07095
224.041	-27.06032
224.583	16.03294
225.126	-7.01467
225.668	-40.09277
226.21	-43.10317
226.751	-40.08331
227.293	12.02602
227.835	-68.15914
228.376	31.06777
228.918	27.06449
229.459	-2.0047
230	-23.05208
230.541	1.00219
231.082	-21.04837
231.622	35.07603
232.163	-58.13425
232.704	-68.16126
233.244	-42.09926
233.784	-24.05619
234.324	-44.09156
234.864	-51.11054
235.404	1.00226
235.944	-42.09524
236.484	19.04479
237.023	-61.13768
237.563	-41.09008
238.102	-35.07871
238.641	8.01908
239.18	-51.11318
239.719	35.08241
240.258	-6.01277
240.797	-22.04975
241.335	-3.00695
241.874	14.02526
242.412	-26.0591
242.95	-49.11083
243.488	-51.11097
244.026	-18.03912
244.564	27.05206
245.102	-12.02538
245.64	-6.01368
246.177	8.01686
246.715	33.07427
247.252	-25.05447
247.789	125.21652
248.326	-83.18933
248.863	-1.00206
249.4	7.01495
249.936	-14.02713
250.473	-30.06593
251.009	-55.11921
251.546	-19.0394
252.082	-8.01648
252.618	-29.06079
253.154	-37.08368
253.69	26.05454
254.226	-23.0516
254.761	7.01469
255.297	-23.04727
255.832	-52.1162
256.367	-3.00661
256.903	-35.07233
257.438	-38.08432
257.972	-31.06498
258.507	-80.17314
259.042	-17.03461
259.576	-41.08252
260.111	-36.07848
260.645	29.05831
261.179	-51.11186
261.713	-30.06251
262.247	-43.0934
262.781	-11.02146
263.315	-12.02736
263.849	-87.20564
264.382	7.015
264.915	-31.06771
265.449	-102.23347
265.982	10.02116
266.515	-6.0136
267.048	-84.16802
267.58	-15.03072
268.113	-27.05429
268.646	-39.08982
269.178	-40.08324
269.71	-55.11294
270.243	10.02117
270.775	-54.12856
271.307	-20.045
271.838	5.01107
272.37	-29.06642
272.902	15.03154
273.433	-44.0898
273.965	-17.0384
274.496	-29.06732
275.027	-47.10868
275.558	-23.0517
276.089	-87.19917
276.62	-43.10231
277.15	-56.12947
277.681	-32.06481
278.211	-5.01136
278.741	-65.13312
279.272	-72.15323
279.802	-63.14695
280.332	-52.1137
280.861	19.0419
281.391	-82.17345
281.921	-75.16921
282.45	-27.06253
282.98	-2.0048
283.509	-78.16354
284.038	-1.00209
284.567	6.01289
285.096	-24.05343
285.625	-89.18813
286.153	-50.10798
286.682	-78.16535
287.21	-78.17386
287.739	-95.20873
288.267	-70.15629
288.795	-43.10447
289.323	-54.11552
289.851	-5.01067
290.378	10.02034
290.906	-107.23904
291.433	-55.12597
291.961	-88.18344
292.488	-51.11638
293.015	-59.12668
293.542	-81.1879
294.069	-58.13003
294.596	-19.04282
295.122	-12.02588
295.649	-58.11698
296.175	-11.02418
296.702	-30.06618
297.228	-29.06412
297.754	-29.0588
298.28	-55.11305
298.806	-85.1862
299.332	-51.10151
299.857	-81.16604
300.383	-49.11281
300.908	-107.23529
301.433	-84.18467
301.958	19.03918
302.483	-102.23065
303.008	-37.08242
303.533	-68.16076
304.058	-22.04653
304.582	-54.11382
305.107	-122.28831
305.631	-6.01219
306.155	-92.19221
306.679	-80.16692
307.203	-32.06567
307.727	-99.21128
308.251	-59.13012
308.775	-109.2304
309.298	-133.28508
309.822	-104.23546
310.345	-82.17276
310.868	-100.21272
311.391	-78.17091
311.914	-90.19961
312.437	-49.09858
312.96	-78.16151
313.482	-113.23697
314.005	-75.16548
314.527	-102.23609
315.049	-83.1852
315.571	-121.23433
316.093	-33.07055
316.615	-105.22078
317.137	-52.09707
317.659	-58.12236
318.18	-74.15515
318.702	-66.13164
319.223	-77.13487
319.744	-72.1374
320.265	-122.25375
320.786	-88.18467
321.307	-92.19511
321.828	-79.15102
322.348	-162.32734
322.869	-140.27951
323.389	-364.5331
323.909	-60.11467
324.43	-44.08899
324.95	-189.3669
325.47	-143.29405
325.989	-156.30682
326.509	-135.24307
327.029	-169.31382
327.548	-190.35203
328.067	-202.40273
328.587	-141.28942
329.106	-97.17671
329.625	-142.31127
330.144	-141.26131
330.662	-164.30461
331.181	-151.28305
331.7	-167.3132
332.218	-154.26229
332.736	-113.20722
333.255	-184.33836
333.773	-150.27778
334.291	-128.25187
334.808	-151.25781
335.326	-139.23962
335.844	-215.38235
336.361	-218.42532
336.879	-237.42148
337.396	-238.4381
337.913	-229.39648
338.43	-249.42034
338.947	-212.37633
339.464	-240.37516
339.981	-260.45675
340.497	-176.31925
341.014	-281.50882
341.53	-232.37451
342.046	-209.36898
342.562	-239.4363
343.078	-225.37693
343.594	-267.45884
344.11	-211.35308
344.626	-278.50249
345.141	-231.36267
345.657	-176.2727
346.172	-311.52989
346.687	-277.43617
347.202	-275.41701
347.717	-216.3469
348.232	-304.52761
348.747	-270.41372
349.261	-339.48105
349.776	-330.52191
350.29	-316.51593
350.805	-314.52649
351.319	-275.41651
351.833	-340.49394
352.347	-301.45536
352.861	-283.41634
353.374	-247.35912
353.888	-327.51105
354.401	-289.41292
354.915	-372.51174
355.428	-374.59324
355.941	-383.55317
356.454	-296.40555
356.967	-312.45268
357.48	-244.3321
357.993	-335.50986
358.505	-402.60697
359.018	-348.51657
359.53	-354.50569
360.042	-366.47386
360.554	-328.47
361.066	-389.56185
361.578	-371.45632
362.09	-311.42292
362.602	-404.49784
363.113	-404.53134
363.625	-364.44595
364.136	-363.43061
364.647	-452.56184
365.158	-375.46981
365.669	-397.52054
366.18	-389.49285
366.691	-383.43443
367.201	-429.54926
367.712	-447.52302
368.222	-447.52108
368.733	-468.48913
369.243	-457.48052
369.753	-414.46162
370.263	-473.55802
370.773	-481.5893
371.282	-508.57016
371.792	-603.60549
372.301	-541.58386
372.811	-551.6738
373.32	-558.43742
373.829	-661.63135
374.338	-559.43664
374.847	-616.49306
375.356	-660.53917
375.865	-695.39553
376.373	-714.44676
376.882	-610.47064
377.39	-699.46493
377.898	-797.47013
378.407	-787.30837
378.915	-827.25914
379.423	-870.31565
379.93	-833.19227
380.438	-1069.2784
380.946	-1020.12307
381.453	-1086.07083
381.96	-1220.96986
382.468	-1340.78349
382.975	-1206.76521
383.482	-1314.62197
383.989	-1346.70429
384.495	-1488.48129
385.002	-1659.23598
385.509	-1673.23154
386.015	-1824.04675
386.521	-1752.07637
387.028	-1953.98401
387.534	-1961.01528
388.04	-2027.96715
388.546	-2286.00652
389.051	-2564.14634
389.557	-2726.37224
390.063	-2413.66339
390.568	-2677.98398
391.073	-3051.69844
391.578	-3120.98152
392.084	-3333.27635
392.589	-3899.2945
393.093	-4297.09382
393.598	-4407.7213
394.103	-4682.23923
394.607	-5044.5531
395.112	-5253.06979
395.616	-5720.37729
396.12	-6705.08396
396.624	-7586.81982
397.128	-8030.40766
397.632	-8586.73455
398.136	-9354.72204
398.639	-11576.54068
399.143	-13577.18085
399.646	-14938.28578
400.15	-16513.8943
400.653	-19389.4541
401.156	-22714.61273
401.659	-27181.20344
402.162	-24165.80452
402.664	-11902.69405
403.167	-1703.83937
403.67	0
404.172	0
404.674	0
405.176	0
405.678	0
406.18	0
406.682	0
407.184	0
407.686	0
408.187	0
408.688	0
409.19	0
409.691	0
410.192	-2950.81309
410.693	-10261.73554
411.194	-14519.53405
411.694	-13208.31427
412.195	-10933.57849
412.696	-11410.25929
413.196	-13134.52307
413.696	-14155.81492
414.196	-12517.55177
414.696	-9438.10572
415.196	-6141.29217
415.696	-1429.39378
416.196	-618.96151
416.695	-3421.43621
417.195	-5237.85702
417.694	-4847.73247
418.194	-4287.36276
418.693	-4657.52301
419.192	-4458.4963
419.691	-4261.55902
420.19	-3983.97835
420.688	-3550.98013
421.187	-3141.79002
421.685	-2603.3794
422.184	-1955.17607
422.682	-2020.49863
423.18	-2233.91471
423.678	-2324.0889
424.176	-2260.04627
424.674	-2076.37405
425.172	-1721.77072
425.669	-1485.45986
426.167	-1239.42653
426.664	-1338.29195
427.161	-1262.30804
427.659	-1231.37903
428.156	-1136.40319
428.652	-1155.57972
429.149	-1096.61439
429.646	-1005.64222
430.143	-850.80897
430.639	-952.87221
431.135	-856.99304
431.632	-777.97921
432.128	-879.14005
432.624	-931.29266
433.12	-1016.18187
433.616	-848.12968
434.111	-968.29937
434.607	-921.375
435.103	-704.2026
435.598	-716.23318
436.093	-654.37019
436.588	-622.36216
437.083	-552.35085
437.578	-545.39363
438.073	-730.67074
438.568	-542.51518
439.062	-515.37631
439.557	-531.51733
440.051	-572.53145
440.546	-619.6024
441.04	-585.63451
441.534	-527.63748
442.028	-519.5953
442.522	-578.67895
443.015	-569.58948
443.509	-456.55563
444.002	-554.70155
444.496	-511.54572
444.989	-479.60957
445.482	-529.70469
445.975	-567.65837
446.468	-536.58372
446.961	-477.51217
447.454	-518.62634
447.947	-557.72084
448.439	-512.70321
448.931	-503.60751
449.424	-490.71914
449.916	-509.71388
450.408	-581.74581
450.9	-550.77961
451.392	-567.86434
451.884	-477.63828
452.375	-598.90652
452.867	-427.56788
453.358	-533.71571
453.849	-488.60281
454.341	-492.66342
454.832	-519.66836
455.323	-495.74729
455.814	-459.64902
456.304	-385.53705
456.795	-499.71955
457.285	-457.64742
457.776	-422.61849
458.266	-462.70266
458.756	-475.7529
459.247	-503.78358
459.737	-470.7302
460.226	-436.63077
460.716	-495.79547
461.206	-472.76905
461.695	-431.74235
462.185	-407.64839
462.674	-384.59756
463.163	-410.61683
463.653	-364.50789
464.142	-432.72601
464.63	-380.6529
465.119	-409.65868
465.608	-367.58631
466.096	-358.54569
466.585	-369.61112
467.073	-327.56197
467.561	-388.68381
468.05	-360.60992
468.538	-356.64646
469.026	-359.63517
469.513	-362.55442
470.001	-360.60166
470.489	-353.61999
470.976	-292.49791
471.463	-331.62755
471.951	-305.58362
472.438	-344.61545
472.925	-381.685
473.412	-321.61661
473.899	-276.48689
474.385	-314.60535
474.872	-292.52645
475.359	-359.6976
475.845	-285.45605
476.331	-247.4206
476.817	-318.62544
477.303	-282.52198
477.789	-314.61292
478.275	-308.61948
478.761	-265.51739
479.247	-247.44725
479.732	-315.64305
480.218	-298.64272
480.703	-325.67401
481.188	-272.47758
481.673	-284.5383
482.158	-314.54786
482.643	-258.55287
483.128	-268.50623
483.612	-273.5358
484.097	-206.42274
484.581	-226.44219
485.066	-250.51257
485.55	-262.4835
486.034	-251.45751
486.518	-275.54839
487.002	-307.64522
487.486	-253.52798
487.969	-290.61124
488.453	-263.57685
488.936	-255.49503
489.42	-225.42886
489.903	-233.5117
490.386	-700.13648
490.869	-188.35355
491.352	-204.43754
491.835	-214.38561
492.318	-252.4982
492.8	-219.39533
493.283	-276.62102
493.765	-272.59344
494.247	-182.37467
494.73	-154.29532
495.212	-167.3561
495.694	-226.46525
496.175	-272.57154
496.657	-171.35749
497.139	-141.21584
497.62	-287.6085
498.102	-236.52188
498.583	-207.46339
499.064	-249.49585
499.545	-190.38515
500.026	-200.39837
500.507	-215.44729
500.988	-199.44291
501.469	-209.46748
501.949	-215.47991
502.43	-246.52534
502.91	-239.44537
503.39	-190.42911
503.87	-223.47137
504.35	-169.35895
504.83	-201.39542
505.31	-211.46085
505.79	-179.38301
506.269	-161.33808
506.749	-180.36821
507.228	-177.37217
507.707	-151.29888
508.187	-152.32742
508.666	-173.38121
509.145	-158.33039
509.623	-147.30923
510.102	-115.24884
510.581	-74.15913
511.059	-161.3625
511.538	-89.20588
512.016	-45.09487
512.494	-14.02989
512.972	-92.19579
513.45	-104.21294
513.928	-28.05959
514.406	-75.15874
514.884	-15.03391
515.361	9.01882
515.839	-1.00199
516.316	64.133
516.793	61.13464
517.27	96.20137
517.747	66.14693
518.224	115.22826
518.701	149.28124
519.178	19.0411
519.654	109.22424
520.131	91.19472
520.607	153.32582
521.083	84.16568
521.56	121.24545
522.036	90.17083
522.512	156.33112
522.987	46.09495
523.463	76.15702
523.939	49.10571
524.414	31.0632
524.89	44.09172
525.365	60.11856
525.84	-20.04197
526.315	46.09717
526.79	28.05564
527.265	36.07224
527.74	19.04095
528.215	20.04171
528.689	-31.06127
529.164	-26.05058
529.638	-43.09971
530.112	-82.17451
530.587	-77.14784
531.061	-94.20527
531.534	-57.12513
532.008	-83.18067
532.482	-47.09748
532.956	-134.31213
533.429	-100.22124
533.903	-41.08195
534.376	-44.08768
534.849	-98.20765
535.322	-74.15879
535.795	-92.20541
536.268	-102.22396
536.741	-99.21788
537.213	-112.23794
537.686	-121.26987
538.158	-150.30921
538.631	-107.23944
539.103	-178.37007
539.575	-51.09659
540.047	-81.16258
540.519	-122.26923
540.991	-106.23891
541.463	-147.32976
541.934	-144.30499
542.406	-168.37136
542.877	-144.30085
543.348	-85.18809
543.82	-149.33946
544.291	-123.26569
544.762	-131.28564
545.233	-139.32077
545.703	-138.28102
546.174	-167.36058
546.645	-191.42158
547.115	-171.38107
547.585	-113.23802
548.056	-140.30753
548.526	-209.45474
548.996	-135.29748
549.466	-119.26607
549.935	-149.32075
550.405	-151.30168
550.875	-147.31685
551.344	-168.3695
551.814	-122.25443
552.283	-118.2335
552.752	-149.31371
553.221	-160.31483
553.69	-134.26902
554.159	-148.32743
554.628	-162.32719
555.096	-137.31276
555.565	-100.20011
556.033	-54.11407
556.502	-99.21751
556.97	-73.14659
557.438	-28.05974
557.906	-39.08403
558.374	3.0062
558.842	-32.06941
559.31	-6.01217
559.777	-23.05032
560.245	29.06162
560.712	3.00632
561.18	49.09699
561.647	53.10638
562.114	32.0657
562.581	146.31828
563.048	100.20623
563.514	178.38227
563.981	194.38894
564.448	258.49834
564.914	241.48752
565.381	326.63211
565.847	390.76778
566.313	343.67827
566.779	399.75205
567.245	444.86134
567.711	516.00696
568.176	460.84641
568.642	568.14959
569.108	614.2037
569.573	729.3324
570.038	764.20874
570.504	809.35277
570.969	889.67212
571.434	940.47382
571.899	977.68285
572.363	1087.72166
572.828	1206.86709
573.293	1287.94302
573.757	1331.98612
574.222	1415.96661
574.686	1395.95949
575.15	1569.27439
575.614	1638.21334
576.078	1729.34385
576.542	1743.26136
577.006	1819.26159
577.469	1845.6402
577.933	1893.25883
578.396	1938.52476
578.86	1994.51543
579.323	1967.53208
579.786	1997.18976
580.249	2019.38157
580.712	1955.64844
581.175	1948.67185
581.637	2028.46414
582.1	1985.27119
582.563	1925.17904
583.025	1895.57527
583.487	1829.92592
583.95	1766.08279
584.412	1899.08945
584.874	1782.51949
585.336	1685.37049
585.797	1664.06814
586.259	1648.34746
586.721	1558.24649
587.182	1579.28067
587.643	1556.15964
588.105	1427.17449
588.566	1443.87403
589.027	1282.06898
589.488	1310.9692
589.949	1265.08318
590.41	1224.5227
590.87	1214.88831
591.331	1223.76578
591.791	1135.81452
592.252	1058.70285
592.712	1053.81803
593.172	1030.64825
593.632	1035.61082
594.092	981.57619
594.552	899.41621
595.011	868.4799
595.471	893.47575
595.931	865.43249
596.39	825.49761
596.849	811.43339
597.308	870.39998
597.768	726.44712
598.227	804.4842
598.685	783.38163
599.144	775.39027
599.603	772.40866
600.062	751.19254
600.52	694.19971
600.978	740.36174
601.437	778.36457
601.895	786.25366
602.353	763.29588
602.811	856.41402
603.269	778.43181
603.727	807.47378
604.184	794.35049
604.642	795.49428
605.099	813.42947
605.557	903.64616
606.014	892.39907
606.471	904.67916
606.928	884.37286
607.385	867.56844
607.842	965.59516
608.299	1100.80072
608.755	973.70979
609.212	1101.68725
609.668	1108.67658
610.125	1197.99779
610.581	1267.05551
611.037	1229.9201
611.493	1192.96179
611.949	1236.03795
612.405	1278.64425
612.861	1354.12981
613.316	1313.10808
613.772	1410.10104
614.227	1368.13354
614.683	1465.97237
615.138	1392.13627
615.593	1426.15189
616.048	1471.16337
616.503	1459.37062
616.958	1478.43709
617.412	1429.21986
617.867	1437.02601
618.321	1487.91256
618.776	1489.09498
619.23	1369.15421
619.684	1405.0954
620.138	1382.15928
620.592	1324.21755
621.046	1281.08996
621.5	1276.17149
621.954	1278.99082
622.407	1234.9185
622.861	1166.05146
623.314	1186.92711
623.768	1081.85468
624.221	1148.5765
624.674	1061.81153
625.127	1108.90775
625.58	1025.76204
626.033	1028.70297
626.485	920.70979
626.938	987.80236
627.39	917.66078
627.843	906.63874
628.295	862.57721
628.747	838.5934
629.199	866.55668
629.651	769.41557
630.103	827.51723
630.555	754.29402
631.006	744.43703
631.458	761.47378
631.909	784.47682
632.361	749.4436
632.812	706.35831
633.263	651.18176
633.714	657.18542
634.165	666.37349
634.616	620.26532
635.067	674.26616
635.518	674.36884
635.968	670.1311
636.419	634.17801
636.869	568.18108
637.319	603.20522
637.769	561.09314
638.219	658.35332
638.669	538.13052
639.119	605.28801
639.569	627.31119
640.019	614.23434
640.468	610.18232
640.918	604.27389
641.367	633.22786
641.816	642.23972
642.265	621.24987
642.714	601.21622
643.163	577.16704
643.612	564.19305
644.061	591.08788
644.51	653.28482
644.958	550.06735
645.406	612.28232
645.855	631.35507
646.303	660.34037
646.751	620.22981
647.199	617.22698
647.647	660.31538
648.095	639.27494
648.543	682.1977
648.99	606.2742
649.438	673.37582
649.885	644.39933
650.333	691.13917
650.78	662.39455
651.227	636.35849
651.674	630.25666
652.121	647.38112
652.568	566.226
653.015	659.46682
653.461	641.33695
653.908	642.31207
654.354	588.24987
654.801	522.10166
655.247	607.17622
655.693	604.40601
656.139	602.28189
656.585	552.18953
657.031	537.12321
657.477	563.08196
657.922	536.10948
658.368	583.28945
658.813	576.20093
659.259	528.14552
659.704	503.06405
660.149	580.20768
660.594	502.08486
661.039	455.95371
661.484	544.17678
661.929	484.03607
662.373	462.07254
662.818	508.15019
663.262	458.01491
663.707	440.03304
664.151	451.01865
664.595	451.00414
665.039	485.11026
665.483	441.04163
665.927	500.07868
666.371	342.74773
666.814	453.00194
667.258	407.89864
667.701	475.94635
668.145	439.01724
668.588	379.87731
669.031	371.82157
669.474	331.75923
669.917	399.8308
670.36	375.87871
670.803	393.89418
671.245	440.86296
671.688	397.91276
672.13	314.67316
672.573	401.9605
673.015	370.84169
673.457	389.79844
673.899	402.91779
674.341	347.79751
674.783	370.83998
675.225	291.68885
675.666	339.7757
676.108	352.72821
676.549	367.82625
676.991	348.73154
677.432	359.67897
677.873	380.83325
678.314	340.77565
678.755	339.78785
679.196	292.64517
679.637	315.74017
680.078	318.7158
680.518	417.91648
680.959	303.69919
681.399	291.69629
681.839	338.78723
682.28	298.70827
682.72	249.55534
683.16	280.67419
683.6	316.69439
684.039	318.63783
684.479	298.705
684.919	255.57107
685.358	327.79671
685.798	296.74812
686.237	274.64347
686.676	336.74888
687.115	298.67656
687.554	280.64445
687.993	281.60359
688.432	271.6019
688.871	269.59299
689.309	288.66551
689.748	298.60379
690.186	311.71679
690.625	231.53009
691.063	231.54218
691.501	249.60036
691.939	258.6257
692.377	237.56494
692.815	262.60929
693.253	212.50157
693.69	230.49628
694.128	210.49953
694.565	259.60195
695.003	217.53997
695.44	217.50096
695.877	203.46678
696.314	276.57815
696.751	252.56238
697.188	217.48998
697.625	255.57272
698.061	154.36718
698.498	247.58425
698.934	195.46341
699.371	199.4616
699.807	221.51344
700.243	214.50591
700.679	236.52428
701.115	225.52088
701.551	231.5337
701.987	259.56903
702.422	215.50167
702.858	155.36722
703.294	217.48418
703.729	195.47071
704.164	190.45161
704.599	216.47387
705.035	217.47756
705.47	180.43261
705.904	164.37944
706.339	229.52361
706.774	170.39504
707.209	130.29983
707.643	159.37946
708.078	191.45896
708.512	154.38189
708.946	164.39057
709.38	164.38606
709.814	182.41255
710.248	179.43176
710.682	221.51588
711.116	114.27202
711.549	162.41415
711.983	167.38324
712.416	214.49807
712.85	183.45073
713.283	150.35352
713.716	198.49045
714.149	217.50893
714.582	195.43293
715.015	171.42428
715.448	179.44607
715.881	190.41244
716.313	137.32056
716.746	178.41477
717.178	146.34944
717.61	151.38039
718.043	134.33303
718.475	133.32178
718.907	199.49662
719.339	125.28364
719.77	156.36723
720.202	146.36694
720.634	140.33904
721.065	185.43355
721.497	159.38685
721.928	120.29432
722.359	72.17495
722.79	155.3685
723.221	125.31411
723.652	174.4442
724.083	115.26031
724.514	183.41625
724.945	134.31446
725.375	111.2581
725.806	171.42288
726.236	148.37677
726.666	182.42627
727.096	140.34222
727.526	72.18401
727.956	126.28654
728.386	133.32662
728.816	116.29301
729.246	102.24841
729.675	98.24178
730.105	192.46618
730.534	161.3742
730.964	176.44011
731.393	148.36594
731.822	126.32088
732.251	145.36567
732.68	192.44704
733.109	119.293
733.537	89.21606
733.966	146.36033
734.395	145.33369
734.823	149.33535
735.251	123.29602
735.68	167.41451
736.108	146.36707
736.536	161.37716
736.964	101.23549
737.392	182.44967
737.82	112.26929
738.247	153.3643
738.675	181.42799
739.102	108.26978
739.53	101.25726
739.957	163.41487
740.384	166.40607
740.811	137.34562
741.238	152.36837
741.665	136.31441
742.092	166.3932
742.519	92.22831
742.945	93.22433
743.372	111.27481
743.798	153.38997
744.225	109.25964
744.651	111.27843
745.077	143.35442
745.503	149.3613
745.929	102.24543
746.355	152.37569
746.781	126.31143
747.207	94.22137
747.632	99.24169
748.058	120.29889
748.483	112.25852
748.908	108.26841
749.334	135.33018
749.759	77.18299
750.184	93.22238
750.609	151.36849
751.033	140.32995
751.458	157.35031
751.883	134.33072
752.307	85.2013
752.732	95.23752
753.156	119.29332
753.58	142.33584
754.005	161.40471
754.429	96.22652
754.853	104.25772
755.277	121.28612
755.7	101.25088
756.124	105.26053
756.548	105.24925
756.971	118.2878
757.394	99.2551
757.818	84.21671
758.241	127.32074
758.664	124.31187
759.087	54.12211
759.51	108.26871
759.933	69.16726
760.356	119.30407
760.778	108.26547
761.201	160.38572
761.623	138.33331
762.046	149.35151
762.468	145.34645
762.89	137.33644
763.312	153.37059
763.734	107.25771
764.156	107.26413
764.578	130.29851
765	143.34663
765.421	70.17852
765.843	121.31578
766.264	135.32477
766.686	112.28088
767.107	91.22116
767.528	97.24471
767.949	100.25422
768.37	91.22389
768.791	145.34843
769.212	116.29018
769.632	88.20579
770.053	96.25255
770.473	116.28155
770.894	113.28242
771.314	128.30484
771.734	111.25861
772.154	96.24646
772.575	134.3093
772.994	98.22314
773.414	160.38046
773.834	69.17339
774.254	112.27358
774.673	122.29611
775.093	91.22538
775.512	84.2074
775.931	102.2582
776.351	88.21879
776.77	77.18889
777.189	100.23797
777.607	85.21727
778.026	82.20469
778.445	10.02538
778.864	110.28122
779.282	81.19553
779.701	102.25664
780.119	74.18746
780.537	74.18519
780.955	112.28392
781.373	89.22027
781.791	78.17609
782.209	118.27117
782.627	83.21861
783.045	127.29051
783.462	109.27734
783.88	75.19426
784.297	95.23864
784.715	54.13931
785.132	87.21081
785.549	108.2691
785.966	116.29018
786.383	76.18737
786.8	116.26839
787.217	60.14311
787.633	65.16275
788.05	182.42526
788.466	139.32511
788.883	61.15609
789.299	101.2427
789.715	113.2734
790.131	88.21871
790.547	116.28808
790.963	104.25725
791.379	85.21475
791.795	89.20334
792.21	107.24939
792.626	100.23678
793.041	87.21461
793.457	108.26577
793.872	80.1884
794.287	77.18398
794.702	123.30095
795.117	95.23537
795.532	58.14588
795.947	124.29644
796.362	136.3219
796.776	114.26596
797.191	117.28456
797.605	30.07115
798.02	101.24491
798.434	117.25922
798.848	60.1483
799.262	51.12714
799.676	140.33801
800.09	59.14575
800.504	99.23952
800.918	62.14431
801.331	116.30206
801.745	71.16359
802.158	88.21958
802.572	162.38714
802.985	110.26458
803.398	77.18384
803.811	132.33616
804.224	97.24068
804.637	54.1293
805.05	102.23562
805.462	136.33071
805.875	50.13007
806.288	35.0851
806.7	52.13126
807.112	110.2537
807.525	114.2795
807.937	96.23641
808.349	98.24454
808.761	132.32147
809.173	109.26262
809.584	115.28231
809.996	61.14975
810.408	59.15256
810.819	82.19274
811.231	23.0599
811.642	29.06974
812.053	85.20177
812.464	109.25754
812.875	137.34611
813.286	103.26365
813.697	161.37065
814.108	127.30738
814.519	102.22641
814.929	147.37005
815.34	88.21295
815.75	56.14267
816.16	110.27239
816.571	96.24827
816.981	109.25585
817.391	103.24742
817.801	52.12961
818.211	70.16709
818.62	90.21598
819.03	113.27494
819.44	128.33102
819.849	93.23345
820.259	96.24465
820.668	78.19159
821.077	37.09244
821.486	134.31912
821.895	96.23624
822.304	91.24016
822.713	148.34487
823.122	96.2385
823.531	61.14497
823.939	93.22569
824.348	89.21574
824.756	143.35351
825.164	124.30907
825.573	89.22252
825.981	104.2564
826.389	125.31094
826.797	93.23193
827.205	85.1946
827.612	77.1898
828.02	78.1829
828.428	60.15302
828.835	66.17369
829.243	60.14333
829.65	74.18378
830.057	65.15792
830.464	73.17775
830.871	107.25448
831.278	55.13332
831.685	109.2415
832.092	95.23149
832.499	121.26204
832.905	109.2739
833.312	107.2424
833.718	109.26956
834.124	143.32211
834.531	91.22843
834.937	102.26013
835.343	102.2446
835.749	110.25501
836.155	117.30357
836.561	106.25882
836.966	101.24547
837.372	95.24052
837.777	69.17177
838.183	129.28343
838.588	89.22002
838.993	110.26569
839.399	95.23097
839.804	59.14393
840.209	80.20301
840.613	115.25341
841.018	86.21692
841.423	129.32707
841.828	91.229
842.232	138.33733
842.637	120.28018
843.041	42.10802
843.445	93.23202
843.849	95.23382
844.253	106.25002
844.657	70.176
845.061	111.24962
845.465	90.21631
845.869	102.23534
846.272	46.11236
846.676	116.27785
847.079	73.18522
847.483	142.34917
847.886	127.30541
848.289	108.28584
848.692	80.20193
849.095	89.21273
849.498	136.34021
849.901	115.26116
850.304	141.33199
850.707	111.28053
851.109	140.34933
851.512	94.22961
851.914	45.11369
852.316	88.22149
852.718	50.12926
853.121	102.24804
853.523	56.13106
853.925	61.15904
854.326	32.0804
854.728	61.1568
855.13	39.10091
855.531	48.11497
855.933	130.30805
856.334	68.16925
856.736	85.1895
857.137	66.15331
857.538	52.13088
857.939	70.17258
858.34	121.29154
858.741	111.28751
859.142	74.17732
859.542	93.24387
859.943	124.30446
860.343	42.10431
860.744	132.31774
861.144	75.18241
861.544	81.19383
861.945	92.23305
862.345	114.27597
862.745	64.15889
863.145	166.38879
863.544	95.23847
863.944	110.25734
864.344	104.25621
864.743	126.3088
865.143	95.2424
865.542	39.09083
865.941	73.1802
866.34	117.2772
866.74	88.23494
867.139	88.2095
867.537	96.24292
867.936	105.25049
868.335	103.25994
868.734	81.2061
869.132	118.27096
869.531	127.30321
869.929	60.13673
870.327	109.25874
870.726	115.28378
871.124	123.28385
871.522	52.13257
871.92	140.34006
872.318	89.2163
872.715	116.28408
873.113	67.16296
873.511	100.24717
873.908	19.04828
874.306	79.19566
874.703	120.29682
875.1	125.31591
875.497	110.26106
875.894	59.14447
876.291	88.21471
876.688	101.25844
877.085	107.25429
877.482	78.19449
877.878	80.19169
878.275	122.30629
878.671	117.25739
879.068	68.16381
879.464	98.235
879.86	80.18833
880.256	111.27118
880.652	98.24737
881.048	114.2795
881.444	94.22215
881.84	75.18995
882.236	105.26167
882.631	90.21951
883.027	98.23545
883.422	89.22621
883.817	41.10329
884.213	123.31185
884.608	35.08615
885.003	83.19907
885.398	29.07293
885.793	72.18018
886.188	41.10218
886.582	93.23697
886.977	92.21683
887.371	111.27793
887.766	60.14907
888.16	96.23781
888.554	126.30754
888.949	99.24663
889.343	104.25176
889.737	43.11478
890.131	74.18498
890.525	83.21119
890.918	68.17072
891.312	119.28128
891.706	85.22183
892.099	120.30181
892.492	117.24916
892.886	88.21399
893.279	56.14261
893.672	67.17018
894.065	95.23615
894.458	69.17308
894.851	144.34702
895.244	69.17575
895.637	65.15626
896.029	56.13689
896.422	83.20172
896.814	78.19308
897.206	52.12389
897.599	94.23081
897.991	81.19487
898.383	58.13696
898.775	104.23239
899.167	35.08193
899.559	114.28549
899.951	79.18536
900.342	115.28929
900.734	50.12413
901.125	80.20896
901.517	104.2529
901.908	110.26096
902.299	59.14409
902.69	87.20397
903.082	122.29166
903.473	61.14586
903.863	57.14534
904.254	125.28605
904.645	88.21751
905.036	65.15703
905.426	131.29532
905.817	56.13735
906.207	71.1686
906.597	22.05177
906.987	72.18601
907.378	103.25817
907.768	50.13225
908.158	92.22271
908.547	74.19045
908.937	102.25948
909.327	102.24543
909.717	99.24931
910.106	67.16051
910.495	95.23537
910.885	121.30274
911.274	85.21121
911.663	88.22197
912.052	112.27337
912.441	88.22236
912.83	115.26073
913.219	77.20068
913.608	89.21655
913.997	50.1254
914.385	124.29225
914.774	86.20811
915.162	80.18965
915.55	122.29133
915.939	87.21823
916.327	92.22798
916.715	69.17532
917.103	131.31778
917.491	112.27408
917.878	114.27711
918.266	88.22679
918.654	120.3029
919.041	75.195
919.429	96.22467
919.816	75.18935
920.203	86.20725
920.591	115.2819
920.978	86.20929
921.365	79.20632
921.752	93.22
922.139	126.26931
922.525	60.14388
922.912	93.22509
923.299	45.11198
923.685	88.22813
924.072	120.27301
924.458	44.10916
924.844	51.12622
925.231	106.24408
925.617	70.17745
926.003	80.20345
926.389	76.19088
926.774	126.31508
927.16	87.21468
927.546	34.08705
927.931	137.33657
928.317	88.20126
928.702	120.28018
929.088	81.1905
929.473	116.29175
929.858	61.1472
930.243	72.17213
930.628	55.13372
931.013	68.16802
931.398	103.23448
931.783	110.28673
932.167	94.22798
932.552	129.31867
932.937	114.2797
933.321	54.13543
933.705	92.23023
934.09	98.2456
934.474	146.34048
934.858	68.17586
935.242	61.14111
935.626	71.1811
936.009	54.14355
936.393	96.24232
936.777	67.17108
937.16	74.19177
937.544	68.15971
937.927	44.11178
938.311	134.32206
938.694	101.26485
939.077	83.19748
939.46	131.31694
939.843	115.23658
940.226	59.15113
940.609	48.11026
940.991	74.18759
941.374	67.16326
941.757	58.14294
942.139	85.18958
942.522	110.25703
942.904	82.19596
943.286	123.30853
943.668	54.1398
944.05	82.20082
944.432	74.18183
944.814	122.29656
945.196	15.0368
945.578	75.17742
945.959	109.25255
946.341	112.27184
946.722	101.23475
947.104	81.1925
947.485	83.19192
947.866	61.1534
948.247	59.14863
948.628	111.26775
949.009	69.17612
949.39	123.30218
949.771	120.27533
950.152	69.16876
950.532	40.09858
950.913	83.199
951.293	56.15113
951.674	92.22078
952.054	35.08697
952.434	66.16337
952.814	137.32056
953.194	84.21859
953.574	138.33444
953.954	67.15861
954.334	74.18365
954.714	55.13392
955.093	101.24602
955.473	64.15964
955.853	133.33936
956.232	96.26119
956.611	109.25854
956.99	65.16293
957.37	77.1953
957.749	90.2131
958.128	76.1906
958.506	72.18607
958.885	91.22801
959.264	70.17092
959.643	103.23191
960.021	65.16063
960.4	94.21117
960.778	100.24408
961.156	83.20684
961.535	147.33613
961.913	64.14937
962.291	63.16126
962.669	86.21646
963.047	98.24799
963.424	80.20309
963.802	94.22927
964.18	108.27046
964.557	128.29027
964.935	121.28279
965.312	85.22001
965.69	74.18452
966.067	79.19135
966.444	83.20331
966.821	118.30061
967.198	125.29901
967.575	146.35263
967.952	94.21965
968.329	116.2788
968.705	85.18093
969.082	48.12315
969.458	52.1247
969.835	91.21984
970.211	88.22434
970.587	106.26123
970.963	100.25431
971.339	51.13315
971.715	93.23042
972.091	65.15963
972.467	166.40532
972.843	71.17552
973.219	157.36937
973.594	79.20561
973.97	111.26115
974.345	95.22542
974.721	119.28444
975.096	97.23265
975.471	121.28312
975.846	85.20286
976.221	76.19211
976.596	64.15301
976.971	111.27098
977.346	117.26882
977.72	46.11727
978.095	68.17519
978.469	115.27109
978.844	142.35111
979.218	52.1246
979.593	111.26288
979.967	68.16511
980.341	97.22126
980.715	76.1906
981.089	103.25538
981.463	104.23623
981.837	72.17522
982.21	162.36871
982.584	73.17555
982.957	77.19133
983.331	101.23642
983.704	68.16653
984.078	68.16703
984.451	131.32242
984.824	81.19612
985.197	120.28765
985.57	87.21673
985.943	144.34951
986.316	155.37345
986.688	100.23889
987.061	130.29995
987.434	95.24564
987.806	95.22846
988.179	69.16221
988.551	112.28099
988.923	130.31541
989.295	99.24519
989.667	82.19469
990.039	93.22797
990.411	113.25682
990.783	91.20783
991.155	75.17934
991.527	153.36961
991.898	64.15906
992.27	80.19679
992.641	133.32867
993.012	95.22159
993.384	88.20837
993.755	58.14766
994.126	69.16537
994.497	52.12759
994.868	113.2563
995.239	98.23536
995.61	65.1631
995.98	98.2359
996.351	63.15563
996.722	74.17081
997.092	61.14413
997.462	31.07268
997.833	115.26919
998.203	104.24958
998.573	91.22488
998.943	106.24584
999.313	80.1906
999.683	93.22136
1000.053	135.30533
1000.423	126.3018
1000.792	84.21641
1001.162	79.19337
1001.531	107.26102
1001.901	93.23
1002.27	115.25362
1002.639	90.22831
1003.009	108.25394
1003.378	89.22597
1003.747	63.14845
1004.116	74.17624
1004.485	60.14311
1004.853	109.27321
1005.222	123.30608
1005.591	94.22128
1005.959	59.13268
1006.328	41.09243
1006.696	52.12536
1007.064	84.20998
1007.433	111.27431
1007.801	107.25985
1008.169	87.21823
1008.537	122.26607
1008.905	110.25319
1009.273	110.26869
1009.64	67.15929
1010.008	110.25915
1010.375	167.39657
1010.743	123.27989
1011.11	67.158
1011.478	81.19929
1011.845	102.2374
1012.212	94.21083
1012.579	116.28123
1012.946	110.25875
1013.313	93.21948
1013.68	77.17209
1014.047	80.1895
1014.414	68.16002
1014.78	73.1806
1015.147	93.22306
1015.513	81.19398
1015.88	107.27081
1016.246	153.37045
1016.612	139.31245
1016.978	112.27123
1017.344	101.24721
1017.71	130.31221
1018.076	114.26544
1018.442	89.22733
1018.808	84.20861
1019.174	65.16258
1019.539	122.27677
1019.905	90.21055
1020.27	88.21559
1020.636	109.25834
1021.001	84.19974
1021.366	19.04588
1021.731	115.2923
1022.096	46.11607
1022.461	98.22971
1022.826	68.16101
1023.191	85.22161
1023.556	107.24791
1023.92	88.21479
1024.285	66.16056
1024.649	128.30904
1025.014	107.26219
1025.378	95.23683
1025.742	94.23149
1026.107	106.23696
1026.471	132.3031
1026.835	89.21897
1027.199	73.17489
1027.562	109.25034
1027.926	126.30364
1028.29	69.17395
1028.654	113.25662
1029.017	93.2267
1029.381	60.143
1029.744	77.19537
1030.107	163.37705
1030.471	97.23008
1030.834	94.21187
1031.197	105.25021
1031.56	103.24044
1031.923	70.18028
1032.286	103.23931
1032.648	140.32893
1033.011	96.21823
1033.374	123.28487
1033.736	92.24006
1034.099	71.1723
1034.461	81.2034
1034.823	87.21508
1035.185	66.16558
1035.548	125.2998
1035.91	82.19514
1036.272	76.172
1036.634	73.17775
1036.995	124.28713
1037.357	76.18391
1037.719	95.22898
1038.08	101.23735
1038.442	116.27169
1038.803	119.28182
1039.165	49.12362
1039.526	86.20631
1039.887	98.23223
1040.248	75.18385
1040.609	140.34006
1040.97	95.23011
1041.331	110.27537
1041.692	75.17412
1042.053	144.3215
1042.413	95.21932
1042.774	133.31826
1043.134	127.29775
1043.495	79.19745
1043.855	112.26837
1044.215	103.25304
1044.576	53.12659
1044.936	113.25568
1045.296	109.26897
1045.656	90.2191
1046.016	122.29032
1046.375	96.23073
1046.735	21.04786
1047.095	69.16082
1047.454	125.2604
1047.814	67.16045
1048.173	153.35814
1048.533	93.21111
1048.892	47.11281
1049.251	124.30694
1049.61	59.14495
1049.969	107.24929
1050.328	116.24783
1050.687	111.26684
1051.046	106.25525
1051.405	101.24877
1051.763	71.16248
1052.122	113.27843
1052.48	120.29028
1052.839	48.11291
1053.197	68.15939
1053.555	119.26739
1053.914	114.27535
1054.272	87.20875
1054.63	65.15839
1054.988	80.18884
1055.345	98.20874
1055.703	106.25225
1056.061	65.16667
1056.419	102.2615
1056.776	104.24949
1057.134	84.19304
1057.491	78.19421
1057.848	79.19552
1058.206	69.16158
1058.563	97.21159
1058.92	147.33206
1059.277	93.22746
1059.634	111.25789
1059.991	133.3134
1060.348	34.07704
1060.704	81.19176
1061.061	121.27701
1061.418	90.21648
1061.774	90.22041
1062.131	66.17392
1062.487	101.23364
1062.843	134.32877
1063.199	59.14639
1063.555	74.17054
1063.911	120.2991
1064.267	132.27015
1064.623	65.15732
1064.979	131.30532
1065.335	117.27591
1065.691	112.26509
1066.046	95.20679
1066.402	100.22474
1066.757	109.27203
1067.112	89.21671
1067.468	88.20611
1067.823	111.26359
1068.178	82.19701
1068.533	94.22584
1068.888	118.27811
1069.243	83.20346
1069.598	86.20741
1069.952	60.13474
1070.307	45.11141
1070.662	68.16076
1071.016	29.06522
1071.371	55.1249
1071.725	140.32893
1072.079	69.16524
1072.434	68.16455
1072.788	123.28859
1073.142	148.35719
1073.496	59.13962
1073.85	39.09058
1074.203	116.27774
1074.557	81.21413
1074.911	97.22928
1075.265	62.14368
1075.618	125.30072
1075.971	86.203
1076.325	80.20208
1076.678	63.14359
1077.031	85.19084
1077.385	57.12529
1077.738	99.22108
1078.091	22.05028
1078.444	168.38066
1078.796	86.20944
1079.149	88.21719
1079.502	88.20619
1079.855	94.21714
1080.207	124.30108
1080.56	62.15979
1080.912	122.29278
1081.264	118.28027
1081.617	103.24836
1081.969	61.15345
1082.321	76.18454
1082.673	22.05046
1083.025	59.13962
1083.377	106.2246
1083.728	123.28261
1084.08	74.18378
1084.432	109.25974
1084.783	156.35764
1085.135	66.16481
1085.486	56.12787
1085.838	89.21744
1086.189	49.11887
1086.54	90.2131
1086.891	63.15882
1087.242	82.19828
1087.593	77.18637
1087.944	86.19304
1088.295	134.29918
1088.646	81.19501
1088.996	54.12989
1089.347	103.25005
1089.698	40.09464
1090.048	93.23955
1090.398	105.24067
1090.749	73.17375
1091.099	24.06058
1091.449	104.2563
1091.799	64.1597
1092.149	-1.00246
1092.499	109.26272
1092.849	111.27883
1093.199	143.35209
1093.548	96.22845
1093.898	83.20624
1094.248	95.24198
1094.597	3.00771
1094.947	74.19645
1095.296	85.20836
1095.645	119.30556
1095.994	112.26561
1096.343	89.2222
1096.692	81.21147
1097.041	48.12988
1097.39	118.29209
1097.739	76.19648
1098.088	78.20783
1098.437	39.10255
1098.785	82.21971
1099.134	107.28115
1099.482	102.27796
1099.83	100.26031
1100.179	60.15608
1100.527	85.22433
1100.875	58.153
1101.223	82.21638
1101.571	59.16266
1101.919	15.03939
1102.267	63.17686
1102.615	12.03855
1102.962	20.06432
1103.31	10.03211
1103.658	23.07398
