Data from N2 R14 sample 5_Subt2__1__14-23-47-091.txt Node

Date: Tue Sep 02 14:23:47 PDT 2025
User: uwsun
Spectrometer: HDX01956
Trigger mode: 0
Integration Time (sec): 5.000000E-1
Scans to average: 1
Nonlinearity correction enabled: true
Boxcar width: 0
Storing dark spectrum: false
XAxis mode: Wavelengths
Number of Pixels in Spectrum: 2068
>>>>>Begin Spectral Data<<<<<
194.03	77.21356
194.578	85.26598
195.127	52.16098
195.676	63.19535
196.225	170.43811
196.773	114.30686
197.321	155.40534
197.87	223.52912
198.418	225.52645
198.966	179.42522
199.513	155.35185
200.061	111.25861
200.609	264.63278
201.156	155.30651
201.704	152.34917
202.251	166.40154
202.798	170.40283
203.345	275.60901
203.892	211.48012
204.438	271.57835
204.985	178.3793
205.532	149.35872
206.078	191.42511
206.624	230.50585
207.17	202.42371
207.716	219.4769
208.262	234.41107
208.808	161.35804
209.354	172.37909
209.899	230.52706
210.445	187.41914
210.99	165.36008
211.535	254.53419
212.08	230.48052
212.625	192.43681
213.17	216.49558
213.715	152.30459
214.259	253.52728
214.804	249.55373
215.348	235.48258
215.892	268.57381
216.436	256.53223
216.98	209.41852
217.524	248.52433
218.068	234.53235
218.612	252.5719
219.155	225.47685
219.698	223.47963
220.242	231.52286
220.785	182.388
221.328	205.46515
221.871	261.59869
222.414	209.475
222.956	130.2876
223.499	220.44718
224.041	226.47844
224.583	249.48569
225.126	193.38666
225.668	197.43537
226.21	157.36231
226.751	162.32223
227.293	208.43205
227.835	243.53388
228.376	230.48158
228.918	205.47288
229.459	204.46016
230	189.40948
230.541	210.43912
231.082	199.43814
231.622	212.44311
232.163	164.36282
232.704	209.46903
233.244	205.46118
233.784	226.50311
234.324	190.37475
234.864	181.37286
235.404	227.48844
235.944	219.47022
236.484	274.61374
237.023	209.44565
237.563	198.41311
238.102	232.49308
238.641	219.50115
239.18	177.37414
239.719	256.57673
240.258	226.45686
240.797	224.48106
241.335	262.57453
241.874	200.34378
242.412	252.54048
242.95	168.36313
243.488	222.45495
244.026	229.47153
244.564	225.41324
245.102	215.43213
245.64	241.52213
246.177	185.37475
246.715	259.55586
247.252	275.56089
247.789	237.39834
248.326	204.43829
248.863	212.4148
249.4	255.51513
249.936	214.39214
250.473	150.31714
251.009	209.42744
251.546	194.38318
252.082	250.48498
252.618	264.51752
253.154	215.46123
253.69	215.43213
254.226	223.47488
254.761	191.3846
255.297	148.29246
255.832	179.38085
256.367	176.37341
256.903	196.38404
257.438	255.53121
257.972	200.39781
258.507	168.34429
259.042	248.47443
259.576	140.27003
260.111	247.50607
260.645	248.47351
261.179	185.38556
261.713	196.38785
262.247	220.45106
262.781	215.39686
263.315	216.46967
263.849	164.36873
264.382	223.45545
264.915	213.44115
265.449	132.28788
265.982	258.51629
266.515	298.63334
267.048	204.3808
267.58	250.48127
268.113	190.36294
268.646	163.36023
269.178	149.29699
269.71	218.42007
270.243	257.51464
270.775	216.48742
271.307	226.48284
271.838	258.54093
272.37	232.50339
272.902	230.46068
273.433	211.4057
273.965	243.51972
274.496	242.53157
275.027	201.4418
275.558	195.41869
276.089	141.30797
276.62	226.50978
277.15	235.51174
277.681	260.49136
278.211	221.47901
278.741	237.45218
279.272	244.48352
279.802	248.54292
280.332	217.44742
280.861	207.43851
281.391	259.50688
281.921	201.42785
282.45	207.45709
282.98	201.46366
283.509	211.41411
284.038	231.45722
284.567	267.54111
285.096	222.46895
285.625	239.46884
286.153	202.41266
286.682	225.44535
287.21	194.40801
287.739	199.41013
288.267	209.43965
288.795	255.58469
289.323	196.39658
289.851	258.51916
290.378	222.42963
290.906	177.37217
291.433	170.3717
291.961	211.41059
292.488	234.50318
293.015	166.33911
293.542	205.4485
294.069	197.41842
294.596	237.50601
295.122	228.4664
295.649	243.45619
296.175	240.49963
296.702	239.49744
297.228	240.50074
297.754	225.4297
298.28	256.48926
298.806	223.45669
299.332	204.38194
299.857	223.42567
300.383	240.52052
300.908	192.39561
301.433	219.45074
301.958	279.54162
302.483	235.49477
303.008	277.57678
303.533	286.62953
304.058	254.50475
304.582	220.43575
305.107	149.33356
305.631	294.55644
306.155	211.41118
306.679	208.4062
307.203	288.54828
307.727	192.38386
308.251	258.53112
308.775	194.38282
309.298	176.35203
309.822	230.48521
310.345	198.39144
310.868	269.5262
311.391	252.51363
311.914	205.42667
312.437	263.49107
312.96	221.42698
313.482	235.4549
314.005	243.50036
314.527	206.44755
315.049	247.5134
315.571	227.40306
316.093	263.52617
316.615	236.45891
317.137	278.47659
317.659	320.61899
318.18	280.5411
318.702	276.50678
319.223	294.46496
319.744	248.43658
320.265	277.5249
320.786	208.40793
321.307	251.49238
321.828	275.48069
322.348	240.44023
322.869	302.54113
323.389	295.34577
323.909	280.49111
324.43	307.57095
324.95	276.47646
325.47	253.4738
325.989	262.46461
326.509	240.39073
327.029	275.45439
327.548	253.41711
328.067	270.4793
328.587	302.55788
329.106	266.44013
329.625	360.70538
330.144	278.46152
330.662	288.47496
331.181	289.4831
331.7	258.43328
332.218	322.47854
332.736	308.50513
333.255	275.44759
333.773	311.5099
334.291	373.64757
334.808	277.41879
335.326	342.51447
335.844	306.47112
336.361	301.51506
336.879	282.43442
337.396	330.52131
337.913	349.51222
338.43	367.51685
338.947	289.44665
339.464	336.43826
339.981	300.45018
340.497	376.58682
341.014	310.47728
341.53	263.36561
342.046	293.4499
342.562	317.49773
343.078	331.47088
343.594	344.49542
344.11	381.53522
344.626	355.5387
345.141	357.46615
345.657	408.52541
346.172	362.50607
346.687	337.43763
347.202	332.41341
347.717	419.55314
348.232	413.58206
348.747	342.43038
349.261	257.29696
349.776	387.48758
350.29	321.43166
350.805	388.52719
351.319	384.46879
351.833	326.37747
352.347	369.44804
352.861	342.40821
353.374	420.48682
353.888	358.44959
354.401	371.42208
354.915	348.36915
355.428	363.45572
355.941	396.43607
356.454	486.50057
356.967	412.46613
357.48	414.44458
357.993	425.50315
358.505	386.44769
359.018	468.52598
359.53	426.46259
360.042	459.43166
360.554	450.49101
361.066	433.46891
361.578	483.41923
362.09	418.43571
362.602	425.37396
363.113	409.39442
363.625	457.40071
364.136	545.43921
364.647	366.3272
365.158	472.42107
365.669	475.44477
366.18	506.44819
366.691	505.38659
367.201	430.39237
367.712	500.38734
368.222	493.3813
368.733	435.29442
369.243	445.30399
369.753	488.36208
370.263	514.39454
370.773	471.3877
371.282	516.36142
371.792	329.20622
372.301	467.31147
372.811	468.37144
373.32	404.16908
373.829	387.2085
374.338	468.18419
374.847	476.18436
375.356	580.20345
375.865	474.07756
376.373	587.09986
376.882	636.19788
377.39	569.12125
377.898	465.07011
378.407	619.97094
378.915	620.9273
379.423	595.94898
379.93	723.85437
380.438	623.86542
380.946	641.80678
381.453	662.7665
381.96	618.7396
382.468	570.71554
382.975	822.57538
383.482	871.51995
383.989	733.61011
384.495	785.55958
385.002	663.64744
385.509	790.58972
386.015	794.70995
386.521	988.67505
387.028	1052.80111
387.534	1054.95299
388.04	1158.92844
388.546	943.20272
389.051	763.37153
389.557	886.73008
390.063	1436.69176
390.568	1260.82898
391.073	1163.30476
391.578	1173.54312
392.084	965.65178
392.589	609.09805
393.093	327.39261
393.598	779.39951
394.103	1186.40444
394.607	1278.11494
395.112	1461.31612
395.616	1399.30592
396.12	1171.78979
396.624	907.536
397.128	1127.19764
397.632	1796.95651
398.136	1594.93099
398.639	122.53177
399.143	-937.58324
399.646	-807.68493
400.15	-1123.17661
400.653	-1710.80567
401.156	-2837.49411
401.659	-4355.02156
402.162	-532.69335
402.664	-341.178
403.167	0
403.67	0
404.172	0
404.674	0
405.176	0
405.678	0
406.18	0
406.682	0
407.184	0
407.686	0
408.187	0
408.688	0
409.19	0
409.691	0
410.192	0
410.693	0
411.194	435.30976
411.694	4082.94878
412.195	8864.71461
412.696	12089.80453
413.196	12593.87254
413.696	12108.4869
414.196	13125.11096
414.696	16730.40774
415.196	19996.33365
415.696	22624.35234
416.196	18651.78171
416.695	11747.62673
417.195	7357.10143
417.694	7172.91543
418.194	7211.51901
418.693	6222.70725
419.192	6059.96107
419.691	5874.97745
420.19	5861.46539
420.688	6067.20897
421.187	6261.10714
421.685	6287.01739
422.184	5950.02018
422.682	4951.85059
423.18	3464.27019
423.678	2661.61024
424.176	2388.51509
424.674	2330.9536
425.172	2324.20667
425.669	2437.02905
426.167	2291.96254
426.664	2100.22011
427.161	1938.68767
427.659	1626.31764
428.156	1546.36167
428.652	1279.30077
429.149	1366.25632
429.646	1314.28145
430.143	1317.31485
430.639	1167.42701
431.135	1022.58527
431.632	1025.58611
432.128	833.76555
432.624	695.88849
433.12	724.79871
433.616	658.83824
434.111	515.93186
434.607	432.98948
435.103	587.94356
435.598	678.93723
436.093	691.07595
436.588	635.09494
437.083	639.13751
437.578	577.17934
438.073	360.17651
438.568	439.24618
439.062	494.17594
439.557	462.26697
440.051	341.19306
440.546	303.18248
441.04	373.25755
441.534	285.24639
442.028	356.27804
442.522	325.25834
443.015	361.23718
443.509	342.30065
444.002	235.21784
444.496	290.2137
444.989	323.29979
445.482	293.28584
445.975	249.20348
446.468	291.21709
446.961	290.21922
447.454	276.24052
447.947	124.12379
448.439	239.24967
448.931	167.15381
449.424	287.32247
449.916	259.27588
450.408	200.18929
450.9	96.10861
451.392	92.11306
451.884	195.20369
452.375	7.00871
452.867	192.20341
453.358	118.1248
453.849	114.11121
454.341	149.15905
454.832	107.10866
455.323	67.08425
455.814	118.13668
456.304	136.15835
456.795	191.21703
457.285	119.1382
457.776	200.23777
458.266	106.13418
458.756	154.2004
459.247	29.03821
459.737	30.03984
460.226	48.05907
460.716	35.04783
461.206	21.02951
461.695	49.07363
462.185	39.05424
462.674	111.14794
463.163	103.13125
463.653	28.03419
464.142	33.04845
464.63	95.14257
465.119	36.0507
465.608	-16.02301
466.096	73.0971
466.585	97.14005
467.073	107.16262
467.561	43.06727
468.05	41.06194
468.538	62.10065
469.026	76.11928
469.513	38.05134
470.001	48.07128
470.489	46.07236
470.976	62.09567
471.463	26.045
471.951	69.12009
472.438	43.06927
472.925	-21.03427
473.412	55.09608
473.899	77.12334
474.385	2.00356
474.872	15.02492
475.359	17.03007
475.845	10.01466
476.331	47.0737
476.817	54.0969
477.303	17.02912
477.789	-28.05094
478.275	-14.02625
478.761	12.02189
479.247	16.02703
479.732	-22.04192
480.218	8.01612
480.703	-5.00963
481.188	2.00326
481.673	-27.04796
482.158	-69.11261
482.643	-18.03657
483.128	-66.1185
483.612	-34.06296
484.097	25.04862
484.581	-22.04096
485.066	-67.13168
485.55	-95.16798
486.034	-39.06727
486.518	-44.08303
487.002	-59.11722
487.486	-36.07151
487.969	-77.15469
488.453	-16.03326
488.936	-69.128
489.42	-35.06363
489.903	-20.04195
490.386	-444.67003
490.869	-39.07065
491.352	-48.09948
491.835	-18.03081
492.318	-10.01865
492.8	-28.04808
493.283	-44.09429
493.765	-44.09136
494.247	-53.10594
494.73	-73.13725
495.212	-35.07249
495.694	-74.14712
496.175	-131.2667
496.657	13.02607
497.139	51.07363
497.62	-156.32129
498.102	-94.2017
498.583	-103.22564
499.064	-99.19026
499.545	-35.06843
500.026	-80.15489
500.507	-94.19028
500.988	-72.15603
501.469	-88.19192
501.949	-19.04069
502.43	-125.25994
502.91	-79.14136
503.39	-73.16093
503.87	-54.10991
504.35	-64.13282
504.83	-68.12958
505.31	-79.16772
505.79	-108.22754
506.269	0
506.749	-98.19675
507.228	-99.20458
507.707	-45.08686
508.187	-18.03766
508.666	-118.25702
509.145	-57.11652
509.623	-72.14896
510.102	-27.05732
510.581	14.02953
511.059	-93.20648
511.538	-35.0801
512.016	-37.07787
512.494	-43.09237
512.972	-22.04611
513.45	-129.26562
513.928	-48.1026
514.406	-70.148
514.884	-43.09777
515.361	-36.07605
515.839	-12.02392
516.316	-9.01901
516.793	-32.07201
517.27	8.01711
517.747	-39.08871
518.224	32.06475
518.701	-13.02551
519.178	-89.19694
519.654	61.12685
520.131	-49.10802
520.607	-20.04419
521.083	-32.06484
521.56	-16.03347
522.036	18.03477
522.512	10.0219
522.987	-14.02929
523.463	-25.05282
523.939	15.0326
524.414	52.10551
524.89	-3.00632
525.365	-6.01204
525.84	-85.18093
526.315	-21.04501
526.79	-6.01202
527.265	-3.00607
527.74	23.04953
528.215	3.00628
528.689	-4.00786
529.164	24.04613
529.638	3.00689
530.112	17.0354
530.587	-33.06268
531.061	-30.06462
531.534	-20.04356
532.008	-23.04943
532.482	25.05101
532.956	-19.04325
533.429	24.05172
533.903	36.07067
534.376	13.02556
534.849	38.07812
535.322	54.11267
535.795	57.12334
536.268	8.01716
536.741	36.07698
537.213	67.13678
537.686	43.09265
538.158	54.10621
538.631	90.1932
539.103	100.19501
539.575	159.28569
540.047	143.27217
540.519	134.27983
540.991	156.33271
541.463	142.29957
541.934	145.28767
542.406	192.39241
542.877	211.40609
543.348	271.55499
543.82	233.4897
544.291	289.56907
544.762	229.46112
545.233	332.69391
545.703	337.61211
546.174	366.69984
546.645	334.65598
547.115	438.85254
547.585	515.93503
548.056	472.90299
548.526	530.97182
548.996	626.15735
549.466	740.35902
549.935	671.18851
550.405	812.26211
550.875	817.39608
551.344	916.55528
551.814	1049.62324
552.283	1092.55827
552.752	1127.71311
553.221	1285.68885
553.69	1367.81596
554.159	1464.16014
554.628	1636.9866
555.096	1659.42871
555.565	1839.09717
556.033	1997.39207
556.502	2209.58663
556.97	2359.25375
557.438	2517.57726
557.906	2761.61542
558.374	2933.42874
558.842	3201.58921
559.31	3477.16174
559.777	3656.49776
560.245	4019.21851
560.712	4341.95706
561.18	4761.42136
561.647	5168.28551
562.114	5520.21847
562.581	6113.49168
563.048	6420.07829
563.514	6976.38083
563.981	7598.40719
564.448	8165.9323
564.914	8737.8616
565.381	9500.57254
565.847	10197.66244
566.313	10859.27962
566.779	11707.71474
567.245	12472.03544
567.711	13293.59738
568.176	14164.76711
568.642	14979.53239
569.108	15955.96229
569.573	17156.68539
570.038	18220.98815
570.504	19399.63177
570.969	20706.91036
571.434	21793.54384
571.899	23130.61569
572.363	24307.6468
572.828	25558.74445
573.293	26905.51226
573.757	28259.14741
574.222	29415.01307
574.686	30594.38625
575.15	31913.20156
575.614	33113.57658
576.078	34195.44379
576.542	34937.88038
577.006	35742.48028
577.469	36528.40381
577.933	37531.90104
578.396	38213.56084
578.86	38593.84942
579.323	39080.8689
579.786	39358.67707
580.249	39410.39197
580.712	39390.0733
581.175	39364.75037
581.637	39254.72653
582.1	39118.23106
582.563	38824.99156
583.025	38561.17361
583.487	38059.45694
583.95	37600.933
584.412	37372.26434
584.874	36562.96422
585.336	35888.92492
585.797	35010.07264
586.259	34410.98629
586.721	33379.45862
587.182	32636.84674
587.643	32016.71567
588.105	30688.12791
588.566	30085.96711
589.027	29189.83717
589.488	28446.33136
589.949	27582.54762
590.41	26668.06733
590.87	26084.66237
591.331	25336.98086
591.791	24416.70297
592.252	23508.08945
592.712	22990.06449
593.172	22128.41183
593.632	21571.89435
594.092	20728.3209
594.552	20178.3636
595.011	19397.83641
595.471	18886.32523
595.931	18289.41585
596.39	17652.49865
596.849	16996.99452
597.308	16602.70175
597.768	16041.10454
598.227	15674.18803
598.685	15242.5095
599.144	14757.48557
599.603	14460.46692
600.062	14141.46093
600.52	13848.00286
600.978	13372.25565
601.437	13092.54168
601.895	12502.18691
602.353	12539.95129
602.811	12125.27723
603.269	11970.70147
603.727	11750.46631
604.184	11313.61332
604.642	11311.05686
605.099	11046.12026
605.557	10888.16172
606.014	10703.99567
606.471	10542.71496
606.928	10373.66253
607.385	10086.20686
607.842	10250.93045
608.299	10172.58341
608.755	9894.60898
609.212	9822.56597
609.668	9661.08847
610.125	9642.87917
610.581	9626.84376
611.037	9527.62234
611.493	9477.45727
611.949	9278.97344
612.405	9177.88476
612.861	9177.74778
613.316	9060.50023
613.772	8939.2431
614.227	8846.07744
614.683	8907.17615
615.138	8759.91609
615.593	8571.59497
616.048	8562.56888
616.503	8530.64087
616.958	8356.45228
617.412	8277.21945
617.867	8106.86803
618.321	8090.76206
618.776	7905.66289
619.23	7830.74828
619.684	7642.49748
620.138	7586.55875
620.592	7387.61843
621.046	7224.42716
621.5	7070.53509
621.954	6938.18791
622.407	6760.1103
622.861	6521.54337
623.314	6491.22134
623.768	6311.35718
624.221	6260.60977
624.674	6038.37788
625.127	5940.509
625.58	5885.4155
626.033	5868.25332
626.485	5505.84557
626.938	5565.81092
627.39	5365.76933
627.843	5329.76581
628.295	5168.85354
628.747	5111.07055
629.199	4984.86327
629.651	4889.91367
630.103	4768.04372
630.555	4685.64316
631.006	4649.29144
631.458	4575.37296
631.909	4448.31371
632.361	4278.49013
632.812	4263.42821
633.263	4243.04379
633.714	4096.0991
634.165	4007.91995
634.616	3916.83184
635.067	3876.44536
635.518	3778.93349
635.968	3728.9778
636.419	3667.42858
636.869	3466.03962
637.319	3452.86112
637.769	3382.69115
638.219	3340.12307
638.669	3127.13154
639.119	3273.26982
639.569	3083.21755
640.019	3016.99505
640.468	2983.80912
640.918	2977.24256
641.367	2906.84688
641.816	2869.83782
642.265	2790.01687
642.714	2767.02055
643.163	2772.99141
643.612	2633.18688
644.061	2540.57056
644.51	2590.92831
644.958	2612.75944
645.406	2502.16274
645.855	2444.28439
646.303	2504.06595
646.751	2374.88784
647.199	2371.89505
647.647	2332.93548
648.095	2242.88892
648.543	2368.4602
648.99	2229.07587
649.438	2251.0273
649.885	2259.27561
650.333	2186.22117
650.78	2180.1136
651.227	2171.14501
651.674	2133.83496
652.121	2029.06895
652.568	2096.09927
653.015	2113.31599
653.461	1929.90562
653.908	2020.88414
654.354	1940.94221
654.801	1916.8425
655.247	1943.6132
655.693	1856.26063
656.139	1836.88512
656.585	1858.90688
657.031	1805.74336
657.477	1819.47941
657.922	1838.72821
658.368	1774.96304
658.813	1809.7656
659.259	1650.73789
659.704	1708.68169
660.149	1734.70593
660.594	1692.74275
661.039	1655.56428
661.484	1637.72722
661.929	1591.60552
662.373	1593.87551
662.818	1627.85308
663.262	1501.61188
663.707	1489.78191
664.151	1543.71617
664.595	1507.62921
665.039	1505.74336
665.483	1454.76076
665.927	1500.55232
666.371	1429.40942
666.814	1449.54593
667.258	1389.43747
667.701	1432.22778
668.145	1383.60728
668.588	1361.53211
669.031	1336.3629
669.474	1328.43351
669.917	1351.22204
670.36	1347.5503
670.803	1379.50906
671.245	1289.0274
671.688	1316.46557
672.13	1197.07729
672.573	1207.43951
673.015	1190.25394
673.457	1211.02674
673.899	1214.31398
674.341	1201.28419
674.783	1135.17293
675.225	1142.25187
675.666	1069.08261
676.108	1140.94432
676.549	1170.19772
676.991	1118.9526
677.432	1089.69628
677.873	1089.02868
678.314	1081.09313
678.755	1099.16541
679.196	988.86367
679.637	1055.11539
680.078	1063.02402
680.518	1081.04151
680.959	982.95629
681.399	1002.06558
681.839	1008.03256
682.28	954.97689
682.72	995.87461
683.16	968.0203
683.6	974.8426
684.039	1003.69478
684.479	955.96797
684.919	927.7864
685.358	985.09791
685.798	925.06749
686.237	1025.04853
686.676	1009.93352
687.115	995.93687
687.554	874.76993
687.993	944.73712
688.432	962.82782
688.871	936.77317
689.309	929.86986
689.748	977.67302
690.186	939.89001
690.625	904.79158
691.063	888.81304
691.501	928.94519
691.939	900.91463
692.377	849.78224
692.815	939.88828
693.253	965.94594
693.69	889.64593
694.128	882.82272
694.565	936.88094
695.003	905.96396
695.44	938.85126
695.877	895.77001
696.314	955.69996
696.751	972.84417
697.188	970.85108
697.625	982.87402
698.061	934.88897
698.498	961.95468
698.934	939.90731
699.371	892.78175
699.807	967.91168
700.243	870.79149
700.679	969.82287
701.115	1010.97029
701.551	972.91129
701.987	989.83783
702.422	921.84695
702.858	932.87204
703.294	948.79333
703.729	978.00434
704.164	982.97347
704.599	969.78723
705.035	978.80701
705.47	960.96016
705.904	1030.96956
706.339	1013.94772
706.774	1011.95503
707.209	1010.91732
707.643	1062.08894
708.078	1004.03279
708.512	932.97588
708.946	1066.09193
709.38	1003.97093
709.814	967.83956
710.248	1009.04433
710.682	1014.99397
711.116	971.93123
711.549	986.14481
711.983	1019.93584
712.416	1030.00599
712.85	980.05079
713.283	977.92788
713.716	1057.19709
714.149	977.94677
714.582	980.81882
715.015	1029.14354
715.448	923.98268
715.881	1013.81277
716.313	925.826
716.746	867.74255
717.178	940.90371
717.61	946.03428
718.043	962.02103
718.475	896.85085
718.907	929.00323
719.339	857.65289
719.77	868.75616
720.202	876.90625
720.634	861.79714
721.065	848.72582
721.497	847.79052
721.928	814.73459
722.359	757.59874
722.79	807.67393
723.221	792.74596
723.652	799.8094
724.083	784.53033
724.514	790.5734
724.945	678.41892
725.375	700.43529
725.806	725.60651
726.236	705.61324
726.666	722.50911
727.096	715.55672
727.526	666.51938
727.956	656.32921
728.386	674.48567
728.816	649.47908
729.246	678.46954
729.675	573.28679
730.105	664.46605
730.534	622.31134
730.964	638.45837
731.393	695.5419
731.822	563.31947
732.251	598.38219
732.68	620.31913
733.109	542.22728
733.537	584.28279
733.966	564.28182
734.395	551.16272
734.823	563.1574
735.251	501.1166
735.68	590.34801
736.108	495.16352
736.536	523.13586
736.964	515.10041
737.392	475.10777
737.82	500.11092
738.247	524.15613
738.675	461.02857
739.102	429.00658
739.53	457.08781
739.957	409.9953
740.384	454.04854
740.811	463.09706
741.238	449.02483
741.665	411.89799
742.092	474.05349
742.519	386.90607
742.945	411.93134
743.372	400.93745
743.798	440.06188
744.225	378.85362
744.651	381.90879
745.077	368.87426
745.503	380.88119
745.929	382.87003
746.355	411.96717
746.781	357.84471
747.207	300.67806
747.632	296.69594
748.058	389.92111
748.483	391.85213
748.908	351.83341
749.334	346.81283
749.759	304.69074
750.184	333.75953
750.609	332.78269
751.033	362.81616
751.458	308.66571
751.883	308.73569
752.307	294.66802
752.732	248.6028
753.156	317.7527
753.58	304.69633
754.005	251.62069
754.429	317.71574
754.853	254.61206
755.277	258.59382
755.7	283.67948
756.124	235.56918
756.548	242.55923
756.971	306.72001
757.394	280.6986
757.818	239.59989
758.241	238.58909
758.664	227.56032
759.087	221.48269
759.51	264.63808
759.933	236.55402
760.356	253.63113
760.778	239.5732
761.201	270.63729
761.623	253.59775
762.046	251.58037
762.468	295.68453
762.89	258.61935
763.312	216.51696
763.734	225.52975
764.156	215.52015
764.578	176.40041
765	238.56656
765.421	143.35998
765.843	204.5248
766.264	232.54782
766.686	182.45066
767.107	197.46924
767.528	163.40635
767.949	166.41705
768.37	230.5513
768.791	188.44806
769.212	145.36082
769.632	161.3711
770.053	144.37574
770.473	201.48005
770.894	205.50379
771.314	189.44482
771.734	216.49279
772.154	154.39135
772.575	148.34066
772.994	128.28968
773.414	210.49453
773.834	123.30608
774.254	173.41776
774.673	210.50126
775.093	139.34123
775.512	137.33495
775.931	169.42268
776.351	145.35675
776.77	144.34885
777.189	161.37863
777.607	130.32966
778.026	164.40327
778.445	118.29369
778.864	162.41036
779.282	132.31557
779.701	117.29358
780.119	129.32358
780.537	117.29051
780.955	151.38012
781.373	151.36945
781.791	123.27513
782.209	194.43903
782.627	138.36008
783.045	123.28159
783.462	120.30473
783.88	131.33602
784.297	133.33181
784.715	71.18263
785.132	103.24883
785.549	120.29834
785.966	131.32682
786.383	131.31969
786.8	124.28644
787.217	144.33793
787.633	98.24391
788.05	182.42526
788.466	182.42209
788.883	136.3434
789.299	107.25683
789.715	134.32292
790.131	122.30133
790.547	141.34857
790.963	145.35596
791.379	112.28159
791.795	123.2791
792.21	99.2311
792.626	140.32893
793.041	75.18541
793.457	133.32578
793.872	111.25983
794.287	66.15803
794.702	128.31289
795.117	81.2012
795.532	91.22752
795.947	182.43027
796.362	157.37009
796.776	156.36093
797.191	97.2368
797.605	56.13214
798.02	106.2568
798.434	139.30655
798.848	106.25979
799.262	115.28336
799.676	157.37784
800.09	107.262
800.504	108.26086
800.918	135.30968
801.331	139.36052
801.745	109.24924
802.158	77.19252
802.572	171.40794
802.985	163.38811
803.398	151.35539
803.811	175.44226
804.224	114.28198
804.637	98.23267
805.05	126.28967
805.462	108.264
805.875	90.23251
806.288	70.16907
806.7	125.3114
807.112	92.21295
807.525	132.32255
807.937	85.20975
808.349	90.2249
808.761	124.30244
809.173	91.22
809.584	162.39423
809.996	69.16914
810.408	59.15256
810.819	128.29815
811.231	45.11676
811.642	80.19052
812.053	137.32194
812.464	156.36523
812.875	164.41232
813.286	133.33864
813.697	202.46123
814.108	101.24565
814.519	131.28903
814.929	116.29364
815.34	108.26036
815.75	92.23289
816.16	77.19182
816.571	108.27872
816.981	180.41663
817.391	135.32231
817.801	85.2106
818.211	135.31823
818.62	104.24892
819.03	115.2797
819.44	118.30569
819.849	88.22109
820.259	143.3614
820.668	74.1819
821.077	87.21539
821.486	157.37225
821.895	136.3322
822.304	91.24016
822.713	140.32675
823.122	82.20424
823.531	88.20805
823.939	165.39498
824.348	111.26795
824.756	108.26871
825.164	122.3042
825.573	97.24217
825.981	141.34524
826.389	126.31337
826.797	125.30992
827.205	96.21929
827.612	151.36712
828.02	75.17597
828.428	115.29043
828.835	96.25135
829.243	150.35215
829.65	81.20091
830.057	88.21287
830.464	87.21128
830.871	133.31474
831.278	73.17635
831.685	97.21545
832.092	96.23388
832.499	99.21541
832.905	114.28621
833.312	119.26892
833.718	117.28892
834.124	127.287
834.531	129.32159
834.937	126.31997
835.343	133.31705
835.749	92.21405
836.155	80.20889
836.561	105.25643
836.966	133.3213
837.372	113.28518
837.777	95.23537
838.183	123.27058
838.588	99.2443
838.993	102.24674
839.399	71.1734
839.804	57.1391
840.209	87.2205
840.613	99.21889
841.018	87.21941
841.423	86.21971
841.828	115.28815
842.232	135.33018
842.637	87.20445
843.041	64.16397
843.445	112.27845
843.849	98.24107
844.253	119.27997
844.657	27.06841
845.061	103.23201
845.465	75.18077
845.869	79.18311
846.272	72.17502
846.676	94.2261
847.079	76.19273
847.483	122.3011
847.886	111.26775
848.289	98.25981
848.692	83.20939
849.095	85.20333
849.498	140.34996
849.901	80.18296
850.304	101.23966
850.707	79.2008
851.109	113.28334
851.512	104.25356
851.914	29.07348
852.316	91.22892
852.718	45.11644
853.121	118.28608
853.523	92.21379
853.925	80.20789
854.326	72.17959
854.728	76.19484
855.13	84.21566
855.531	71.16932
855.933	130.30805
856.334	97.24015
856.736	102.2266
857.137	90.20807
857.538	74.18552
857.939	55.13597
858.34	144.34544
858.741	83.21602
859.142	121.28734
859.542	125.326
859.943	87.21508
860.343	67.16564
860.744	96.23266
861.144	105.25394
861.544	78.18676
861.945	60.15286
862.345	85.20689
862.745	112.27561
863.145	147.34558
863.544	124.30963
863.944	131.3052
864.344	120.29475
864.743	118.28963
865.143	147.37164
865.542	71.16431
865.941	96.23598
866.34	119.28182
866.74	104.27691
867.139	99.23518
867.537	140.35148
867.936	123.29242
868.335	99.25003
868.734	65.16586
869.132	107.24624
869.531	100.23998
869.929	76.17263
870.327	115.27267
870.726	88.21823
871.124	119.27484
871.522	65.16533
871.92	121.29495
872.318	112.27103
872.715	144.35082
873.113	113.27247
873.511	98.24232
873.908	60.15134
874.306	89.22002
874.703	72.17966
875.1	121.30602
875.497	122.28887
875.894	58.14204
876.291	109.26491
876.688	43.11115
877.085	80.19111
877.482	112.27754
877.878	67.16094
878.275	64.16235
878.671	134.29373
879.068	128.30484
879.464	81.19487
879.86	86.20222
880.256	107.26161
880.652	116.29186
881.048	124.30345
881.444	108.25454
881.84	78.19745
882.236	109.27144
882.631	100.24345
883.027	134.31974
883.422	67.17096
883.817	38.09578
884.213	60.15383
884.608	53.13002
885.003	73.17542
885.398	60.15004
885.793	135.33398
886.188	43.10712
886.582	127.32165
886.977	119.27899
887.371	58.14661
887.766	57.14169
888.16	76.18895
888.554	100.24526
888.949	101.25152
889.343	124.29905
889.737	34.09089
890.131	69.17264
890.525	91.23121
890.918	90.22506
891.312	153.35926
891.706	135.3493
892.099	136.34107
892.492	147.311
892.886	119.28769
893.279	85.21536
893.672	66.16767
894.065	75.18711
894.458	110.27388
894.851	110.26679
895.244	59.15055
895.637	127.3017
896.029	109.26382
896.422	106.25651
896.814	84.2077
897.206	66.15682
897.599	121.29561
897.991	104.24911
898.383	103.2411
898.775	69.1553
899.167	80.18561
899.559	85.21398
899.951	82.19228
900.342	101.25471
900.734	39.09702
901.125	106.27564
901.517	90.21943
901.908	134.31643
902.299	46.11261
902.69	89.20858
903.082	110.26358
903.473	43.10317
903.863	63.16047
904.254	132.30165
904.645	86.21265
905.036	57.13791
905.426	102.23131
905.817	122.29556
906.207	62.14749
906.597	77.17925
906.987	105.26971
907.378	104.26063
907.768	66.1741
908.158	81.19649
908.547	90.23098
908.937	105.26697
909.327	120.28776
909.717	102.25673
910.106	42.1011
910.495	144.35357
910.885	103.25855
911.274	88.21855
911.663	118.29604
912.052	105.25662
912.441	82.20743
912.83	106.24077
913.219	118.30537
913.608	90.21894
913.997	46.11545
914.385	97.22981
914.774	108.26026
915.162	78.18498
915.55	92.22095
915.939	51.12876
916.327	128.3151
916.715	78.19787
917.103	134.32487
917.491	138.33608
917.878	92.22456
918.266	77.19882
918.654	80.20337
919.041	52.13573
919.429	85.19936
919.816	136.3396
920.203	90.21672
920.591	69.17058
920.978	115.27834
921.365	96.24998
921.752	92.21767
922.139	94.20231
922.525	91.21693
922.912	152.3638
923.299	76.18806
923.685	53.13823
924.072	158.35669
924.458	94.23106
924.844	93.22839
925.231	69.16006
925.617	67.16993
926.003	126.31781
926.389	70.176
926.774	109.27341
927.16	94.23166
927.546	46.11752
927.931	112.27642
928.317	100.22815
928.702	117.27334
929.088	106.24808
929.473	123.30897
929.858	61.1472
930.243	56.13429
930.628	66.16013
931.013	64.15825
931.398	137.30973
931.783	149.38579
932.167	75.18255
932.552	93.23126
932.937	90.2218
933.321	80.19969
933.705	100.24989
934.09	131.32634
934.474	136.31778
934.858	106.27233
935.242	90.20699
935.626	82.20875
936.009	80.21174
936.393	73.18502
936.777	68.1736
937.16	78.202
937.544	95.22194
937.927	94.23668
938.311	108.26086
938.694	122.31877
939.077	107.25341
939.46	117.28382
939.843	123.25258
940.226	82.2092
940.609	92.20948
940.991	82.20757
941.374	48.11738
941.757	108.26371
942.139	62.13894
942.522	158.36571
942.904	108.25681
943.286	109.2741
943.668	129.32962
944.05	69.16939
944.432	69.1697
944.814	132.32026
945.196	29.07096
945.578	48.11414
945.959	121.27968
946.341	143.34506
946.722	118.27334
947.104	100.23678
947.485	121.27768
947.866	81.20296
948.247	57.14365
948.628	84.20365
949.009	55.14074
949.39	109.26848
949.771	52.12094
950.152	96.23362
950.532	38.09368
950.913	139.3297
951.293	96.25739
951.674	124.29576
952.054	78.1923
952.434	69.17071
952.814	140.32739
953.194	113.29258
953.574	124.30131
953.954	87.20517
954.334	100.24699
954.714	28.06852
955.093	135.32674
955.473	49.12256
955.853	83.21365
956.232	83.2263
956.611	134.3163
956.99	96.23928
957.37	87.22027
957.749	127.29856
958.128	91.2276
958.506	95.24453
958.885	102.25507
959.264	61.1492
959.643	71.16091
960.021	81.19958
960.4	92.20676
960.778	109.2656
961.156	90.224
961.535	101.23308
961.913	103.23855
962.291	46.1181
962.669	71.17918
963.047	66.16796
963.424	86.21809
963.802	83.20285
964.18	133.33156
964.557	91.20791
964.935	113.26451
965.312	72.18678
965.69	105.26034
966.067	100.24126
966.444	110.26809
966.821	108.27562
967.198	107.25683
967.575	101.24602
967.952	133.30839
968.329	110.26468
968.705	134.28219
969.082	107.27167
969.458	82.19551
969.835	135.32342
970.211	72.18407
970.587	135.33092
970.963	127.32142
971.339	88.22829
971.715	110.27169
972.091	87.21279
972.467	110.27139
972.843	92.22656
973.219	132.31207
973.594	109.28223
973.97	142.33206
974.345	91.2161
974.721	142.33792
975.096	76.18301
975.471	105.24646
975.846	87.20755
976.221	82.20706
976.596	81.19302
976.971	118.28769
977.346	127.29121
977.72	90.22766
978.095	100.25619
978.469	114.26878
978.844	129.31972
979.218	27.06501
979.593	78.1859
979.967	118.28382
980.341	100.22797
980.715	107.26685
981.089	105.26024
981.463	54.1239
981.837	55.13427
982.21	129.29556
982.584	48.11598
982.957	55.13722
983.331	122.2844
983.704	94.2291
984.078	88.21535
984.451	118.29112
984.824	66.16026
985.197	110.26418
985.57	111.27531
985.943	127.30923
986.316	150.36175
986.688	135.32033
987.061	89.20702
987.434	57.14835
987.806	77.18581
988.179	82.19228
988.551	83.20932
988.923	118.28694
989.295	131.32254
989.667	15.03607
990.039	95.23279
990.411	66.15143
990.783	85.19436
991.155	45.10822
991.527	132.32014
991.898	87.21532
992.27	103.25229
992.641	107.26568
993.012	108.25127
993.384	135.31675
993.755	63.16024
994.126	93.22187
994.497	75.18323
994.868	93.2118
995.239	88.21175
995.61	92.22973
995.98	63.15266
996.351	104.25498
996.722	61.14117
997.092	66.15579
997.462	88.20401
997.833	84.19782
998.203	80.19286
998.573	110.27089
998.943	82.19108
999.313	87.207
999.683	75.17913
1000.053	101.23002
1000.423	85.20519
1000.792	70.18078
1001.162	121.29385
1001.531	91.22265
1001.901	107.26394
1002.27	142.3114
1002.639	89.22581
1003.009	54.12831
1003.378	32.08207
1003.747	100.23394
1004.116	88.20901
1004.485	127.29903
1004.853	123.30753
1005.222	103.25724
1005.591	92.21666
1005.959	77.17252
1006.328	91.20305
1006.696	28.06781
1007.064	90.22474
1007.433	94.23302
1007.801	104.25271
1008.169	100.25025
1008.537	111.24265
1008.905	52.12108
1009.273	102.24952
1009.64	25.05992
1010.008	111.26146
1010.375	152.36199
1010.743	132.29982
1011.11	97.22741
1011.478	106.25959
1011.845	93.21684
1012.212	124.27639
1012.579	101.24556
1012.946	104.24492
1013.313	142.33193
1013.68	115.255
1014.047	60.14267
1014.414	94.22008
1014.78	67.16594
1015.147	128.30495
1015.513	83.19869
1015.88	127.32028
1016.246	70.17213
1016.612	90.20434
1016.978	85.20689
1017.344	92.22556
1017.71	105.25337
1018.076	109.25405
1018.442	133.33709
1018.808	54.13484
1019.174	63.15763
1019.539	137.30985
1019.905	93.21744
1020.27	88.21559
1020.636	120.28381
1021.001	84.19974
1021.366	72.17213
1021.731	65.16667
1022.096	75.18826
1022.461	100.23431
1022.826	123.28814
1023.191	71.18555
1023.556	118.2728
1023.92	146.3525
1024.285	94.22747
1024.649	112.27123
1025.014	126.30766
1025.378	98.24418
1025.742	107.26287
1026.107	109.24351
1026.471	149.34097
1026.835	88.21655
1027.199	95.22664
1027.562	120.275
1027.926	104.25167
1028.29	75.18887
1028.654	107.24329
1029.017	88.21471
1029.381	59.14065
1029.744	71.18034
1030.107	128.29815
1030.471	91.2161
1030.834	102.22952
1031.197	89.21273
1031.56	123.286
1031.923	104.26625
1032.286	90.20964
1032.648	101.2391
1033.011	53.12153
1033.374	103.2395
1033.736	68.17816
1034.099	85.20573
1034.461	91.2281
1034.823	88.21751
1035.185	125.31026
1035.548	88.21255
1035.91	71.16932
1036.272	95.21416
1036.634	93.2256
1036.995	113.26223
1037.357	85.20534
1037.719	95.22898
1038.08	82.19341
1038.442	82.19334
1038.803	99.23537
1039.165	86.21553
1039.526	82.19686
1039.887	66.15736
1040.248	60.14749
1040.609	110.26869
1040.97	87.21105
1041.331	85.21375
1041.692	82.1901
1042.053	119.26706
1042.413	95.21932
1042.774	123.2949
1043.134	118.27713
1043.495	110.27338
1043.855	97.23309
1044.215	87.21437
1044.576	46.11001
1044.936	102.23131
1045.296	100.24717
1045.656	123.29759
1046.016	109.26004
1046.375	101.24252
1046.735	79.17795
1047.095	94.21801
1047.454	87.18277
1047.814	85.20286
1048.173	90.21327
1048.533	72.16414
1048.892	29.06985
1049.251	94.23396
1049.61	84.20541
1049.969	88.20579
1050.328	84.18071
1050.687	97.2338
1051.046	138.33029
1051.405	109.26808
1051.763	73.16699
1052.122	91.22513
1052.48	85.20697
1052.839	49.11524
1053.197	45.10596
1053.555	134.30017
1053.914	95.23028
1054.272	113.26979
1054.63	84.20396
1054.988	49.11636
1055.345	77.16476
1055.703	93.22187
1056.061	94.23981
1056.419	54.1396
1056.776	134.31961
1057.134	96.22009
1057.491	72.17946
1057.848	107.26345
1058.206	66.15464
1058.563	135.29211
1058.92	114.25925
1059.277	114.27773
1059.634	111.25789
1059.991	126.29731
1060.348	81.18178
1060.704	71.16841
1061.061	113.25911
1061.418	91.21884
1061.774	80.19629
1062.131	42.11113
1062.487	87.20181
1062.843	127.312
1063.199	86.21233
1063.555	76.17507
1063.911	95.23787
1064.267	124.25423
1064.623	56.13577
1064.979	166.38422
1065.335	133.31266
1065.691	111.26278
1066.046	74.1618
1066.402	114.25547
1066.757	88.22046
1067.112	133.32118
1067.468	45.10629
1067.823	96.22863
1068.178	103.24648
1068.533	125.29855
1068.888	108.25503
1069.243	91.22274
1069.598	107.25702
1069.952	60.13474
1070.307	70.17251
1070.662	74.17475
1071.016	88.1955
1071.371	66.14955
1071.725	100.23678
1072.079	103.24506
1072.434	90.21689
1072.788	92.21717
1073.142	171.41091
1073.496	47.11148
1073.85	76.17521
1074.203	80.19286
1074.557	62.16443
1074.911	122.28697
1075.265	109.25024
1075.618	150.35915
1075.971	140.327
1076.325	82.20706
1076.678	73.16605
1077.031	73.1643
1077.385	120.26027
1077.738	87.19476
1078.091	31.07071
1078.444	127.29016
1078.796	110.26669
1079.149	85.2099
1079.502	83.19467
1079.855	95.21941
1080.207	87.21271
1080.56	55.14192
1080.912	118.28339
1081.264	134.31729
1081.617	109.26253
1081.969	72.18077
1082.321	83.20127
1082.673	28.06414
1083.025	129.30113
1083.377	-102.22594
1083.728	105.24212
1084.08	91.2253
1084.432	90.21524
1084.783	119.27484
1085.135	79.1968
1085.486	83.18849
1085.838	86.21022
1086.189	83.20006
1086.54	84.19913
1086.891	56.14135
1087.242	57.13848
1087.593	127.30449
1087.944	84.18863
1088.295	121.27088
1088.646	111.26572
1088.996	43.10364
1089.347	46.11286
1089.698	87.20397
1090.048	106.27242
1090.398	73.1684
1090.749	92.21818
1091.099	64.16039
1091.449	68.16869
1091.799	101.25033
1092.149	57.13869
1092.499	95.22959
1092.849	71.17963
1093.199	104.25791
1093.548	116.27499
1093.898	57.14231
1094.248	75.19171
1094.597	56.14267
1094.947	83.22001
1095.296	124.30176
1095.645	93.23989
1095.994	124.29338
1096.343	87.21728
1096.692	77.20116
1097.041	72.19406
1097.39	52.13027
1097.739	69.1786
1098.088	137.36144
1098.437	26.06852
1098.785	107.28552
1099.134	117.30691
1099.482	84.22957
1099.83	70.18316
1100.179	62.16123
1100.527	77.20349
1100.875	64.16865
1101.223	74.19553
1101.571	74.20353
1101.919	43.11238
1102.267	69.19352
1102.615	5.01607
1102.962	17.05469
1103.31	12.03853
1103.658	26.0836
