Data from N2 R14 sample 7_Subt2__1__14-23-04-091.txt Node

Date: Tue Sep 02 14:23:04 PDT 2025
User: uwsun
Spectrometer: HDX01956
Trigger mode: 0
Integration Time (sec): 5.000000E-1
Scans to average: 1
Nonlinearity correction enabled: true
Boxcar width: 0
Storing dark spectrum: false
XAxis mode: Wavelengths
Number of Pixels in Spectrum: 2068
>>>>>Begin Spectral Data<<<<<
194.03	208.56496
194.578	173.5353
195.127	195.59241
195.676	199.60617
196.225	258.65466
196.773	298.77774
197.321	384.96457
197.87	526.17264
198.418	475.05462
198.966	468.04744
199.513	496.04578
200.061	439.95631
200.609	487.1153
201.156	428.79226
201.704	452.97564
202.251	466.06093
202.798	473.05278
203.345	523.09629
203.892	460.99376
204.438	530.06569
204.985	461.92187
205.532	450.01907
206.078	492.02461
206.624	453.94951
207.17	531.03114
207.716	486.9982
208.262	553.89078
208.808	454.94804
209.354	454.94131
209.899	563.20159
210.445	517.07796
210.99	510.02964
211.535	550.07955
212.08	535.04041
212.625	482.03
213.17	520.11807
213.715	456.84959
214.259	530.03483
214.804	549.14277
215.348	502.96876
215.892	556.11447
216.436	554.07359
216.98	605.0992
217.524	543.07205
218.068	540.15018
218.612	539.14979
219.155	544.07076
219.698	487.98785
220.242	532.12821
220.785	480.95698
221.328	494.05296
221.871	507.10339
222.414	495.0576
222.956	408.8501
223.499	486.92798
224.041	498.99148
224.583	541.98226
225.126	471.88299
225.668	426.89628
226.21	466.00692
226.751	431.8036
227.293	448.88072
227.835	431.90939
228.376	513.00513
228.918	477.03843
229.459	423.9113
230	462.94249
230.541	524.01776
231.082	486.00356
231.622	475.93491
232.163	500.02652
232.704	440.94039
233.244	446.95362
233.784	481.0121
234.324	442.82023
234.864	420.81867
235.404	499.00901
235.944	474.9617
236.484	478.02364
237.023	486.97389
237.563	468.91788
238.102	503.00409
238.641	440.96194
239.18	470.92964
239.719	478.02585
240.258	465.88852
240.797	475.96483
241.335	479.00036
241.874	486.7719
242.412	516.04178
242.95	447.90837
243.488	489.94163
244.026	509.98203
244.564	515.87716
245.102	454.86224
245.64	529.0737
246.177	523.97759
246.715	508.02982
247.252	515.99313
247.789	552.84871
248.326	438.89353
248.863	551.99178
249.4	521.98831
249.936	526.88842
250.473	544.04915
251.009	476.91461
251.546	509.93119
252.082	555.99847
252.618	498.92233
253.154	459.93276
253.69	546.01218
254.226	488.97925
254.761	532.98729
255.297	475.86677
255.832	438.87933
256.367	562.09016
256.903	487.88868
257.438	554.07564
257.972	480.89254
258.507	454.87023
259.042	511.91551
259.576	507.89198
260.111	539.02977
260.645	517.92292
261.179	435.85617
261.713	511.93674
262.247	499.95858
262.781	465.80478
263.315	492.00506
263.849	522.08527
264.382	522.99383
264.915	563.07312
265.449	506.01407
265.982	556.03435
266.515	570.13784
267.048	535.91715
267.58	545.97494
268.113	525.92173
268.646	520.06141
269.178	532.96616
269.71	537.95567
270.243	566.0509
270.775	526.10963
271.307	545.08205
271.838	582.13118
272.37	551.11232
272.902	574.05678
273.433	528.93794
273.965	544.08585
274.496	537.10436
275.027	509.04432
275.558	516.02938
276.089	501.00889
276.62	583.21689
277.15	539.09603
277.681	511.90655
278.211	558.12055
278.741	527.93495
279.272	556.01999
279.802	557.13784
280.332	556.05744
280.861	577.12171
281.391	548.99927
281.921	541.0646
282.45	583.18404
282.98	570.21576
283.509	529.96046
284.038	499.9258
284.567	604.12829
285.096	579.12561
285.625	565.02169
286.153	555.04144
286.682	581.05283
287.21	533.03552
287.739	557.05395
288.267	565.09364
288.795	590.25957
289.323	566.04672
289.851	602.114
290.378	598.05206
290.906	532.0294
291.433	595.18206
291.961	583.03285
292.488	594.1765
293.015	578.06896
293.542	610.21839
294.069	589.14236
294.596	648.2585
295.122	578.08709
295.649	587.0076
296.175	622.18322
296.702	628.19234
297.228	646.22479
297.754	609.05384
298.28	599.0486
298.806	641.1872
299.332	659.0947
299.857	630.08304
300.383	671.31967
300.908	548.03714
301.433	633.17995
301.958	660.16383
302.483	608.17339
303.008	696.3127
303.533	628.28109
304.058	642.15919
304.582	689.21414
305.107	578.17734
305.631	671.15216
306.155	620.08972
306.679	634.11205
307.203	666.15058
307.727	707.24398
308.251	675.25777
308.775	638.12671
309.298	620.11139
309.822	671.27692
310.345	686.20033
310.868	684.20562
311.391	656.21292
311.914	643.20633
312.437	840.34543
312.96	718.22156
313.482	692.19244
314.005	718.31919
314.527	696.35253
315.049	754.38895
315.571	754.15663
316.093	762.34764
316.615	737.26173
317.137	721.08986
317.659	822.399
318.18	787.33603
318.702	817.29696
319.223	739.02035
319.744	749.14656
320.265	795.31622
320.786	732.25751
321.307	800.36585
321.828	822.23165
322.348	868.34242
322.869	859.32028
323.389	691.69432
323.909	915.34078
324.43	896.42406
324.95	870.26711
325.47	917.43803
325.989	919.35492
326.509	867.1672
327.029	928.26093
327.548	902.22379
328.067	873.30958
328.587	973.49894
329.106	935.26594
329.625	930.57742
330.144	1001.3373
330.662	952.28615
331.181	964.31872
331.7	1005.35068
332.218	995.18463
332.736	979.31117
333.255	1037.33551
333.773	1001.33199
334.291	1083.53326
334.808	1055.23488
335.326	1135.31397
335.844	1083.29704
336.361	1085.47441
336.879	1086.28892
337.396	1243.46533
337.913	1172.30164
338.43	1153.23369
338.947	1200.3763
339.464	1148.10365
339.981	1179.31808
340.497	1203.44041
341.014	1234.40211
341.53	1226.20145
342.046	1185.35734
342.562	1302.48394
343.078	1322.32174
343.594	1311.34503
344.11	1324.3282
344.626	1296.43717
345.141	1296.18278
345.657	1337.20422
346.172	1307.30153
346.687	1333.17773
347.202	1360.11837
347.717	1450.29189
348.232	1387.38072
348.747	1375.14486
349.261	1363.9691
349.776	1447.19295
350.29	1427.25977
350.805	1494.33965
351.319	1471.14568
351.833	1384.01296
352.347	1487.13172
352.861	1509.09261
353.374	1569.10056
353.888	1562.19689
354.401	1542.03861
354.915	1549.92138
355.428	1520.19083
355.941	1546.00376
356.454	1734.96228
356.967	1611.06135
357.48	1609.98111
357.993	1632.14658
358.505	1648.08913
359.018	1703.09114
359.53	1789.00679
360.042	1711.81437
360.554	1718.03129
361.066	1743.00811
361.578	1741.71898
362.09	1722.93868
362.602	1780.69616
363.113	1792.81098
363.625	1794.70858
364.136	1805.65274
364.647	1701.69336
365.158	1870.72783
365.669	1908.79215
366.18	1901.73344
366.691	1880.55052
367.201	1829.74015
367.712	1872.56354
368.222	1899.55055
368.733	1864.38002
369.243	1993.35294
369.753	2120.42821
370.263	2042.51303
370.773	1987.59139
371.282	2017.41463
371.792	2060.17247
372.301	2178.26962
372.811	2217.46562
373.32	2183.8399
373.829	2255.98025
374.338	2370.73784
374.847	2369.73289
375.356	2296.7696
375.865	2493.32786
376.373	2612.3192
376.882	2805.45297
377.39	2782.27892
377.898	2716.18018
378.407	2894.88707
378.915	3068.73465
379.423	3166.71824
379.93	3362.58961
380.438	3341.57899
380.946	3521.5478
381.453	3591.57473
381.96	3622.67846
382.468	3854.05765
382.975	4502.65943
383.482	4513.19602
383.989	4368.72324
384.495	4624.99679
385.002	4743.74822
385.509	4956.35156
386.015	5414.52044
386.521	5865.55155
387.028	5826.01107
387.534	6117.36541
388.04	6503.18527
388.546	6200.15772
389.051	6163.27678
389.557	6949.5037
390.063	8231.10023
390.568	8298.67156
391.073	8221.56135
391.578	8441.87245
392.084	8628.59812
392.589	8420.64314
393.093	8940.3892
393.598	9917.09397
394.103	11077.35075
394.607	12271.10385
395.112	13236.23269
395.616	13674.91058
396.12	14361.04565
396.624	15769.98253
397.128	17477.82638
397.632	19723.57113
398.136	21748.64078
398.639	20839.55582
399.143	22000.00992
399.646	25233.0945
400.15	24052.10606
400.653	19824.95636
401.156	13866.23708
401.659	5169.95759
402.162	1054.15589
402.664	0
403.167	0
403.67	0
404.172	0
404.674	0
405.176	0
405.678	0
406.18	0
406.682	0
407.184	0
407.686	0
408.187	0
408.688	0
409.19	0
409.691	0
410.192	0
410.693	0
411.194	435.30976
411.694	4082.94878
412.195	8864.71461
412.696	12089.80453
413.196	12760.96929
413.696	12863.67595
414.196	13703.56671
414.696	17261.84252
415.196	21764.24417
415.696	29583.19008
416.196	36460.31858
416.695	36973.74099
417.195	28940.91342
417.694	27047.34641
418.194	26309.26347
418.693	23972.71825
419.192	22873.23143
419.691	22313.91093
420.19	22021.94768
420.688	21882.64032
421.187	21442.7502
421.685	20603.01548
422.184	18901.14732
422.682	16227.98874
423.18	13199.70518
423.678	11515.0018
424.176	10711.5814
424.674	10030.46332
425.172	9767.70075
425.669	9289.68066
426.167	8752.47387
426.664	7987.20335
427.161	7218.33887
427.659	6546.22867
428.156	6094.5379
428.652	5657.04208
429.149	5548.5015
429.646	5413.02249
430.143	5020.1567
430.639	4864.67254
431.135	4404.85611
431.632	4337.80818
432.128	3979.54349
432.624	3696.53718
433.12	3387.5591
433.616	3359.56794
434.111	3110.68468
434.607	3045.78817
435.103	3079.74229
435.598	3087.76393
436.093	2943.09182
436.588	2875.16251
437.083	2658.38547
437.578	2523.5809
438.073	2182.92561
438.568	2320.01471
439.062	2269.74741
439.557	2182.12088
440.051	2038.09681
440.546	1876.19399
441.04	1882.35934
441.534	1868.57065
442.028	1962.46097
442.522	1770.51519
443.015	1791.33231
443.509	1782.64491
444.002	1767.65361
444.496	1689.43303
444.989	1652.72223
445.482	1625.77297
445.975	1646.52913
446.468	1607.46324
446.961	1561.48391
447.454	1582.62577
447.947	1482.71477
448.439	1426.83186
448.931	1422.64214
449.424	1412.95466
449.916	1442.86974
450.408	1429.68992
450.9	1371.8573
451.392	1318.9611
451.884	1282.79202
452.375	1220.9104
452.867	1286.80823
453.358	1228.76108
453.849	1259.67351
454.341	1236.78781
454.832	1199.70586
455.323	1156.93201
455.814	1220.86933
456.304	1176.87205
456.795	1084.83732
457.285	1139.84973
457.776	1211.93935
458.266	1032.90602
458.756	1125.00476
459.247	1024.91898
459.737	983.90793
460.226	1068.86304
460.716	988.9482
461.206	956.95864
461.695	965.06309
462.185	923.93257
462.674	937.9186
463.163	958.87547
463.653	920.78092
464.142	854.94744
464.63	918.04583
465.119	794.85669
465.608	806.87041
466.096	830.83467
466.585	894.98068
467.073	817.98554
467.561	783.96756
468.05	785.92831
468.538	813.04599
469.026	743.94531
469.513	774.80014
470.001	752.88355
470.489	703.8998
470.976	734.91351
471.463	685.9809
471.951	682.99714
472.438	600.81628
472.925	566.77397
473.412	616.9188
473.899	592.81118
474.385	642.95649
474.872	595.83258
475.359	591.89081
475.845	629.75026
476.331	542.7295
476.817	530.83557
477.303	571.83432
477.789	521.81686
478.275	482.79373
478.761	491.78769
479.247	499.73349
479.732	447.75512
480.218	470.84658
480.703	435.74924
481.188	462.65679
481.673	448.69844
482.158	415.58637
482.643	389.717
483.128	400.63267
483.612	367.61184
484.097	474.82364
484.581	406.67596
485.066	374.65878
485.55	387.59889
486.034	367.56492
486.518	335.57356
487.002	265.48671
487.486	365.65724
487.969	318.58068
488.453	334.6402
488.936	333.55606
489.42	313.51892
489.903	328.63508
490.386	-105.14237
490.869	364.592
491.352	293.56093
491.835	315.49115
492.318	283.48946
492.8	275.43402
493.283	298.59136
493.765	283.54467
494.247	334.60774
494.73	283.48555
495.212	331.62939
495.694	291.52935
496.175	231.43153
496.657	312.58242
497.139	333.43892
497.62	241.45199
498.102	251.49844
498.583	266.53723
499.064	232.41034
499.545	318.5698
500.026	309.5427
500.507	346.62989
500.988	331.65546
501.469	269.54217
501.949	322.63868
502.43	321.60115
502.91	312.50227
503.39	353.70852
503.87	405.73826
504.35	455.83489
504.83	436.72953
505.31	465.87002
505.79	555.99898
506.269	599.04584
506.749	521.89696
507.228	635.09544
507.707	687.09373
508.187	803.37429
508.666	731.30377
509.145	798.31574
509.623	868.41887
510.102	970.61273
510.581	1076.74367
511.059	1165.91133
511.538	1294.16819
512.016	1431.05426
512.494	1506.17192
512.972	1626.19542
513.45	1646.07519
513.928	1852.37637
514.406	1944.36057
514.884	2175.78202
515.361	2257.48659
515.839	2403.28536
516.316	2501.54751
516.793	2621.84575
517.27	2739.62956
517.747	2836.90315
518.224	2903.36493
518.701	2965.1572
519.178	2998.67625
519.654	3011.51425
520.131	3074.68907
520.607	3064.73828
521.083	3035.27152
521.56	3026.45371
522.036	3038.09797
522.512	2927.74349
522.987	2744.49687
523.463	2620.5376
523.939	2611.71683
524.414	2585.42954
524.89	2440.53584
525.365	2297.30782
525.84	2107.43404
526.315	2099.5168
526.79	2058.2517
527.265	1945.25673
527.74	1894.48408
528.215	1699.25639
528.689	1605.99596
529.164	1626.96441
529.638	1538.45087
530.112	1465.08545
530.587	1425.77582
531.061	1307.01357
531.534	1269.01175
532.008	1258.964
532.482	1215.81829
532.956	1125.96641
533.429	1082.80362
533.903	1034.55749
534.376	1031.54691
534.849	991.60223
535.322	929.56257
535.795	916.61735
536.268	853.49528
536.741	837.47868
537.213	801.3628
537.686	790.42777
538.158	741.22183
538.631	744.37049
539.103	699.169
539.575	745.13839
540.047	653.08829
540.519	666.22531
540.991	659.2504
541.463	570.08781
541.934	643.1264
542.406	521.98542
542.877	585.02349
543.348	561.07189
543.82	565.09886
544.291	560.03095
544.762	480.91074
545.233	528.05385
545.703	482.84331
546.174	497.92025
546.645	441.84429
547.115	492.94536
547.585	499.90966
548.056	430.83099
548.526	495.91563
548.996	517.98311
549.466	517.00199
549.935	419.79169
550.405	482.82203
550.875	471.88037
551.344	456.87111
551.814	533.95002
552.283	465.79495
552.752	505.91035
553.221	502.83451
553.69	488.83945
554.159	494.946
554.628	468.8089
555.096	439.8852
555.565	497.85745
556.033	528.97303
556.502	489.94118
556.97	519.9002
557.438	491.92957
557.906	467.89667
558.374	422.78974
558.842	379.74981
559.31	452.82124
559.777	406.80756
560.245	492.93989
560.712	476.89831
561.18	445.79928
561.647	438.80106
562.114	482.88913
562.581	515.03286
563.048	544.00846
563.514	552.08807
563.981	630.13457
564.448	579.03107
564.914	651.19196
565.381	664.1825
565.847	725.31372
566.313	682.24036
566.779	716.24375
567.245	791.40667
567.711	742.37158
568.176	766.30064
568.642	809.54824
569.108	851.57623
569.573	940.62797
570.038	1066.54378
570.504	983.56693
570.969	1054.90324
571.434	1066.61171
571.899	1101.83491
572.363	1222.86232
572.828	1281.94079
573.293	1312.96635
573.757	1365.01566
574.222	1310.88024
574.686	1355.92678
575.15	1418.14858
575.614	1456.08087
576.078	1456.14431
576.542	1512.10973
577.006	1562.11038
577.469	1630.48362
577.933	1548.06944
578.396	1586.30287
578.86	1624.30129
579.323	1617.32054
579.786	1665.05002
580.249	1646.19551
580.712	1607.41592
581.175	1645.46935
581.637	1655.26792
582.1	1603.08608
582.563	1684.07176
583.025	1642.40859
583.487	1583.82388
583.95	1584.98786
584.412	1610.9613
584.874	1641.41949
585.336	1544.26581
585.797	1535.99137
586.259	1444.18448
586.721	1495.1964
587.182	1601.29727
587.643	1477.10012
588.105	1432.17897
588.566	1423.86014
589.027	1365.15278
589.488	1340.99666
589.949	1335.15691
590.41	1282.56348
590.87	1301.97366
591.331	1341.8674
591.791	1236.92052
592.252	1219.87472
592.712	1260.0572
593.172	1138.76635
593.632	1235.81304
594.092	1153.7643
594.552	1156.68951
595.011	1058.71342
595.471	1095.71062
595.931	1055.65737
596.39	1043.79023
596.849	1024.71124
597.308	1093.65031
597.768	962.81366
598.227	955.69733
598.685	989.653
599.144	956.63652
599.603	921.61817
600.062	910.38051
600.52	894.46478
600.978	918.61499
601.437	913.54558
601.895	868.35263
602.353	893.46435
602.811	868.42916
603.269	805.4716
603.727	841.52285
604.184	792.3478
604.642	780.47143
605.099	781.38455
605.557	756.42887
606.014	702.16088
606.471	693.35405
606.928	686.1262
607.385	722.35384
607.842	826.41717
608.299	859.49952
608.755	845.53399
609.212	761.28203
609.668	736.2361
610.125	787.45964
610.581	860.55377
611.037	796.39841
611.493	722.34186
611.949	598.15958
612.405	608.96201
612.861	694.29868
613.316	596.15073
613.772	627.15486
614.227	618.17332
614.683	617.06205
615.138	599.13358
615.593	549.04537
616.048	583.08979
616.503	574.16335
616.958	529.10058
617.412	542.05931
617.867	485.89175
618.321	548.93265
618.776	506.93575
619.23	505.99396
619.684	543.02038
620.138	549.06464
620.592	463.9589
621.046	474.94897
621.5	428.89573
621.954	483.92739
622.407	480.91119
622.861	433.9088
623.314	485.94381
623.768	442.88859
624.221	401.68512
624.674	425.85027
625.127	431.87666
625.58	454.90009
626.033	436.84097
626.485	342.72748
626.938	360.7621
627.39	400.82046
627.843	407.83048
628.295	320.66616
628.747	385.81341
629.199	334.68293
629.651	335.6845
630.103	322.66645
630.555	351.66807
631.006	341.72299
631.458	304.65369
631.909	343.71674
632.361	318.67702
632.812	265.56456
633.263	339.66502
633.714	327.64057
634.165	319.70997
634.616	260.57471
635.067	340.69204
635.518	291.64336
635.968	302.56151
636.419	258.5249
636.869	283.62672
637.319	262.56581
637.769	248.51996
638.219	306.68005
638.669	222.49973
639.119	271.61963
639.569	248.56282
640.019	222.48723
640.468	198.4221
640.918	237.54081
641.367	248.52593
641.816	260.54873
642.265	218.48007
642.714	237.52026
643.163	233.50911
643.612	166.38224
644.061	178.36214
644.51	182.39827
644.958	175.37056
645.406	225.51239
645.855	194.45632
646.303	229.51137
646.751	193.42154
647.199	237.51369
647.647	180.39922
648.095	177.3915
648.543	275.53513
648.99	193.44325
649.438	205.46402
649.885	218.51716
650.333	208.38943
650.78	185.431
651.227	133.31534
651.674	191.42035
652.121	151.35733
652.568	139.32893
653.015	222.53941
653.461	149.34508
653.908	181.40903
654.354	180.41712
654.801	149.3407
655.247	192.40949
655.693	169.42756
656.139	157.36707
656.585	195.45304
657.031	120.27456
657.477	175.36829
657.922	194.43295
658.368	172.41354
658.813	205.46326
659.259	154.36125
659.704	136.31129
660.149	165.37576
660.594	169.39186
661.039	109.24592
661.484	203.47181
661.929	207.47045
662.373	95.23692
662.818	145.35306
663.262	169.39776
663.707	142.35342
664.151	150.36024
664.595	139.33008
665.039	148.36231
665.483	171.42583
665.927	169.39109
666.371	119.27243
666.814	139.32817
667.258	153.35575
667.701	229.48235
668.145	197.4793
668.588	149.36063
669.031	144.33397
669.474	142.33805
669.917	192.4182
670.36	173.42139
670.803	195.46144
671.245	154.32245
671.688	158.38061
672.13	124.27674
672.573	190.47339
673.015	171.40465
673.457	169.36412
673.899	185.44083
674.341	128.30706
674.783	126.30019
675.225	155.37656
675.666	112.26796
676.108	151.32645
676.549	204.47461
676.991	157.34393
677.432	163.32308
677.873	167.38262
678.314	166.39199
678.755	139.33579
679.196	140.31915
679.637	185.44573
680.078	183.42332
680.518	207.47502
680.959	144.34281
681.399	172.42091
681.839	170.40905
682.28	124.30458
682.72	146.33256
683.16	164.40357
683.6	139.31681
684.039	154.3206
684.479	131.31992
684.919	150.34319
685.358	209.52044
685.798	136.35353
686.237	191.45582
686.676	185.42522
687.115	180.41844
687.554	148.34962
687.993	161.35477
688.432	139.31719
688.871	157.35422
689.309	147.34921
689.748	206.42618
690.186	178.42114
690.625	176.40834
691.063	166.39457
691.501	179.4373
691.939	150.37116
692.377	170.41044
692.815	143.34036
693.253	182.4331
693.69	142.31218
694.128	152.3656
694.565	156.36995
695.003	157.39494
695.44	122.28697
695.877	146.33954
696.314	191.40762
696.751	171.38801
697.188	139.31886
697.625	230.51922
698.061	119.28563
698.498	197.4705
698.934	156.37351
699.371	119.28041
699.807	130.30746
700.243	152.36366
700.679	115.2619
701.115	175.40915
701.551	150.35215
701.987	190.4235
702.422	163.38423
702.858	142.33727
703.294	187.41983
703.729	145.35332
704.164	163.38945
704.599	131.29254
705.035	148.33043
705.47	128.31068
705.904	150.34802
706.339	199.45776
706.774	158.36803
707.209	126.29083
707.643	171.40716
708.078	144.34912
708.512	81.20354
708.946	153.36514
709.38	174.40881
709.814	121.27768
710.248	157.38027
710.682	164.38712
711.116	72.17318
711.549	112.28884
711.983	113.26212
712.416	165.38774
712.85	168.41493
713.283	146.34436
713.716	195.48329
714.149	152.36102
714.582	146.32745
715.015	181.44827
715.448	172.42917
715.881	171.3727
716.313	121.28401
716.746	154.36055
717.178	148.35409
717.61	121.30646
718.043	151.37411
718.475	161.38747
718.907	201.50143
719.339	103.23476
719.77	109.25894
720.202	119.30053
720.634	148.35787
721.065	143.33788
721.497	137.3347
721.928	95.23408
722.359	105.25356
722.79	120.28721
723.221	186.46225
723.652	208.52781
724.083	148.33275
724.514	144.33013
724.945	98.2316
725.375	108.25127
725.806	152.37721
726.236	162.41138
726.666	140.3306
727.096	134.32792
727.526	132.33378
727.956	120.27323
728.386	166.40517
728.816	111.28063
729.246	120.29126
729.675	127.31166
730.105	102.25184
730.534	107.25135
730.964	175.43768
731.393	179.44007
731.822	119.30343
732.251	175.43895
732.68	219.50719
733.109	138.33859
733.537	115.27781
733.966	165.4058
734.395	177.40472
734.823	193.43045
735.251	134.32182
735.68	150.37347
736.108	109.27587
736.536	142.33389
736.964	86.20111
737.392	152.37762
737.82	151.36037
738.247	121.28988
738.675	158.37527
739.102	109.27223
739.53	100.25476
739.957	98.2523
740.384	194.47209
740.811	127.32097
741.238	110.26869
741.665	88.20539
742.092	139.33097
742.519	92.22831
742.945	139.33237
743.372	123.30385
743.798	126.32269
744.225	142.3361
744.651	103.25873
745.077	157.38812
745.503	121.29495
745.929	133.31814
746.355	211.51585
746.781	154.37868
747.207	89.2098
747.632	78.19117
748.058	131.32563
748.483	156.35692
748.908	112.27815
749.334	135.33018
749.759	126.29661
750.184	88.21062
750.609	152.37086
751.033	163.38244
751.458	168.374
751.883	128.31626
752.307	81.19198
752.732	96.23998
753.156	105.25948
753.58	156.36795
754.005	98.24913
754.429	81.19168
754.853	137.33744
755.277	95.22577
755.7	140.34527
756.124	105.26053
756.548	95.22594
756.971	110.26869
757.394	157.40045
757.818	126.32269
758.241	121.30591
758.664	120.30203
759.087	46.10419
759.51	116.28819
759.933	91.21967
760.356	120.30657
760.778	146.35636
761.201	151.36464
761.623	151.36381
762.046	174.40849
762.468	182.43177
762.89	118.2908
763.312	124.30198
763.734	81.19605
764.156	108.26655
764.578	166.37842
765	133.32299
765.421	105.26612
765.843	126.32855
766.264	136.32712
766.686	121.30296
767.107	142.34181
767.528	85.2149
767.949	129.32625
768.37	121.29605
768.791	146.35077
769.212	102.25581
769.632	70.16427
770.053	107.28096
770.473	122.29578
770.894	163.40369
771.314	197.46293
771.734	103.24035
772.154	109.2792
772.575	115.26645
772.994	64.14673
773.414	147.35042
773.834	119.29634
774.254	125.30459
774.673	113.27473
775.093	95.23511
775.512	66.16349
775.931	121.30526
776.351	82.20409
776.77	98.23947
777.189	112.26591
777.607	104.26495
778.026	109.27075
778.445	42.10598
778.864	160.40544
779.282	126.30157
779.701	76.19211
780.119	57.14483
780.537	81.20245
780.955	144.36295
781.373	138.33846
781.791	132.29471
782.209	173.39318
782.627	88.23158
783.045	95.21871
783.462	101.25735
783.88	115.29581
784.297	75.18908
784.715	56.14442
785.132	99.23934
785.549	93.23235
785.966	119.29753
786.383	110.26949
786.8	154.35362
787.217	107.25292
787.633	100.2488
788.05	203.47237
788.466	162.3772
788.883	117.29643
789.299	108.25918
789.715	97.23539
790.131	108.26743
790.547	121.30023
790.963	107.26452
791.379	84.21226
791.795	119.27024
792.21	130.30162
792.626	78.18548
793.041	105.25815
793.457	106.26094
793.872	149.34618
794.287	84.20043
794.702	100.24572
795.117	126.3104
795.532	72.18064
795.947	151.35913
796.362	167.3929
796.776	158.36542
797.191	100.24399
797.605	106.24769
798.02	102.24729
798.434	112.2484
798.848	90.22123
799.262	90.22278
799.676	154.37083
800.09	109.26679
800.504	122.29389
800.918	134.30745
801.331	103.26881
801.745	114.26041
802.158	92.2294
802.572	121.29143
802.985	122.29278
803.398	123.29107
803.811	127.32371
804.224	89.22115
804.637	86.20466
805.05	93.21522
805.462	138.33545
805.875	91.23505
806.288	99.23781
806.7	127.31626
807.112	133.30534
807.525	84.20709
807.937	82.20246
808.349	129.32007
808.761	157.38056
809.173	112.2697
809.584	136.33257
809.996	43.10591
810.408	81.20864
810.819	132.30723
811.231	41.10645
811.642	124.29281
812.053	187.43514
812.464	254.58322
812.875	275.67754
813.286	162.41036
813.697	206.46998
814.108	108.26233
814.519	140.3083
814.929	126.31838
815.34	108.26036
815.75	127.31948
816.16	113.27966
816.571	103.26605
816.981	124.2902
817.391	108.25918
817.801	78.1935
818.211	141.33199
818.62	81.19472
819.03	129.31293
819.44	132.34113
819.849	109.27282
820.259	88.22458
820.668	91.22298
821.077	87.21539
821.486	143.33997
821.895	159.38671
822.304	98.25833
822.713	146.34035
823.122	98.24338
823.531	80.18943
823.939	142.34142
824.348	95.23002
824.756	111.27602
825.164	126.31394
825.573	125.31049
825.981	106.26123
826.389	121.30121
826.797	132.32686
827.205	124.28165
827.612	116.28387
828.02	59.13887
828.428	134.33727
828.835	107.27963
829.243	111.26257
829.65	74.18378
830.057	122.29322
830.464	127.30611
830.871	114.27077
831.278	97.23327
831.685	125.27602
832.092	124.30052
832.499	114.24725
832.905	140.34984
833.312	144.32376
833.718	91.22579
834.124	145.32648
834.531	99.24815
834.937	116.2951
835.343	129.30775
835.749	161.36947
836.155	141.36432
836.561	98.23965
836.966	112.27164
837.372	127.31971
837.777	104.25725
838.183	148.32387
838.588	139.34047
838.993	168.40132
839.399	110.26669
839.804	17.0418
840.209	85.21551
840.613	145.31751
841.018	93.23429
841.423	112.28482
841.828	97.24384
842.232	177.42952
842.637	109.25505
843.041	90.22952
843.445	133.3294
843.849	88.21687
844.253	128.30062
844.657	75.1884
845.061	132.29556
845.465	107.25634
845.869	107.24663
846.272	103.24892
846.676	105.25203
847.079	116.29207
847.483	146.35874
847.886	163.3893
848.289	89.23631
848.692	86.21685
849.095	78.18683
849.498	181.44909
849.901	121.27445
850.304	92.21868
850.707	126.31759
851.109	131.32741
851.512	80.19592
851.914	67.16861
852.316	121.30274
852.718	81.20828
853.121	112.27184
853.523	98.22746
853.925	65.16935
854.326	69.17221
854.728	117.2978
855.13	79.203
855.531	103.24412
855.933	121.28723
856.334	103.25473
856.736	123.27206
857.137	91.21034
857.538	93.23235
857.939	58.14331
858.34	118.28447
858.741	91.23652
859.142	93.22204
859.542	88.23096
859.943	99.24421
860.343	65.16075
860.744	112.27062
861.144	103.2492
861.544	71.17023
861.945	114.28765
862.345	118.28544
862.745	105.25872
863.145	144.33872
863.544	89.22365
863.944	117.27334
864.344	88.21743
864.743	150.36598
865.143	106.26995
865.542	94.21654
865.941	110.26969
866.34	120.28414
866.74	98.2612
867.139	116.27467
867.537	153.38322
867.936	110.26217
868.335	117.29453
868.734	102.25857
869.132	112.25749
869.531	141.33573
869.929	88.1994
870.327	114.27035
870.726	120.29584
871.124	123.28385
871.522	101.25526
871.92	129.31398
872.318	110.26629
872.715	143.34845
873.113	124.29837
873.511	105.25929
873.908	74.18619
874.306	105.25881
874.703	136.33541
875.1	128.32332
875.497	100.23779
875.894	84.20472
876.291	108.26253
876.688	85.21811
877.085	125.29603
877.482	101.25079
877.878	98.23402
878.275	95.23967
878.671	155.33826
879.068	114.27223
879.464	83.1996
879.86	84.19759
880.256	122.29745
880.652	69.17507
881.048	132.32255
881.444	117.27527
881.84	88.22236
882.236	113.2812
882.631	79.19308
883.027	97.23309
883.422	90.22871
883.817	86.2149
884.213	100.25458
884.608	80.19527
885.003	103.2461
885.398	58.14509
885.793	131.32432
886.188	45.11206
886.582	144.3636
886.977	115.26982
887.371	112.28038
887.766	63.15643
888.16	119.29354
888.554	154.37392
888.949	145.35819
889.343	147.35297
889.737	23.0616
890.131	74.18498
890.525	119.30086
890.918	98.24471
891.312	118.27897
891.706	150.38711
892.099	110.27716
892.492	138.29253
892.886	86.20921
893.279	126.3169
893.672	107.26984
894.065	107.26539
894.458	111.27632
894.851	119.28813
895.244	114.28806
895.637	125.29706
896.029	121.2922
896.422	98.23751
896.814	71.17598
897.206	104.2453
897.599	150.36448
897.991	88.21143
898.383	62.1463
898.775	111.24767
899.167	49.11439
899.559	116.29039
899.951	136.31554
900.342	129.32369
900.734	27.06731
901.125	113.29349
901.517	118.28619
901.908	191.44603
902.299	59.14409
902.69	113.26358
903.082	116.27764
903.473	86.20466
903.863	125.3149
904.254	88.20288
904.645	98.24178
905.036	80.19272
905.426	150.33683
905.817	105.25519
906.207	83.19664
906.597	61.14245
906.987	145.36985
907.378	129.32183
907.768	66.1741
908.158	101.24409
908.547	100.25619
908.937	95.24198
909.327	118.28307
909.717	138.34509
910.106	82.19589
910.495	134.32962
910.885	99.24869
911.274	116.28661
911.663	102.25664
912.052	140.33993
912.441	71.17995
912.83	100.22742
913.219	109.28252
913.608	84.20457
913.997	43.10798
914.385	115.27151
914.774	142.33999
915.162	56.13337
915.55	117.27966
915.939	80.20092
916.327	99.24501
916.715	87.22035
917.103	150.36257
917.491	151.36684
917.878	98.23893
918.266	101.25971
918.654	92.23338
919.041	85.22062
919.429	69.16234
919.816	110.27597
920.203	119.28498
920.591	95.23374
920.978	137.33021
921.365	76.19858
921.752	103.24318
922.139	172.36397
922.525	69.16518
922.912	88.21319
923.299	88.21727
923.685	93.24088
924.072	119.27079
924.458	75.18501
924.844	89.21873
925.231	101.2328
925.617	71.17995
926.003	122.30794
926.389	81.20325
926.774	107.26849
927.16	123.30151
927.546	91.23064
927.931	93.23033
928.317	88.20126
928.702	123.28701
929.088	43.10188
929.473	85.21498
929.858	72.17338
930.243	104.24711
930.628	71.1721
931.013	79.1948
931.398	164.36873
931.783	93.24313
932.167	125.3014
932.552	112.27754
932.937	144.35134
933.321	94.23404
933.705	88.22038
934.09	163.40369
934.474	132.30868
934.858	76.19627
935.242	98.22503
935.626	103.26124
936.009	51.13564
936.393	120.3016
936.777	119.30107
937.16	86.22241
937.544	149.3444
937.927	81.20442
938.311	162.38728
938.694	120.31365
939.077	100.23715
939.46	147.35458
939.843	144.29431
940.226	120.30409
940.609	83.18933
940.991	95.23992
941.374	102.24692
941.757	129.31375
942.139	94.20926
942.522	144.33423
942.904	114.27077
943.286	137.34277
943.668	104.26691
944.05	133.32263
944.432	94.23012
944.814	71.17424
945.196	88.21295
945.578	74.17508
945.959	117.27065
946.341	168.40347
946.722	133.30717
947.104	113.26689
947.485	108.24849
947.866	106.2644
948.247	81.20325
948.628	71.17256
949.009	60.15339
949.39	125.30698
949.771	116.26636
950.152	120.29071
950.532	42.10347
950.913	105.25069
951.293	83.22302
951.674	138.32827
952.054	40.0993
952.434	92.22665
952.814	84.19859
953.194	122.3154
953.574	130.31553
953.954	104.24444
954.334	103.25426
954.714	68.16517
955.093	136.3291
955.473	71.17688
955.853	105.26924
956.232	79.21553
956.611	110.26086
956.99	80.19998
957.37	50.12742
957.749	117.27559
958.128	89.22268
958.506	89.22933
958.885	132.3283
959.264	83.20217
959.643	122.27362
960.021	67.16551
960.4	106.23754
960.778	92.22489
961.156	96.23868
961.535	120.27588
961.913	113.26119
962.291	18.04644
962.669	93.23378
963.047	95.24052
963.424	69.1755
963.802	101.24602
964.18	143.35585
964.557	141.3189
964.935	114.2668
965.312	60.15597
965.69	127.31362
966.067	68.16505
966.444	100.24417
966.821	91.23293
967.198	175.4146
967.575	133.32202
967.952	157.36231
968.329	109.26233
968.705	122.2576
969.082	55.14093
969.458	91.2166
969.835	136.32575
970.211	107.27187
970.587	114.28053
970.963	107.27177
971.339	79.20526
971.715	90.22311
972.091	115.2798
972.467	118.2907
972.843	72.17796
973.219	156.36709
973.594	48.12559
973.97	118.27724
974.345	101.23938
974.721	134.31937
975.096	105.25145
975.471	150.34898
975.846	117.27752
976.221	59.14959
976.596	117.27687
976.971	132.32099
977.346	143.32685
977.72	109.27479
978.095	68.17519
978.469	92.21784
978.844	150.37034
979.218	57.13645
979.593	125.29523
979.967	81.1962
980.341	109.24803
980.715	117.29126
981.089	138.33996
981.463	121.27389
981.837	88.21351
982.21	138.31561
982.584	104.24863
982.957	67.16679
983.331	88.20652
983.704	82.2003
984.078	41.10121
984.451	155.3798
984.824	64.15546
985.197	111.26653
985.57	126.31166
985.943	123.29972
986.316	125.30288
986.688	91.21776
987.061	128.29545
987.434	102.26342
987.806	55.13327
988.179	79.18536
988.551	127.31776
988.923	93.22721
989.295	126.31052
989.667	79.18767
990.039	113.27597
990.411	103.23457
990.783	107.24358
991.155	31.07475
991.527	158.38133
991.898	71.17623
992.27	77.18952
992.641	119.29483
993.012	117.27172
993.384	94.22232
993.755	63.16024
994.126	57.13692
994.497	72.176
994.868	101.22964
995.239	132.31497
995.61	72.18044
995.98	54.13107
996.351	69.17027
996.722	44.10217
997.092	64.15113
997.462	54.12603
997.833	70.1653
998.203	135.32206
998.573	88.21759
998.943	69.1612
999.313	57.1364
999.683	72.17206
1000.053	101.23002
1000.423	90.21705
1000.792	90.23162
1001.162	57.14009
1001.531	120.29202
1001.901	130.31931
1002.27	117.25793
1002.639	82.20831
1003.009	112.26314
1003.378	101.2559
1003.747	122.28418
1004.116	85.202
1004.485	110.25986
1004.853	112.28058
1005.222	89.22284
1005.591	132.30844
1005.959	81.18133
1006.328	77.17231
1006.696	57.13729
1007.064	112.27856
1007.433	121.29847
1007.801	109.26461
1008.169	105.26252
1008.537	114.24905
1008.905	69.16012
1009.273	87.21342
1009.64	63.14989
1010.008	95.22447
1010.375	154.36661
1010.743	163.3679
1011.11	86.20206
1011.478	108.26439
1011.845	111.25789
1012.212	106.23715
1012.579	106.25747
1012.946	133.31145
1013.313	119.27943
1013.68	149.32805
1014.047	58.13797
1014.414	77.18088
1014.78	99.24376
1015.147	153.36276
1015.513	81.19398
1015.88	135.33997
1016.246	148.35868
1016.612	98.22215
1016.978	124.29961
1017.344	104.25441
1017.71	147.3519
1018.076	127.29495
1018.442	114.28991
1018.808	85.21106
1019.174	101.25097
1019.539	149.33617
1019.905	72.16903
1020.27	51.1258
1020.636	122.28843
1021.001	114.26951
1021.366	83.19801
1021.731	95.24232
1022.096	39.09853
1022.461	77.18123
1022.826	83.19596
1023.191	112.29065
1023.556	124.28633
1023.92	92.22439
1024.285	120.28896
1024.649	97.23557
1025.014	88.21639
1025.378	106.26373
1025.742	98.24116
1026.107	110.24569
1026.471	131.30087
1026.835	109.26719
1027.199	63.15122
1027.562	103.23685
1027.926	139.33414
1028.29	107.26791
1028.654	134.30301
1029.017	112.27205
1029.381	69.16417
1029.744	54.13757
1030.107	149.34563
1030.471	106.25099
1030.834	95.21408
1031.197	138.32676
1031.56	113.26327
1031.923	72.18536
1032.286	142.32737
1032.648	152.35628
1033.011	59.13513
1033.374	122.28261
1033.736	109.28359
1034.099	84.20335
1034.461	93.23303
1034.823	65.16134
1035.185	113.28109
1035.548	91.21967
1035.91	129.30421
1036.272	105.23622
1036.634	138.33193
1036.995	95.22124
1037.357	63.15283
1037.719	94.22661
1038.08	120.28095
1038.442	74.17475
1038.803	131.30952
1039.165	102.25488
1039.526	115.27435
1039.887	72.17147
1040.248	49.12069
1040.609	126.30685
1040.97	72.17515
1041.331	85.21375
1041.692	59.1374
1042.053	138.30849
1042.413	124.28462
1042.774	108.25967
1043.134	137.32056
1043.495	83.20729
1043.855	75.18098
1044.215	83.20466
1044.576	77.18306
1044.936	135.30409
1045.296	112.27622
1045.656	109.26441
1046.016	157.3711
1046.375	42.10198
1046.735	73.16464
1047.095	88.20434
1047.454	115.2401
1047.814	101.24031
1048.173	120.28271
1048.533	93.21111
1048.892	73.17435
1049.251	120.29726
1049.61	102.24859
1049.969	127.29472
1050.328	125.26654
1050.687	95.22907
1051.046	122.29289
1051.405	129.3161
1051.763	96.21858
1052.122	69.17139
1052.48	92.22372
1052.839	100.23284
1053.197	98.22836
1053.555	178.39511
1053.914	100.24217
1054.272	124.29542
1054.63	108.26105
1054.988	62.14686
1055.345	92.19622
1055.703	121.28711
1056.061	98.24984
1056.419	87.22363
1056.776	125.29866
1057.134	68.15677
1057.491	89.22115
1057.848	99.24412
1058.206	117.2714
1058.563	115.2499
1058.92	118.26813
1059.277	94.22987
1059.634	166.38148
1059.991	142.33402
1060.348	115.25628
1060.704	81.19176
1061.061	154.35022
1061.418	60.14514
1061.774	111.27078
1062.131	62.16349
1062.487	94.21775
1062.843	123.3024
1063.199	72.17823
1063.555	120.274
1063.911	102.25507
1064.267	182.36825
1064.623	64.15493
1064.979	142.33024
1065.335	101.23892
1065.691	122.2882
1066.046	133.28717
1066.402	104.23354
1066.757	125.31106
1067.112	135.32588
1067.468	67.15757
1067.823	81.19346
1068.178	126.30019
1068.533	103.24704
1068.888	184.42808
1069.243	98.23956
1069.598	117.28051
1069.952	54.12141
1070.307	62.15302
1070.662	119.27855
1071.016	118.26051
1071.371	112.2514
1071.725	123.28995
1072.079	87.20763
1072.434	97.23345
1072.788	134.31373
1073.142	122.29589
1073.496	89.20939
1073.85	96.22044
1074.203	75.18098
1074.557	96.25315
1074.911	91.21535
1075.265	110.25249
1075.618	130.31245
1075.971	108.25385
1076.325	93.23437
1076.678	105.23729
1077.031	95.21285
1077.385	105.22846
1077.738	96.21451
1078.091	58.13158
1078.444	135.30794
1078.796	98.23813
1079.149	100.24626
1079.502	110.25663
1079.855	100.23073
1080.207	112.27256
1080.56	54.13936
1080.912	104.25044
1081.264	58.13935
1081.617	84.20327
1081.969	66.16588
1082.321	86.20842
1082.673	82.1858
1083.025	117.27377
1083.377	-134.2988
1083.728	121.27812
1084.08	62.15431
1084.432	123.29231
1084.783	153.35097
1085.135	56.14009
1085.486	81.18402
1085.838	110.26769
1086.189	51.12367
1086.54	118.27789
1086.891	95.23812
1087.242	31.07568
1087.593	119.28574
1087.944	87.19525
1088.295	100.22484
1088.646	104.2493
1088.996	54.12989
1089.347	76.18544
1089.698	69.16234
1090.048	98.25221
1090.398	118.26976
1090.749	98.23214
1091.099	64.16039
1091.449	75.18582
1091.799	85.21129
1092.149	34.08308
1092.499	100.24144
1092.849	101.25417
1093.199	145.35688
1093.548	68.16269
1093.898	125.30822
1094.248	115.29188
1094.597	16.04105
1094.947	122.32127
1095.296	81.1987
1095.645	73.18895
1095.994	93.22136
1096.343	116.28819
1096.692	68.17792
1097.041	50.13525
1097.39	100.24835
1097.739	91.23465
1098.088	112.29673
1098.437	51.13383
1098.785	114.30384
1099.134	88.23197
1099.482	85.23227
1099.83	100.26031
1100.179	66.17151
1100.527	82.21652
1100.875	31.08215
1101.223	44.11685
1101.571	43.11885
1101.919	27.07075
1102.267	66.18519
1102.615	7.0225
1102.962	20.06432
1103.31	14.04494
1103.658	27.0868
