Data from N2 R14 sample 10_Subt2__2__14-19-15-096.txt Node

Date: Tue Sep 02 14:19:15 PDT 2025
User: uwsun
Spectrometer: HDX01956
Trigger mode: 0
Integration Time (sec): 5.000000E-1
Scans to average: 1
Nonlinearity correction enabled: true
Boxcar width: 0
Storing dark spectrum: false
XAxis mode: Wavelengths
Number of Pixels in Spectrum: 2068
>>>>>Begin Spectral Data<<<<<
194.03	-30.08459
194.578	-39.12392
195.127	-31.09698
195.676	-52.16359
196.225	70.18353
196.773	11.03011
197.321	-21.05656
197.87	29.07138
198.418	-17.04166
198.966	-36.08905
199.513	-89.212
200.061	-78.18847
200.609	16.04016
201.156	-41.0848
201.704	-39.09301
202.251	-34.08533
202.798	-68.16851
203.345	-27.06355
203.892	-53.12702
204.438	34.07629
204.985	-69.15491
205.532	-15.03723
206.078	-28.06514
206.624	-59.13762
207.17	-4.00877
207.716	-45.10348
208.262	-15.02808
208.808	-66.15368
209.354	-57.13165
209.899	-9.02161
210.445	-70.16517
210.99	-79.1813
211.535	28.06182
212.08	-17.03746
212.625	-19.04507
213.17	39.09265
213.715	-48.10064
214.259	32.06997
214.804	29.06743
215.348	-13.02819
215.892	-29.06607
216.436	-12.02644
216.98	27.05635
217.524	43.09499
218.068	45.10629
218.612	9.02143
219.155	24.0531
219.698	58.12917
220.242	0
220.785	-18.04004
221.328	42.09845
221.871	-22.05332
222.414	4.00947
222.956	0
223.499	32.06783
224.041	26.05745
224.583	33.06767
225.126	28.05824
225.668	-8.01844
226.21	-52.12498
226.751	-30.06234
227.293	-9.0196
227.835	-33.0767
228.376	70.15176
228.918	30.07161
229.459	-14.03298
230	-9.02032
230.541	3.00656
231.082	0
231.622	17.03707
232.163	47.10652
232.704	2.00468
233.244	1.00234
233.784	26.06028
234.324	-24.04972
234.864	4.00857
235.404	40.08953
235.944	15.03362
236.484	28.06589
237.023	-22.04926
237.563	9.01957
238.102	-3.0067
238.641	0
239.18	-19.04189
239.719	16.03781
240.258	8.01698
240.797	-26.05884
241.335	-8.01854
241.874	27.04856
242.412	-23.05225
242.95	-33.07439
243.488	29.06203
244.026	26.05598
244.564	12.02322
245.102	-2.00422
245.64	-4.00912
246.177	9.01897
246.715	20.04513
247.252	24.05174
247.789	32.0568
248.326	-17.03826
248.863	-6.01235
249.4	21.0447
249.936	1.00193
250.473	7.01526
251.009	-26.05601
251.546	-38.07914
252.082	-18.03716
252.618	6.01248
253.154	-10.02249
253.69	-36.07655
254.226	-22.04934
254.761	-4.00842
255.297	-42.0867
255.832	-8.01771
256.367	3.00661
256.903	-23.0474
257.438	14.03073
257.972	43.08866
258.507	-70.15118
259.042	-29.0592
259.576	-68.13772
260.111	-4.00866
260.645	23.04631
261.179	-3.00651
261.713	-27.05622
262.247	-8.01725
262.781	-38.0746
263.315	-17.03879
263.849	-21.049
264.382	1.00215
264.915	-26.05673
265.449	-54.12241
265.982	8.01694
266.515	-20.04545
267.048	-12.0236
267.58	-3.00613
268.113	-22.04419
268.646	-24.05511
269.178	-56.11695
269.71	42.08436
270.243	13.0275
270.775	11.02586
271.307	8.0179
271.838	58.12698
272.37	-3.00683
272.902	16.03364
273.433	-43.08774
273.965	-12.02708
274.496	6.01383
275.027	-15.03446
275.558	-21.04719
276.089	-105.24125
276.62	26.06104
277.15	4.00914
277.681	-6.01208
278.211	-11.02502
278.741	-76.15603
279.272	-22.04631
279.802	-37.08586
280.332	-46.10045
280.861	-19.04224
281.391	-51.10714
281.921	11.02438
282.45	17.03903
282.98	-16.0385
283.509	0
284.038	-31.06513
284.567	-15.03236
285.096	-5.01109
285.625	-31.06469
286.153	-35.07534
286.682	31.06415
287.21	-26.05733
287.739	-9.01942
288.267	-67.1495
288.795	-13.03141
289.323	-37.07886
289.851	-10.02137
290.378	-28.05743
290.906	-106.23676
291.433	-30.06836
291.961	-35.0721
292.488	-46.10487
293.015	-57.12233
293.542	-42.09668
294.069	-27.06015
294.596	-7.01574
295.122	-5.01077
295.649	-18.03597
296.175	2.00438
296.702	-18.03961
297.228	28.06117
297.754	-8.01614
298.28	-47.09643
298.806	-71.15508
299.332	-49.09749
299.857	-58.11827
300.383	-6.01369
300.908	-97.21285
301.433	-13.02815
301.958	3.00621
302.483	-56.12544
303.008	-25.05555
303.533	-14.03275
304.058	-1.00211
304.582	-66.13948
305.107	-67.15665
305.631	-1.00203
306.155	-66.13709
306.679	-72.14996
307.203	-34.0698
307.727	-56.1184
308.251	-61.13459
308.775	-95.20019
309.298	-104.22152
309.822	-52.11648
310.345	-84.17705
310.868	-65.13722
311.391	-61.13318
311.914	-82.18157
312.437	-42.08436
312.96	-56.11539
313.482	-95.19843
314.005	-88.19469
314.527	-83.19139
315.049	-81.18066
315.571	-111.21445
316.093	-86.18597
316.615	-47.09756
317.137	4.00736
317.659	0
318.18	-68.14238
318.702	-93.18666
319.223	-55.09578
319.744	-51.09683
320.265	-110.22818
320.786	-80.16758
321.307	-59.12422
321.828	-38.07192
322.348	-95.189
322.869	-137.27333
323.389	-286.40876
323.909	-59.11273
324.43	-47.09512
324.95	-119.22715
325.47	-116.23708
325.989	-93.18019
326.509	-147.26549
327.029	-146.26956
327.548	-132.24102
328.067	-173.34258
328.587	-95.19297
329.106	-156.28846
329.625	-66.14235
330.144	-120.22122
330.662	-127.23371
331.181	-123.22897
331.7	-143.2666
332.218	-97.16267
332.736	-118.21666
333.255	-137.24895
333.773	-156.28932
334.291	-85.16556
334.808	-146.24894
335.326	-147.25396
335.844	-136.2369
336.361	-152.2919
336.879	-201.35411
337.396	-161.29063
337.913	-177.3022
338.43	-153.25153
338.947	-164.28749
339.464	-213.33033
339.981	-263.46238
340.497	-180.32684
341.014	-206.36587
341.53	-234.37796
342.046	-245.43661
342.562	-222.40352
343.078	-242.4073
343.594	-245.41854
344.11	-167.27608
344.626	-247.44291
345.141	-190.29474
345.657	-225.35366
346.172	-213.3533
346.687	-206.31769
347.202	-229.34247
347.717	-256.41584
348.232	-237.404
348.747	-193.28897
349.261	-304.42658
349.776	-271.42129
350.29	-316.51593
350.805	-219.35763
351.319	-290.44121
351.833	-381.56059
352.347	-300.45371
352.861	-307.45499
353.374	-196.28045
353.888	-268.41163
354.401	-278.39582
354.915	-384.53032
355.428	-281.43377
355.941	-336.47815
356.454	-257.34762
356.967	-253.36033
357.48	-253.34537
357.993	-301.45345
358.505	-381.57162
359.018	-277.40226
359.53	-330.46783
360.042	-230.28391
360.554	-316.45109
361.066	-424.61913
361.578	-313.37698
362.09	-371.51451
362.602	-300.35594
363.113	-374.48687
363.625	-343.41704
364.136	-314.36574
364.647	-479.60114
365.158	-320.39312
365.669	-325.41571
366.18	-339.42198
366.691	-339.37803
367.201	-397.50264
367.712	-324.36171
368.222	-359.4047
368.733	-403.40997
369.243	-404.4156
369.753	-420.4694
370.263	-449.52497
370.773	-380.44865
371.282	-420.45534
371.792	-556.54713
372.301	-489.51675
372.811	-484.57755
373.32	-584.46401
373.829	-555.50526
374.338	-546.42359
374.847	-611.48781
375.356	-619.49523
375.865	-670.37484
376.373	-637.37941
376.882	-623.48397
377.39	-694.46022
377.898	-810.4819
378.407	-843.34757
378.915	-741.20991
379.423	-730.22848
379.93	-797.17426
380.438	-1028.25314
380.946	-946.09178
381.453	-1131.08974
381.96	-1176.95576
382.468	-1384.79249
382.975	-1211.76576
383.482	-1253.62263
383.989	-1286.69869
384.495	-1327.49577
385.002	-1558.26048
385.509	-1705.22485
386.015	-1668.11197
386.521	-1775.06691
387.028	-1827.04241
387.534	-1996.99712
388.04	-1801.08042
388.546	-2145.08328
389.051	-2444.21373
389.557	-2643.41937
390.063	-2263.74451
390.568	-2541.05603
391.073	-2799.81888
391.578	-2863.09868
392.084	-3189.32676
392.589	-3628.36298
393.093	-4141.11042
393.598	-4264.67706
394.103	-4463.06917
394.607	-4848.25916
395.112	-5084.71943
395.616	-5437.59556
396.12	-6299.50784
396.624	-7059.03956
397.128	-7538.22852
397.632	-8086.54591
398.136	-9082.97528
398.639	-10838.30771
399.143	-13016.0174
399.646	-14271.85015
400.15	-15783.27258
400.653	-18357.98362
401.156	-21503.67242
401.659	-25672.09713
402.162	-22718.3671
402.664	-9844.03476
403.167	-1435.19975
403.67	0
404.172	0
404.674	0
405.176	0
405.678	0
406.18	0
406.682	0
407.184	0
407.686	0
408.187	0
408.688	0
409.19	0
409.691	0
410.192	-1102.07448
410.693	-8560.0775
411.194	-13404.49396
411.694	-11915.18318
412.195	-9947.2612
412.696	-10628.9513
413.196	-12596.12503
413.696	-13297.96439
414.196	-11822.92005
414.696	-8837.29467
415.196	-5598.97735
415.696	-658.59701
416.196	-55.70652
416.695	-2741.72851
417.195	-4720.50945
417.694	-4623.12358
418.194	-3822.4143
418.693	-4260.89667
419.192	-4223.52614
419.691	-4164.76668
420.19	-3682.64972
420.688	-3376.74579
421.187	-2888.03119
421.685	-2240.37522
422.184	-1641.89288
422.682	-1603.56358
423.18	-2103.82072
423.678	-2116.07435
424.176	-1981.09857
424.674	-1802.4624
425.172	-1596.8284
425.669	-1389.51213
426.167	-1130.48782
426.664	-1118.41512
427.161	-1129.37627
427.659	-1022.46256
428.156	-1132.40487
428.652	-1067.59398
429.149	-1049.6213
429.646	-895.66271
430.143	-839.80925
430.639	-799.86112
431.135	-802.98084
431.632	-757.97539
432.128	-778.09852
432.624	-827.22981
433.12	-913.13248
433.616	-739.08709
434.111	-987.3119
434.607	-920.37426
435.103	-688.19418
435.598	-650.19664
436.093	-583.31414
436.588	-550.305
437.083	-524.32731
437.578	-554.40213
438.073	-690.62236
438.568	-493.45841
439.062	-535.39523
439.557	-514.49705
440.051	-547.50247
440.546	-569.54166
441.04	-581.62916
441.534	-561.68704
442.028	-454.50787
442.522	-524.60309
443.015	-578.60105
443.509	-452.54996
444.002	-538.67746
444.496	-514.54959
444.989	-505.64851
445.482	-549.73626
445.975	-538.61785
446.468	-455.47958
446.961	-457.48675
447.454	-451.53202
447.947	-540.69474
448.439	-499.68243
448.931	-529.64499
449.424	-478.69892
449.916	-479.66532
450.408	-541.68482
450.9	-523.73495
451.392	-550.83416
451.884	-473.63208
452.375	-572.86032
452.867	-454.60928
453.358	-523.69993
453.849	-485.59846
454.341	-496.6697
454.832	-475.60238
455.323	-465.69564
455.814	-439.61677
456.304	-457.65234
456.795	-442.62595
457.285	-414.57846
457.776	-394.57245
458.266	-501.7709
458.756	-455.71703
459.247	-464.71455
459.737	-509.79988
460.226	-452.6572
460.716	-423.6658
461.206	-439.70862
461.695	-438.75582
462.185	-472.76603
462.674	-379.58891
463.163	-410.61683
463.653	-351.4877
464.142	-450.75999
464.63	-426.74098
465.119	-417.67309
465.608	-400.64509
466.096	-322.48554
466.585	-290.46976
467.073	-334.57508
467.561	-358.62597
468.05	-319.53443
468.538	-350.63459
469.026	-310.54145
469.513	-331.50227
470.001	-371.62192
470.489	-352.61807
470.976	-295.50343
471.463	-339.64397
471.951	-338.65193
472.438	-334.59601
472.925	-355.63398
473.412	-330.63528
473.899	-278.49068
474.385	-294.56407
474.872	-344.62848
475.359	-337.65141
475.845	-240.3791
476.331	-242.41153
476.817	-233.44908
477.303	-278.51406
477.789	-243.46633
478.275	-310.62379
478.761	-275.53819
479.247	-204.36533
479.732	-275.5563
480.218	-293.63126
480.703	-290.59673
481.188	-267.46818
481.673	-251.47191
482.158	-335.58775
482.643	-206.43649
483.128	-272.51429
483.612	-251.49006
484.097	-176.35873
484.581	-207.40319
485.066	-213.43305
485.55	-231.42297
486.034	-247.44976
486.518	-233.4601
487.002	-289.60498
487.486	-255.53239
487.969	-216.44787
488.453	-191.41257
488.936	-179.34118
489.42	-163.306
489.903	-181.39315
490.386	-582.91499
490.869	-132.24481
491.352	-102.21395
491.835	-119.2092
492.318	-144.27747
492.8	-135.23845
493.283	-110.23909
493.765	-137.29035
494.247	-110.22278
494.73	-90.16992
495.212	-42.08712
495.694	-140.28262
496.175	-131.2667
496.657	-3.00604
497.139	80.11446
497.62	-55.1107
498.102	17.0356
498.583	62.13108
499.064	44.08164
499.545	94.17817
500.026	103.19069
500.507	128.24593
500.988	209.4257
501.469	244.49461
501.949	274.54957
502.43	307.57692
502.91	376.59435
503.39	460.90048
503.87	549.96439
504.35	666.15608
504.83	717.10715
505.31	805.3792
505.79	870.4396
506.269	1077.6493
506.749	1139.64362
507.228	1286.84549
507.707	1463.8341
508.187	1638.20042
508.666	1834.38131
509.145	1961.2527
509.623	2205.3551
510.102	2467.55066
510.581	2814.56309
511.059	2981.69274
511.538	3319.87505
512.016	3558.29134
512.494	3955.22187
512.972	4326.90172
513.45	4584.51323
513.928	5069.57069
514.406	5365.32651
514.884	5851.59954
515.361	6337.05548
515.839	6676.82426
516.316	7094.15849
516.793	7478.56439
517.27	7748.59291
517.747	7920.90632
518.224	8201.96983
518.701	8453.30869
519.178	8442.40688
519.654	8713.80904
520.131	8562.5941
520.607	8498.51104
521.083	8421.27607
521.56	8363.22859
522.036	8112.78204
522.512	7912.80994
522.987	7608.40131
523.463	7392.28224
523.939	7284.36852
524.414	7007.02644
524.89	6541.06436
525.365	6296.84673
525.84	6047.09254
526.315	5647.34404
526.79	5483.05472
527.265	5179.25721
527.74	4847.83577
528.215	4766.67943
528.689	4424.50212
529.164	4298.49563
529.638	4026.68713
530.112	3820.18155
530.587	3634.72245
531.061	3515.45147
531.534	3371.5795
532.008	3169.55652
532.482	2982.38321
532.956	2801.93083
533.429	2727.68666
533.903	2598.26726
534.376	2481.25448
534.849	2397.46379
535.322	2259.51901
535.795	2183.65657
536.268	2066.53301
536.741	2019.52624
537.213	2002.36677
537.686	1870.48924
538.158	1768.12753
538.631	1649.3715
539.103	1673.08607
539.575	1640.87646
540.047	1495.93867
540.519	1474.17768
540.991	1410.19706
541.463	1356.10614
541.934	1238.83909
542.406	1227.92582
542.877	1189.75885
543.348	1165.90709
543.82	1173.95756
544.291	1135.795
544.762	1130.80802
545.233	1080.88405
545.703	988.5012
546.174	1039.66601
546.645	936.57822
547.115	1043.73979
547.585	996.58909
548.056	962.62309
548.526	883.47528
548.996	949.61539
549.466	959.6658
549.935	998.62039
550.405	980.45017
550.875	1001.62756
551.344	1012.67452
551.814	1040.61347
552.283	1099.56489
552.752	1090.67472
553.221	1090.52431
553.69	1176.65914
554.159	1065.76014
554.628	1246.71895
555.096	1250.05437
555.565	1325.79569
556.033	1385.01585
556.502	1429.14049
556.97	1479.93441
557.438	1534.18289
557.906	1635.28034
558.374	1792.2635
558.842	1848.44162
559.31	1961.26763
559.777	2061.58574
560.245	2335.59062
560.712	2470.5449
561.18	2617.31532
561.647	2802.36539
562.114	2883.43929
562.581	3287.81529
563.048	3494.37427
563.514	3618.66114
563.981	3989.11032
564.448	4259.84191
564.914	4478.95793
565.381	4826.63248
565.847	5131.63622
566.313	5443.44199
566.779	5855.09733
567.245	6175.2061
567.711	6601.27141
568.176	7038.03677
568.642	7454.65702
569.108	7923.89516
569.573	8532.53767
570.038	9096.63071
570.504	9421.38925
570.969	10011.89146
571.434	10440.84173
571.899	11111.31771
572.363	11695.59408
572.828	12275.97927
573.293	12904.25504
573.757	13645.97155
574.222	14080.17021
574.686	14629.1945
575.15	15212.89389
575.614	15768.38863
576.078	16221.98221
576.542	16538.19008
577.006	16924.0442
577.469	17369.18386
577.933	17578.41172
578.396	18004.27308
578.86	18177.75912
579.323	18086.3815
579.786	18463.71596
580.249	18193.89792
580.712	18275.06069
581.175	17985.12622
581.637	17959.32999
582.1	17782.17205
582.563	17621.57644
583.025	17217.91072
583.487	17109.60835
583.95	16837.00257
584.412	16409.19694
584.874	16064.38875
585.336	15917.25596
585.797	15447.91978
586.259	14869.40783
586.721	14619.19301
587.182	14086.26874
587.643	13830.55682
588.105	13353.15259
588.566	12968.59857
589.027	12624.76499
589.488	12324.28315
589.949	11987.69256
590.41	11615.3334
590.87	11286.33813
591.331	10896.80182
591.791	10578.13776
592.252	10255.95172
592.712	10065.13648
593.172	9754.31281
593.632	9525.68576
594.092	9320.11922
594.552	8860.07935
595.011	8678.74653
595.471	8437.32809
595.931	8148.91422
596.39	7938.83919
596.849	7704.56007
597.308	7647.33271
597.768	7252.66941
598.227	7154.40076
598.685	7032.17884
599.144	6832.19162
599.603	6779.25198
600.062	6556.70254
600.52	6410.94595
600.978	6260.28808
601.437	6116.14161
601.895	5886.80975
602.353	5904.03748
602.811	5829.04856
603.269	5641.53845
603.727	5410.6434
604.184	5416.26716
604.642	5338.82177
605.099	5209.5552
605.557	5247.84729
606.014	5062.19618
606.471	4921.13433
606.928	4955.19967
607.385	4818.99254
607.842	4916.60631
608.299	4732.84093
608.755	4761.01432
609.212	4600.61015
609.668	4483.62985
610.125	4621.13274
610.581	4701.04285
611.037	4503.91954
611.493	4351.20639
611.949	4330.2895
612.405	4281.31306
612.861	4333.21627
613.316	4225.31855
613.772	4132.14899
614.227	4149.29327
614.683	4108.80641
615.138	4060.29622
615.593	3890.3486
616.048	3928.27475
616.503	3842.75959
616.958	3816.86889
617.412	3635.59454
617.867	3638.19205
618.321	3588.92629
618.776	3581.27176
619.23	3515.62167
619.684	3379.48272
620.138	3303.67428
620.592	3283.91901
621.046	3198.76715
621.5	3142.96169
621.954	3144.57691
622.407	2953.55662
622.861	2948.0052
623.314	2904.68641
623.768	2774.80287
624.221	2811.04586
624.674	2712.76107
625.127	2604.83993
625.58	2662.74912
626.033	2627.60508
626.485	2428.92787
626.938	2445.92775
627.39	2529.83741
627.843	2417.80138
628.295	2289.77138
628.747	2303.90444
629.199	2303.71131
629.651	2194.67699
630.103	2150.70203
630.555	2162.40497
631.006	2154.82188
631.458	2128.83641
631.909	2060.72191
632.361	2067.77886
632.812	1935.6663
633.263	1960.43429
633.714	1941.41084
634.165	1841.82175
634.616	1836.74308
635.067	1810.4867
635.518	1819.75685
635.968	1752.13182
636.419	1801.41506
636.869	1754.70778
637.319	1692.5521
637.769	1623.38828
638.219	1747.73348
638.669	1563.55648
639.119	1658.73635
639.569	1543.5834
640.019	1582.48755
640.468	1598.38728
640.918	1552.60348
641.367	1588.39764
641.816	1554.36239
642.265	1512.43221
642.714	1450.37487
643.163	1474.38122
643.612	1464.496
644.061	1360.03312
644.51	1404.28378
644.958	1441.21669
645.406	1374.40039
645.855	1394.50659
646.303	1412.38378
646.751	1285.15945
647.199	1357.2418
647.647	1341.25653
648.095	1391.29959
648.543	1401.01072
648.99	1350.37916
649.438	1390.38679
649.885	1353.49987
650.333	1364.84374
650.78	1309.36928
651.227	1287.36459
651.674	1297.19268
652.121	1261.33627
652.568	1236.29716
653.015	1253.44649
653.461	1215.21409
653.908	1219.16904
654.354	1269.30125
654.801	1154.10097
655.247	1217.02025
655.693	1154.39418
656.139	1178.1966
656.585	1172.19182
657.031	1115.03637
657.477	1131.88203
657.922	1145.05048
658.368	1151.24483
658.813	1155.10122
659.259	1073.05887
659.704	1057.96833
660.149	1111.04228
660.594	1142.13242
661.039	1037.89388
661.484	1050.02669
661.929	1031.9492
662.373	976.03523
662.818	1005.04545
663.262	949.89005
663.707	990.07447
664.151	1021.03864
664.595	932.87032
665.039	939.95486
665.483	892.92386
665.927	1009.94188
666.371	873.69265
666.814	892.79408
667.258	881.75041
667.701	878.58475
668.145	937.95846
668.588	874.82148
669.031	838.67299
669.474	854.75064
669.917	875.62801
670.36	788.69438
670.803	868.78257
671.245	832.48014
671.688	777.64817
672.13	789.51645
672.573	806.77831
673.015	759.58827
673.457	778.45546
673.899	744.57915
674.341	691.47642
674.783	703.48589
675.225	724.56734
675.666	703.48848
676.108	651.25502
676.549	732.5226
676.991	689.33795
677.432	712.2296
677.873	689.41048
678.314	665.41529
678.755	674.46024
679.196	614.26327
679.637	668.45892
680.078	623.31258
680.518	629.31886
680.959	609.31731
681.399	636.41879
681.839	627.37477
682.28	595.33079
682.72	569.1829
683.16	592.33847
683.6	599.23596
684.039	542.02926
684.479	530.19521
684.919	499.05926
685.358	584.35193
685.798	548.31995
686.237	564.24711
686.676	548.16573
687.115	557.19595
687.554	520.13724
687.993	539.09154
688.432	545.13947
688.871	459.97143
689.309	544.19081
689.748	532.01859
690.186	582.26661
690.625	497.07747
691.063	493.09556
691.501	470.0834
691.939	485.12359
692.377	479.0864
692.815	490.08596
693.253	503.1206
693.69	449.92325
694.128	475.0699
694.565	495.09455
695.003	448.06533
695.44	497.08113
695.877	448.97943
696.314	451.90814
696.751	520.09407
697.188	447.96175
697.625	522.106
698.061	448.00548
698.498	512.14656
698.934	463.04112
699.371	436.96366
699.807	503.10116
700.243	450.01287
700.679	511.06826
701.115	508.10768
701.551	445.98417
701.987	510.05934
702.422	466.03139
702.858	424.952
703.294	490.02949
703.729	481.0958
704.164	445.00344
704.599	465.96648
705.035	454.9493
705.47	407.93575
705.904	456.99354
706.339	519.1152
706.774	459.0034
707.209	403.87865
707.643	455.02185
708.078	442.00903
708.512	417.98396
708.946	465.04093
709.38	459.01608
709.814	450.96425
710.248	481.09139
710.682	410.92133
711.116	393.8873
711.549	449.0871
711.983	473.01662
712.416	473.04234
712.85	416.98027
713.283	457.01038
713.716	486.13768
714.149	483.07153
714.582	463.97047
715.015	472.10399
715.448	434.02882
715.881	515.03857
716.313	404.89556
716.746	409.90947
717.178	432.97712
717.61	445.0592
718.043	420.98892
718.475	400.91874
718.907	458.08665
719.339	364.78572
719.77	404.90487
720.202	403.96566
720.634	412.94629
721.065	432.96319
721.497	427.98642
721.928	401.93189
722.359	351.808
722.79	385.87456
723.221	400.95501
723.652	416.01404
724.083	346.74623
724.514	428.92504
724.945	387.86306
725.375	405.88675
725.806	357.85254
726.236	436.05063
726.666	364.82201
727.096	368.86113
727.526	348.8458
727.956	350.75972
728.386	415.96556
728.816	344.83327
729.246	368.85134
729.675	320.75704
730.105	355.83543
730.534	391.86729
730.964	363.87679
731.393	374.88612
731.822	328.80525
732.251	315.77006
732.68	397.88682
733.109	299.71161
733.537	280.65525
733.966	301.72159
734.395	358.78865
734.823	348.75119
735.251	318.73686
735.68	395.93929
736.108	303.74018
736.536	296.67501
736.964	308.68876
737.392	331.7953
737.82	266.62078
738.247	315.72659
738.675	308.7103
739.102	271.65685
739.53	272.67175
739.957	289.71909
740.384	265.63627
740.811	306.74848
741.238	261.61951
741.665	275.61814
742.092	287.66386
742.519	267.64131
742.945	285.66237
743.372	258.62146
743.798	238.59748
744.225	227.52842
744.651	207.51021
745.077	278.67191
745.503	255.60597
745.929	257.60014
746.355	300.72124
746.781	216.52503
747.207	209.48115
747.632	179.43046
748.058	250.60789
748.483	216.48822
748.908	246.59593
749.334	241.57777
749.759	235.54143
750.184	173.40733
750.609	222.53456
751.033	267.61368
751.458	235.51587
751.883	237.5738
752.307	203.46976
752.732	146.36166
753.156	202.49027
753.58	232.5391
754.005	231.57334
754.429	204.47123
754.853	213.51726
755.277	211.49021
755.7	193.47133
756.124	169.41441
756.548	207.48168
756.971	227.54235
757.394	191.48424
757.818	137.35018
758.241	182.45511
758.664	164.40951
759.087	128.28507
759.51	154.37994
759.933	136.3255
760.356	162.4108
760.778	172.41778
761.201	206.49227
761.623	166.39882
762.046	169.39714
762.468	213.50228
762.89	179.43616
763.312	175.42211
763.734	156.37223
764.156	151.36973
764.578	142.32528
765	156.37721
765.421	132.33295
765.843	169.43742
766.264	204.48433
766.686	164.40743
767.107	114.27587
767.528	141.35291
767.949	151.38039
768.37	142.34608
768.791	123.2968
769.212	75.18901
769.632	123.28566
770.053	116.30413
770.473	135.3265
770.894	181.44679
771.314	166.39244
771.734	143.33106
772.154	132.33675
772.575	174.39842
772.994	102.23206
773.414	212.49905
773.834	83.20805
774.254	118.28791
774.673	134.32451
775.093	64.15929
775.512	91.22439
775.931	132.33235
776.351	124.30626
776.77	98.23947
777.189	142.33519
777.607	110.27993
778.026	102.25369
778.445	46.11599
778.864	132.33616
779.282	107.25702
779.701	119.29849
780.119	71.17995
780.537	83.20737
780.955	146.36786
781.373	136.33368
781.791	68.15383
782.209	126.28909
782.627	104.27295
783.045	126.28828
783.462	105.26735
783.88	102.26296
784.297	80.2015
784.715	74.19025
785.132	89.21557
785.549	85.21267
785.966	116.29018
786.383	68.16789
786.8	128.29545
787.217	128.30132
787.633	83.20714
788.05	193.44999
788.466	112.26335
788.883	82.20905
789.299	99.23799
789.715	103.24967
790.131	127.31339
790.547	53.13314
790.963	152.37266
791.379	77.19481
791.795	148.33412
792.21	112.26078
792.626	73.17375
793.041	51.12664
793.457	117.28744
793.872	67.15819
794.287	74.17691
794.702	113.27699
795.117	50.1249
795.532	90.22506
795.947	129.3081
796.362	139.32881
796.776	191.43884
797.191	89.2176
797.605	46.10875
798.02	69.16832
798.434	138.30441
798.848	45.11153
799.262	77.19106
799.676	145.34976
800.09	79.19444
800.504	108.26086
800.918	108.24909
801.331	127.33008
801.745	137.31149
802.158	104.25875
802.572	111.26785
802.985	150.35805
803.398	99.23537
803.811	135.34361
804.224	70.17454
804.637	79.18825
805.05	93.21522
805.462	134.32597
805.875	44.11458
806.288	66.15953
806.7	61.15373
807.112	123.28295
807.525	92.22648
807.937	96.23641
808.349	117.29094
808.761	83.20399
809.173	107.2579
809.584	113.27751
809.996	59.1449
810.408	52.13462
810.819	57.13463
811.231	22.05731
811.642	61.14581
812.053	87.20644
812.464	117.27602
812.875	128.3239
813.286	102.26113
813.697	189.43268
814.108	103.25042
814.519	120.26537
814.929	114.28868
815.34	117.28158
815.75	62.15778
816.16	113.27966
816.571	106.27365
816.981	134.31299
817.391	107.25683
817.801	106.26162
818.211	96.22801
818.62	80.19235
819.03	111.27017
819.44	113.29299
819.849	90.22604
820.259	96.24465
820.668	87.21334
821.077	82.2032
821.486	144.34228
821.895	144.35121
822.304	81.21413
822.713	96.22599
823.122	90.22384
823.531	107.25203
823.939	80.19461
824.348	127.30564
824.756	107.26627
825.164	91.22818
825.573	112.27886
825.981	120.29497
826.389	102.25479
826.797	92.22948
827.205	91.20808
827.612	118.28866
828.02	105.24492
828.428	115.29043
828.835	95.24878
829.243	117.27645
829.65	91.2253
830.057	87.21049
830.464	78.18975
830.871	146.34463
831.278	76.1835
831.685	125.27602
832.092	90.21951
832.499	99.21541
832.905	125.3132
833.312	98.22242
833.718	107.26471
834.124	127.287
834.531	113.28252
834.937	60.15415
835.343	128.30542
835.749	168.38499
836.155	134.34666
836.561	76.18661
836.966	111.26926
837.372	86.21809
837.777	69.17177
838.183	113.24911
838.588	99.2443
838.993	126.30341
839.399	65.15892
839.804	18.04425
840.209	95.24044
840.613	61.13594
841.018	94.23676
841.423	88.22474
841.828	102.25618
842.232	165.4013
842.637	144.33463
843.041	25.06449
843.445	116.28819
843.849	95.23382
844.253	144.33714
844.657	81.20325
845.061	121.27155
845.465	90.21631
845.869	77.17855
846.272	55.13412
846.676	111.26613
847.079	88.22268
847.483	111.27451
847.886	141.33818
848.289	79.21011
848.692	81.20442
849.095	86.20568
849.498	143.35727
849.901	118.26781
850.304	97.23035
850.707	83.21081
851.109	125.31275
851.512	110.26789
851.914	51.12871
852.316	56.14176
852.718	50.12926
853.121	119.28845
853.523	63.14724
853.925	23.06035
854.326	70.17467
854.728	80.20496
855.13	52.13425
855.531	88.20917
855.933	125.29649
856.334	53.13227
856.736	74.16535
857.137	85.19671
857.538	101.25198
857.939	127.30981
858.34	125.30095
858.741	96.2493
859.142	80.19148
859.542	37.09795
859.943	126.30926
860.343	34.08456
860.744	114.27535
861.144	77.18721
861.544	34.08209
861.945	92.23305
862.345	71.17327
862.745	108.26596
863.145	153.35926
863.544	103.25817
863.944	115.26877
864.344	115.28273
864.743	122.29922
865.143	95.2424
865.542	83.19162
865.941	92.22631
866.34	124.29338
866.74	75.20066
867.139	84.20013
867.537	94.23795
867.936	78.18704
868.335	61.1551
868.734	63.16081
869.132	119.2732
869.531	121.28922
869.929	39.08925
870.327	70.16741
870.726	112.27653
871.124	114.26355
871.522	69.17538
871.92	108.2639
872.318	99.24016
872.715	119.29127
873.113	68.16536
873.511	50.12472
873.908	64.16132
874.306	78.19322
874.703	132.32578
875.1	121.30602
875.497	67.16033
875.894	33.08119
876.291	97.23628
876.688	58.14953
877.085	124.29372
877.482	54.13523
877.878	124.29463
878.275	99.24958
878.671	84.18607
879.068	88.21118
879.464	68.164
879.86	99.23219
880.256	126.30697
880.652	53.13486
881.048	90.22164
881.444	113.26606
881.84	79.19994
882.236	95.23718
882.631	116.28155
883.027	101.24252
883.422	98.24869
883.817	80.20013
884.213	68.17409
884.608	115.27886
885.003	81.19435
885.398	50.12526
885.793	104.25875
886.188	57.14164
886.582	104.26448
886.977	101.23762
887.371	134.33412
887.766	62.15398
888.16	132.32483
888.554	112.27408
888.949	141.34857
889.343	149.35764
889.737	38.10152
890.131	94.23413
890.525	83.21119
890.918	52.13093
891.312	119.28128
891.706	88.22954
892.099	92.23255
892.492	104.2221
892.886	85.20681
893.279	70.17783
893.672	67.17018
894.065	118.29209
894.458	74.18545
894.851	157.37741
895.244	49.12525
895.637	103.24582
896.029	92.22338
896.422	83.20172
896.814	59.14655
897.206	84.1989
897.599	152.3692
897.991	61.14731
898.383	100.23422
898.775	108.24113
899.167	59.13746
899.559	111.27813
899.951	130.30198
900.342	71.18002
900.734	11.0275
901.125	117.30367
901.517	94.22901
901.908	155.36452
902.299	92.2233
902.69	114.26586
903.082	128.30566
903.473	44.10555
903.863	92.23313
904.254	68.1574
904.645	148.36178
905.036	58.1403
905.426	140.31503
905.817	62.1519
906.207	75.17797
906.597	74.17237
906.987	93.23939
907.378	86.21622
907.768	60.15843
908.158	106.25593
908.547	57.14713
908.937	106.26947
909.327	84.20281
909.717	139.34753
910.106	80.19118
910.495	119.29354
910.885	85.21406
911.274	75.1867
911.663	67.16963
912.052	119.29008
912.441	68.17244
912.83	84.19165
913.219	99.25704
913.608	102.24757
913.997	63.15763
914.385	74.1761
914.774	101.24372
915.162	65.15453
915.55	112.26796
915.939	75.18853
916.327	85.21091
916.715	53.13505
917.103	124.30119
917.491	99.24286
917.878	78.19088
918.266	121.31005
918.654	96.24336
919.041	67.17444
919.429	81.19013
919.816	117.29316
920.203	107.25683
920.591	106.26027
920.978	128.30904
921.365	98.2551
921.752	121.28468
922.139	109.23384
922.525	79.18876
922.912	118.28425
923.299	98.24152
923.685	84.21791
924.072	79.18122
924.458	94.23106
924.844	77.18966
925.231	92.21244
925.617	59.14986
926.003	86.21847
926.389	86.2156
926.774	99.24877
927.16	111.2727
927.546	59.15039
927.931	115.28367
928.317	73.16746
928.702	121.28246
929.088	81.1905
929.473	92.23239
929.858	14.03408
930.243	90.21442
930.628	87.21025
931.013	100.24563
931.398	101.23002
931.783	121.31481
932.167	83.20172
932.552	98.24347
932.937	91.22422
933.321	48.12051
933.705	94.23515
934.09	148.36755
934.474	145.33821
934.858	86.22171
935.242	70.16164
935.626	78.19871
936.009	55.14618
936.393	72.18252
936.777	85.21635
937.16	73.18921
937.544	119.2767
937.927	52.13191
938.311	111.26795
938.694	123.32133
939.077	71.16932
939.46	123.29804
939.843	156.31796
940.226	115.29167
940.609	110.24955
940.991	54.13738
941.374	81.19686
941.757	100.24454
942.139	95.21145
942.522	98.22953
942.904	85.20302
943.286	88.22213
943.668	103.26439
944.05	78.19117
944.432	84.20602
944.814	128.31079
945.196	75.18194
945.578	25.05971
945.959	111.25708
946.341	177.42435
946.722	86.20048
947.104	115.27151
947.485	60.13938
947.866	74.18565
948.247	100.25007
948.628	89.21557
949.009	74.18872
949.39	122.29978
949.771	120.27533
950.152	74.18082
950.532	29.07161
950.913	76.18246
951.293	62.16716
951.674	92.22078
952.054	59.14597
952.434	93.22907
952.814	88.20789
953.194	94.24419
953.574	125.30368
953.954	77.18194
954.334	76.18854
954.714	94.22721
955.093	99.24124
955.473	68.16949
955.853	99.25412
956.232	76.20744
956.611	75.17906
956.99	73.18272
957.37	67.17024
957.749	90.2131
958.128	78.19555
958.506	67.1733
958.885	97.24279
959.264	67.16369
959.643	140.31283
960.021	93.22865
960.4	110.2463
960.778	132.32026
961.156	69.17239
961.535	88.20361
961.913	115.26571
962.291	55.14098
962.669	56.14171
963.047	64.16293
963.424	46.11748
963.802	96.23406
964.18	92.23106
964.557	92.21015
964.935	83.19543
965.312	72.18678
965.69	118.29187
966.067	98.23652
966.444	140.33929
966.821	122.31058
967.198	94.22618
967.575	88.21487
967.952	117.27215
968.329	68.16493
968.705	108.22874
969.082	88.22419
969.458	29.06985
969.835	73.17695
970.211	70.17902
970.587	88.21759
970.963	93.2368
971.339	32.08381
971.715	101.24987
972.091	101.24639
972.467	84.20823
972.843	43.10685
973.219	135.31897
973.594	80.20818
973.97	142.33206
974.345	71.16925
974.721	78.1879
975.096	131.31216
975.471	108.25335
975.846	73.17462
976.221	79.19959
976.596	59.14119
976.971	115.28054
977.346	127.29121
977.72	54.13747
978.095	98.25116
978.469	86.20387
978.844	108.26871
979.218	75.17893
979.593	58.13877
979.967	90.21763
980.341	74.16958
980.715	88.22022
981.089	57.14251
981.463	97.22064
981.837	58.14152
982.21	130.29779
982.584	84.20159
982.957	77.19133
983.331	110.25703
983.704	86.20991
984.078	70.17188
984.451	143.35118
984.824	53.129
985.197	100.24062
985.57	76.18971
985.943	78.19166
986.316	132.31942
986.688	107.25527
987.061	122.28194
987.434	111.28621
987.806	76.18343
988.179	58.13664
988.551	160.39793
988.923	114.27742
989.295	90.22327
989.667	44.10523
990.039	88.21591
990.411	82.18754
990.783	162.36468
991.155	51.12251
991.527	126.30594
991.898	87.21532
992.27	60.14814
992.641	98.24374
993.012	136.31466
993.384	65.15459
993.755	86.21785
994.126	63.15116
994.497	92.22405
994.868	84.19165
995.239	105.25184
995.61	33.08328
995.98	105.25241
996.351	113.27658
996.722	96.22062
997.092	40.0949
997.462	73.16974
997.833	88.20708
998.203	83.19998
998.573	87.21516
998.943	135.31129
999.313	41.09841
999.683	85.20263
1000.053	88.20094
1000.423	114.27368
1000.792	83.21387
1001.162	88.21503
1001.531	71.17436
1001.901	93.23
1002.27	117.25793
1002.639	104.26317
1003.009	128.2998
1003.378	97.24594
1003.747	105.2454
1004.116	30.07205
1004.485	116.27371
1004.853	64.16172
1005.222	89.22284
1005.591	108.25355
1005.959	87.19452
1006.328	81.18111
1006.696	74.17766
1007.064	93.2321
1007.433	110.27189
1007.801	125.30254
1008.169	72.18109
1008.537	138.29994
1008.905	54.12569
1009.273	87.21342
1009.64	46.1098
1010.008	73.17322
1010.375	157.37354
1010.743	159.35917
1011.11	59.13935
1011.478	98.24036
1011.845	126.29187
1012.212	93.20863
1012.579	101.24556
1012.946	143.33421
1013.313	118.27713
1013.68	114.25284
1014.047	53.1262
1014.414	74.17393
1014.78	76.18792
1015.147	103.24657
1015.513	74.17745
1015.88	100.25341
1016.246	120.29235
1016.612	125.28179
1016.978	81.1973
1017.344	112.27358
1017.71	132.31689
1018.076	129.29947
1018.442	104.26495
1018.808	106.26219
1019.174	60.15021
1019.539	142.32083
1019.905	69.16209
1020.27	77.18903
1020.636	78.18598
1021.001	87.20676
1021.366	95.22612
1021.731	103.26235
1022.096	42.10605
1022.461	100.23431
1022.826	82.19364
1023.191	124.32112
1023.556	105.24337
1023.92	102.24831
1024.285	74.17975
1024.649	74.18049
1025.014	137.33383
1025.378	103.25641
1025.742	85.20967
1026.107	129.287
1026.471	111.25595
1026.835	98.24072
1027.199	50.12031
1027.562	69.15974
1027.926	98.23742
1028.29	69.17395
1028.654	110.24995
1029.017	84.20511
1029.381	94.22258
1029.744	81.20537
1030.107	148.34338
1030.471	62.14805
1030.834	89.2008
1031.197	115.27351
1031.56	81.1899
1031.923	88.22592
1032.286	104.24158
1032.648	123.28995
1033.011	65.14869
1033.374	102.23722
1033.736	67.17557
1034.099	69.16751
1034.461	57.14375
1034.823	42.10469
1035.185	51.1283
1035.548	129.30916
1035.91	92.21851
1036.272	134.29967
1036.634	86.20889
1036.995	108.25087
1037.357	69.16719
1037.719	84.20289
1038.08	121.28324
1038.442	71.16776
1038.803	90.21434
1039.165	67.16849
1039.526	45.10879
1039.887	94.22292
1040.248	107.26073
1040.609	141.34242
1040.97	99.23961
1041.331	55.13905
1041.692	86.19922
1042.053	102.22971
1042.413	51.11877
1042.774	139.33224
1043.134	101.23799
1043.495	131.32432
1043.855	117.28008
1044.215	81.19981
1044.576	49.11712
1044.936	120.27113
1045.296	95.23503
1045.656	100.24299
1046.016	107.25536
1046.375	96.23073
1046.735	50.11329
1047.095	93.21573
1047.454	114.23807
1047.814	103.24497
1048.173	143.33539
1048.533	53.12129
1048.892	15.03622
1049.251	105.26081
1049.61	81.19819
1049.969	118.27432
1050.328	107.22905
1050.687	84.20297
1051.046	113.27175
1051.405	70.1734
1051.763	53.12173
1052.122	103.25426
1052.48	105.25471
1052.839	75.17549
1053.197	92.21464
1053.555	84.1901
1053.914	146.3505
1054.272	100.23934
1054.63	70.17041
1054.988	74.17488
1055.345	121.25644
1055.703	142.33558
1056.061	83.21216
1056.419	77.19827
1056.776	89.21411
1057.134	98.22458
1057.491	68.16962
1057.848	78.19308
1058.206	80.18693
1058.563	115.2499
1058.92	152.34301
1059.277	112.27296
1059.634	119.27604
1059.991	109.25804
1060.348	51.11516
1060.704	69.16373
1061.061	144.32814
1061.418	68.16424
1061.774	75.18419
1062.131	61.16088
1062.487	65.15144
1062.843	90.22262
1063.199	102.2511
1063.555	65.15006
1063.911	92.23048
1064.267	178.36049
1064.623	75.18119
1064.979	132.30759
1065.335	105.24819
1065.691	109.25814
1066.046	96.20892
1066.402	71.16052
1066.757	100.24998
1067.112	105.2549
1067.468	63.14828
1067.823	78.1864
1068.178	84.20174
1068.533	88.21167
1068.888	109.25734
1069.243	83.20346
1069.598	100.24053
1069.952	87.19428
1070.307	58.14326
1070.662	61.14441
1071.016	87.19332
1071.371	78.17631
1071.725	79.18782
1072.079	86.20529
1072.434	80.19315
1072.788	83.19626
1073.142	96.23397
1073.496	76.17926
1073.85	112.25636
1074.203	58.14041
1074.557	82.21674
1074.911	129.30303
1075.265	78.18018
1075.618	145.34751
1075.971	128.29968
1076.325	57.14457
1076.678	83.18841
1077.031	113.25224
1077.385	69.15128
1077.738	85.19037
1078.091	68.15395
1078.444	81.18678
1078.796	66.16134
1079.149	120.29442
1079.502	50.11803
1079.855	70.16248
1080.207	117.28446
1080.56	62.15979
1080.912	80.19352
1081.264	129.30574
1081.617	46.11211
1081.969	66.16588
1082.321	66.16056
1082.673	55.12531
1083.025	88.20708
1083.377	132.2781
1083.728	93.21496
1084.08	99.24474
1084.432	90.21524
1084.783	118.27258
1085.135	71.17713
1085.486	58.13238
1085.838	86.21022
1086.189	56.13567
1086.54	120.28249
1086.891	63.15882
1087.242	70.16965
1087.593	99.23862
1087.944	80.1798
1088.295	109.24462
1088.646	73.17602
1088.996	60.14415
1089.347	69.16858
1089.698	64.15072
1090.048	126.32269
1090.398	80.18429
1090.749	142.3335
1091.099	42.10567
1091.449	90.22237
1091.799	81.20149
1092.149	7.01719
1092.499	61.14836
1092.849	87.21948
1093.199	116.28703
1093.548	79.18861
1093.898	105.25986
1094.248	90.22944
1094.597	30.07678
1094.947	78.20693
1095.296	49.12092
1095.645	85.21956
1095.994	114.27024
1096.343	78.19512
1096.692	58.15202
1097.041	35.09491
1097.39	117.28967
1097.739	86.22195
1098.088	125.33045
1098.437	51.13383
1098.785	98.26189
1099.134	105.27599
1099.482	68.18632
1099.83	110.28585
1100.179	66.17151
1100.527	107.28134
1100.875	52.13731
1101.223	81.21377
1101.571	89.24421
1101.919	34.08899
1102.267	47.13226
1102.615	5.01607
1102.962	18.0579
1103.31	14.04494
1103.658	22.07077
