Data from N2 R14 sample 10_Subt2__1__14-19-14-083.txt Node

Date: Tue Sep 02 14:19:14 PDT 2025
User: uwsun
Spectrometer: HDX01956
Trigger mode: 0
Integration Time (sec): 5.000000E-1
Scans to average: 1
Nonlinearity correction enabled: true
Boxcar width: 0
Storing dark spectrum: false
XAxis mode: Wavelengths
Number of Pixels in Spectrum: 2068
>>>>>Begin Spectral Data<<<<<
194.03	-37.10444
194.578	-27.08567
195.127	-33.10327
195.676	-33.10358
196.225	54.14196
196.773	4.01096
197.321	-29.0782
197.87	-2.00495
198.418	0
198.966	-44.109
199.513	-29.06828
200.061	-46.11048
200.609	30.0751
201.156	-43.08898
201.704	-47.11226
202.251	-51.12839
202.798	1.00245
203.345	14.03269
203.892	-32.07639
204.438	-9.02037
204.985	-61.13673
205.532	-43.10728
206.078	-8.01854
206.624	-34.07892
207.17	-4.00877
207.716	-35.08032
208.262	-25.04691
208.808	-49.11371
209.354	-33.07585
209.899	-24.05779
210.445	-58.13654
210.99	7.01579
211.535	24.05303
212.08	5.01097
212.625	-14.03318
213.17	-7.01678
213.715	-44.09217
214.259	16.0351
214.804	18.04194
215.348	2.00432
215.892	12.02711
216.436	35.07635
216.98	42.08736
217.524	33.07305
218.068	26.06164
218.612	28.06643
219.155	30.06629
219.698	6.01351
220.242	53.12431
220.785	8.0177
221.328	2.00472
221.871	48.1148
222.414	33.07767
222.956	-34.07779
223.499	0
224.041	22.04865
224.583	71.14435
225.126	15.03129
225.668	14.03212
226.21	7.01664
226.751	-37.07701
227.293	16.03466
227.835	-8.0185
228.376	55.11962
228.918	18.04307
229.459	-12.02826
230	-12.02711
230.541	50.10826
231.082	-9.02068
231.622	28.06091
232.163	-13.02982
232.704	12.02802
233.244	-19.0447
233.784	24.05566
234.324	-45.09366
234.864	-29.06256
235.404	35.07842
235.944	-17.03836
236.484	5.01182
237.023	5.01113
237.563	-40.08787
238.102	1.00223
238.641	-23.05519
239.18	-23.05075
239.719	43.10109
240.258	3.00637
240.797	53.11801
241.335	38.08726
241.874	27.04856
242.412	-6.01358
242.95	-2.00448
243.488	-24.05192
244.026	-39.08515
244.564	30.05781
245.102	26.05454
245.64	47.10604
246.177	-4.00845
246.715	27.06084
247.252	62.13258
247.789	142.24486
248.326	-74.16849
248.863	-33.06832
249.4	35.07428
249.936	-5.00967
250.473	-43.09475
251.009	7.01497
251.546	36.07374
252.082	15.03073
252.618	-24.05025
253.154	-27.06094
253.69	5.01054
254.226	21.04668
254.761	-23.0486
255.297	-42.0867
255.832	-31.06897
256.367	14.03075
256.903	-1.00205
257.438	42.09164
257.972	6.01247
258.507	-45.09666
259.042	4.0081
259.576	-66.1336
260.111	-38.08288
260.645	45.09015
261.179	-78.17206
261.713	-8.01659
262.247	19.04073
262.781	-14.02733
263.315	-37.08477
263.849	1.00232
264.382	26.05548
264.915	-45.09858
265.449	-63.14307
265.982	-5.01062
266.515	-42.09586
267.048	-28.05528
267.58	43.08691
268.113	0
268.646	-32.0736
269.178	-42.08744
269.71	35.07041
270.243	10.02117
270.775	-13.0307
271.307	-7.01571
271.838	63.13778
272.37	-4.00912
272.902	25.05245
273.433	5.01009
273.965	25.05599
274.496	8.01844
275.027	-4.00917
275.558	-29.06527
276.089	-43.09757
276.62	-27.06404
277.15	-35.08058
277.681	23.04599
278.211	-26.05932
278.741	-49.09999
279.272	-52.11018
279.802	-48.11163
280.332	-25.05435
280.861	-10.02219
281.391	-14.02917
281.921	37.08157
282.45	8.0184
282.98	-25.06026
283.509	2.00412
284.038	27.056
284.567	-3.00646
285.096	-27.06015
285.625	-52.10903
286.153	-52.11235
286.682	-29.06082
287.21	-34.07509
287.739	-33.07156
288.267	-61.13594
288.795	-38.09223
289.323	-55.11769
289.851	-31.06653
290.378	-34.06984
290.906	-60.13274
291.433	-36.08214
291.961	-70.14534
292.488	-18.0408
293.015	-51.10932
293.542	-46.10597
294.069	-56.1255
294.596	16.0358
295.122	-45.09775
295.649	4.00795
296.175	-29.06398
296.702	12.02624
297.228	-10.02202
297.754	-45.09157
298.28	-67.13808
298.806	-61.13295
299.332	-34.06741
299.857	-26.05263
300.383	-8.01827
300.908	-105.23079
301.433	-45.09812
301.958	4.00828
302.483	-73.1641
303.008	-12.02659
303.533	-30.0704
304.058	-38.08066
304.582	-90.1912
305.107	-79.18514
305.631	-10.02034
306.155	-78.16245
306.679	-71.14784
307.203	-43.08846
307.727	-49.10344
308.251	-29.06356
308.775	-73.15309
309.298	-133.28508
309.822	-58.13008
310.345	-67.14069
310.868	-76.16082
311.391	-87.19099
311.914	-65.14341
312.437	-41.08233
312.96	-27.05527
313.482	-69.14329
314.005	-63.13865
314.527	-141.32889
315.049	-58.12875
315.571	-129.2503
316.093	-78.16838
316.615	-88.18434
317.137	-34.06318
317.659	-43.09042
318.18	-41.08534
318.702	-49.09735
319.223	-56.09754
319.744	-83.15882
320.265	-117.24308
320.786	-149.31689
321.307	-92.19511
321.828	-86.16468
322.348	-84.16669
322.869	-121.24051
323.389	-311.44801
323.909	-108.20881
324.43	-80.16313
324.95	-119.22715
325.47	-84.17043
325.989	-130.25411
326.509	-124.22263
327.029	-103.18812
327.548	-135.24669
328.067	-128.2508
328.587	-98.1992
329.106	-101.18418
329.625	-77.16647
330.144	-128.23644
330.662	-149.27572
331.181	-128.23858
331.7	-160.29956
332.218	-136.23051
332.736	-163.30268
333.255	-203.37508
333.773	-122.22434
334.291	-93.18149
334.808	-215.37343
335.326	-135.23248
335.844	-194.34312
336.361	-216.42122
336.879	-218.38577
337.396	-226.41476
337.913	-183.31295
338.43	-194.32258
338.947	-191.3372
339.464	-227.35349
339.981	-243.42497
340.497	-204.37268
341.014	-226.40348
341.53	-165.2613
342.046	-257.45942
342.562	-200.36149
343.078	-206.3433
343.594	-234.39857
344.11	-197.32839
344.626	-255.4582
345.141	-238.37442
345.657	-177.27433
346.172	-263.44229
346.687	-259.4057
347.202	-253.38112
347.717	-189.3012
348.232	-209.35358
348.747	-286.44032
349.261	-321.4529
349.776	-223.34179
350.29	-271.43687
350.805	-204.33174
351.319	-269.40669
351.833	-311.44773
352.347	-260.38848
352.861	-320.47614
353.374	-231.33419
353.888	-277.42659
354.401	-300.43013
354.915	-343.46738
355.428	-274.42209
355.941	-314.44372
356.454	-223.29824
356.967	-289.4163
357.48	-292.40372
357.993	-306.46168
358.505	-352.52346
359.018	-310.45481
359.53	-329.46626
360.042	-321.40917
360.554	-313.44638
361.066	-314.44288
361.578	-308.37028
362.09	-327.44702
362.602	-289.3415
363.113	-320.40888
363.625	-359.43903
364.136	-262.29923
364.647	-439.54315
365.158	-331.40824
365.669	-325.41571
366.18	-348.43457
366.691	-321.35546
367.201	-382.48111
367.712	-346.38958
368.222	-388.44229
368.733	-418.42791
369.243	-386.39411
369.753	-376.41305
370.263	-393.44987
370.773	-409.4881
371.282	-474.52499
371.792	-524.50851
372.301	-572.62501
372.811	-531.64465
373.32	-486.36676
373.829	-553.50297
374.338	-562.43967
374.847	-562.43742
375.356	-633.51007
375.865	-658.3651
376.373	-684.41994
376.882	-539.40034
377.39	-663.43152
377.898	-878.54579
378.407	-796.3145
378.915	-729.20348
379.423	-801.27081
379.93	-788.16991
380.438	-1013.24422
380.946	-920.08171
381.453	-1054.05825
381.96	-1167.95304
382.468	-1327.78106
382.975	-1137.75911
383.482	-1204.62464
383.989	-1249.6963
384.495	-1356.49218
385.002	-1499.27678
385.509	-1617.24433
386.015	-1666.11285
386.521	-1761.07265
387.028	-1846.03342
387.534	-1872.0612
388.04	-1880.03984
388.546	-2169.07006
389.051	-2448.21147
389.557	-2540.47781
390.063	-2259.74664
390.568	-2562.04519
391.073	-2814.81214
391.578	-2841.10782
392.084	-3198.32383
392.589	-3623.36394
393.093	-4098.11274
393.598	-4220.66053
394.103	-4374.98921
394.607	-4738.07692
395.112	-5075.69977
395.616	-5313.22109
396.12	-6170.96332
396.624	-7103.28731
397.128	-7439.55087
397.632	-7941.26731
398.136	-8747.4629
398.639	-10966.78272
399.143	-13050.46442
399.646	-14058.80106
400.15	-15579.3146
400.653	-18149.10866
401.156	-20992.67373
401.659	-25418.85367
402.162	-22220.84308
402.664	-9284.2037
403.167	-1374.10893
403.67	0
404.172	0
404.674	0
405.176	0
405.678	0
406.18	0
406.682	0
407.184	0
407.686	0
408.187	0
408.688	0
409.19	0
409.691	0
410.192	-620.35554
410.693	-8145.88036
411.194	-13132.01441
411.694	-11548.53648
412.195	-9665.58016
412.696	-10331.05572
413.196	-11994.09706
413.696	-13297.96439
414.196	-11678.73538
414.696	-8319.08999
415.196	-5266.33483
415.696	-806.88243
416.196	86.08786
416.695	-2820.86586
417.195	-4546.31847
417.694	-4343.80852
418.194	-3774.89468
418.693	-4250.80174
419.192	-4159.98075
419.691	-4028.63106
420.19	-3700.79341
420.688	-3248.81292
421.187	-2803.42507
421.685	-2200.14193
422.184	-1742.31829
422.682	-1838.11377
423.18	-2114.82922
423.678	-2156.07919
424.176	-1944.10266
424.674	-1789.46585
425.172	-1484.87652
425.669	-1247.58714
426.167	-1140.48223
426.664	-1138.40381
427.161	-1094.39472
427.659	-1034.45741
428.156	-1046.44221
428.652	-999.6075
429.149	-978.63374
429.646	-867.6688
430.143	-841.8092
430.639	-802.8612
431.135	-860.99402
431.632	-724.96964
432.128	-776.09777
432.624	-830.23151
433.12	-860.11006
433.616	-815.1159
434.111	-881.24558
434.607	-831.31107
435.103	-708.20474
435.598	-607.17458
436.093	-580.31186
436.588	-584.33147
437.083	-540.34069
437.578	-557.40498
438.073	-663.59049
438.568	-517.48595
439.062	-489.3522
439.557	-532.51853
440.051	-489.4373
440.546	-540.50743
441.04	-567.61056
441.534	-538.6534
442.028	-452.50523
442.522	-527.60724
443.015	-526.53522
443.509	-461.56274
444.002	-475.58485
444.496	-473.49739
444.989	-456.57564
445.482	-515.6828
445.975	-535.6137
446.468	-506.54447
446.961	-475.50962
447.454	-476.56674
447.947	-587.76754
448.439	-501.68562
448.931	-551.67718
449.424	-479.7006
449.916	-455.62706
450.408	-503.62822
450.9	-557.79129
451.392	-561.85366
451.884	-502.67737
452.375	-557.83395
452.867	-460.61857
453.358	-531.71255
453.849	-412.4951
454.341	-458.61058
454.832	-473.59943
455.323	-484.72826
455.814	-473.67181
456.304	-460.65725
456.795	-460.65518
457.285	-385.53291
457.776	-380.54969
458.266	-442.66821
458.756	-448.70456
459.247	-457.70231
459.737	-468.72667
460.226	-457.66551
460.716	-448.71028
461.206	-424.68149
461.695	-440.75967
462.185	-417.66624
462.674	-317.4836
463.163	-393.58821
463.653	-416.59021
464.142	-402.67003
464.63	-374.64156
465.119	-425.68757
465.608	-401.64689
466.096	-379.58133
466.585	-358.59109
467.073	-333.5732
467.561	-350.61069
468.05	-303.5054
468.538	-327.58941
469.026	-332.58325
469.513	-304.45756
470.001	-367.61454
470.489	-313.54395
470.976	-326.561
471.463	-318.60098
471.951	-330.63528
472.438	-350.62715
472.925	-362.64766
473.412	-304.58156
473.899	-296.52491
474.385	-282.53947
474.872	-285.5129
475.359	-309.59328
475.845	-294.47167
476.331	-256.43698
476.817	-272.52917
477.303	-261.48057
477.789	-294.57115
478.275	-287.57445
478.761	-269.5257
479.247	-250.45303
479.732	-272.54985
480.218	-288.61982
480.703	-231.46901
481.188	-282.49644
481.673	-248.46593
482.158	-282.48786
482.643	-240.5123
483.128	-260.49016
483.612	-240.46736
484.097	-219.45074
484.581	-223.43601
485.066	-239.48879
485.55	-208.37865
486.034	-209.37689
486.518	-220.4331
487.002	-271.56504
487.486	-189.38882
487.969	-254.53113
488.453	-231.50325
488.936	-181.34516
489.42	-174.32754
489.903	-184.39992
490.386	-631.00433
490.869	-143.26594
491.352	-130.27437
491.835	-96.16775
492.318	-152.29345
492.8	-126.22203
493.283	-154.33785
493.765	-143.30346
494.247	-76.15272
494.73	-96.18151
495.212	-52.10811
495.694	-48.09485
496.175	-138.2814
496.657	-33.06688
497.139	26.03783
497.62	-86.17433
498.102	-5.01052
498.583	45.0955
499.064	15.02803
499.545	147.27501
500.026	160.292
500.507	146.2793
500.988	286.57232
501.469	235.47734
501.949	316.62766
502.43	323.6046
502.91	395.62098
503.39	454.89
503.87	564.98686
504.35	700.20433
504.83	676.0562
505.31	808.38324
505.79	930.51381
506.269	1094.6671
506.749	1107.61296
507.228	1352.90146
507.707	1501.85782
508.187	1704.24161
508.666	1846.38766
509.145	2053.28293
509.623	2275.36822
510.102	2539.5561
510.581	2858.55848
511.059	3004.68929
511.538	3326.87328
512.016	3677.24023
512.494	4010.19402
512.972	4372.87595
513.45	4711.44161
513.928	5141.53245
514.406	5474.27632
514.884	6008.54256
515.361	6397.04958
515.839	6843.85805
516.316	7129.17089
516.793	7491.57127
517.27	7825.65914
517.747	8172.15227
518.224	8304.11244
518.701	8569.51209
519.178	8606.65715
519.654	8745.86703
520.131	8698.81491
520.607	8829.0515
521.083	8503.41055
521.56	8532.48951
522.036	8284.02994
522.512	8119.01855
522.987	7736.50552
523.463	7644.45149
523.939	7407.42621
524.414	7060.04451
524.89	6726.07259
525.365	6466.84044
525.84	6100.08002
526.315	5943.23638
526.79	5634.99465
527.265	5324.18683
527.74	4975.76427
528.215	4688.72351
528.689	4487.46633
529.164	4315.486
529.638	4039.68092
530.112	3888.14835
530.587	3699.69022
531.061	3630.40561
531.534	3438.55735
532.008	3142.56311
532.482	3105.35424
532.956	2861.92993
533.429	2784.68473
533.903	2659.26278
534.376	2528.25397
534.849	2388.46273
535.322	2330.53355
535.795	2259.68009
536.268	2177.57151
536.741	2001.5185
537.213	2012.37046
537.686	1814.45739
538.158	1786.13601
538.631	1749.44049
539.103	1654.07546
539.575	1709.90749
540.047	1570.98631
540.519	1505.20323
540.991	1428.21381
541.463	1406.15291
541.934	1340.93087
542.406	1336.03163
542.877	1298.85824
543.348	1192.93691
543.82	1249.04083
544.291	1164.82585
544.762	1094.76801
545.233	1081.88531
545.703	1012.52691
546.174	1064.69422
546.645	1018.67892
547.115	1038.73378
547.585	983.57406
548.056	976.64055
548.526	1016.63681
548.996	1008.68901
549.466	1045.77458
549.935	1004.62743
550.405	1015.48631
550.875	993.61811
551.344	1083.75752
551.814	1110.68762
552.283	1083.54969
552.752	1069.65242
553.221	1133.56327
553.69	1252.72509
554.159	1266.97885
554.628	1228.70368
555.096	1272.07807
555.565	1327.79726
556.033	1491.10179
556.502	1518.21506
556.97	1630.02781
557.438	1730.31724
557.906	1748.35404
558.374	1902.3162
558.842	2000.51635
559.31	2136.3213
559.777	2271.65668
560.245	2461.61051
560.712	2611.55222
561.18	2801.29647
561.647	2950.34035
562.114	3195.36903
562.581	3441.77193
563.048	3688.29382
563.514	3865.55736
563.981	4158.0211
564.448	4440.74015
564.914	4848.74844
565.381	5174.44444
565.847	5533.43704
566.313	5916.25227
566.779	6348.99302
567.245	6685.15981
567.711	7035.3146
568.176	7559.31834
568.642	7942.97608
569.108	8528.59385
569.573	8984.33851
570.038	9577.93458
570.504	10109.51025
570.969	10713.34281
571.434	11379.18473
571.899	11805.87008
572.363	12533.74946
572.828	13176.25247
573.293	13698.41705
573.757	14470.19723
574.222	15216.09193
574.686	15668.81899
575.15	16313.75659
575.614	17008.69841
576.078	17285.59579
576.542	17964.84821
577.006	18374.52313
577.469	18624.29966
577.933	18979.96556
578.396	19361.47526
578.86	19371.86471
579.323	19564.33796
579.786	19523.26893
580.249	19506.73143
580.712	19563.48072
581.175	19308.77344
581.637	19306.40467
582.1	19175.82481
582.563	19033.36849
583.025	18686.78088
583.487	18332.47681
583.95	17870.0015
584.412	17624.15369
584.874	17236.05233
585.336	16851.95603
585.797	16418.77142
586.259	15869.71936
586.721	15474.70558
587.182	15236.13789
587.643	14712.54146
588.105	14400.97198
588.566	13840.6776
589.027	13596.90369
589.488	13093.62493
589.949	12804.85792
590.41	12244.31575
590.87	11985.14559
591.331	11690.88797
591.791	11297.36718
592.252	11060.29301
592.712	10789.80984
593.172	10469.80144
593.632	10306.25362
594.092	9864.67358
594.552	9553.80494
595.011	9331.12457
595.471	9042.4606
595.931	8797.9543
596.39	8521.54366
596.849	8228.0934
597.308	8144.87307
597.768	7857.976
598.227	7617.61783
598.685	7673.51281
599.144	7238.30034
599.603	7103.31136
600.062	7015.82209
600.52	6860.98312
600.978	6591.24952
601.437	6609.08796
601.895	6487.74363
602.353	6326.95414
602.811	6191.96053
603.269	6095.37382
603.727	6024.39214
604.184	5843.09878
604.642	5811.60212
605.099	5631.35579
605.557	5591.67575
606.014	5476.00229
606.471	5371.88812
606.928	5330.01498
607.385	5186.78872
607.842	5231.43875
608.299	5206.58069
608.755	5060.84605
609.212	5048.36278
609.668	5060.31052
610.125	4956.94256
610.581	4944.90491
611.037	4884.70409
611.493	4842.92912
611.949	4680.0937
612.405	4629.11665
612.861	4636.04654
613.316	4511.16148
613.772	4485.95398
614.227	4529.08506
614.683	4504.58434
615.138	4319.15838
615.593	4435.0613
616.048	4261.10088
616.503	4208.58565
616.958	4043.76829
617.412	4088.38727
617.867	3977.02828
618.321	3851.79736
618.776	3831.15825
619.23	3798.50753
619.684	3825.3008
620.138	3690.5383
620.592	3552.84206
621.046	3488.68487
621.5	3406.90286
621.954	3300.5349
622.407	3366.4526
622.861	3173.97865
623.314	3214.62941
623.768	3089.77203
624.221	3043.98559
624.674	2947.74817
625.127	2939.83949
625.58	2986.73158
626.033	2905.58862
626.485	2755.97277
626.938	2688.96446
627.39	2688.85235
627.843	2643.83236
628.295	2515.82077
628.747	2522.96023
629.199	2450.74268
629.651	2413.73408
630.103	2390.77351
630.555	2331.43953
631.006	2346.89004
631.458	2315.90832
631.909	2248.79706
632.361	2229.84773
632.812	2100.74906
633.263	2169.51045
633.714	2159.49112
634.165	2081.97587
634.616	2052.87696
635.067	2077.62247
635.518	1926.83038
635.968	2034.24306
636.419	1960.49832
636.869	1905.81665
637.319	1818.64339
637.769	1809.5178
638.219	1903.84899
638.669	1777.73977
639.119	1733.80287
639.569	1722.74708
640.019	1723.6033
640.468	1741.49355
640.918	1707.74662
641.367	1655.45069
641.816	1704.47967
642.265	1610.52047
642.714	1623.53449
643.163	1598.49434
643.612	1518.55155
644.061	1568.20282
644.51	1594.45949
644.958	1560.31873
645.406	1529.56532
645.855	1526.65355
646.303	1604.57143
646.751	1508.38502
647.199	1519.40053
647.647	1428.34762
648.095	1491.39883
648.543	1530.1109
648.99	1464.50529
649.438	1517.519
649.885	1482.65204
650.333	1472.9219
650.78	1432.51265
651.227	1401.50199
651.674	1392.29433
652.121	1421.53011
652.568	1401.49944
653.015	1471.72672
653.461	1373.40426
653.908	1414.3923
654.354	1403.45961
654.801	1299.28
655.247	1363.17417
655.693	1276.57623
656.139	1316.37178
656.585	1267.31498
657.031	1242.19709
657.477	1231.99336
657.922	1278.21212
658.368	1257.39097
658.813	1284.26117
659.259	1185.21349
659.704	1172.11992
660.149	1168.11693
660.594	1172.17249
661.039	1191.09074
661.484	1202.23708
661.929	1098.04096
662.373	1057.16505
662.818	1122.22369
663.262	1035.01908
663.707	1045.16348
664.151	1033.05695
664.595	1025.01178
665.039	1035.10756
665.483	992.09234
665.927	974.89011
666.371	954.81435
666.814	1048.03149
667.258	1000.93235
667.701	1020.77534
668.145	923.93513
668.588	974.98518
669.031	876.7336
669.474	905.83402
669.917	942.72391
670.36	890.87205
670.803	941.90097
671.245	883.55043
671.688	847.76946
672.13	841.5964
672.573	874.90109
673.015	817.68791
673.457	785.46605
673.899	799.67573
674.341	801.67107
674.783	793.6434
675.225	748.61107
675.666	670.42873
676.108	790.47286
676.549	759.56937
676.991	702.35902
677.432	749.28096
677.873	734.48748
678.314	704.48573
678.755	713.53201
679.196	648.32315
679.637	718.55169
680.078	714.47458
680.518	697.43975
680.959	648.39012
681.399	658.46126
681.839	661.43905
682.28	639.41639
682.72	598.23527
683.16	630.41349
683.6	660.34342
684.039	634.17743
684.479	557.24928
684.919	552.15846
685.358	624.4332
685.798	572.37158
686.237	602.32072
686.676	594.25113
687.115	595.26724
687.554	548.1915
687.993	597.19321
688.432	598.23582
688.871	539.11894
689.309	546.19469
689.748	558.06177
690.186	534.1738
690.625	524.12958
691.063	497.10355
691.501	563.27412
691.939	538.23351
692.377	510.14957
692.815	505.11577
693.253	549.21162
693.69	529.06637
694.128	514.14869
694.565	545.19275
695.003	556.29518
695.44	494.07528
695.877	481.04228
696.314	528.04263
696.751	570.1863
697.188	528.11435
697.625	522.106
698.061	482.0744
698.498	540.20241
698.934	512.13997
699.371	485.059
699.807	518.13047
700.243	479.07189
700.679	501.04963
701.115	525.14069
701.551	519.12811
701.987	510.05934
702.422	442.98507
702.858	465.03323
703.294	457.96889
703.729	472.07721
704.164	468.05045
704.599	479.99247
705.035	462.96431
705.47	429.98198
705.904	471.021
706.339	530.13618
706.774	505.09344
707.209	406.88463
707.643	463.03815
708.078	495.11821
708.512	410.96876
708.946	507.12533
709.38	450.99999
709.814	505.06736
710.248	493.11595
710.682	511.12246
711.116	449.00009
711.549	490.17741
711.983	466.00305
712.416	499.09376
712.85	418.9846
713.283	477.05029
713.716	498.16308
714.149	511.12717
714.582	515.06522
715.015	500.16319
715.448	442.04621
715.881	476.97017
716.313	416.91985
716.746	435.96206
717.178	422.95645
717.61	441.05047
718.043	433.01479
718.475	471.06434
718.907	461.09315
719.339	405.86653
719.77	438.97414
720.202	413.98773
720.634	429.98198
721.065	415.92855
721.497	439.00961
721.928	405.94044
722.359	386.88234
722.79	383.87037
723.221	410.977
723.652	479.15421
724.083	393.83904
724.514	443.95438
724.945	403.89576
725.375	371.81814
725.806	384.91226
726.236	448.07715
726.666	424.94575
727.096	372.86981
727.526	363.87977
727.956	362.78375
728.386	338.79838
728.816	356.86038
729.246	346.80395
729.675	356.83632
730.105	418.97158
730.534	385.85505
730.964	379.91267
731.393	380.89929
731.822	348.85118
732.251	350.85002
732.68	383.85803
733.109	320.7585
733.537	348.80349
733.966	334.79565
734.395	352.77641
734.823	331.7171
735.251	295.68669
735.68	364.87075
736.108	346.83842
736.536	323.73256
736.964	314.7013
737.392	289.69994
737.82	311.71936
738.247	351.8038
738.675	360.82159
739.102	287.69353
739.53	264.65295
739.957	296.73557
740.384	347.8201
740.811	289.70914
741.238	303.71336
741.665	263.59262
742.092	326.74821
742.519	259.62305
742.945	261.60947
743.372	254.61229
743.798	307.76109
744.225	248.57491
744.651	268.65311
745.077	265.64207
745.503	261.61951
745.929	268.62447
746.355	333.79555
746.781	277.66558
747.207	218.50097
747.632	235.5591
748.058	248.60325
748.483	235.5291
748.908	216.52621
749.334	234.56174
749.759	240.5524
750.184	197.46167
750.609	263.62835
751.033	276.63322
751.458	246.53877
751.883	217.52736
752.307	182.42293
752.732	171.42164
753.156	154.37714
753.58	266.61395
754.005	257.63483
754.429	199.46014
754.853	206.50092
755.277	223.51686
755.7	196.47838
756.124	218.52969
756.548	190.44361
756.971	217.51945
757.394	215.54276
757.818	165.41967
758.241	191.47683
758.664	145.36331
759.087	159.35183
759.51	184.45144
759.933	162.3858
760.356	154.39107
760.778	203.4902
761.201	185.44387
761.623	215.51172
762.046	233.54068
762.468	200.47282
762.89	201.48775
763.312	183.44074
763.734	146.34904
764.156	148.36258
764.578	151.34527
765	173.41697
765.421	123.31075
765.843	201.51735
766.264	220.5207
766.686	156.38812
767.107	130.31363
767.528	101.25462
767.949	154.38774
768.37	154.37448
768.791	150.3601
769.212	137.34141
769.632	118.27432
770.053	137.3579
770.473	184.44088
770.894	173.42767
771.314	172.40616
771.734	154.35574
772.154	153.38887
772.575	155.35627
772.994	99.22537
773.414	138.32953
773.834	127.3158
774.254	101.24721
774.673	169.40656
775.093	138.33884
775.512	111.2727
775.931	136.34218
776.351	110.27239
776.77	110.26819
777.189	126.29834
777.607	128.3247
778.026	111.27562
778.445	62.15588
778.864	109.27871
779.282	123.29456
779.701	88.22197
780.119	80.20244
780.537	88.21966
780.955	101.25653
781.373	135.33129
781.791	76.17165
782.209	154.35135
782.627	144.37535
783.045	114.26146
783.462	92.23479
783.88	130.33351
784.297	107.2682
784.715	86.22064
785.132	114.27483
785.549	62.15577
785.966	128.31951
786.383	97.23822
786.8	127.2932
787.217	120.28293
787.633	71.17758
788.05	150.3527
788.466	136.31828
788.883	54.13835
789.299	117.2803
789.715	122.29467
790.131	97.24068
790.547	103.25641
790.963	85.21098
791.379	127.31844
791.795	116.26359
792.21	129.29936
792.626	95.22516
793.041	94.23157
793.457	85.21006
793.872	119.27812
794.287	77.18398
794.702	106.26017
795.117	48.11995
795.532	82.20535
795.947	144.34294
796.362	109.25934
796.776	150.34747
797.191	121.29407
797.605	55.1298
798.02	75.18276
798.434	126.27864
798.848	96.23572
799.262	99.24465
799.676	126.30502
800.09	96.23554
800.504	138.33142
800.918	93.21513
801.331	110.28673
801.745	125.2849
802.158	72.18018
802.572	112.27021
802.985	134.32084
803.398	126.298
803.811	128.3262
804.224	115.2844
804.637	91.21635
805.05	129.29639
805.462	125.30459
805.875	44.11458
806.288	58.14041
806.7	88.2207
807.112	111.25595
807.525	144.35108
807.937	45.11186
808.349	112.27876
808.761	83.20399
809.173	129.30963
809.584	81.2001
809.996	68.16672
810.408	34.08829
810.819	75.17652
811.231	56.14503
811.642	65.15525
812.053	98.23205
812.464	127.29903
812.875	104.26429
813.286	122.31124
813.697	176.40397
814.108	130.31446
814.519	110.24377
814.929	137.3455
815.34	51.12427
815.75	99.25029
816.16	97.24077
816.571	75.19466
816.981	99.23283
817.391	93.22382
817.801	65.16163
818.211	107.2536
818.62	108.25829
819.03	118.28684
819.44	106.27517
819.849	102.25562
820.259	111.28213
820.668	70.1722
821.077	78.19343
821.486	131.31216
821.895	122.29878
822.304	78.20631
822.713	89.2098
823.122	89.22139
823.531	112.26355
823.939	119.28737
824.348	107.25849
824.756	87.21728
825.164	123.30664
825.573	93.23235
825.981	141.34524
826.389	136.33763
826.797	62.15549
827.205	85.1946
827.612	116.28387
828.02	66.15513
828.428	97.24576
828.835	115.30012
829.243	130.30639
829.65	56.13953
830.057	110.26498
830.464	61.14886
830.871	105.24982
831.278	100.24035
831.685	99.2198
832.092	83.2027
832.499	133.28729
832.905	126.31565
833.312	89.20236
833.718	115.28409
834.124	86.19597
834.531	92.23089
834.937	101.25762
835.343	91.21868
835.749	149.34275
836.155	81.21147
836.561	57.14045
836.966	138.33306
837.372	81.20559
837.777	51.12737
838.183	128.28129
838.588	88.21759
838.993	117.28222
839.399	59.14441
839.804	61.14875
840.209	79.20051
840.613	71.1579
841.018	101.25407
841.423	76.1945
841.828	132.32973
842.232	124.3039
842.637	76.17898
843.041	63.16143
843.445	90.22466
843.849	80.19745
844.253	93.21991
844.657	37.09358
845.061	70.15874
845.465	130.31007
845.869	110.2534
846.272	75.18221
846.676	121.28955
847.079	74.18772
847.483	131.32278
847.886	97.2346
848.289	66.17591
848.692	121.30318
849.095	124.2944
849.498	109.274
849.901	121.27445
850.304	113.26751
850.707	80.2033
851.109	148.36876
851.512	93.22721
851.914	41.10366
852.316	118.2954
852.718	-8.02089
853.121	82.20015
853.523	89.20694
853.925	72.18736
854.326	56.14009
854.728	84.21505
855.13	92.23586
855.531	79.18811
855.933	114.27097
856.334	79.19623
856.736	67.14993
857.137	95.21941
857.538	76.19047
857.939	95.23313
858.34	95.23002
858.741	61.15936
859.142	130.30817
859.542	43.11371
859.943	25.06251
860.343	47.11662
860.744	117.28243
861.144	82.19918
861.544	66.15839
861.945	76.19307
862.345	85.20689
862.745	79.19559
863.145	161.37745
863.544	68.17152
863.944	80.18825
864.344	104.25621
864.743	148.36124
865.143	101.25744
865.542	62.14374
865.941	111.27209
866.34	138.32562
866.74	103.2743
867.139	69.16486
867.537	88.223
867.936	69.16575
868.335	91.23015
868.734	77.19606
869.132	101.23271
869.531	91.21876
869.929	41.09379
870.327	53.12717
870.726	151.37014
871.124	124.2861
871.522	98.24781
871.92	109.2663
872.318	55.13452
872.715	107.26248
873.113	45.1099
873.511	86.21311
873.908	50.12634
874.306	59.14666
874.703	87.2165
875.1	103.26133
875.497	89.21208
875.894	32.07875
876.291	90.21951
876.688	78.20039
877.085	91.21693
877.482	114.28239
877.878	93.22229
878.275	80.20237
878.671	131.28734
879.068	85.2041
879.464	76.18301
879.86	31.07367
880.256	109.2664
880.652	80.20258
881.048	78.19251
881.444	116.27297
881.84	97.24471
882.236	118.29337
882.631	81.19789
883.027	93.22365
883.422	51.1305
883.817	55.13821
884.213	128.32424
884.608	34.0837
885.003	100.23907
885.398	56.14014
885.793	63.15791
886.188	20.05003
886.582	98.24949
886.977	97.22839
887.371	80.20143
887.766	28.06997
888.16	111.27421
888.554	131.31945
888.949	91.22703
889.343	113.27309
889.737	38.10152
890.131	87.21697
890.525	87.22121
890.918	44.11095
891.312	111.26278
891.706	77.20123
892.099	97.24497
892.492	122.25952
892.886	82.19963
893.279	66.16778
893.672	95.24009
894.065	87.21658
894.458	119.2958
894.851	108.26204
895.244	30.07694
895.637	97.23176
896.029	64.15621
896.422	88.21367
896.814	64.15883
897.206	37.08841
897.599	121.29561
897.991	95.22794
898.383	85.19967
898.775	57.1286
899.167	52.12132
899.559	84.2115
899.951	131.30424
900.342	135.33838
900.734	42.10442
901.125	141.36445
901.517	70.1713
901.908	92.21902
902.299	36.0883
902.69	127.29542
903.082	96.23065
903.473	71.16945
903.863	72.1831
904.254	103.23675
904.645	96.23694
905.036	57.13791
905.426	121.27333
905.817	114.27659
906.207	112.26386
906.597	71.16548
906.987	86.22164
907.378	68.17152
907.768	65.17149
908.158	97.2346
908.547	52.13434
908.937	100.25449
909.327	97.23362
909.717	132.33044
910.106	62.14868
910.495	90.22319
910.885	89.22397
911.274	87.2161
911.663	159.39595
912.052	103.25183
912.441	91.22982
912.83	66.15113
913.219	93.24172
913.608	119.28791
913.997	53.13285
914.385	103.24374
914.774	86.20811
915.162	81.19198
915.55	119.28433
915.939	78.19597
916.327	118.29102
916.715	68.17281
917.103	107.26073
917.491	105.25729
917.878	90.21976
918.266	113.28995
918.654	86.2184
919.041	59.15382
919.429	96.22467
919.816	109.27351
920.203	74.17874
920.591	72.1779
920.978	149.35832
921.365	94.24486
921.752	100.23623
922.139	125.26724
922.525	61.14625
922.912	95.22985
923.299	100.24635
923.685	77.19999
924.072	119.27079
924.458	46.11408
924.844	66.16289
925.231	75.17377
925.617	55.1398
926.003	131.33013
926.389	97.2427
926.774	92.23148
927.16	96.2365
927.546	67.17054
927.931	98.24249
928.317	106.24155
928.702	129.30066
929.088	59.13935
929.473	71.18002
929.858	45.10892
930.243	45.10814
930.628	75.18166
931.013	91.22389
931.398	125.28329
931.783	102.26624
932.167	104.25176
932.552	104.25809
932.937	121.29649
933.321	76.18985
933.705	73.18331
934.09	180.4444
934.474	110.25834
934.858	74.19118
935.242	76.17528
935.626	75.19117
936.009	62.16459
936.393	77.19502
936.777	83.21134
937.16	117.30095
937.544	99.2311
937.927	49.12437
938.311	96.2324
938.694	136.3545
939.077	54.1292
939.46	116.28145
939.843	107.22052
940.226	69.17643
940.609	80.1826
940.991	86.21754
941.374	86.20882
941.757	107.26131
942.139	81.18081
942.522	133.30937
942.904	106.25215
943.286	97.24445
943.668	88.22648
944.05	55.13537
944.432	62.15268
944.814	125.30368
945.196	38.09282
945.578	54.12826
945.959	136.31341
946.341	141.34036
946.722	90.20964
947.104	93.22051
947.485	105.24173
947.866	77.19308
948.247	60.15113
948.628	105.25356
949.009	59.15086
949.39	105.25881
949.771	115.26412
950.152	86.20968
950.532	24.05932
950.913	70.16824
951.293	69.18582
951.674	127.30274
952.054	113.27679
952.434	100.24599
952.814	116.27254
953.194	129.33309
953.574	119.28943
953.954	93.21906
954.334	85.21052
954.714	61.14836
955.093	114.27701
955.473	75.1867
955.853	83.21365
956.232	84.22898
956.611	105.24925
956.99	105.26129
957.37	66.16773
957.749	79.18746
958.128	95.23744
958.506	74.19118
958.885	124.30885
959.264	61.1492
959.643	96.21646
960.021	71.17527
960.4	71.16026
960.778	111.27038
961.156	70.17486
961.535	92.21269
961.913	82.1907
962.291	63.16126
962.669	59.14922
963.047	81.20559
963.424	99.25047
963.802	84.20526
964.18	133.33156
964.557	157.35393
964.935	114.2668
965.312	113.29107
965.69	107.2652
966.067	102.24599
966.444	128.31091
966.821	68.17476
967.198	87.20962
967.575	97.23645
967.952	101.23568
968.329	84.20312
968.705	114.24113
969.082	96.24422
969.458	39.09375
969.835	99.2388
970.211	64.16385
970.587	116.28535
970.963	65.16632
971.339	103.26651
971.715	115.28378
972.091	87.21279
972.467	99.24474
972.843	58.14373
973.219	140.33047
973.594	79.20561
973.97	124.291
974.345	78.18569
974.721	116.27742
975.096	101.24206
975.471	117.27398
975.846	117.27752
976.221	84.21203
976.596	88.20942
976.971	107.26141
977.346	129.29568
977.72	98.24754
978.095	94.24108
978.469	113.26648
978.844	142.35111
979.218	59.14119
979.593	121.28601
979.967	81.1962
980.341	78.17861
980.715	101.25216
981.089	76.18937
981.463	64.14655
981.837	88.21351
982.21	132.30225
982.584	61.14703
982.957	79.19623
983.331	101.23642
983.704	51.12529
984.078	70.17188
984.451	120.29595
984.824	57.13864
985.197	99.23826
985.57	98.24365
985.943	111.27108
986.316	128.30998
986.688	80.19184
987.061	74.17264
987.434	73.18947
987.806	112.26847
988.179	73.17148
988.551	104.26129
988.923	106.25834
989.295	137.33694
989.667	12.02887
990.039	59.14554
990.411	52.11964
990.783	123.2791
991.155	47.11299
991.527	171.41169
991.898	89.22018
992.27	102.24989
992.641	112.27785
993.012	92.21472
993.384	76.18037
993.755	110.27746
994.126	73.17482
994.497	79.19286
994.868	95.21626
995.239	119.28465
995.61	68.17054
995.98	51.12386
996.351	78.19216
996.722	39.09065
997.092	74.17441
997.462	35.08199
997.833	100.23477
998.203	92.22129
998.573	94.23217
998.943	102.23675
999.313	104.24663
999.683	93.22136
1000.053	145.32728
1000.423	84.20281
1000.792	68.17568
1001.162	81.19819
1001.531	99.24187
1001.901	92.22756
1002.27	84.18646
1002.639	98.24825
1003.009	103.24242
1003.378	71.18085
1003.747	96.22476
1004.116	59.14092
1004.485	129.30362
1004.853	128.31974
1005.222	78.19569
1005.591	103.24205
1005.959	57.12824
1006.328	84.1877
1006.696	32.07744
1007.064	120.29802
1007.433	110.27189
1007.801	100.24317
1008.169	97.24287
1008.537	119.25969
1008.905	129.2958
1009.273	122.29734
1009.64	88.20837
1010.008	73.17322
1010.375	135.32255
1010.743	195.43725
1011.11	48.11361
1011.478	109.26679
1011.845	74.17319
1012.212	90.20202
1012.579	75.18323
1012.946	129.30232
1013.313	136.31828
1013.68	117.25933
1014.047	47.11204
1014.414	103.24072
1014.78	91.22439
1015.147	107.25595
1015.513	120.28524
1015.88	103.26087
1016.246	126.30663
1016.612	136.3059
1016.978	54.1322
1017.344	82.20142
1017.71	142.34025
1018.076	106.2472
1018.442	138.34945
1018.808	94.23302
1019.174	92.22898
1019.539	137.30985
1019.905	62.14584
1020.27	64.15749
1020.636	100.23742
1021.001	75.17865
1021.366	64.15324
1021.731	98.24984
1022.096	57.14354
1022.461	89.20898
1022.826	96.22608
1023.191	82.21389
1023.556	82.19093
1023.92	98.23876
1024.285	115.27719
1024.649	127.30669
1025.014	102.25017
1025.378	93.23193
1025.742	114.2797
1026.107	129.287
1026.471	94.21749
1026.835	60.14841
1027.199	47.11316
1027.562	83.19162
1027.926	85.20643
1028.29	88.22109
1028.654	82.18739
1029.017	122.29578
1029.381	49.11703
1029.744	73.18535
1030.107	98.22962
1030.471	113.2672
1030.834	129.28867
1031.197	121.28745
1031.56	92.21523
1031.923	101.25871
1032.286	150.34526
1032.648	112.26458
1033.011	98.22269
1033.374	123.28487
1033.736	92.24006
1034.099	97.23424
1034.461	79.19845
1034.823	72.17849
1035.185	79.19773
1035.548	106.25515
1035.91	112.26499
1036.272	112.25161
1036.634	128.30846
1036.995	96.22353
1037.357	44.10712
1037.719	73.17669
1038.08	103.24195
1038.442	61.14441
1038.803	106.25167
1039.165	84.21059
1039.526	115.27435
1039.887	109.25774
1040.248	63.15478
1040.609	130.31636
1040.97	104.25148
1041.331	101.25325
1041.692	49.11434
1042.053	130.29109
1042.413	96.22159
1042.774	90.21713
1043.134	123.28859
1043.495	106.26363
1043.855	114.27306
1044.215	88.21679
1044.576	71.16899
1044.936	125.28214
1045.296	116.28588
1045.656	117.28339
1046.016	120.28567
1046.375	74.1786
1046.735	79.17795
1047.095	94.21801
1047.454	132.27455
1047.814	101.24031
1048.173	160.37401
1048.533	67.15289
1048.892	26.06266
1049.251	137.33831
1049.61	56.13765
1049.969	65.15269
1050.328	79.17014
1050.687	93.22433
1051.046	59.14334
1051.405	87.21484
1051.763	81.18499
1052.122	62.1542
1052.48	51.12497
1052.839	122.28283
1053.197	99.23065
1053.555	151.33706
1053.914	102.24692
1054.272	159.37626
1054.63	51.1246
1054.988	42.09987
1055.345	70.15001
1055.703	83.19839
1056.061	86.21971
1056.419	68.17537
1056.776	108.25888
1057.134	70.16132
1057.491	100.24799
1057.848	91.22472
1058.206	92.21447
1058.563	106.23079
1058.92	102.23253
1059.277	103.25145
1059.634	161.37036
1059.991	103.24412
1060.348	90.2016
1060.704	71.16841
1061.061	184.41589
1061.418	89.21411
1061.774	53.13069
1062.131	57.15043
1062.487	69.16063
1062.843	115.28315
1063.199	58.14394
1063.555	52.12036
1063.911	73.18351
1064.267	131.26816
1064.623	90.21681
1064.979	126.29396
1065.335	102.24124
1065.691	114.26972
1066.046	107.23232
1066.402	66.14937
1066.757	87.21799
1067.112	88.21431
1067.468	72.16917
1067.823	107.25429
1068.178	109.26053
1068.533	106.25409
1068.888	118.27811
1069.243	78.19138
1069.598	66.15977
1069.952	54.12141
1070.307	95.23305
1070.662	82.19334
1071.016	63.14069
1071.371	99.22282
1071.725	102.24142
1072.079	114.27066
1072.434	54.13102
1072.788	114.26795
1073.142	102.24831
1073.496	55.13026
1073.85	76.17521
1074.203	75.18098
1074.557	82.21674
1074.911	125.29386
1075.265	66.15283
1075.618	86.20842
1075.971	112.26304
1076.325	58.14708
1076.678	89.20179
1077.031	71.15986
1077.385	138.29816
1077.738	69.15504
1078.091	47.10686
1078.444	153.34773
1078.796	64.15651
1079.149	66.16355
1079.502	65.15299
1079.855	83.19215
1080.207	109.26541
1080.56	73.18778
1080.912	119.28574
1081.264	91.21726
1081.617	80.19374
1081.969	45.11353
1082.321	130.31245
1082.673	35.08006
1083.025	123.28747
1083.377	133.28015
1083.728	94.21723
1084.08	58.14446
1084.432	127.30158
1084.783	111.25677
1085.135	81.20171
1085.486	76.17284
1085.838	83.203
1086.189	82.19768
1086.54	119.28019
1086.891	43.10879
1087.242	98.23626
1087.593	105.2528
1087.944	111.24788
1088.295	123.27524
1088.646	80.19264
1088.996	61.14653
1089.347	105.25481
1089.698	101.23614
1090.048	105.2699
1090.398	115.26306
1090.749	57.13609
1091.099	40.10068
1091.449	141.34511
1091.799	95.23572
1092.149	23.05632
1092.499	87.21057
1092.849	105.26404
1093.199	119.29429
1093.548	83.19801
1093.898	94.23311
1094.248	92.23446
1094.597	35.0895
1094.947	127.33415
1095.296	36.08905
1095.645	78.20172
1095.994	89.212
1096.343	82.20498
1096.692	56.14682
1097.041	58.15669
1097.39	81.20186
1097.739	69.1786
1098.088	148.38973
1098.437	29.07638
1098.785	107.28552
1099.134	117.30691
1099.482	94.25649
1099.83	71.18574
1100.179	48.12512
1100.527	89.23473
1100.875	54.14254
1101.223	69.18247
1101.571	52.14352
1101.919	51.1331
1102.267	36.10148
1102.615	2.00643
1102.962	18.0579
1103.31	11.03532
1103.658	18.05793
